Energy (eV)          EEDF (eV^-(3/2))     First Anisotropy
1.15957446808511e-02 2.01828738391464e-01 1.10353581482034e-04
3.47872340425532e-02 2.00344593546295e-01 1.82167545103575e-04
5.79787234042553e-02 1.98871362344685e-01 2.40329303476680e-04
8.11702127659575e-02 1.97408964527511e-01 2.84422540863528e-04
1.04361702127660e-01 1.95957320433558e-01 3.21120207139454e-04
1.27553191489362e-01 1.94516350981038e-01 3.52947016344294e-04
1.50744680851064e-01 1.93085977681814e-01 3.81210374840704e-04
1.73936170212766e-01 1.91666122606825e-01 4.06700294995965e-04
1.97127659574468e-01 1.90256708420184e-01 4.29941059338636e-04
2.20319148936170e-01 1.88857658343748e-01 4.51303454973605e-04
2.43510638297872e-01 1.87468896158719e-01 4.71062128138774e-04
2.66702127659574e-01 1.86090346219571e-01 4.89427822174267e-04
2.89893617021277e-01 1.84721933430045e-01 5.06566819128429e-04
3.13085106382979e-01 1.83363583242105e-01 5.22613318267502e-04
3.36276595744681e-01 1.82015221665172e-01 5.37677674824508e-04
3.59468085106383e-01 1.80676775247768e-01 5.51852080819944e-04
3.82659574468085e-01 1.79348171075280e-01 5.65214597598649e-04
4.05851063829787e-01 1.78029336776490e-01 5.77832097507255e-04
4.29042553191489e-01 1.76720200505449e-01 5.89762453117610e-04
4.52234042553191e-01 1.75420690951095e-01 6.01056198693239e-04
4.75425531914894e-01 1.74130737323311e-01 6.11757814124415e-04
4.98617021276596e-01 1.72850269350006e-01 6.21906727410145e-04
5.21808510638298e-01 1.71579217281241e-01 6.31538112892747e-04
5.45000000000000e-01 1.70317511877142e-01 6.40683532334666e-04
5.68191489361702e-01 1.69065084404853e-01 6.49371452710342e-04
5.91382978723404e-01 1.67821866641507e-01 6.57627673012501e-04
6.14574468085106e-01 1.66587790863522e-01 6.65475677196503e-04
6.37765957446809e-01 1.65362789843469e-01 6.72936926052370e-04
6.60957446808511e-01 1.64146796852196e-01 6.80031104564332e-04
6.84148936170213e-01 1.62939745649207e-01 6.86776331111547e-04
7.07340425531915e-01 1.61741570479465e-01 6.93189333336082e-04
7.30531914893617e-01 1.60552206074887e-01 6.99285600996724e-04
7.53723404255319e-01 1.59371587644009e-01 7.05079516456729e-04
7.76914893617021e-01 1.58199650875044e-01 7.10584467511085e-04
8.00106382978723e-01 1.57036331927450e-01 7.15812946628522e-04
8.23297872340426e-01 1.55881567428758e-01 7.20776635429299e-04
8.46489361702128e-01 1.54735294475378e-01 7.25486480671132e-04
8.69680851063830e-01 1.53597450624794e-01 7.29952761167076e-04
8.92872340425532e-01 1.52467973892430e-01 7.34185145091555e-04
9.16063829787234e-01 1.51346802752078e-01 7.38192742587114e-04
9.39255319148936e-01 1.50233876128641e-01 7.41984152592458e-04
9.62446808510638e-01 1.49129133395016e-01 7.45567502925832e-04
9.85638297872340e-01 1.48032514372235e-01 7.48950488031191e-04
1.00882978723404e+00 1.46943959321594e-01 7.52140401640445e-04
1.03202127659574e+00 1.45863408947946e-01 7.55144167699073e-04
1.05521276595745e+00 1.44790804385854e-01 7.57968366841997e-04
1.07840425531915e+00 1.43726087205941e-01 7.60619259523976e-04
1.10159574468085e+00 1.42669199408488e-01 7.63102809829232e-04
1.12478723404255e+00 1.41620083420255e-01 7.65424705053110e-04
1.14797872340426e+00 1.40578682091382e-01 7.67590374057225e-04
1.17117021276596e+00 1.39544938692262e-01 7.69605004036703e-04
1.19436170212766e+00 1.38518796910442e-01 7.71473555850925e-04
1.21755319148936e+00 1.37500200847563e-01 7.73200778080478e-04
1.24074468085106e+00 1.36489095016311e-01 7.74791219936493e-04
1.26393617021277e+00 1.35485424337396e-01 7.76249241655165e-04
1.28712765957447e+00 1.34489134144272e-01 7.77579029921223e-04
1.31031914893617e+00 1.33500170156758e-01 7.78784604962356e-04
1.33351063829787e+00 1.32518478501729e-01 7.79869826859653e-04
1.35670212765957e+00 1.31544005702214e-01 7.80838408774551e-04
1.37989361702128e+00 1.30576698674483e-01 7.81693923430272e-04
1.40308510638298e+00 1.29616504725153e-01 7.82439810558103e-04
1.42627659574468e+00 1.28663371548323e-01 7.83079383821385e-04
1.44946808510638e+00 1.27717247222720e-01 7.83615837263095e-04
1.47265957446809e+00 1.26778080208870e-01 7.84052251315846e-04
1.49585106382979e+00 1.25845819346288e-01 7.84391598409117e-04
1.51904255319149e+00 1.24920413850706e-01 7.84636748213339e-04
1.54223404255319e+00 1.24001813311294e-01 7.84790472547047e-04
1.56542553191489e+00 1.23089967687917e-01 7.84855449969812e-04
1.58861702127660e+00 1.22184827308409e-01 7.84834270090106e-04
1.61180851063830e+00 1.21286342865867e-01 7.84729437609297e-04
1.63500000000000e+00 1.20394465415964e-01 7.84543374961927e-04
1.65819148936170e+00 1.19509146379602e-01 7.84278429391220e-04
1.68138297872340e+00 1.18630337524167e-01 7.83936873964329e-04
1.70457446808511e+00 1.17757990977150e-01 7.83520908372550e-04
1.72776595744681e+00 1.16892059218070e-01 7.83032665500269e-04
1.75095744680851e+00 1.16032495075884e-01 7.82474213046884e-04
1.77414893617021e+00 1.15179251726425e-01 7.81847556194376e-04
1.79734042553191e+00 1.14332282689843e-01 7.81154640129786e-04
1.82053191489362e+00 1.13491541828076e-01 7.80397352433260e-04
1.84372340425532e+00 1.12656983342336e-01 7.79577525337819e-04
1.86691489361702e+00 1.11828561770616e-01 7.78696937871855e-04
1.89010638297872e+00 1.11006231985213e-01 7.77757317894118e-04
1.91329787234043e+00 1.10189949190273e-01 7.76760344023618e-04
1.93648936170213e+00 1.09379668919344e-01 7.75707647472637e-04
1.95968085106383e+00 1.08575347032959e-01 7.74600813789841e-04
1.98287234042553e+00 1.07776939716229e-01 7.73441384518226e-04
2.00606382978723e+00 1.06984403476456e-01 7.72230857842597e-04
2.02925531914894e+00 1.06197695144624e-01 7.70970692903741e-04
2.05244680851064e+00 1.05416771861374e-01 7.69662309346997e-04
2.07563829787234e+00 1.04641591086442e-01 7.68307086785399e-04
2.09882978723404e+00 1.03872110592381e-01 7.66906368975157e-04
2.12202127659574e+00 1.03108288462264e-01 7.65461464097400e-04
2.14521276595745e+00 1.02350083087398e-01 7.63973645947898e-04
2.16840425531915e+00 1.01597453165059e-01 7.62444155074360e-04
2.19159574468085e+00 1.00850357696242e-01 7.60874199864932e-04
2.21478723404255e+00 1.00108755983423e-01 7.59264957587421e-04
2.23797872340426e+00 9.93726076283528e-02 7.57617575385923e-04
2.26117021276596e+00 9.86418725298461e-02 7.55933171237274e-04
2.28436170212766e+00 9.79165108816030e-02 7.54212834865139e-04
2.30755319148936e+00 9.71964831700381e-02 7.52457628617494e-04
2.33074468085106e+00 9.64817501721283e-02 7.50668588308401e-04
2.35393617021277e+00 9.57722729532760e-02 7.48846723256775e-04
2.37712765957447e+00 9.50680128681314e-02 7.46993019383612e-04
2.40031914893617e+00 9.43689315495897e-02 7.45108438401827e-04
2.42351063829787e+00 9.36749909156692e-02 7.43193916959974e-04
2.44670212765957e+00 9.29861531644228e-02 7.41250369701856e-04
2.46989361702128e+00 9.23023807718796e-02 7.39278689133597e-04
2.49308510638298e+00 9.16236364900003e-02 7.37279746261255e-04
2.51627659574468e+00 9.09498833446486e-02 7.35254391204478e-04
2.53946808510638e+00 9.02810846335765e-02 7.33203453787693e-04
2.56265957446809e+00 8.96172039244248e-02 7.31127744109542e-04
2.58585106382979e+00 8.89582050527382e-02 7.29028053090901e-04
2.60904255319149e+00 8.83040521199976e-02 7.26905153004502e-04
2.63223404255319e+00 8.76547094916630e-02 7.24759797985843e-04
2.65542553191489e+00 8.70101417952321e-02 7.22592724525136e-04
2.67861702127660e+00 8.63703139183142e-02 7.20404651942750e-04
2.70180851063830e+00 8.57351910067164e-02 7.18196282848080e-04
2.72500000000000e+00 8.51047384625458e-02 7.15968302947211e-04
2.74819148936170e+00 8.44789219445850e-02 7.13721383389196e-04
2.77138297872340e+00 8.38577073595892e-02 7.11456179895197e-04
2.79457446808511e+00 8.32410608673125e-02 7.09173331859162e-04
2.81776595744681e+00 8.26289488763529e-02 7.06873464693315e-04
2.84095744680851e+00 8.20213380423219e-02 7.04557189545595e-04
2.86414893617021e+00 8.14181952660286e-02 7.02225103661926e-04
2.88734042553192e+00 8.08194876916764e-02 6.99877790736814e-04
2.91053191489362e+00 8.02251827050729e-02 6.97515821253129e-04
2.93372340425532e+00 7.96352479318530e-02 6.95139752810441e-04
2.95691489361702e+00 7.90496512357163e-02 6.92750130443185e-04
2.98010638297872e+00 7.84683607166767e-02 6.90347486929921e-04
3.00329787234043e+00 7.78913447093239e-02 6.87932343092610e-04
3.02648936170213e+00 7.73185717810990e-02 6.85505208086405e-04
3.04968085106383e+00 7.67500107305817e-02 6.83066579680924e-04
3.07287234042553e+00 7.61856305857908e-02 6.80616944533234e-04
3.09606382978723e+00 7.56254006024971e-02 6.78156777922559e-04
3.11925531914894e+00 7.50692902643178e-02 6.75686545606509e-04
3.14244680851064e+00 7.45172692757085e-02 6.73206702999608e-04
3.16563829787234e+00 7.39693075656970e-02 6.70717694331689e-04
3.18882978723404e+00 7.34253752844376e-02 6.68219954516007e-04
3.21202127659574e+00 7.28854428015848e-02 6.65713908830190e-04
3.23521276595745e+00 7.23494807046795e-02 6.63199973138256e-04
3.25840425531915e+00 7.18174597975464e-02 6.60678554106283e-04
3.28159574468085e+00 7.12893510987041e-02 6.58150049412454e-04
3.30478723404255e+00 7.07651258397848e-02 6.55614847950343e-04
3.32797872340426e+00 7.02447554639695e-02 6.53073330027230e-04
3.35117021276596e+00 6.97282116244314e-02 6.50525867557516e-04
3.37436170212766e+00 6.92154661827915e-02 6.47972824250058e-04
3.39755319148936e+00 6.87064912075860e-02 6.45414555790670e-04
3.42074468085106e+00 6.82012589727448e-02 6.42851410019851e-04
3.44393617021277e+00 6.76997419560807e-02 6.40283726656026e-04
3.46712765957447e+00 6.72019128392143e-02 6.37711838820798e-04
3.49031914893617e+00 6.67077445017852e-02 6.35136072294484e-04
3.51351063829787e+00 6.62172100243048e-02 6.32556744756110e-04
3.53670212765957e+00 6.57302826852368e-02 6.29974167324385e-04
3.55989361702128e+00 6.52469359595413e-02 6.27388644244629e-04
3.58308510638298e+00 6.47671435172295e-02 6.24800473036466e-04
3.60627659574468e+00 6.42908792219303e-02 6.22209944637819e-04
3.62946808510638e+00 6.38181171294655e-02 6.19617343545181e-04
3.65265957446809e+00 6.33488314864370e-02 6.17022947950437e-04
3.67585106382979e+00 6.28829967288237e-02 6.14427029873930e-04
3.69904255319149e+00 6.24205874805894e-02 6.11829855294502e-04
3.72223404255319e+00 6.19615785523004e-02 6.09231684276719e-04
3.74542553191489e+00 6.15059449397530e-02 6.06632771094464e-04
3.76861702127660e+00 6.10536618226115e-02 6.04033364351615e-04
3.79180851063830e+00 6.06047045630562e-02 6.01433707099895e-04
3.81500000000000e+00 6.01590487044413e-02 5.98834036573979e-04
3.83819148936170e+00 5.97166699711051e-02 5.96234585449742e-04
3.86138297872340e+00 5.92775442635966e-02 5.93635581186760e-04
3.88457446808511e+00 5.88416476608374e-02 5.91037245358453e-04
3.90776595744681e+00 5.84089564176523e-02 5.88439794926489e-04
3.93095744680851e+00 5.79794469634758e-02 5.85843441950551e-04
3.95414893617021e+00 5.75530959010682e-02 5.83248393687928e-04
3.97734042553192e+00 5.71298800052412e-02 5.80654852690934e-04
4.00053191489362e+00 5.67097762215923e-02 5.78063016902068e-04
4.02372340425532e+00 5.62927616652490e-02 5.75473079746715e-04
4.04691489361702e+00 5.58788136196226e-02 5.72885230223890e-04
4.07010638297872e+00 5.54679095351704e-02 5.70299652995154e-04
4.09329787234043e+00 5.50600270281677e-02 5.67716528471363e-04
4.11648936170213e+00 5.46551438794880e-02 5.65136032897512e-04
4.13968085106383e+00 5.42532380333930e-02 5.62558338435520e-04
4.16287234042553e+00 5.38542875963306e-02 5.59983613245284e-04
4.18606382978723e+00 5.34582708357430e-02 5.57412021241681e-04
4.20925531914894e+00 5.30651661798078e-02 5.54843723144459e-04
4.23244680851064e+00 5.26749522134681e-02 5.52278875903345e-04
4.25563829787234e+00 5.22876076800794e-02 5.49717632112978e-04
4.27882978723404e+00 5.19031114793075e-02 5.47160141078093e-04
4.30202127659575e+00 5.15214426659795e-02 5.44606548551847e-04
4.32521276595745e+00 5.11425804489423e-02 5.42056996805208e-04
4.34840425531915e+00 5.07665041899301e-02 5.39511624694912e-04
4.37159574468085e+00 5.03931934024407e-02 5.36970567730200e-04
4.39478723404255e+00 5.00226277506181e-02 5.34433958137651e-04
4.41797872340426e+00 4.96547870481467e-02 5.31901924924875e-04
4.44117021276596e+00 4.92896512571502e-02 5.29374593943268e-04
4.46436170212766e+00 4.89272004871009e-02 5.26852087948950e-04
4.48755319148936e+00 4.85674149937354e-02 5.24334526662554e-04
4.51074468085106e+00 4.82102751779798e-02 5.21822026827832e-04
4.53393617021277e+00 4.78557615848814e-02 5.19314701991859e-04
4.55712765957447e+00 4.75038549033146e-02 5.16812663397351e-04
4.58031914893617e+00 4.71545359626182e-02 5.14316019478179e-04
4.60351063829787e+00 4.68077857338769e-02 5.11824875346442e-04
4.62670212765957e+00 4.64635853281039e-02 5.09339333698738e-04
4.64989361702128e+00 4.61219159952125e-02 5.06859494581848e-04
4.67308510638298e+00 4.57827591229944e-02 5.04385455443346e-04
4.69627659574468e+00 4.54460962361058e-02 5.01917311181289e-04
4.71946808510638e+00 4.51119089950612e-02 4.99455154192969e-04
4.74265957446809e+00 4.47801791952340e-02 4.96999074422553e-04
4.76585106382979e+00 4.44508887658651e-02 4.94549159407711e-04
4.78904255319149e+00 4.41240197690785e-02 4.92105494325513e-04
4.81223404255319e+00 4.37995543989044e-02 4.89668162037434e-04
4.83542553191489e+00 4.34774749803084e-02 4.87237243133303e-04
4.85861702127660e+00 4.31577639682298e-02 4.84812815974482e-04
4.88180851063830e+00 4.28404039466248e-02 4.82394956736119e-04
4.90500000000000e+00 4.25253776275185e-02 4.79983739211852e-04
4.92819148936170e+00 4.22126678506912e-02 4.77579235568961e-04
4.95138297872340e+00 4.19022575808464e-02 4.75181515910160e-04
4.97457446808511e+00 4.15941299085922e-02 4.72790647828346e-04
4.99776595744681e+00 4.12882680488798e-02 4.70406697174198e-04
5.02095744680851e+00 4.09846553400888e-02 4.68029727849413e-04
5.04414893617021e+00 4.06832752431199e-02 4.65659801843564e-04
5.06734042553192e+00 4.03841113404938e-02 4.63296979270270e-04
5.09053191489362e+00 4.00871473354570e-02 4.60941318402804e-04
5.11372340425532e+00 3.97923670510936e-02 4.58592875708838e-04
5.13691489361702e+00 3.94997544294446e-02 4.56251705884555e-04
5.16010638297872e+00 3.92092935306331e-02 4.53917861888237e-04
5.18329787234043e+00 3.89209685319956e-02 4.51591394973210e-04
5.20648936170213e+00 3.86347637272206e-02 4.49272354720140e-04
5.22968085106383e+00 3.83506635254925e-02 4.46960789068600e-04
5.25287234042553e+00 3.80686524506428e-02 4.44656744348163e-04
5.27606382978723e+00 3.77887151403064e-02 4.42360265105996e-04
5.29925531914894e+00 3.75108363456051e-02 4.40071394749004e-04
5.32244680851064e+00 3.72350009287477e-02 4.37790175163575e-04
5.34563829787234e+00 3.69611938637845e-02 4.35516646329333e-04
5.36882978723404e+00 3.66894002352585e-02 4.33250846972315e-04
5.39202127659575e+00 3.64196052373934e-02 4.30992814383267e-04
5.41521276595745e+00 3.61517941732871e-02 4.28742584444986e-04
5.43840425531915e+00 3.58859524541109e-02 4.26500191659051e-04
5.46159574468085e+00 3.56220655983145e-02 4.24265669172117e-04
5.48478723404255e+00 3.53601192308378e-02 4.22039048801618e-04
5.50797872340426e+00 3.51000990823273e-02 4.19820361061085e-04
5.53117021276596e+00 3.48419909883592e-02 4.17609635185149e-04
5.55436170212766e+00 3.45857808886675e-02 4.15406899153914e-04
5.57755319148936e+00 3.43314548263781e-02 4.13212179716892e-04
5.60074468085106e+00 3.40789989472486e-02 4.11025502416583e-04
5.62393617021277e+00 3.38283994989137e-02 4.08846891435612e-04
5.64712765957447e+00 3.35796428305720e-02 4.06676370150117e-04
5.67031914893617e+00 3.33327153909258e-02 4.04513960797077e-04
5.69351063829787e+00 3.30876037287678e-02 4.02359684136356e-04
5.71670212765958e+00 3.28442944918041e-02 4.00213560013785e-04
5.73989361702128e+00 3.26027744259264e-02 3.98075607200774e-04
5.76308510638298e+00 3.23630303744905e-02 3.95945843415069e-04
5.78627659574468e+00 3.21250492775993e-02 3.93824285341067e-04
5.80946808510638e+00 3.18888181713915e-02 3.91710948649904e-04
5.83265957446809e+00 3.16543241873354e-02 3.89605848019091e-04
5.85585106382979e+00 3.14215545515276e-02 3.87508997151754e-04
5.87904255319149e+00 3.11904965839977e-02 3.85420408795574e-04
5.90223404255319e+00 3.09611376980173e-02 3.83340094761524e-04
5.92542553191489e+00 3.07334653994140e-02 3.81268065942173e-04
5.94861702127660e+00 3.05074672858916e-02 3.79204332329558e-04
5.97180851063830e+00 3.02831310463536e-02 3.77148903032933e-04
5.99500000000000e+00 3.00604444602332e-02 3.75101786144636e-04
6.01819148936170e+00 2.98393953971909e-02 3.73062989213966e-04
6.04138297872341e+00 2.96199718153563e-02 3.71032518958347e-04
6.06457446808511e+00 2.94021617617763e-02 3.69010380970021e-04
6.08776595744681e+00 2.91859533713937e-02 3.66996580198472e-04
6.11095744680851e+00 2.89713348664007e-02 3.64991120810013e-04
6.13414893617021e+00 2.87582945555977e-02 3.62994006203428e-04
6.15734042553192e+00 2.85468208337560e-02 3.61005239025308e-04
6.18053191489362e+00 2.83369021809857e-02 3.59024821185154e-04
6.20372340425532e+00 2.81285271621084e-02 3.57052753870126e-04
6.22691489361702e+00 2.79216844260338e-02 3.55089037559568e-04
6.25010638297872e+00 2.77163627051421e-02 3.53133672039384e-04
6.27329787234043e+00 2.75125508146696e-02 3.51186656416082e-04
6.29648936170213e+00 2.73102376520996e-02 3.49247989130599e-04
6.31968085106383e+00 2.71094121965576e-02 3.47317667971837e-04
6.34287234042553e+00 2.69100635082108e-02 3.45395690089999e-04
6.36606382978723e+00 2.67121807276727e-02 3.43482051879101e-04
6.38925531914894e+00 2.65157530757151e-02 3.41576749383862e-04
6.41244680851064e+00 2.63207698517630e-02 3.39679778048762e-04
6.43563829787234e+00 2.61272204342353e-02 3.37791132463345e-04
6.45882978723404e+00 2.59350942796567e-02 3.35910806776609e-04
6.48202127659575e+00 2.57443809220833e-02 3.34038794574189e-04
6.50521276595745e+00 2.55550699725322e-02 3.32175088890209e-04
6.52840425531915e+00 2.53671511184157e-02 3.30319682218879e-04
6.55159574468085e+00 2.51806141229797e-02 3.28472566525945e-04
6.57478723404255e+00 2.49954488247458e-02 3.26633733259810e-04
6.59797872340426e+00 2.48116451369579e-02 3.24803173362569e-04
6.62117021276596e+00 2.46291930470328e-02 3.22980877280983e-04
6.64436170212766e+00 2.44480826160146e-02 3.21166834976996e-04
6.66755319148936e+00 2.42683039780336e-02 3.19361035938234e-04
6.69074468085106e+00 2.40898473397682e-02 3.17563469188352e-04
6.71393617021277e+00 2.39127029799123e-02 3.15774123183220e-04
6.73712765957447e+00 2.37368612489034e-02 3.13992986164274e-04
6.76031914893617e+00 2.35623125676174e-02 3.12220045938629e-04
6.78351063829787e+00 2.33890474276316e-02 3.10455289655812e-04
6.80670212765957e+00 2.32170563904430e-02 3.08698704167646e-04
6.82989361702128e+00 2.30463300869547e-02 3.06950275920105e-04
6.85308510638298e+00 2.28768592169652e-02 3.05209990962413e-04
6.87627659574468e+00 2.27086345486620e-02 3.03477834955997e-04
6.89946808510638e+00 2.25416469181185e-02 3.01753793183342e-04
6.92265957446809e+00 2.23758872287949e-02 3.00037850556637e-04
6.94585106382979e+00 2.22113464510427e-02 2.98329991626239e-04
6.96904255319149e+00 2.20480156216128e-02 2.96630200589075e-04
6.99223404255319e+00 2.18858858431673e-02 2.94938461296885e-04
7.01542553191489e+00 2.17249482837945e-02 2.93254757264319e-04
7.03861702127660e+00 2.15651941765284e-02 2.91579071676913e-04
7.06180851063830e+00 2.14066148188706e-02 2.89911387398802e-04
7.08500000000000e+00 2.12492015723162e-02 2.88251686881962e-04
7.10819148936170e+00 2.10929458621013e-02 2.86599952470864e-04
7.13138297872340e+00 2.09378391760788e-02 2.84956166211153e-04
7.15457446808511e+00 2.07838730649155e-02 2.83320309655492e-04
7.17776595744681e+00 2.06310391414102e-02 2.81692364173947e-04
7.20095744680851e+00 2.04793290800370e-02 2.80072310859410e-04
7.22414893617021e+00 2.03287346164914e-02 2.78460130534498e-04
7.24734042553192e+00 2.01792475472405e-02 2.76855803758378e-04
7.27053191489362e+00 2.00308597290759e-02 2.75259310833482e-04
7.29372340425532e+00 1.98835630786702e-02 2.73670631812072e-04
7.31691489361702e+00 1.97373495721365e-02 2.72089746502665e-04
