Energy (eV)          EEDF (eV^-(3/2))     First Anisotropy
3.50000000000000e-02 4.69715406903502e-02 2.75067979995887e-05
1.05000000000000e-01 4.65771508842988e-02 4.53834242072345e-05
1.75000000000000e-01 4.61860725157017e-02 5.98103680573274e-05
2.45000000000000e-01 4.57982777805490e-02 7.07094161330359e-05
3.15000000000000e-01 4.54137391082832e-02 7.97488385110567e-05
3.85000000000000e-01 4.50324291598393e-02 8.75608035434060e-05
4.55000000000000e-01 4.46543208257006e-02 9.44731567349976e-05
5.25000000000000e-01 4.42793872239717e-02 1.00684286055358e-04
5.95000000000000e-01 4.39076016984671e-02 1.06326035810200e-04
6.65000000000000e-01 4.35389378168163e-02 1.11491780301058e-04
7.35000000000000e-01 4.31733693685842e-02 1.16250779544203e-04
8.05000000000000e-01 4.28108703634080e-02 1.20656251929912e-04
8.75000000000000e-01 4.24514150291492e-02 1.24750245214710e-04
9.45000000000000e-01 4.20949778100614e-02 1.28566740519811e-04
1.01500000000000e+00 4.17415333649734e-02 1.32133718544092e-04
1.08500000000000e+00 4.13910565654873e-02 1.35474585022954e-04
1.15500000000000e+00 4.10435224941924e-02 1.38609183954807e-04
1.22500000000000e+00 4.06989064428935e-02 1.41554536306157e-04
1.29500000000000e+00 4.03571839108540e-02 1.44325390451244e-04
1.36500000000000e+00 4.00183306030544e-02 1.46934640185816e-04
1.43500000000000e+00 3.96823224284649e-02 1.49393647510801e-04
1.50500000000000e+00 3.93491354983322e-02 1.51712495588457e-04
1.57500000000000e+00 3.90187461244821e-02 1.53900189605832e-04
1.64500000000000e+00 3.86911308176341e-02 1.55964818171575e-04
1.71500000000000e+00 3.83662662857327e-02 1.57913684393962e-04
1.78500000000000e+00 3.80441294322902e-02 1.59753413373457e-04
1.85500000000000e+00 3.77246973547458e-02 1.61490041137188e-04
1.92500000000000e+00 3.74079473428364e-02 1.63129088818146e-04
1.99500000000000e+00 3.70938568769825e-02 1.64675624989958e-04
2.06500000000000e+00 3.67824036266871e-02 1.66134318410015e-04
2.13500000000000e+00 3.64735654489477e-02 1.67509482931854e-04
2.20500000000000e+00 3.61673203866827e-02 1.68805115976117e-04
2.27500000000000e+00 3.58636466671699e-02 1.70024931665777e-04
2.34500000000000e+00 3.55625227004985e-02 1.71172389512665e-04
2.41500000000000e+00 3.52639270780344e-02 1.72250719372225e-04
2.48500000000000e+00 3.49678385708980e-02 1.73262943249983e-04
2.55500000000000e+00 3.46742361284550e-02 1.74211894437802e-04
2.62500000000000e+00 3.43830988768196e-02 1.75100234374009e-04
2.69500000000000e+00 3.40944061173708e-02 1.75930467554011e-04
2.76500000000000e+00 3.38081373252804e-02 1.76704954763821e-04
2.83500000000000e+00 3.35242721480540e-02 1.77425924864692e-04
2.90500000000000e+00 3.32427904040841e-02 1.78095485320915e-04
2.97500000000000e+00 3.29636720812152e-02 1.78715631633395e-04
3.04500000000000e+00 3.26868973353208e-02 1.79288255817057e-04
3.11500000000000e+00 3.24124464888930e-02 1.79815154039802e-04
3.18500000000000e+00 3.21403000296431e-02 1.80298033523964e-04
3.25500000000000e+00 3.18704386091145e-02 1.80738518797016e-04
3.32500000000000e+00 3.16028430413074e-02 1.81138157366308e-04
3.39500000000000e+00 3.13374943013142e-02 1.81498424882622e-04
3.46500000000000e+00 3.10743735239675e-02 1.81820729848796e-04
3.53500000000000e+00 3.08134620024982e-02 1.82106417922480e-04
3.60500000000000e+00 3.05547411872063e-02 1.82356775855861e-04
3.67500000000000e+00 3.02981926841414e-02 1.82573035109870e-04
3.74500000000000e+00 3.00437982537954e-02 1.82756375175879e-04
3.81500000000000e+00 2.97915398098057e-02 1.82907926633971e-04
3.88500000000000e+00 2.95413994176689e-02 1.83028773973468e-04
3.95500000000000e+00 2.92933592934666e-02 1.83119958198429e-04
4.02500000000000e+00 2.90474018026001e-02 1.83182479238354e-04
4.09500000000000e+00 2.88035094585372e-02 1.83217298182019e-04
4.16500000000000e+00 2.85616649215689e-02 1.83225339350440e-04
4.23500000000000e+00 2.83218509975767e-02 1.83207492223306e-04
4.30500000000000e+00 2.80840506368099e-02 1.83164613231681e-04
4.37500000000000e+00 2.78482469326735e-02 1.83097527428431e-04
4.44500000000000e+00 2.76144231205264e-02 1.83007030046728e-04
4.51500000000000e+00 2.73825625764895e-02 1.82893887955908e-04
4.58500000000000e+00 2.71526488162637e-02 1.82758841023116e-04
4.65500000000000e+00 2.69246654939577e-02 1.82602603388242e-04
4.72500000000000e+00 2.66985964009264e-02 1.82425864659038e-04
4.79500000000000e+00 2.64744254646181e-02 1.82229291032624e-04
4.86500000000000e+00 2.62521367474323e-02 1.82013526349044e-04
4.93500000000000e+00 2.60317144455858e-02 1.81779193081973e-04
5.00500000000000e+00 2.58131428879899e-02 1.81526893271245e-04
5.07500000000000e+00 2.55964065351358e-02 1.81257209401496e-04
5.14500000000000e+00 2.53814899779902e-02 1.80970705230775e-04
5.21500000000000e+00 2.51683779368994e-02 1.80667926572685e-04
5.28500000000000e+00 2.49570552605029e-02 1.80349402035320e-04
5.35500000000000e+00 2.47475069246567e-02 1.80015643720001e-04
5.42500000000000e+00 2.45397180313648e-02 1.79667147882484e-04
5.49500000000000e+00 2.43336738077202e-02 1.79304395559241e-04
5.56500000000000e+00 2.41293596048543e-02 1.78927853161083e-04
5.63500000000000e+00 2.39267608968956e-02 1.78537973036238e-04
5.70500000000000e+00 2.37258632799372e-02 1.78135194004920e-04
5.77500000000000e+00 2.35266524710125e-02 1.77719941867143e-04
5.84500000000000e+00 2.33291143070796e-02 1.77292629885478e-04
5.91500000000000e+00 2.31332347440147e-02 1.76853659244310e-04
5.98500000000000e+00 2.29389998556134e-02 1.76403419487048e-04
6.05500000000000e+00 2.27463958326009e-02 1.75942288932591e-04
6.12500000000000e+00 2.25554089816496e-02 1.75470635072280e-04
6.19500000000000e+00 2.23660257244063e-02 1.74988814948522e-04
6.26500000000000e+00 2.21782325965264e-02 1.74497175516160e-04
6.33500000000000e+00 2.19920162467166e-02 1.73996053987485e-04
6.40500000000000e+00 2.18073634357860e-02 1.73485778161935e-04
6.47500000000000e+00 2.16242610357046e-02 1.72966666741309e-04
6.54500000000000e+00 2.14426960286700e-02 1.72439029631239e-04
6.61500000000000e+00 2.12626555061820e-02 1.71903168229738e-04
6.68500000000000e+00 2.10841266681246e-02 1.71359375703491e-04
6.75500000000000e+00 2.09070968218564e-02 1.70807937252569e-04
6.82500000000000e+00 2.07315533813076e-02 1.70249130364164e-04
6.89500000000000e+00 2.05574838660858e-02 1.69683225055899e-04
6.96500000000000e+00 2.03848759005883e-02 1.69110484109285e-04
7.03500000000000e+00 2.02137172131225e-02 1.68531163293834e-04
7.10500000000000e+00 2.00439956350332e-02 1.67945511582248e-04
7.17500000000000e+00 1.98756990998375e-02 1.67353771357201e-04
7.24500000000000e+00 1.97088156423672e-02 1.66756178610087e-04
7.31500000000000e+00 1.95433333979177e-02 1.66152963132108e-04
7.38500000000000e+00 1.93792406014049e-02 1.65544348698119e-04
7.45500000000000e+00 1.92165255865283e-02 1.64930553243570e-04
7.52500000000000e+00 1.90551767849421e-02 1.64311789034855e-04
7.59500000000000e+00 1.88951827254322e-02 1.63688262833373e-04
7.66500000000000e+00 1.87365320331011e-02 1.63060176053600e-04
7.73500000000000e+00 1.85792134285589e-02 1.62427724915473e-04
7.80500000000000e+00 1.84232157271214e-02 1.61791100591300e-04
7.87500000000000e+00 1.82685278380152e-02 1.61150489347476e-04
7.94500000000000e+00 1.81151387635889e-02 1.60506072681228e-04
8.01500000000000e+00 1.79630375985311e-02 1.59858027452603e-04
8.08500000000000e+00 1.78122135290957e-02 1.59206526011890e-04
8.15500000000000e+00 1.76626558323322e-02 1.58551736322749e-04
8.22500000000000e+00 1.75143538753242e-02 1.57893822081132e-04
8.29500000000000e+00 1.73672971144329e-02 1.57232942830215e-04
8.36500000000000e+00 1.72214750945476e-02 1.56569254071539e-04
8.43500000000000e+00 1.70768774483425e-02 1.55902907372490e-04
8.50500000000000e+00 1.69334938955396e-02 1.55234050470264e-04
8.57500000000000e+00 1.67913142421777e-02 1.54562827372456e-04
8.64500000000000e+00 1.66503283798878e-02 1.53889378454442e-04
8.71500000000000e+00 1.65105262851743e-02 1.53213840553660e-04
8.78500000000000e+00 1.63718980187025e-02 1.52536347060926e-04
8.85500000000000e+00 1.62344337245920e-02 1.51857028008868e-04
8.92500000000000e+00 1.60981236297156e-02 1.51176010157617e-04
8.99500000000000e+00 1.59629580430051e-02 1.50493417077899e-04
9.06500000000000e+00 1.58289273547617e-02 1.49809369231562e-04
9.13500000000000e+00 1.56960220359731e-02 1.49123984049649e-04
9.20500000000000e+00 1.55642326376362e-02 1.48437376008145e-04
9.27500000000000e+00 1.54335497900848e-02 1.47749656701460e-04
9.34500000000000e+00 1.53039642023240e-02 1.47060934913733e-04
9.41500000000000e+00 1.51754666613692e-02 1.46371316688040e-04
9.48500000000000e+00 1.50480480315916e-02 1.45680905393582e-04
9.55500000000000e+00 1.49216992540679e-02 1.44989801790935e-04
9.62500000000000e+00 1.47964113459374e-02 1.44298104095414e-04
9.69500000000000e+00 1.46721753997621e-02 1.43605908038631e-04
9.76500000000000e+00 1.45489825828944e-02 1.42913306928311e-04
9.83500000000000e+00 1.44268241368487e-02 1.42220391706415e-04
9.90500000000000e+00 1.43056913766786e-02 1.41527251005643e-04
9.97500000000000e+00 1.41855756903597e-02 1.40833971204380e-04
1.00450000000000e+01 1.40664685381774e-02 1.40140636480103e-04
1.01150000000000e+01 1.39483614521193e-02 1.39447328861330e-04
1.01850000000000e+01 1.38312460352737e-02 1.38754128278172e-04
1.02550000000000e+01 1.37151139612322e-02 1.38061112611514e-04
1.03250000000000e+01 1.35999569734979e-02 1.37368357740836e-04
1.03950000000000e+01 1.34857668848985e-02 1.36675937590800e-04
1.04650000000000e+01 1.33725355770041e-02 1.35983924176602e-04
1.05350000000000e+01 1.32602549995499e-02 1.35292387648078e-04
1.06050000000000e+01 1.31489171698641e-02 1.34601396332698e-04
1.06750000000000e+01 1.30385141723003e-02 1.33911016777451e-04
1.07450000000000e+01 1.29290381576746e-02 1.33221313789590e-04
1.08150000000000e+01 1.28204813427077e-02 1.32532350476357e-04
1.08850000000000e+01 1.27128360094715e-02 1.31844188283712e-04
1.09550000000000e+01 1.26060945048403e-02 1.31156887034040e-04
1.10250000000000e+01 1.25002492399468e-02 1.30470504962904e-04
1.10950000000000e+01 1.23952926896426e-02 1.29785098754907e-04
1.11650000000000e+01 1.22912173919631e-02 1.29100723578614e-04
1.12350000000000e+01 1.21880159475969e-02 1.28417433120623e-04
1.13050000000000e+01 1.20856810193601e-02 1.27735279618796e-04
1.13750000000000e+01 1.19842053316742e-02 1.27054313894666e-04
1.14450000000000e+01 1.18835816700491e-02 1.26374585385038e-04
1.15150000000000e+01 1.17838028805702e-02 1.25696142172822e-04
1.15850000000000e+01 1.16848618693896e-02 1.25019031017144e-04
1.16550000000000e+01 1.15867516022220e-02 1.24343297382685e-04
1.17250000000000e+01 1.14894651038445e-02 1.23668985468341e-04
1.17950000000000e+01 1.13929954576004e-02 1.22996138235186e-04
1.18650000000000e+01 1.12973358049081e-02 1.22324797433788e-04
1.19350000000000e+01 1.12024793447727e-02 1.21655003630855e-04
1.20050000000000e+01 1.11084193333032e-02 1.20986796235264e-04
1.20750000000000e+01 1.10151490832325e-02 1.20320213523471e-04
1.21450000000000e+01 1.09226619634423e-02 1.19655292664328e-04
1.22150000000000e+01 1.08309513984914e-02 1.18992069743324e-04
1.22850000000000e+01 1.07400108681486e-02 1.18330579786261e-04
1.23550000000000e+01 1.06498339069287e-02 1.17670856782398e-04
1.24250000000000e+01 1.05604141036329e-02 1.17012933707037e-04
1.24950000000000e+01 1.04717451008934e-02 1.16356842543600e-04
1.25650000000000e+01 1.03838205947210e-02 1.15702614305232e-04
1.26350000000000e+01 1.02966343340570e-02 1.15050279055867e-04
1.27050000000000e+01 1.02101801203288e-02 1.14399865930838e-04
1.27750000000000e+01 1.01244518070093e-02 1.13751403157030e-04
1.28450000000000e+01 1.00394432991798e-02 1.13104918072572e-04
1.29150000000000e+01 9.95514855309671e-03 1.12460437146095e-04
1.29850000000000e+01 9.87156157576191e-03 1.11817985995546e-04
1.30550000000000e+01 9.78867642449659e-03 1.11177589406596e-04
1.31250000000000e+01 9.70648720651877e-03 1.10539271350645e-04
1.31950000000000e+01 9.62498807852440e-03 1.09903055002419e-04
1.32650000000000e+01 9.54417324627189e-03 1.09268962757184e-04
1.33350000000000e+01 9.46403696417017e-03 1.08637016247587e-04
1.34050000000000e+01 9.38457353487019e-03 1.08007236360129e-04
1.34750000000000e+01 9.30577730885989e-03 1.07379643251262e-04
1.35450000000000e+01 9.22764268406251e-03 1.06754256363173e-04
1.36150000000000e+01 9.15016410543834e-03 1.06131094439192e-04
1.36850000000000e+01 9.07333606458976e-03 1.05510175538888e-04
1.37550000000000e+01 8.99715309936962e-03 1.04891517052840e-04
1.38250000000000e+01 8.92160979349289e-03 1.04275135717068e-04
1.38950000000000e+01 8.84670077615164e-03 1.03661047627197e-04
1.39650000000000e+01 8.77242072163312e-03 1.03049268252285e-04
1.40350000000000e+01 8.69876434894119e-03 1.02439812448374e-04
1.41050000000000e+01 8.62572642142081e-03 1.01832694471752e-04
1.41750000000000e+01 8.55330174638578e-03 1.01227927991923e-04
1.42450000000000e+01 8.48148517474955e-03 1.00625526104325e-04
1.43150000000000e+01 8.41027160065911e-03 1.00025501342769e-04
1.43850000000000e+01 8.33965596113206e-03 9.94278656916080e-05
1.44550000000000e+01 8.26963323569656e-03 9.88326305976818e-05
1.45250000000000e+01 8.20019844603446e-03 9.82398069819791e-05
1.45950000000000e+01 8.13134665562735e-03 9.76494052510733e-05
1.46650000000000e+01 8.06307296940558e-03 9.70614353083323e-05
1.47350000000000e+01 7.99537253340025e-03 9.64759065648706e-05
1.48050000000000e+01 7.92824053439812e-03 9.58928279502933e-05
1.48750000000000e+01 7.86167219959940e-03 9.53122079232195e-05
1.49450000000000e+01 7.79566279627843e-03 9.47340544815809e-05
1.50150000000000e+01 7.73020763144721e-03 9.41583751727134e-05
1.50850000000000e+01 7.66530205152172e-03 9.35851771032456e-05
1.51550000000000e+01 7.60094144199113e-03 9.30144669487798e-05
1.52250000000000e+01 7.53712122708964e-03 9.24462509633818e-05
1.52950000000000e+01 7.47383686947126e-03 9.18805349888724e-05
1.53650000000000e+01 7.41108386988712e-03 9.13173244639340e-05
1.54350000000000e+01 7.34885776686570e-03 9.07566244330238e-05
1.55050000000000e+01 7.28715413639556e-03 9.01984395551210e-05
1.55750000000000e+01 7.22596859161083e-03 8.96427741122975e-05
1.56450000000000e+01 7.16529678247935e-03 8.90896320180985e-05
1.57150000000000e+01 7.10513439549337e-03 8.85390168257692e-05
1.57850000000000e+01 7.04547715336291e-03 8.79909317363169e-05
1.58550000000000e+01 6.98632081471160e-03 8.74453796064065e-05
1.59250000000000e+01 6.92766117377522e-03 8.69023629560968e-05
1.59950000000000e+01 6.86949406010262e-03 8.63618839764236e-05
1.60650000000000e+01 6.81181533825926e-03 8.58239445368334e-05
1.61350000000000e+01 6.75462090753318e-03 8.52885461924718e-05
1.62050000000000e+01 6.69790670164344e-03 8.47556901913230e-05
1.62750000000000e+01 6.64166868845109e-03 8.42253774812085e-05
1.63450000000000e+01 6.58590286967241e-03 8.36976087166398e-05
1.64150000000000e+01 6.53060528059472e-03 8.31723842655511e-05
1.64850000000000e+01 6.47577198979447e-03 8.26497042158857e-05
1.65550000000000e+01 6.42139909885776e-03 8.21295683820512e-05
1.66250000000000e+01 6.36748274210315e-03 8.16119763112638e-05
1.66950000000000e+01 6.31401908630685e-03 8.10969272897521e-05
1.67650000000000e+01 6.26100433043016e-03 8.05844203488355e-05
1.68350000000000e+01 6.20843470534928e-03 8.00744542708963e-05
1.69050000000000e+01 6.15630647358732e-03 7.95670275952342e-05
1.69750000000000e+01 6.10461592904856e-03 7.90621386237897e-05
1.70450000000000e+01 6.05335939675500e-03 7.85597854267689e-05
1.71150000000000e+01 6.00253323258505e-03 7.80599658481595e-05
1.71850000000000e+01 5.95213382301448e-03 7.75626775111284e-05
1.72550000000000e+01 5.90215758485948e-03 7.70679178233244e-05
1.73250000000000e+01 5.85260096502195e-03 7.65756839820688e-05
1.73950000000000e+01 5.80346044023684e-03 7.60859729794433e-05
1.74650000000000e+01 5.75473251682172e-03 7.55987816072865e-05
1.75350000000000e+01 5.70641373042835e-03 7.51141064620976e-05
1.76050000000000e+01 5.65850064579639e-03 7.46319439498280e-05
1.76750000000000e+01 5.61098985650917e-03 7.41522902905860e-05
1.77450000000000e+01 5.56387798475153e-03 7.36751415232539e-05
1.78150000000000e+01 5.51716168106962e-03 7.32004935100161e-05
1.78850000000000e+01 5.47083762413283e-03 7.27283419407948e-05
1.79550000000000e+01 5.42490252049759e-03 7.22586823375910e-05
1.80250000000000e+01 5.37935310437328e-03 7.17915100587596e-05
1.80950000000000e+01 5.33418613739003e-03 7.13268203031932e-05
1.81650000000000e+01 5.28939840836846e-03 7.08646081144139e-05
1.82350000000000e+01 5.24498673309141e-03 7.04048683846034e-05
1.83050000000000e+01 5.20094795407753e-03 6.99475958585413e-05
1.83750000000000e+01 5.15727894035682e-03 6.94927851374718e-05
1.84450000000000e+01 5.11397658724802e-03 6.90404306829005e-05
1.85150000000000e+01 5.07103781613788e-03 6.85905268203040e-05
1.85850000000000e+01 5.02845957426227e-03 6.81430677427793e-05
1.86550000000000e+01 4.98623883448918e-03 6.76980475146183e-05
1.87250000000000e+01 4.94437259510347e-03 6.72554600748094e-05
1.87950000000000e+01 4.90285787959347e-03 6.68152992404782e-05
1.88650000000000e+01 4.86169173643936e-03 6.63775587102561e-05
1.89350000000000e+01 4.82087123890334e-03 6.59422320675787e-05
1.90050000000000e+01 4.78039348482153e-03 6.55093127839367e-05
1.90750000000000e+01 4.74025559639768e-03 6.50787942220437e-05
1.91450000000000e+01 4.70045471999851e-03 6.46506696389544e-05
1.92150000000000e+01 4.66098802595089e-03 6.42249321891197e-05
1.92850000000000e+01 4.62185270834062e-03 6.38015749273720e-05
1.93550000000000e+01 4.58304598481296e-03 6.33805908118694e-05
1.94250000000000e+01 4.54456509637482e-03 6.29619727069820e-05
1.94950000000000e+01 4.50640730719859e-03 6.25457133861036e-05
1.95650000000000e+01 4.46856990442765e-03 6.21318055344157e-05
1.96350000000000e+01 4.43105019798348e-03 6.17202417516121e-05
1.97050000000000e+01 4.39384552037443e-03 6.13110145545497e-05
1.97750000000000e+01 4.35695322650607e-03 6.09041163798585e-05
1.98450000000000e+01 4.32037069349310e-03 6.04995395865041e-05
1.99150000000000e+01 4.28409532047292e-03 6.00972764582865e-05
1.99850000000000e+01 4.24812452842070e-03 5.96973192062980e-05
2.00550000000000e+01 4.21245575996601e-03 5.92996599713405e-05
2.01250000000000e+01 4.17708647921103e-03 5.89042908262794e-05
2.01950000000000e+01 4.14201417155023e-03 5.85112037783614e-05
2.02650000000000e+01 4.10723634349160e-03 5.81203907714857e-05
2.03350000000000e+01 4.07275052247940e-03 5.77318436884188e-05
2.04050000000000e+01 4.03855425671833e-03 5.73455543529885e-05
2.04750000000000e+01 4.00464511499924e-03 5.69615145322142e-05
2.05450000000000e+01 3.97102068652628e-03 5.65797159383987e-05
2.06150000000000e+01 3.93767858074552e-03 5.62001502311889e-05
2.06850000000000e+01 3.90461642717494e-03 5.58228090195853e-05
2.07550000000000e+01 3.87183187523596e-03 5.54476838639150e-05
2.08250000000000e+01 3.83932259408629e-03 5.50747662777625e-05
2.08950000000000e+01 3.80708627245420e-03 5.47040477298645e-05
2.09650000000000e+01 3.77512061847427e-03 5.43355196459697e-05
2.10350000000000e+01 3.74342335952435e-03 5.39691734106583e-05
2.11050000000000e+01 3.71199224206405e-03 5.36050003691204e-05
2.11750000000000e+01 3.68082503147454e-03 5.32429918289068e-05
2.12450000000000e+01 3.64991951189961e-03 5.28831390616436e-05
2.13150000000000e+01 3.61927348608818e-03 5.25254333047032e-05
2.13850000000000e+01 3.58888477523806e-03 5.21698657628439e-05
2.14550000000000e+01 3.55875121884110e-03 5.18164276098326e-05
2.15250000000000e+01 3.52887067452950e-03 5.14651099900161e-05
2.15950000000000e+01 3.49924101792357e-03 5.11159040198628e-05
2.16650000000000e+01 3.46986014248068e-03 5.07688007894828e-05
2.17350000000000e+01 3.44072595934545e-03 5.04237913641065e-05
2.18050000000000e+01 3.41183639720129e-03 5.00808667855405e-05
2.18750000000000e+01 3.38318940212315e-03 4.97400180735841e-05
2.19450000000000e+01 3.35478293743141e-03 4.94012362274249e-05
2.20150000000000e+01 3.32661498354720e-03 4.90645122270108e-05
2.20850000000000e+01 3.29868353784870e-03 4.87298370343779e-05
