Energy (eV)          EEDF (eV^-(3/2))     First Anisotropy
1.94531250000000e-02 5.81034687596193e-02 2.72514039959538e-05
5.83593750000000e-02 5.77908579355378e-02 4.50301412078191e-05
9.72656250000000e-02 5.74799290337298e-02 5.95252860365429e-05
1.36171875000000e-01 5.71706730051614e-02 7.05864328327775e-05
1.75078125000000e-01 5.68630808493898e-02 7.98522794428935e-05
2.13984375000000e-01 5.65571436143814e-02 8.79410521657453e-05
2.52890625000000e-01 5.62528523962627e-02 9.51720258244873e-05
2.91796875000000e-01 5.59501983390633e-02 1.01737614228898e-04
3.30703125000000e-01 5.56491726344595e-02 1.07765176388397e-04
3.69609375000000e-01 5.53497665215181e-02 1.13344549282959e-04
4.08515625000000e-01 5.50519712864416e-02 1.18542103918101e-04
4.47421875000000e-01 5.47557782623147e-02 1.23408636793757e-04
4.86328125000000e-01 5.44611788288522e-02 1.27984124036225e-04
5.25234375000000e-01 5.41681644121480e-02 1.32300746178708e-04
5.64140625000000e-01 5.38767264844258e-02 1.36384898499991e-04
6.03046875000000e-01 5.35868565637907e-02 1.40258575775481e-04
6.41953125000000e-01 5.32985462139824e-02 1.43940355033558e-04
6.80859375000000e-01 5.30117870441297e-02 1.47446110925848e-04
7.19765625000000e-01 5.27265707085066e-02 1.50789547942287e-04
7.58671875000000e-01 5.24428889062887e-02 1.53982603946990e-04
7.97578125000000e-01 5.21607333813124e-02 1.57035761287381e-04
8.36484375000000e-01 5.18800959218342e-02 1.59958290211450e-04
8.75390625000000e-01 5.16009683602916e-02 1.62758441845136e-04
9.14296875000000e-01 5.13233425730657e-02 1.65443603000629e-04
9.53203125000000e-01 5.10472104802447e-02 1.68020421697532e-04
9.92109375000000e-01 5.07725640453887e-02 1.70494909928208e-04
1.03101562500000e+00 5.04993952752956e-02 1.72872528539322e-04
1.06992187500000e+00 5.02276962197689e-02 1.75158257911197e-04
1.10882812500000e+00 4.99574589713860e-02 1.77356657250619e-04
1.14773437500000e+00 4.96886756652681e-02 1.79471914674004e-04
1.18664062500000e+00 4.94213384788515e-02 1.81507889780673e-04
1.22554687500000e+00 4.91554396316597e-02 1.83468150056399e-04
1.26445312500000e+00 4.88909713850771e-02 1.85356002172548e-04
1.30335937500000e+00 4.86279260421237e-02 1.87174519034609e-04
1.34226562500000e+00 4.83662959472312e-02 1.88926563269604e-04
1.38117187500000e+00 4.81060734860200e-02 1.90614807713017e-04
1.42007812500000e+00 4.78472510850779e-02 1.92241753354050e-04
1.45898437500000e+00 4.75898212117393e-02 1.93809745116995e-04
1.49789062500000e+00 4.73337763738664e-02 1.95320985791783e-04
1.53679687500000e+00 4.70791091196306e-02 1.96777548374284e-04
1.57570312500000e+00 4.68258120372964e-02 1.98181387034500e-04
1.61460937500000e+00 4.65738777550048e-02 1.99534346896215e-04
1.65351562500000e+00 4.63232989405595e-02 2.00838172783135e-04
1.69242187500000e+00 4.60740683012131e-02 2.02094517063126e-04
1.73132812500000e+00 4.58261785834550e-02 2.03304946702706e-04
1.77023437500000e+00 4.55796225728001e-02 2.04470949627787e-04
1.80914062500000e+00 4.53343930935792e-02 2.05593940473031e-04
1.84804687500000e+00 4.50904830087298e-02 2.06675265790964e-04
1.88695312500000e+00 4.48478852195886e-02 2.07716208782122e-04
1.92585937500000e+00 4.46065926656848e-02 2.08717993599645e-04
1.96476562500000e+00 4.43665983245348e-02 2.09681789274749e-04
2.00367187500000e+00 4.41278952114374e-02 2.10608713303428e-04
2.04257812500000e+00 4.38904763792710e-02 2.11499834929972e-04
2.08148437500000e+00 4.36543349182911e-02 2.12356178158407e-04
2.12039062500000e+00 4.34194639559295e-02 2.13178724519193e-04
2.15929687500000e+00 4.31858566565938e-02 2.13968415615448e-04
2.19820312500000e+00 4.29535062214691e-02 2.14726155470035e-04
2.23710937500000e+00 4.27224058883195e-02 2.15452812692448e-04
2.27601562500000e+00 4.24925489312916e-02 2.16149222482387e-04
2.31492187500000e+00 4.22639286607189e-02 2.16816188485050e-04
2.35382812500000e+00 4.20365384229268e-02 2.17454484511521e-04
2.39273437500000e+00 4.18103716000390e-02 2.18064856136147e-04
2.43164062500000e+00 4.15854216097854e-02 2.18648022181800e-04
2.47054687500000e+00 4.13616819053096e-02 2.19204676102540e-04
2.50945312500000e+00 4.11391459749791e-02 2.19735487272324e-04
2.54835937500000e+00 4.09178073421958e-02 2.20241102187610e-04
2.58726562500000e+00 4.06976595652068e-02 2.20722145591034e-04
2.62617187500000e+00 4.04786962369179e-02 2.21179221522301e-04
2.66507812500000e+00 4.02609109847062e-02 2.21612914302104e-04
2.70398437500000e+00 4.00442974702354e-02 2.22023789454447e-04
2.74289062500000e+00 3.98288493892708e-02 2.22412394571981e-04
2.78179687500000e+00 3.96145604714960e-02 2.22779260128739e-04
2.82070312500000e+00 3.94014244803305e-02 2.23124900244126e-04
2.85960937500000e+00 3.91894352127482e-02 2.23449813401883e-04
2.89851562500000e+00 3.89785864990967e-02 2.23754483127173e-04
2.93742187500000e+00 3.87688722029178e-02 2.24039378624822e-04
2.97632812500000e+00 3.85602862207691e-02 2.24304955381524e-04
3.01523437500000e+00 3.83528224820460e-02 2.24551655734453e-04
3.05414062500000e+00 3.81464749488053e-02 2.24779909408576e-04
3.09304687500000e+00 3.79412376155895e-02 2.24990134024855e-04
3.13195312500000e+00 3.77371045092519e-02 2.25182735581298e-04
3.17085937500000e+00 3.75340696887827e-02 2.25358108908546e-04
3.20976562500000e+00 3.73321272451362e-02 2.25516638101760e-04
3.24867187500000e+00 3.71312713010589e-02 2.25658696930287e-04
3.28757812500000e+00 3.69314960109182e-02 2.25784649226550e-04
3.32648437500000e+00 3.67327955605326e-02 2.25894849255466e-04
3.36539062500000e+00 3.65351641670022e-02 2.25989642065528e-04
3.40429687500000e+00 3.63385960785406e-02 2.26069363822783e-04
3.44320312500000e+00 3.61430855743072e-02 2.26134342128687e-04
3.48210937500000e+00 3.59486269642412e-02 2.26184896322787e-04
3.52101562500000e+00 3.57552145888956e-02 2.26221337771184e-04
3.55992187500000e+00 3.55628428192725e-02 2.26243970141539e-04
3.59882812500000e+00 3.53715060566596e-02 2.26253089665433e-04
3.63773437500000e+00 3.51811987324667e-02 2.26248985388831e-04
3.67664062500000e+00 3.49919153080644e-02 2.26231939411329e-04
3.71554687500000e+00 3.48036502746222e-02 2.26202227114706e-04
3.75445312500000e+00 3.46163981529484e-02 2.26160117381435e-04
3.79335937500000e+00 3.44301534933308e-02 2.26105872803825e-04
3.83226562500000e+00 3.42449108753782e-02 2.26039749884137e-04
3.87117187500000e+00 3.40606649078619e-02 2.25961999226123e-04
3.91007812500000e+00 3.38774102285598e-02 2.25872865718624e-04
3.94898437500000e+00 3.36951415040997e-02 2.25772588711571e-04
3.98789062500000e+00 3.35138534298042e-02 2.25661402184649e-04
4.02679687500000e+00 3.33335407295363e-02 2.25539534909176e-04
4.06570312500000e+00 3.31541981555461e-02 2.25407210603494e-04
4.10460937500000e+00 3.29758204883177e-02 2.25264648082139e-04
4.14351562500000e+00 3.27984025364175e-02 2.25112061399177e-04
4.18242187500000e+00 3.26219391363431e-02 2.24949659985922e-04
4.22132812500000e+00 3.24464251523732e-02 2.24777648783359e-04
4.26023437500000e+00 3.22718554764175e-02 2.24596228369529e-04
4.29914062500000e+00 3.20982250278689e-02 2.24405595082075e-04
4.33804687500000e+00 3.19255287534549e-02 2.24205941136216e-04
4.37695312500000e+00 3.17537616270911e-02 2.23997454738366e-04
4.41585937500000e+00 3.15829186497343e-02 2.23780320195572e-04
4.45476562500000e+00 3.14129948492378e-02 2.23554718020953e-04
4.49367187500000e+00 3.12439852802059e-02 2.23320825035408e-04
4.53257812500000e+00 3.10758850238506e-02 2.23078814465655e-04
4.57148437500000e+00 3.09086891878479e-02 2.22828856038825e-04
4.61039062500000e+00 3.07423929061960e-02 2.22571116073762e-04
4.64929687500000e+00 3.05769913390732e-02 2.22305757569115e-04
4.68820312500000e+00 3.04124796726972e-02 2.22032940288464e-04
4.72710937500000e+00 3.02488531191851e-02 2.21752820842553e-04
4.76601562500000e+00 3.00861069164140e-02 2.21465552768699e-04
4.80492187500000e+00 2.99242363278822e-02 2.21171286607606e-04
4.84382812500000e+00 2.97632366425719e-02 2.20870169977605e-04
4.88273437500000e+00 2.96031031748112e-02 2.20562347646453e-04
4.92164062500000e+00 2.94438312641388e-02 2.20247961600870e-04
4.96054687500000e+00 2.92854162751674e-02 2.19927151113738e-04
4.99945312500000e+00 2.91278535974495e-02 2.19600052809201e-04
5.03835937500000e+00 2.89711386453427e-02 2.19266800725762e-04
5.07726562500000e+00 2.88152668578767e-02 2.18927526377300e-04
5.11617187500000e+00 2.86602336986201e-02 2.18582358812195e-04
5.15507812500000e+00 2.85060346555487e-02 2.18231424670737e-04
5.19398437500000e+00 2.83526652409143e-02 2.17874848240688e-04
5.23289062500000e+00 2.82001209911135e-02 2.17512751511137e-04
5.27179687500000e+00 2.80483974665584e-02 2.17145254224838e-04
5.31070312500000e+00 2.78974902515473e-02 2.16772473928904e-04
5.34960937500000e+00 2.77473949541357e-02 2.16394526023987e-04
5.38851562500000e+00 2.75981072060090e-02 2.16011523812047e-04
5.42742187500000e+00 2.74496226623553e-02 2.15623578542791e-04
5.46632812500000e+00 2.73019370017388e-02 2.15230799458685e-04
5.50523437500000e+00 2.71550459259740e-02 2.14833293838680e-04
5.54414062500000e+00 2.70089451600006e-02 2.14431167040703e-04
5.58304687500000e+00 2.68636304517595e-02 2.14024522543008e-04
5.62195312500000e+00 2.67190975720683e-02 2.13613461984301e-04
5.66085937500000e+00 2.65753423144990e-02 2.13198085202725e-04
5.69976562500000e+00 2.64323604952549e-02 2.12778490273889e-04
5.73867187500000e+00 2.62901479530494e-02 2.12354773547754e-04
5.77757812500000e+00 2.61487005489845e-02 2.11927029684513e-04
5.81648437500000e+00 2.60080141664304e-02 2.11495351689573e-04
5.85539062500000e+00 2.58680847109061e-02 2.11059830947569e-04
5.89429687500000e+00 2.57289081099594e-02 2.10620557255454e-04
5.93320312500000e+00 2.55904803130494e-02 2.10177618854719e-04
5.97210937500000e+00 2.54527972914278e-02 2.09731102462804e-04
6.01101562500000e+00 2.53158550380220e-02 2.09281093303643e-04
6.04992187500000e+00 2.51796495673184e-02 2.08827675137471e-04
6.08882812500000e+00 2.50441769152465e-02 2.08370930289850e-04
6.12773437500000e+00 2.49094331390635e-02 2.07910939679926e-04
6.16664062500000e+00 2.47754143172394e-02 2.07447782847997e-04
6.20554687500000e+00 2.46421165493430e-02 2.06981537982413e-04
6.24445312500000e+00 2.45095359559285e-02 2.06512281945740e-04
6.28335937500000e+00 2.43776686784224e-02 2.06040090300333e-04
6.32226562500000e+00 2.42465108790111e-02 2.05565037333295e-04
6.36117187500000e+00 2.41160587405297e-02 2.05087196080775e-04
6.40007812500000e+00 2.39863084663503e-02 2.04606638351644e-04
6.43898437500000e+00 2.38572562802719e-02 2.04123434750701e-04
6.47789062500000e+00 2.37288984264103e-02 2.03637654701304e-04
6.51679687500000e+00 2.36012311690890e-02 2.03149366467382e-04
6.55570312500000e+00 2.34742507927303e-02 2.02658637174972e-04
6.59460937500000e+00 2.33479536017472e-02 2.02165532833299e-04
6.63351562500000e+00 2.32223359204357e-02 2.01670118355294e-04
6.67242187500000e+00 2.30973940928684e-02 2.01172457577646e-04
6.71132812500000e+00 2.29731244827872e-02 2.00672613280460e-04
6.75023437500000e+00 2.28495234734983e-02 2.00170647206367e-04
6.78914062500000e+00 2.27265874677664e-02 1.99666620079253e-04
6.82804687500000e+00 2.26043128877104e-02 1.99160591622604e-04
6.86695312500000e+00 2.24826961746988e-02 1.98652620577344e-04
6.90585937500000e+00 2.23617337892467e-02 1.98142764719316e-04
6.94476562500000e+00 2.22414222109121e-02 1.97631080876391e-04
6.98367187500000e+00 2.21217579381943e-02 1.97117624945197e-04
7.02257812500000e+00 2.20027374884312e-02 1.96602451907500e-04
7.06148437500000e+00 2.18843573976984e-02 1.96085615846159e-04
7.10039062500000e+00 2.17666142207082e-02 1.95567169960781e-04
7.13929687500000e+00 2.16495045307095e-02 1.95047166583055e-04
7.17820312500000e+00 2.15330249193878e-02 1.94525657191718e-04
7.21710937500000e+00 2.14171719967663e-02 1.94002692427229e-04
7.25601562500000e+00 2.13019423911070e-02 1.93478322106125e-04
7.29492187500000e+00 2.11873327488127e-02 1.92952595235075e-04
7.33382812500000e+00 2.10733397343295e-02 1.92425560024620e-04
7.37273437500000e+00 2.09599600300493e-02 1.91897263902656e-04
7.41164062500000e+00 2.08471903362138e-02 1.91367753527615e-04
7.45054687500000e+00 2.07350273708181e-02 1.90837074801406e-04
7.48945312500000e+00 2.06234678695154e-02 1.90305272882059e-04
7.52835937500000e+00 2.05125085855217e-02 1.89772392196092e-04
7.56726562500000e+00 2.04021462895216e-02 1.89238476450701e-04
7.60617187500000e+00 2.02923777695741e-02 1.88703568645628e-04
7.64507812500000e+00 2.01831998310195e-02 1.88167711084844e-04
7.68398437500000e+00 2.00746092963858e-02 1.87630945387954e-04
7.72289062500000e+00 1.99666030052967e-02 1.87093312501390e-04
7.76179687500000e+00 1.98591778143797e-02 1.86554852709436e-04
7.80070312500000e+00 1.97523305971741e-02 1.86015605644963e-04
7.83960937500000e+00 1.96460582440404e-02 1.85475610299963e-04
7.87851562500000e+00 1.95403576620699e-02 1.84934905035929e-04
7.91742187500000e+00 1.94352257749944e-02 1.84393527593974e-04
7.95632812500000e+00 1.93306595230966e-02 1.83851515104800e-04
7.99523437500000e+00 1.92266558631215e-02 1.83308904098463e-04
8.03414062500000e+00 1.91232117681873e-02 1.82765730513913e-04
8.07304687500000e+00 1.90203242276978e-02 1.82222029708428e-04
8.11195312500000e+00 1.89179902472544e-02 1.81677836466807e-04
8.15085937500000e+00 1.88162068485691e-02 1.81133185010416e-04
8.18976562500000e+00 1.87149710693779e-02 1.80588109006059e-04
8.22867187500000e+00 1.86142799633544e-02 1.80042641574693e-04
8.26757812500000e+00 1.85141306000242e-02 1.79496815299955e-04
8.30648437500000e+00 1.84145200646796e-02 1.78950662236534e-04
8.34539062500000e+00 1.83154454582946e-02 1.78404213918460e-04
8.38429687500000e+00 1.82169038974409e-02 1.77857501367144e-04
8.42320312500000e+00 1.81188925142035e-02 1.77310555099316e-04
8.46210937500000e+00 1.80214084560977e-02 1.76763405134846e-04
8.50101562500000e+00 1.79244488859856e-02 1.76216081004338e-04
8.53992187500000e+00 1.78280109819942e-02 1.75668611756679e-04
8.57882812500000e+00 1.77320919374324e-02 1.75121025966436e-04
8.61773437500000e+00 1.76366889607101e-02 1.74573351741083e-04
8.65664062500000e+00 1.75417992752564e-02 1.74025616728088e-04
8.69554687500000e+00 1.74474201194394e-02 1.73477848121953e-04
8.73445312500000e+00 1.73535487464851e-02 1.72930072671081e-04
8.77335937500000e+00 1.72601824243978e-02 1.72382316684480e-04
8.81226562500000e+00 1.71673184358809e-02 1.71834606038422e-04
8.85117187500000e+00 1.70749540782574e-02 1.71286966182976e-04
8.89007812500000e+00 1.69830866633911e-02 1.70739422148401e-04
8.92898437500000e+00 1.68917135176090e-02 1.70191998551431e-04
8.96789062500000e+00 1.68008319816229e-02 1.69644719601455e-04
9.00679687500000e+00 1.67104394104522e-02 1.69097609106598e-04
9.04570312500000e+00 1.66205331733472e-02 1.68550690479717e-04
9.08460937500000e+00 1.65311106537119e-02 1.68003986744255e-04
9.12351562500000e+00 1.64421692490285e-02 1.67457520540006e-04
9.16242187500000e+00 1.63537063707813e-02 1.66911314128832e-04
9.20132812500000e+00 1.62657194443814e-02 1.66365389400200e-04
9.24023437500000e+00 1.61782059090918e-02 1.65819767876707e-04
9.27914062500000e+00 1.60911632179530e-02 1.65274470719473e-04
9.31804687500000e+00 1.60045888377088e-02 1.64729518733417e-04
9.35695312500000e+00 1.59184802487322e-02 1.64184932372498e-04
9.39585937500000e+00 1.58328349449529e-02 1.63640731744873e-04
9.43476562500000e+00 1.57476504337834e-02 1.63096936617922e-04
9.47367187500000e+00 1.56629242360473e-02 1.62553566423202e-04
9.51257812500000e+00 1.55786538859066e-02 1.62010640261376e-04
9.55148437500000e+00 1.54948369307900e-02 1.61468176906988e-04
9.59039062500000e+00 1.54114709313219e-02 1.60926194813195e-04
9.62929687500000e+00 1.53285534612510e-02 1.60384712116444e-04
9.66820312500000e+00 1.52460821073796e-02 1.59843746641026e-04
9.70710937500000e+00 1.51640544694941e-02 1.59303315903577e-04
9.74601562500000e+00 1.50824681602941e-02 1.58763437117555e-04
9.78492187500000e+00 1.50013208053239e-02 1.58224127197567e-04
9.82382812500000e+00 1.49206100429026e-02 1.57685402763651e-04
9.86273437500000e+00 1.48403335240559e-02 1.57147280145535e-04
9.90164062500000e+00 1.47604889124476e-02 1.56609775386794e-04
9.94054687500000e+00 1.46810738843115e-02 1.56072904248934e-04
9.97945312500000e+00 1.46020861283836e-02 1.55536682215414e-04
1.00183593750000e+01 1.45235233458355e-02 1.55001124495613e-04
1.00572656250000e+01 1.44453832502068e-02 1.54466245840935e-04
1.00961718750000e+01 1.43676635677208e-02 1.53932061300985e-04
1.01350781250000e+01 1.42903620356883e-02 1.53398585102071e-04
1.01739843750000e+01 1.42134764051150e-02 1.52865831386190e-04
1.02128906250000e+01 1.41370044375995e-02 1.52333814425183e-04
1.02517968750000e+01 1.40609439075385e-02 1.51802547120813e-04
1.02907031250000e+01 1.39852926020390e-02 1.51272043237987e-04
1.03296093750000e+01 1.39100483186390e-02 1.50742315938582e-04
1.03685156250000e+01 1.38352088681877e-02 1.50213378124858e-04
1.04074218750000e+01 1.37607720718644e-02 1.49685242479937e-04
1.04463281250000e+01 1.36867357640060e-02 1.49157921084103e-04
1.04852343750000e+01 1.36130977898785e-02 1.48631426857552e-04
1.05241406250000e+01 1.35398560056519e-02 1.48105771429031e-04
1.05630468750000e+01 1.34670082804192e-02 1.47580966546211e-04
1.06019531250000e+01 1.33945524933620e-02 1.47057023753048e-04
1.06408593750000e+01 1.33224865364362e-02 1.46533954357758e-04
1.06797656250000e+01 1.32508083115880e-02 1.46011769806126e-04
1.07186718750000e+01 1.31795157327288e-02 1.45490480306566e-04
1.07575781250000e+01 1.31086067256529e-02 1.44970096876708e-04
1.07964843750000e+01 1.30380792259928e-02 1.44450629999184e-04
1.08353906250000e+01 1.29679311817975e-02 1.43932089936269e-04
1.08742968750000e+01 1.28981605508580e-02 1.43414486766498e-04
1.09132031250000e+01 1.28287653032394e-02 1.42897830353993e-04
1.09521093750000e+01 1.27597434186532e-02 1.42382130384444e-04
1.09910156250000e+01 1.26910928889442e-02 1.41867396018190e-04
1.10299218750000e+01 1.26228117161256e-02 1.41353637193940e-04
1.10688281250000e+01 1.25548979123526e-02 1.40840862701856e-04
1.11077343750000e+01 1.24873495016994e-02 1.40329081458273e-04
1.11466406250000e+01 1.24201645176582e-02 1.39818302213575e-04
1.11855468750000e+01 1.23533410055036e-02 1.39308533523208e-04
1.12244531250000e+01 1.22868770198357e-02 1.38799784084800e-04
1.12633593750000e+01 1.22207706263181e-02 1.38292061494482e-04
1.13022656250000e+01 1.21550199016035e-02 1.37785374097619e-04
1.13411718750000e+01 1.20896229315265e-02 1.37279729772679e-04
1.13800781250000e+01 1.20245778133765e-02 1.36775136215783e-04
1.14189843750000e+01 1.19598826535337e-02 1.36271600973326e-04
1.14578906250000e+01 1.18955355697027e-02 1.35769131123478e-04
1.14967968750000e+01 1.18315346891433e-02 1.35267734472676e-04
1.15357031250000e+01 1.17678781486449e-02 1.34767417786581e-04
1.15746093750000e+01 1.17045640961218e-02 1.34268187960100e-04
1.16135156250000e+01 1.16415906883621e-02 1.33770051748889e-04
1.16524218750000e+01 1.15789560931525e-02 1.33273015742697e-04
1.16913281250000e+01 1.15166584870651e-02 1.32777086674680e-04
1.17302343750000e+01 1.14546960570196e-02 1.32282270279111e-04
1.17691406250000e+01 1.13930670002142e-02 1.31788572990861e-04
1.18080468750000e+01 1.13317695224973e-02 1.31296000828280e-04
1.18469531250000e+01 1.12708018404103e-02 1.30804559654475e-04
1.18858593750000e+01 1.12101621790590e-02 1.30314255206977e-04
1.19247656250000e+01 1.11498487741209e-02 1.29825092805071e-04
1.19636718750000e+01 1.10898598702514e-02 1.29337078448817e-04
1.20025781250000e+01 1.10301937210576e-02 1.28850217193598e-04
1.20414843750000e+01 1.09708485905346e-02 1.28364514224980e-04
1.20803906250000e+01 1.09118227510341e-02 1.27879974611764e-04
1.21192968750000e+01 1.08531144851778e-02 1.27396603281462e-04
1.21582031250000e+01 1.07947220838612e-02 1.26914405304331e-04
1.21971093750000e+01 1.07366438476589e-02 1.26433384843385e-04
1.22360156250000e+01 1.06788780867612e-02 1.25953546716278e-04
1.22749218750000e+01 1.06214231195036e-02 1.25474895368323e-04
