Energy (eV)          EEDF (eV^-(3/2))     First Anisotropy
2.16666666666667e-02 1.80623587838491e-01 1.29898332922238e-04
6.50000000000000e-02 1.78320842593040e-01 2.13850683326545e-04
1.08333333333333e-01 1.76047454727147e-01 2.80594649730521e-04
1.51666666666667e-01 1.73803049971501e-01 3.30270429237389e-04
1.95000000000000e-01 1.71587258826543e-01 3.70856875978187e-04
2.38333333333333e-01 1.69399716490274e-01 4.05397659174122e-04
2.81666666666667e-01 1.67240062833906e-01 4.35481243347233e-04
3.25000000000000e-01 1.65107942306672e-01 4.62074764805631e-04
3.68333333333333e-01 1.63003003886118e-01 4.85824830349772e-04
4.11666666666667e-01 1.60924901037807e-01 5.07192081679994e-04
4.55000000000000e-01 1.58873291637968e-01 5.26520175470912e-04
4.98333333333333e-01 1.56847837920878e-01 5.44074664531198e-04
5.41666666666667e-01 1.54848206435789e-01 5.60066517024607e-04
5.85000000000000e-01 1.52874067978210e-01 5.74667139925460e-04
6.28333333333333e-01 1.50925097537749e-01 5.88018401520682e-04
6.71666666666667e-01 1.49000974254144e-01 6.00239564467952e-04
7.15000000000000e-01 1.47101381354158e-01 6.11432225914103e-04
7.58333333333333e-01 1.45226006100713e-01 6.21683926170744e-04
8.01666666666667e-01 1.43374539748979e-01 6.31070846092603e-04
8.45000000000000e-01 1.41546677487487e-01 6.39659860698989e-04
8.88333333333333e-01 1.39742118388827e-01 6.47510127349961e-04
9.31666666666667e-01 1.37960565366309e-01 6.54674335117736e-04
9.75000000000000e-01 1.36201725118511e-01 6.61199699483978e-04
1.01833333333333e+00 1.34465308081633e-01 6.67128762237445e-04
1.06166666666667e+00 1.32751028387016e-01 6.72500043825781e-04
1.10500000000000e+00 1.31058603813127e-01 6.77348582368827e-04
1.14833333333333e+00 1.29387755717050e-01 6.81706373667835e-04
1.19166666666667e+00 1.27738209038266e-01 6.85602745697940e-04
1.23500000000000e+00 1.26109692207216e-01 6.89064676990112e-04
1.27833333333333e+00 1.24501937104358e-01 6.92117054111879e-04
1.32166666666667e+00 1.22914679054208e-01 6.94782903366539e-04
1.36500000000000e+00 1.21347656742092e-01 6.97083589919511e-04
1.40833333333333e+00 1.19800612174129e-01 6.99038978574050e-04
1.45166666666667e+00 1.18273290668064e-01 7.00667584259256e-04
1.49500000000000e+00 1.16765440776833e-01 7.01986703389010e-04
1.53833333333333e+00 1.15276814249622e-01 7.03012518635538e-04
1.58166666666667e+00 1.13807166020294e-01 7.03760201215106e-04
1.62500000000000e+00 1.12356254136762e-01 7.04244001320904e-04
1.66833333333333e+00 1.10923839723187e-01 7.04477318762670e-04
1.71166666666667e+00 1.09509686966619e-01 7.04472775184067e-04
1.75500000000000e+00 1.08113563051392e-01 7.04242278597142e-04
1.79833333333333e+00 1.06735238122493e-01 7.03797072323886e-04
1.84166666666667e+00 1.05374485270893e-01 7.03147787659519e-04
1.88500000000000e+00 1.04031080472328e-01 7.02304491359928e-04
1.92833333333333e+00 1.02704802551876e-01 7.01276720298643e-04
1.97166666666667e+00 1.01395433168307e-01 7.00073520954340e-04
2.01500000000000e+00 1.00102756756784e-01 6.98703485292877e-04
2.05833333333333e+00 9.88265604946191e-02 6.97174775738658e-04
2.10166666666667e+00 9.75666342849395e-02 6.95495155507629e-04
2.14500000000000e+00 9.63227707028906e-02 6.93672016354061e-04
2.18833333333333e+00 9.50947649625609e-02 6.91712396807787e-04
2.23166666666667e+00 9.38824149001890e-02 6.89623005974055e-04
2.27500000000000e+00 9.26855209235225e-02 6.87410245429350e-04
2.31833333333333e+00 9.15038859798958e-02 6.85080222674982e-04
2.36166666666667e+00 9.03373155391499e-02 6.82638770162923e-04
2.40500000000000e+00 8.91856175458637e-02 6.80091462886925e-04
2.44833333333333e+00 8.80486023885581e-02 6.77443628374869e-04
2.49166666666667e+00 8.69260828824679e-02 6.74700362151577e-04
2.53500000000000e+00 8.58178742244019e-02 6.71866542098019e-04
2.57833333333333e+00 8.47237939630434e-02 6.68946835899182e-04
2.62166666666667e+00 8.36436619816885e-02 6.65945713797061e-04
2.66500000000000e+00 8.25773004555215e-02 6.62867460478720e-04
2.70833333333333e+00 8.15245338229823e-02 6.59716180627849e-04
2.75166666666667e+00 8.04851887685615e-02 6.56495809581335e-04
2.79500000000000e+00 7.94590941823064e-02 6.53210123296476e-04
2.83833333333333e+00 7.84460811322232e-02 6.49862742472780e-04
2.88166666666667e+00 7.74459828472027e-02 6.46457141561351e-04
2.92500000000000e+00 7.64586346785930e-02 6.42996657216407e-04
2.96833333333333e+00 7.54838740736059e-02 6.39484491328232e-04
3.01166666666667e+00 7.45215405584303e-02 6.35923718720082e-04
3.05500000000000e+00 7.35714757017289e-02 6.32317294387190e-04
3.09833333333333e+00 7.26335230890145e-02 6.28668055693645e-04
3.14166666666667e+00 7.17075283060006e-02 6.24978729009804e-04
3.18500000000000e+00 7.07933389038906e-02 6.21251935969219e-04
3.22833333333333e+00 6.98908043746942e-02 6.17490195019067e-04
3.27166666666667e+00 6.89997761348510e-02 6.13695927192098e-04
3.31500000000000e+00 6.81201074921975e-02 6.09871461558997e-04
3.35833333333333e+00 6.72516536221909e-02 6.06019036276102e-04
3.40166666666667e+00 6.63942715518363e-02 6.02140803642918e-04
3.44500000000000e+00 6.55478201282259e-02 5.98238834888168e-04
3.48833333333333e+00 6.47121599956398e-02 5.94315120825060e-04
3.53166666666667e+00 6.38871535797995e-02 5.90371576312996e-04
3.57500000000000e+00 6.30726650578842e-02 5.86410044486522e-04
3.61833333333333e+00 6.22685603364781e-02 5.82432297103407e-04
3.66166666666667e+00 6.14747070361680e-02 5.78440038504803e-04
3.70500000000000e+00 6.06909744629499e-02 5.74434909374282e-04
3.74833333333333e+00 5.99172335869931e-02 5.70418486845138e-04
3.79166666666667e+00 5.91533570275953e-02 5.66392288034840e-04
3.83500000000000e+00 5.83992190258992e-02 5.62357773404326e-04
3.87833333333333e+00 5.76546954244450e-02 5.58316346676658e-04
3.92166666666667e+00 5.69196636524923e-02 5.54269358007259e-04
3.96500000000000e+00 5.61940026999740e-02 5.50218107000529e-04
4.00833333333333e+00 5.54775930978084e-02 5.46163842481124e-04
4.05166666666667e+00 5.47703169035947e-02 5.42107765350339e-04
4.09500000000000e+00 5.40720576767362e-02 5.38051031306871e-04
4.13833333333333e+00 5.33827004594853e-02 5.33994750503438e-04
4.18166666666667e+00 5.27021317630158e-02 5.29939990130878e-04
4.22500000000000e+00 5.20302395436534e-02 5.25887776881848e-04
4.26833333333333e+00 5.13669131846262e-02 5.21839096518914e-04
4.31166666666667e+00 5.07120434825164e-02 5.17794896220914e-04
4.35500000000000e+00 5.00655226245391e-02 5.13756086821960e-04
4.39833333333333e+00 4.94272441709738e-02 5.09723542311894e-04
4.44166666666667e+00 4.87971030419943e-02 5.05698101973964e-04
4.48500000000000e+00 4.81749954959420e-02 5.01680572426328e-04
4.52833333333333e+00 4.75608191124138e-02 4.97671727071615e-04
4.57166666666667e+00 4.69544727794680e-02 4.93672308050480e-04
4.61500000000000e+00 4.63558566728422e-02 4.89683028108530e-04
4.65833333333333e+00 4.57648722396732e-02 4.85704570008568e-04
4.70166666666667e+00 4.51814221860762e-02 4.81737588320877e-04
4.74500000000000e+00 4.46054104572597e-02 4.77782711135127e-04
4.78833333333333e+00 4.40367422218546e-02 4.73840539446252e-04
4.83166666666667e+00 4.34753238598624e-02 4.69911648799226e-04
4.87500000000000e+00 4.29210629436233e-02 4.65996590862738e-04
4.91833333333333e+00 4.23738682227319e-02 4.62095892797567e-04
4.96166666666667e+00 4.18336496123490e-02 4.58210058771168e-04
5.00500000000000e+00 4.13003181749821e-02 4.54339571407545e-04
5.04833333333333e+00 4.07737861059657e-02 4.50484891145252e-04
5.09166666666667e+00 4.02539667221314e-02 4.46646457635129e-04
5.13500000000000e+00 3.97407744443616e-02 4.42824691078833e-04
5.17833333333333e+00 3.92341247836132e-02 4.39019991582241e-04
5.22166666666667e+00 3.87339343299405e-02 4.35232740447790e-04
5.26500000000000e+00 3.82401207357848e-02 4.31463301412664e-04
5.30833333333333e+00 3.77526027025220e-02 4.27712020002233e-04
5.35166666666667e+00 3.72712999698308e-02 4.23979224727056e-04
5.39500000000000e+00 3.67961332996842e-02 4.20265228230265e-04
5.43833333333333e+00 3.63270244634017e-02 4.16570326644777e-04
5.48166666666667e+00 3.58638962313552e-02 4.12894800703851e-04
5.52500000000000e+00 3.54066723576300e-02 4.09238916805954e-04
5.56833333333333e+00 3.49552775675631e-02 4.05602926378802e-04
5.61166666666667e+00 3.45096375477792e-02 4.01987066911244e-04
5.65500000000000e+00 3.40696789314907e-02 3.98391562943041e-04
5.69833333333333e+00 3.36353292865035e-02 3.94816625438084e-04
5.74166666666667e+00 3.32065171055759e-02 3.91262452744519e-04
5.78500000000000e+00 3.27831717923285e-02 3.87729231516013e-04
5.82833333333333e+00 3.23652236497000e-02 3.84217136095981e-04
5.87166666666667e+00 3.19526038706213e-02 3.80726329412151e-04
5.91500000000000e+00 3.15452445245074e-02 3.77256963835088e-04
5.95833333333333e+00 3.11430785461472e-02 3.73809180574940e-04
6.00166666666667e+00 3.07460397266840e-02 3.70383110515858e-04
6.04500000000000e+00 3.03540627006639e-02 3.66978875016998e-04
6.08833333333333e+00 2.99670829353433e-02 3.63596585322958e-04
6.13166666666667e+00 2.95850367219680e-02 3.60236343342897e-04
6.17500000000000e+00 2.92078611633533e-02 3.56898242398727e-04
6.21833333333333e+00 2.88354941635930e-02 3.53582366650006e-04
6.26166666666667e+00 2.84678744196301e-02 3.50288791822233e-04
6.30500000000000e+00 2.81049414093444e-02 3.47017585906362e-04
6.34833333333333e+00 2.77466353816490e-02 3.43768808598756e-04
6.39166666666667e+00 2.73928973483431e-02 3.40542511982639e-04
6.43500000000000e+00 2.70436690726862e-02 3.37338741182701e-04
6.47833333333333e+00 2.66988930598666e-02 3.34157533820539e-04
6.52166666666667e+00 2.63585125491294e-02 3.30998920652810e-04
6.56500000000000e+00 2.60224715028155e-02 3.27862926184370e-04
6.60833333333333e+00 2.56907145971882e-02 3.24749568139446e-04
6.65166666666667e+00 2.53631872148287e-02 3.21658858059736e-04
6.69500000000000e+00 2.50398354341194e-02 3.18590801879134e-04
6.73833333333333e+00 2.47206060204160e-02 3.15545399410786e-04
6.78166666666667e+00 2.44054464187016e-02 3.12522644908076e-04
6.82500000000000e+00 2.40943047434964e-02 3.09522527603766e-04
6.86833333333333e+00 2.37871297703611e-02 3.06545031212931e-04
6.91166666666667e+00 2.34838709288035e-02 3.03590134459472e-04
6.95500000000000e+00 2.31844782925943e-02 3.00657811582269e-04
6.99833333333333e+00 2.28889025715916e-02 2.97748031853900e-04
7.04166666666667e+00 2.25970951048902e-02 2.94860760075170e-04
7.08500000000000e+00 2.23090078515284e-02 2.91995957050570e-04
7.12833333333333e+00 2.20245933826197e-02 2.89153579122624e-04
7.17166666666667e+00 2.17438048747387e-02 2.86333578636685e-04
7.21500000000000e+00 2.14665961010015e-02 2.83535904387836e-04
7.25833333333333e+00 2.11929214234934e-02 2.80760501170660e-04
7.30166666666667e+00 2.09227357868842e-02 2.78007310216324e-04
7.34500000000000e+00 2.06559947098662e-02 2.75276269612914e-04
7.38833333333333e+00 2.03926542778672e-02 2.72567313870358e-04
7.43166666666667e+00 2.01326711368875e-02 2.69880374331692e-04
7.47500000000000e+00 1.98760024852807e-02 2.67215379568575e-04
7.51833333333333e+00 1.96226060667415e-02 2.64572254961124e-04
7.56166666666667e+00 1.93724401643569e-02 2.61950923085074e-04
7.60500000000000e+00 1.91254635927163e-02 2.59351304084128e-04
7.64833333333333e+00 1.88816356911627e-02 2.56773315264383e-04
7.69166666666667e+00 1.86409163180524e-02 2.54216871458949e-04
7.73500000000000e+00 1.84032658431796e-02 2.51681885378707e-04
7.77833333333333e+00 1.81686451412818e-02 2.49168267220951e-04
7.82166666666667e+00 1.79370155865012e-02 2.46675925012940e-04
7.86500000000000e+00 1.77083390451106e-02 2.44204764942439e-04
7.90833333333333e+00 1.74825778692638e-02 2.41754690980256e-04
7.95166666666667e+00 1.72596948916512e-02 2.39325605204094e-04
7.99500000000000e+00 1.70396534185159e-02 2.36917408110139e-04
8.03833333333333e+00 1.68224172236384e-02 2.34529998249111e-04
8.08166666666667e+00 1.66079505431818e-02 2.32163272531682e-04
8.12500000000000e+00 1.63962180689842e-02 2.29817126522341e-04
8.16833333333333e+00 1.61871849427709e-02 2.27491454088560e-04
8.21166666666667e+00 1.59808167511810e-02 2.25186147688947e-04
8.25500000000000e+00 1.57770795193263e-02 2.22901098650468e-04
8.29833333333333e+00 1.55759397052213e-02 2.20636196830371e-04
8.34166666666667e+00 1.53773641949862e-02 2.18391330888140e-04
8.38500000000000e+00 1.51813202966607e-02 2.16166388547138e-04
8.42833333333333e+00 1.49877757348438e-02 2.13961256268873e-04
8.47166666666667e+00 1.47966986460670e-02 2.11775819509742e-04
8.51500000000000e+00 1.46080575728533e-02 2.09609962968060e-04
8.55833333333333e+00 1.44218214585583e-02 2.07463570270315e-04
8.60166666666667e+00 1.42379596429086e-02 2.05336524213611e-04
8.64500000000000e+00 1.40564418562947e-02 2.03228706998974e-04
8.68833333333333e+00 1.38772382148072e-02 2.01139999929199e-04
8.73166666666667e+00 1.37003192159338e-02 1.99070283637876e-04
8.77500000000000e+00 1.35256557330778e-02 1.97019438309798e-04
8.81833333333333e+00 1.33532190107806e-02 1.94987343390023e-04
8.86166666666667e+00 1.31829806605732e-02 1.92973877800279e-04
8.90500000000000e+00 1.30149126557100e-02 1.90978920147246e-04
8.94833333333333e+00 1.28489873265716e-02 1.89002348442482e-04
8.99166666666667e+00 1.26851773566651e-02 1.87044040306952e-04
9.03500000000000e+00 1.25234557775643e-02 1.85103873167878e-04
9.07833333333333e+00 1.23637959644868e-02 1.83181723989180e-04
9.12166666666667e+00 1.22061716324366e-02 1.81277469464829e-04
9.16500000000000e+00 1.20505568313439e-02 1.79390986204963e-04
9.20833333333333e+00 1.18969259418087e-02 1.77522150476435e-04
9.25166666666667e+00 1.17452536713818e-02 1.75670838385679e-04
9.29500000000000e+00 1.15955150498957e-02 1.73836926054696e-04
9.33833333333333e+00 1.14476854253681e-02 1.72020289371388e-04
9.38166666666667e+00 1.13017404604174e-02 1.70220804162518e-04
9.42500000000000e+00 1.11576561277760e-02 1.68438346360180e-04
9.46833333333333e+00 1.10154087063487e-02 1.66672791761561e-04
9.51166666666667e+00 1.08749747777571e-02 1.64924016192562e-04
9.55500000000000e+00 1.07363312220286e-02 1.63191895665302e-04
9.59833333333333e+00 1.05994552138037e-02 1.61476306146980e-04
9.64166666666667e+00 1.04643242190048e-02 1.59777123714708e-04
9.68500000000000e+00 1.03309159906940e-02 1.58094224704540e-04
9.72833333333333e+00 1.01992085654234e-02 1.56427485489122e-04
9.77166666666667e+00 1.00691802600240e-02 1.54776782624217e-04
9.81500000000000e+00 9.94080966762606e-03 1.53141992989771e-04
9.85833333333333e+00 9.81407565414638e-03 1.51522993575994e-04
9.90166666666667e+00 9.68895735519366e-03 1.49919661622100e-04
9.94500000000000e+00 9.56543417224418e-03 1.48331874749820e-04
9.98833333333333e+00 9.44348576926178e-03 1.46759510757632e-04
1.00316666666667e+01 9.32309206971503e-03 1.45202447648420e-04
1.00750000000000e+01 9.20423325325091e-03 1.43660564274873e-04
1.01183333333333e+01 9.08688975069850e-03 1.42133739209133e-04
1.01616666666667e+01 8.97104224468319e-03 1.40621851275146e-04
1.02050000000000e+01 8.85667166293590e-03 1.39124780710471e-04
1.02483333333333e+01 8.74375917525255e-03 1.37642407121440e-04
1.02916666666667e+01 8.63228619368878e-03 1.36174610525026e-04
1.03350000000000e+01 8.52223436616490e-03 1.34721272351721e-04
1.03783333333333e+01 8.41358557353864e-03 1.33282273489344e-04
1.04216666666667e+01 8.30632192975272e-03 1.31857495278127e-04
1.04650000000000e+01 8.20042577572166e-03 1.30446820468669e-04
1.05083333333333e+01 8.09587967651376e-03 1.29050131350428e-04
1.05516666666667e+01 7.99266642145560e-03 1.27667310702202e-04
1.05950000000000e+01 7.89076901828777e-03 1.26298242707276e-04
1.06383333333333e+01 7.79017069045179e-03 1.24942811162805e-04
1.06816666666667e+01 7.69085487715571e-03 1.23600900387763e-04
1.07250000000000e+01 7.59280522778607e-03 1.22272396097284e-04
1.07683333333333e+01 7.49600559929605e-03 1.20957183689315e-04
1.08116666666667e+01 7.40044005623567e-03 1.19655149112028e-04
1.08550000000000e+01 7.30609286540819e-03 1.18366179699242e-04
1.08983333333333e+01 7.21294849335568e-03 1.17090162530894e-04
1.09416666666667e+01 7.12099160635725e-03 1.15826985261807e-04
1.09850000000000e+01 7.03020706531852e-03 1.14576536919982e-04
1.10283333333333e+01 6.94057992335116e-03 1.13338706337621e-04
1.10716666666667e+01 6.85209542574202e-03 1.12113382943032e-04
1.11150000000000e+01 6.76473900506517e-03 1.10900457523508e-04
1.11583333333333e+01 6.67849627885176e-03 1.09699820723764e-04
1.12016666666667e+01 6.59335304953306e-03 1.08511363802681e-04
1.12450000000000e+01 6.50929529976474e-03 1.07334979362401e-04
1.12883333333333e+01 6.42630919018383e-03 1.06170559911193e-04
1.13316666666667e+01 6.34438105932818e-03 1.05017998586665e-04
1.13750000000000e+01 6.26349741916343e-03 1.03877189852630e-04
1.14183333333333e+01 6.18364495292368e-03 1.02748028123538e-04
1.14616666666667e+01 6.10481051500995e-03 1.01630408455697e-04
1.15050000000000e+01 6.02698112671050e-03 1.00524227213375e-04
1.15483333333333e+01 5.95014397412222e-03 9.94293807521062e-05
1.15916666666667e+01 5.87428640803025e-03 9.83457660793715e-05
1.16350000000000e+01 5.79939593981289e-03 9.72732814913555e-05
1.16783333333333e+01 5.72546023944076e-03 9.62118253125157e-05
1.17216666666667e+01 5.65246713533954e-03 9.51612965271356e-05
1.17650000000000e+01 5.58040461047127e-03 9.41215953880596e-05
1.18083333333333e+01 5.50926080040828e-03 9.30926222100604e-05
1.18516666666667e+01 5.43902399318101e-03 9.20742779735789e-05
1.18950000000000e+01 5.36968262552774e-03 9.10664649067333e-05
1.19383333333333e+01 5.30122528104046e-03 9.00690853301086e-05
1.19816666666667e+01 5.23364068999966e-03 8.90820422339548e-05
1.20250000000000e+01 5.16691772578472e-03 8.81052398346779e-05
1.20683333333333e+01 5.10104540308927e-03 8.71385824687962e-05
1.21116666666667e+01 5.03601287774436e-03 8.61819751448145e-05
1.21550000000000e+01 4.97180944328246e-03 8.52353240753360e-05
1.21983333333333e+01 4.90842452921964e-03 8.42985356180482e-05
1.22416666666667e+01 4.84584770086858e-03 8.33715168034136e-05
1.22850000000000e+01 4.78406865604944e-03 8.24541758435066e-05
1.23283333333333e+01 4.72307722343623e-03 8.15464211179739e-05
1.23716666666667e+01 4.66286336236119e-03 8.06481616786250e-05
1.24150000000000e+01 4.60341715966578e-03 7.97593077360579e-05
1.24583333333333e+01 4.54472882810905e-03 7.88797696886289e-05
1.25016666666667e+01 4.48678870616448e-03 7.80094586049893e-05
1.25450000000000e+01 4.42958725500500e-03 7.71482866894905e-05
1.25883333333333e+01 4.37311505697093e-03 7.62961663522922e-05
1.26316666666667e+01 4.31736281536052e-03 7.54530106708436e-05
1.26750000000000e+01 4.26232135154300e-03 7.46187338350099e-05
1.27183333333333e+01 4.20798160348392e-03 7.37932502565462e-05
1.27616666666667e+01 4.15433462553038e-03 7.29764750104566e-05
1.28050000000000e+01 4.10137158564652e-03 7.21683242607637e-05
1.28483333333333e+01 4.04908376399410e-03 7.13687144076268e-05
1.28916666666667e+01 3.99746255271333e-03 7.05775625094896e-05
1.29350000000000e+01 3.94649945327547e-03 6.97947866903521e-05
1.29783333333333e+01 3.89618607511654e-03 6.90203053229014e-05
1.30216666666667e+01 3.84651413541471e-03 6.82540374323163e-05
1.30650000000000e+01 3.79747545655475e-03 6.74959030858663e-05
1.31083333333333e+01 3.74906196481297e-03 6.67458226104968e-05
1.31516666666667e+01 3.70126569013196e-03 6.60037169791041e-05
1.31950000000000e+01 3.65407876369195e-03 6.52695081832480e-05
1.32383333333333e+01 3.60749341664512e-03 6.45431184837082e-05
1.32816666666667e+01 3.56150197988835e-03 6.38244707800118e-05
1.33250000000000e+01 3.51609688173690e-03 6.31134889670137e-05
1.33683333333333e+01 3.47127064670618e-03 6.24100972169971e-05
1.34116666666667e+01 3.42701589528321e-03 6.17142203331946e-05
1.34550000000000e+01 3.38332534169816e-03 6.10257840909601e-05
1.34983333333333e+01 3.34019179275175e-03 6.03447145500539e-05
1.35416666666667e+01 3.29760814758609e-03 5.96709383928673e-05
1.35850000000000e+01 3.25556739554981e-03 5.90043832508670e-05
1.36283333333333e+01 3.21406261506940e-03 5.83449770457701e-05
1.36716666666667e+01 3.17308697341992e-03 5.76926483131536e-05
