Energy (eV)          EEDF (eV^-(3/2))     First Anisotropy
4.19827586206897e-03 6.71283609778898e-01 3.28135121671459e-04
1.25948275862069e-02 6.67300520919320e-01 5.42059120429277e-04
2.09913793103448e-02 6.63341065885393e-01 7.16148649826434e-04
2.93879310344828e-02 6.59405104425963e-01 8.48752879178480e-04
3.77844827586207e-02 6.55492497160401e-01 9.59634122958533e-04
4.61810344827586e-02 6.51603105512693e-01 1.05625398564804e-03
5.45775862068966e-02 6.47736791731317e-01 1.14246881981895e-03
6.29741379310345e-02 6.43893418876249e-01 1.22060439834069e-03
7.13706896551724e-02 6.40072850833608e-01 1.29220127270701e-03
7.97672413793103e-02 6.36274952289516e-01 1.35834690980929e-03
8.81637931034483e-02 6.32499588733286e-01 1.41984530350350e-03
9.65603448275862e-02 6.28746626448566e-01 1.47731222827137e-03
1.04956896551724e-01 6.25015932509135e-01 1.53123263476627e-03
1.13353448275862e-01 6.21307374820399e-01 1.58199719216031e-03
1.21750000000000e-01 6.17620822001997e-01 1.62992656858207e-03
1.30146551724138e-01 6.13956143487968e-01 1.67528815651518e-03
1.38543103448276e-01 6.10313209486996e-01 1.71830795934501e-03
1.46939655172414e-01 6.06691891003418e-01 1.75917924624373e-03
1.55336206896552e-01 6.03092059755156e-01 1.79806898293005e-03
1.63732758620690e-01 5.99513588247140e-01 1.83512270464641e-03
1.72129310344828e-01 5.95956349761929e-01 1.87046829795741e-03
1.80525862068966e-01 5.92420218291618e-01 1.90421893889188e-03
1.88922413793103e-01 5.88905068597342e-01 1.93647542407101e-03
1.97318965517241e-01 5.85410776183142e-01 1.96732805130067e-03
2.05715517241379e-01 5.81937217308991e-01 1.99685814469884e-03
2.14112068965517e-01 5.78484268934470e-01 2.02513929532522e-03
2.22508620689655e-01 5.75051808766574e-01 2.05223838521285e-03
2.30905172413793e-01 5.71639715237976e-01 2.07821644947792e-03
2.39301724137931e-01 5.68247867517033e-01 2.10312939958708e-03
2.47698275862069e-01 5.64876145460033e-01 2.12702862667928e-03
2.56094827586207e-01 5.61524429650631e-01 2.14996151181349e-03
2.64491379310345e-01 5.58192601393791e-01 2.17197188050208e-03
2.72887931034483e-01 5.54880542673282e-01 2.19310037664132e-03
2.81284482758621e-01 5.51588136185936e-01 2.21338478700106e-03
2.89681034482759e-01 5.48315265324563e-01 2.23286033085795e-03
2.98077586206897e-01 5.45061814184857e-01 2.25155991252645e-03
3.06474137931035e-01 5.41827667528139e-01 2.26951433588311e-03
3.14870689655172e-01 5.38612710810573e-01 2.28675249253837e-03
3.23267241379310e-01 5.35416830168022e-01 2.30330153523743e-03
3.31663793103448e-01 5.32239912421579e-01 2.31918703133310e-03
3.40060344827586e-01 5.29081845044472e-01 2.33443309288645e-03
3.48456896551724e-01 5.25942516187335e-01 2.34906249067073e-03
3.56853448275862e-01 5.22821814673230e-01 2.36309677077062e-03
3.65250000000000e-01 5.19719629967330e-01 2.37655634523683e-03
3.73646551724138e-01 5.16635852199486e-01 2.38946057480673e-03
3.82043103448276e-01 5.13570372151468e-01 2.40182784986544e-03
3.90439655172414e-01 5.10523081260898e-01 2.41367566347297e-03
3.98836206896552e-01 5.07493871593861e-01 2.42502067192921e-03
4.07232758620690e-01 5.04482635864729e-01 2.43587874802420e-03
4.15629310344828e-01 5.01489267431631e-01 2.44626504246571e-03
4.24025862068966e-01 4.98513660271082e-01 2.45619402746389e-03
4.32422413793104e-01 4.95555708995925e-01 2.46567953767261e-03
4.40818965517241e-01 4.92615308844294e-01 2.47473481332025e-03
4.49215517241379e-01 4.89692355682422e-01 2.48337253961336e-03
4.57612068965517e-01 4.86786745981401e-01 2.49160487791346e-03
4.66008620689655e-01 4.83898376833150e-01 2.49944349416417e-03
4.74405172413793e-01 4.81027145940205e-01 2.50689959044861e-03
4.82801724137931e-01 4.78172951617975e-01 2.51398393396963e-03
4.91198275862069e-01 4.75335692773374e-01 2.52070687906754e-03
4.99594827586207e-01 4.72515268919082e-01 2.52707838617336e-03
5.07991379310345e-01 4.69711580169519e-01 2.53310805038102e-03
5.16387931034483e-01 4.66924527220781e-01 2.53880511734993e-03
5.24784482758621e-01 4.64154011363711e-01 2.54417849907575e-03
5.33181034482759e-01 4.61399934474840e-01 2.54923679339314e-03
5.41577586206897e-01 4.58662199017940e-01 2.55398830200530e-03
5.49974137931035e-01 4.55940708025432e-01 2.55844104297807e-03
5.58370689655172e-01 4.53235365110153e-01 2.56260276221794e-03
5.66767241379310e-01 4.50546074456873e-01 2.56648094879458e-03
5.75163793103448e-01 4.47872740823497e-01 2.57008284914304e-03
5.83560344827586e-01 4.45215269523765e-01 2.57341547623658e-03
5.91956896551724e-01 4.42573566437895e-01 2.57648561699347e-03
6.00353448275862e-01 4.39947538008913e-01 2.57929984871110e-03
6.08750000000000e-01 4.37337091226262e-01 2.58186454530025e-03
6.17146551724138e-01 4.34742133635640e-01 2.58418588403041e-03
6.25543103448276e-01 4.32162573331323e-01 2.58626985605556e-03
6.33939655172414e-01 4.29598318956924e-01 2.58812227619898e-03
6.42336206896552e-01 4.27049279690066e-01 2.58974878840718e-03
6.50732758620690e-01 4.24515365251306e-01 2.59115486980825e-03
6.59129310344828e-01 4.21996485900658e-01 2.59234584320867e-03
6.67525862068966e-01 4.19492552423032e-01 2.59332688046940e-03
6.75922413793104e-01 4.17003476136510e-01 2.59410300652492e-03
6.84318965517241e-01 4.14529168885362e-01 2.59467910700099e-03
6.92715517241379e-01 4.12069543040448e-01 2.59505993530712e-03
7.01112068965517e-01 4.09624511485528e-01 2.59525011589915e-03
7.09508620689655e-01 4.07193987624806e-01 2.59525414724988e-03
7.17905172413793e-01 4.04777885376309e-01 2.59507640832094e-03
7.26301724137931e-01 4.02376119172109e-01 2.59472116458921e-03
7.34698275862069e-01 3.99988603945420e-01 2.59419257045611e-03
7.43094827586207e-01 3.97615255137498e-01 2.59349467059681e-03
7.51491379310345e-01 3.95255988694437e-01 2.59263140885073e-03
7.59887931034483e-01 3.92910721054845e-01 2.59160662925820e-03
7.68284482758621e-01 3.90579369156270e-01 2.59042407778224e-03
7.76681034482759e-01 3.88261850429110e-01 2.58908740730842e-03
7.85077586206897e-01 3.85958082796598e-01 2.58760018230002e-03
7.93474137931035e-01 3.83667984663144e-01 2.58596588017998e-03
8.01870689655172e-01 3.81391474920231e-01 2.58418789255180e-03
8.10267241379310e-01 3.79128472940608e-01 2.58226952958670e-03
8.18663793103448e-01 3.76878898578146e-01 2.58021402410668e-03
8.27060344827586e-01 3.74642672156803e-01 2.57802453254734e-03
8.35456896551724e-01 3.72419714476035e-01 2.57570413505894e-03
8.43853448275862e-01 3.70209946807827e-01 2.57325584232920e-03
8.52250000000000e-01 3.68013290886113e-01 2.57068259552848e-03
8.60646551724138e-01 3.65829668911821e-01 2.56798726691798e-03
8.69043103448276e-01 3.63659003547507e-01 2.56517266340793e-03
8.77439655172414e-01 3.61501217917040e-01 2.56224152986568e-03
8.85836206896552e-01 3.59356235595557e-01 2.55919654956749e-03
8.94232758620690e-01 3.57223980614111e-01 2.55604034387293e-03
9.02629310344828e-01 3.55104377456835e-01 2.55277547814313e-03
9.11025862068966e-01 3.52997351051295e-01 2.54940446131390e-03
9.19422413793104e-01 3.50902826772835e-01 2.54592974610561e-03
9.27818965517242e-01 3.48820730439582e-01 2.54235373197951e-03
9.36215517241379e-01 3.46750988312008e-01 2.53867876788295e-03
9.44612068965517e-01 3.44693527083743e-01 2.53490715236497e-03
9.53008620689655e-01 3.42648273885580e-01 2.53104113361571e-03
9.61405172413793e-01 3.40615156280685e-01 2.52708291215609e-03
9.69801724137931e-01 3.38594102264087e-01 2.52303464333315e-03
9.78198275862069e-01 3.36585040253931e-01 2.51889843729170e-03
9.86594827586207e-01 3.34587899095161e-01 2.51467635827580e-03
9.94991379310345e-01 3.32602608056895e-01 2.51037042951546e-03
1.00338793103448e+00 3.30629096823989e-01 2.50598263426791e-03
1.01178448275862e+00 3.28667295494742e-01 2.50151490906862e-03
1.02018103448276e+00 3.26717134597588e-01 2.49696915263042e-03
1.02857758620690e+00 3.24778545063443e-01 2.49234722985626e-03
1.03697413793103e+00 3.22851458233028e-01 2.48765096486823e-03
1.04537068965517e+00 3.20935805854491e-01 2.48288215065193e-03
1.05376724137931e+00 3.19031520063209e-01 2.47804253296479e-03
1.06216379310345e+00 3.17138533433019e-01 2.47313382261161e-03
1.07056034482759e+00 3.15256778919797e-01 2.46815770777409e-03
1.07895689655172e+00 3.13386189877219e-01 2.46311583750460e-03
1.08735344827586e+00 3.11526700054405e-01 2.45800982831764e-03
1.09575000000000e+00 3.09678243593601e-01 2.45284127027979e-03
1.10414655172414e+00 3.07840755011491e-01 2.44761171173574e-03
1.11254310344828e+00 3.06014169246228e-01 2.44232267077360e-03
1.12093965517241e+00 3.04198421605424e-01 2.43697564674764e-03
1.12933620689655e+00 3.02393447780530e-01 2.43157210463008e-03
1.13773275862069e+00 3.00599183844581e-01 2.42611348113615e-03
1.14612931034483e+00 2.98815566249944e-01 2.42060119038711e-03
1.15452586206897e+00 2.97042531810979e-01 2.41503660941634e-03
1.16292241379310e+00 2.95280017747324e-01 2.40942108890403e-03
1.17131896551724e+00 2.93527961635831e-01 2.40375596397293e-03
1.17971551724138e+00 2.91786301423723e-01 2.39804253935403e-03
1.18811206896552e+00 2.90054975426433e-01 2.39228209509685e-03
1.19650862068966e+00 2.88333922325412e-01 2.38647589185239e-03
1.20490517241379e+00 2.86623081152021e-01 2.38062515711993e-03
1.21330172413793e+00 2.84922391327437e-01 2.37473109532055e-03
1.22169827586207e+00 2.83231792618152e-01 2.36879489793193e-03
1.23009482758621e+00 2.81551225148035e-01 2.36281772942299e-03
1.23849137931034e+00 2.79880629396257e-01 2.35680073711325e-03
1.24688793103448e+00 2.78219946182084e-01 2.35074503800797e-03
1.25528448275862e+00 2.76569116702277e-01 2.34465172837276e-03
1.26368103448276e+00 2.74928082489240e-01 2.33852189337034e-03
1.27207758620690e+00 2.73296785422295e-01 2.33235659360182e-03
1.28047413793103e+00 2.71675167725614e-01 2.32615687015740e-03
1.28887068965517e+00 2.70063171966204e-01 2.31992374929183e-03
1.29726724137931e+00 2.68460741039729e-01 2.31365822992902e-03
1.30566379310345e+00 2.66867818205103e-01 2.30736129267451e-03
1.31406034482759e+00 2.65284347045621e-01 2.30103390889144e-03
1.32245689655172e+00 2.63710271479321e-01 2.29467702793252e-03
1.33085344827586e+00 2.62145535757004e-01 2.28829158188218e-03
1.33925000000000e+00 2.60590084460275e-01 2.28187848994833e-03
1.34764655172414e+00 2.59043862488309e-01 2.27543864659929e-03
1.35604310344828e+00 2.57506815089894e-01 2.26897293006025e-03
1.36443965517241e+00 2.55978887827274e-01 2.26248221087100e-03
1.37283620689655e+00 2.54460026585691e-01 2.25596733977066e-03
1.38123275862069e+00 2.52950177571486e-01 2.24942915215740e-03
1.38962931034483e+00 2.51449287310193e-01 2.24286847222147e-03
1.39802586206897e+00 2.49957302634175e-01 2.23628610167876e-03
1.40642241379310e+00 2.48474170712342e-01 2.22968282779090e-03
1.41481896551724e+00 2.46999839016469e-01 2.22305943144491e-03
1.42321551724138e+00 2.45534255330000e-01 2.21641667565198e-03
1.43161206896552e+00 2.44077367746217e-01 2.20975530974928e-03
1.44000862068966e+00 2.42629124666398e-01 2.20307607329476e-03
1.44840517241379e+00 2.41189474788241e-01 2.19637968536419e-03
1.45680172413793e+00 2.39758367133464e-01 2.18966685212983e-03
1.46519827586207e+00 2.38335751016396e-01 2.18293827449740e-03
1.47359482758621e+00 2.36921576052095e-01 2.17619463718377e-03
1.48199137931034e+00 2.35515792154598e-01 2.16943661615821e-03
1.49038793103448e+00 2.34118349525927e-01 2.16266486838591e-03
1.49878448275862e+00 2.32729198682105e-01 2.15588003906723e-03
1.50718103448276e+00 2.31348290423450e-01 2.14908276893485e-03
1.51557758620690e+00 2.29975575842206e-01 2.14227368378788e-03
1.52397413793103e+00 2.28611006320806e-01 2.13545339826629e-03
1.53237068965517e+00 2.27254533530168e-01 2.12862251935181e-03
1.54076724137931e+00 2.25906109419389e-01 2.12178163661857e-03
1.54916379310345e+00 2.24565686239958e-01 2.11493132908592e-03
1.55756034482759e+00 2.23233216517987e-01 2.10807217212604e-03
1.56595689655172e+00 2.21908653061271e-01 2.10120472751928e-03
1.57435344827586e+00 2.20591948957622e-01 2.09432954702200e-03
1.58275000000000e+00 2.19283057573215e-01 2.08744717567717e-03
1.59114655172414e+00 2.17981932542907e-01 2.08055814254470e-03
1.59954310344828e+00 2.16688527792809e-01 2.07366296719220e-03
1.60793965517241e+00 2.15402797514289e-01 2.06676216624122e-03
1.61633620689655e+00 2.14124696170517e-01 2.05985624391301e-03
1.62473275862069e+00 2.12854178494864e-01 2.05294569540435e-03
1.63312931034483e+00 2.11591199489292e-01 2.04603101002210e-03
1.64152586206897e+00 2.10335714415269e-01 2.03911266236521e-03
1.64992241379310e+00 2.09087678814804e-01 2.03219111847890e-03
1.65831896551724e+00 2.07847048486113e-01 2.02526684206154e-03
1.66671551724138e+00 2.06613779489675e-01 2.01834028547396e-03
1.67511206896552e+00 2.05387828146695e-01 2.01141189293649e-03
1.68350862068966e+00 2.04169151037547e-01 2.00448210349884e-03
1.69190517241379e+00 2.02957704993224e-01 1.99755134265001e-03
1.70030172413793e+00 2.01753447114982e-01 1.99062002815657e-03
1.70869827586207e+00 2.00556334751516e-01 1.98368857595172e-03
1.71709482758621e+00 1.99366325504586e-01 1.97675739158226e-03
1.72549137931035e+00 1.98183377227534e-01 1.96982687595198e-03
1.73388793103448e+00 1.97007448017126e-01 1.96289741727026e-03
1.74228448275862e+00 1.95838496232151e-01 1.95596939664559e-03
1.75068103448276e+00 1.94676480471745e-01 1.94904319372912e-03
1.75907758620690e+00 1.93521359580694e-01 1.94211917850670e-03
1.76747413793103e+00 1.92373092647977e-01 1.93519771419582e-03
1.77587068965517e+00 1.91231639005329e-01 1.92827915993782e-03
1.78426724137931e+00 1.90096958219553e-01 1.92136386313252e-03
1.79266379310345e+00 1.88969010109914e-01 1.91445216475061e-03
1.80106034482759e+00 1.87847754727776e-01 1.90754440469335e-03
1.80945689655172e+00 1.86733152361543e-01 1.90064091397974e-03
1.81785344827586e+00 1.85625163535243e-01 1.89374201749665e-03
1.82625000000000e+00 1.84523749007146e-01 1.88684803655412e-03
1.83464655172414e+00 1.83428869762510e-01 1.87995928158511e-03
1.84304310344828e+00 1.82340487029861e-01 1.87307605719374e-03
1.85143965517241e+00 1.81258562261857e-01 1.86619866724898e-03
1.85983620689655e+00 1.80183057139874e-01 1.85932740744511e-03
1.86823275862069e+00 1.79113933572658e-01 1.85246256791306e-03
1.87662931034483e+00 1.78051153694969e-01 1.84560443564828e-03
1.88502586206897e+00 1.76994679860753e-01 1.83875328755610e-03
1.89342241379310e+00 1.75944474658380e-01 1.83190939525103e-03
1.90181896551724e+00 1.74900500892645e-01 1.82507302990016e-03
1.91021551724138e+00 1.73862721589039e-01 1.81824445513663e-03
1.91861206896552e+00 1.72831099992446e-01 1.81142392954102e-03
1.92700862068966e+00 1.71805599565840e-01 1.80461170894902e-03
1.93540517241379e+00 1.70786183983828e-01 1.79780803982428e-03
1.94380172413793e+00 1.69772817146938e-01 1.79101316382318e-03
1.95219827586207e+00 1.68765463164672e-01 1.78422732240208e-03
1.96059482758621e+00 1.67764086359489e-01 1.77745075006552e-03
1.96899137931035e+00 1.66768651265544e-01 1.77068367886222e-03
1.97738793103448e+00 1.65779122622524e-01 1.76392633201786e-03
1.98578448275862e+00 1.64795465389208e-01 1.75717892831685e-03
1.99418103448276e+00 1.63817644727326e-01 1.75044168652576e-03
2.00257758620690e+00 1.62845626005326e-01 1.74371481890628e-03
2.01097413793103e+00 1.61879374797136e-01 1.73699853347528e-03
2.01937068965517e+00 1.60918856880961e-01 1.73029303610796e-03
2.02776724137931e+00 1.59964038233445e-01 1.72359852446724e-03
2.03616379310345e+00 1.59014885042396e-01 1.71691519217497e-03
2.04456034482759e+00 1.58071363691577e-01 1.71024323302258e-03
2.05295689655172e+00 1.57133440764218e-01 1.70358283478677e-03
2.06135344827586e+00 1.56201083041823e-01 1.69693418138060e-03
2.06975000000000e+00 1.55274257503005e-01 1.69029745485480e-03
2.07814655172414e+00 1.54352931317966e-01 1.68367282960882e-03
2.08654310344828e+00 1.53437071860442e-01 1.67706047636271e-03
2.09493965517241e+00 1.52526646693367e-01 1.67046056616693e-03
2.10333620689655e+00 1.51621623572137e-01 1.66387326450535e-03
2.11173275862069e+00 1.50721970443476e-01 1.65729873334287e-03
2.12012931034483e+00 1.49827655444298e-01 1.65073713303133e-03
2.12852586206897e+00 1.48938646896485e-01 1.64418861678712e-03
2.13692241379310e+00 1.48054913318115e-01 1.63765333447485e-03
2.14531896551724e+00 1.47176423409925e-01 1.63113143642747e-03
2.15371551724138e+00 1.46303146058366e-01 1.62462306782147e-03
2.16211206896552e+00 1.45435050334505e-01 1.61812837062694e-03
2.17050862068966e+00 1.44572105492929e-01 1.61164748542307e-03
2.17890517241379e+00 1.43714280966795e-01 1.60518054612925e-03
2.18730172413793e+00 1.42861546378387e-01 1.59872768361034e-03
2.19569827586207e+00 1.42013871526338e-01 1.59228902931721e-03
2.20409482758621e+00 1.41171226388479e-01 1.58586470992060e-03
2.21249137931035e+00 1.40333581120780e-01 1.57945485086542e-03
2.22088793103448e+00 1.39500906052618e-01 1.57305957130363e-03
2.22928448275862e+00 1.38673171696814e-01 1.56667898755947e-03
2.23768103448276e+00 1.37850348737435e-01 1.56031321662930e-03
2.24607758620690e+00 1.37032408032497e-01 1.55396237102111e-03
2.25447413793103e+00 1.36219320612927e-01 1.54762656053716e-03
2.26287068965517e+00 1.35411057681545e-01 1.54130589393456e-03
2.27126724137931e+00 1.34607590608574e-01 1.53500047408856e-03
2.27966379310345e+00 1.33808890941084e-01 1.52871040129668e-03
2.28806034482759e+00 1.33014930391467e-01 1.52243577661571e-03
2.29645689655172e+00 1.32225680839960e-01 1.51617669693622e-03
2.30485344827586e+00 1.31441114333650e-01 1.50993325668195e-03
2.31325000000000e+00 1.30661203085483e-01 1.50370554939327e-03
2.32164655172414e+00 1.29885919470011e-01 1.49749366310902e-03
2.33004310344828e+00 1.29115236032283e-01 1.49129768351805e-03
2.33843965517241e+00 1.28349125476944e-01 1.48511769714224e-03
2.34683620689655e+00 1.27587560670595e-01 1.47895378663378e-03
2.35523275862069e+00 1.26830514640837e-01 1.47280603239590e-03
2.36362931034483e+00 1.26077960575314e-01 1.46667451409301e-03
2.37202586206897e+00 1.25329871817670e-01 1.46055930624095e-03
2.38042241379310e+00 1.24586221875930e-01 1.45446048121317e-03
2.38881896551724e+00 1.23846984412189e-01 1.44837811227746e-03
2.39721551724138e+00 1.23112133244814e-01 1.44231226910596e-03
2.40561206896552e+00 1.22381642347525e-01 1.43626301932048e-03
2.41400862068966e+00 1.21655485848471e-01 1.43023042993353e-03
2.42240517241379e+00 1.20933638026394e-01 1.42421456313645e-03
2.43080172413793e+00 1.20216073318522e-01 1.41821547916779e-03
2.43919827586207e+00 1.19502766310811e-01 1.41223323921157e-03
2.44759482758621e+00 1.18793691740011e-01 1.40626790110865e-03
2.45599137931035e+00 1.18088824492774e-01 1.40031952218677e-03
2.46438793103448e+00 1.17388139601976e-01 1.39438815520611e-03
2.47278448275862e+00 1.16691612254242e-01 1.38847385112006e-03
2.48118103448276e+00 1.15999217780610e-01 1.38257666186393e-03
2.48957758620690e+00 1.15310931658492e-01 1.37669663622675e-03
2.49797413793103e+00 1.14626729510804e-01 1.37083382126872e-03
2.50637068965517e+00 1.13946587105109e-01 1.36498826364297e-03
2.51476724137931e+00 1.13270480350118e-01 1.35916000572127e-03
2.52316379310345e+00 1.12598385302783e-01 1.35334908822949e-03
2.53156034482759e+00 1.11930278159466e-01 1.34755555291051e-03
2.53995689655172e+00 1.11266135257763e-01 1.34177943857984e-03
2.54835344827586e+00 1.10605933075677e-01 1.33602078247863e-03
2.55675000000000e+00 1.09949648230776e-01 1.33027962153545e-03
2.56514655172414e+00 1.09297257476880e-01 1.32455598866418e-03
2.57354310344828e+00 1.08648737710749e-01 1.31884991528057e-03
2.58193965517241e+00 1.08004065963710e-01 1.31316143384476e-03
2.59033620689655e+00 1.07363219403375e-01 1.30749057409221e-03
2.59873275862069e+00 1.06726175332834e-01 1.30183736432563e-03
2.60712931034483e+00 1.06092911189848e-01 1.29620183262007e-03
2.61552586206897e+00 1.05463404543698e-01 1.29058400328395e-03
2.62392241379310e+00 1.04837633101497e-01 1.28498389926281e-03
2.63231896551724e+00 1.04215574700249e-01 1.27940154456800e-03
2.64071551724138e+00 1.03597207308466e-01 1.27383696067408e-03
2.64911206896552e+00 1.02982509025384e-01 1.26829016775264e-03
