Energy (eV)          EEDF (eV^-(3/2))     First Anisotropy
4.50925925925926e-03 6.71133731923635e-01 3.39920555567972e-04
1.35277777777778e-02 6.66857494372694e-01 5.61404560484074e-04
2.25462962962963e-02 6.62608503568221e-01 7.41380239103221e-04
3.15648148148148e-02 6.58386585882489e-01 8.78269169227598e-04
4.05833333333333e-02 6.54191568836063e-01 9.92568772810745e-04
4.96018518518519e-02 6.50023281024652e-01 1.09202312321594e-03
5.86203703703704e-02 6.45881552137330e-01 1.18063696932230e-03
6.76388888888889e-02 6.41766212949070e-01 1.26082700113095e-03
7.66574074074074e-02 6.37677095313403e-01 1.33419492176788e-03
8.56759259259259e-02 6.33614032150501e-01 1.40187201594646e-03
9.46944444444445e-02 6.29576857455374e-01 1.46469515480847e-03
1.03712962962963e-01 6.25565406275210e-01 1.52330566129147e-03
1.12731481481481e-01 6.21579514715023e-01 1.57820890334898e-03
1.21750000000000e-01 6.17619019893506e-01 1.62981221999572e-03
1.30768518518519e-01 6.13683760024460e-01 1.67845015397832e-03
1.39787037037037e-01 6.09773574288558e-01 1.72440183139488e-03
1.48805555555556e-01 6.05888302950094e-01 1.76790330484844e-03
1.57824074074074e-01 6.02027787236629e-01 1.80915654412709e-03
1.66842592592593e-01 5.98191869438088e-01 1.84833612641082e-03
1.75861111111111e-01 5.94380392801929e-01 1.88559431330179e-03
1.84879629629630e-01 5.90593201618769e-01 1.92106496530765e-03
1.93898148148148e-01 5.86830141129632e-01 1.95486660773043e-03
2.02916666666667e-01 5.83091057600966e-01 1.98710486104463e-03
2.11935185185185e-01 5.79375798241558e-01 2.01787439294562e-03
2.20953703703704e-01 5.75684211268990e-01 2.04726050064018e-03
2.29972222222222e-01 5.72016145834469e-01 2.07534040817640e-03
2.38990740740741e-01 5.68371452082223e-01 2.10218433742166e-03
2.48009259259259e-01 5.64749981080938e-01 2.12785640343322e-03
2.57027777777778e-01 5.61151584863306e-01 2.15241535515582e-03
2.66046296296296e-01 5.57576116418877e-01 2.17591522127703e-03
2.75064814814815e-01 5.54023429645898e-01 2.19840584073870e-03
2.84083333333333e-01 5.50493379400342e-01 2.21993332520163e-03
2.93101851851852e-01 5.46985821437292e-01 2.24054045597569e-03
3.02120370370370e-01 5.43500612455580e-01 2.26026702632171e-03
3.11138888888889e-01 5.40037610043406e-01 2.27915013973001e-03
3.20157407407407e-01 5.36596672719169e-01 2.29722446940323e-03
3.29175925925926e-01 5.33177659880789e-01 2.31452248648262e-03
3.38194444444444e-01 5.29780431843217e-01 2.33107466009661e-03
3.47212962962963e-01 5.26404849791020e-01 2.34690963479624e-03
3.56231481481482e-01 5.23050775812955e-01 2.36205438710906e-03
3.65250000000000e-01 5.19718072857465e-01 2.37653436546280e-03
3.74268518518519e-01 5.16406604764654e-01 2.39037361435068e-03
3.83287037037037e-01 5.13116236224369e-01 2.40359488608968e-03
3.92305555555556e-01 5.09846832805867e-01 2.41621974048908e-03
4.01324074074074e-01 5.06598260918232e-01 2.42826863514638e-03
4.10342592592593e-01 5.03370387837956e-01 2.43976100632557e-03
4.19361111111111e-01 5.00163081671473e-01 2.45071534267779e-03
4.28379629629630e-01 4.96976211380866e-01 2.46114925152226e-03
4.37398148148148e-01 4.93809646748321e-01 2.47107951960967e-03
4.46416666666667e-01 4.90663258400135e-01 2.48052216793174e-03
4.55435185185185e-01 4.87536917772926e-01 2.48949250224291e-03
4.64453703703704e-01 4.84430497136095e-01 2.49800515875814e-03
4.73472222222222e-01 4.81343869559647e-01 2.50607414649662e-03
4.82490740740741e-01 4.78276908935243e-01 2.51371288567310e-03
4.91509259259259e-01 4.75229489945502e-01 2.52093424466333e-03
5.00527777777778e-01 4.72201488077789e-01 2.52775056762181e-03
5.09546296296296e-01 4.69192779618804e-01 2.53417371212362e-03
5.18564814814815e-01 4.66203241631555e-01 2.54021507216136e-03
5.27583333333333e-01 4.63232751974013e-01 2.54588560499034e-03
5.36601851851852e-01 4.60281189271038e-01 2.55119585524301e-03
5.45620370370370e-01 4.57348432931932e-01 2.55615597689132e-03
5.54638888888889e-01 4.54434363123548e-01 2.56077575405826e-03
5.63657407407407e-01 4.51538860786831e-01 2.56506461998565e-03
5.72675925925926e-01 4.48661807611022e-01 2.56903167509072e-03
5.81694444444445e-01 4.45803086049268e-01 2.57268570343053e-03
5.90712962962963e-01 4.42962579293847e-01 2.57603518844678e-03
5.99731481481482e-01 4.40140171290911e-01 2.57908832732403e-03
6.08750000000000e-01 4.37335746716669e-01 2.58185304478332e-03
6.17768518518519e-01 4.34549190991326e-01 2.58433700565970e-03
6.26787037037037e-01 4.31780390256160e-01 2.58654762703868e-03
6.35805555555556e-01 4.29029231386715e-01 2.58849208931985e-03
6.44824074074074e-01 4.26295601970718e-01 2.59017734694053e-03
6.53842592592593e-01 4.23579390320575e-01 2.59161013814474e-03
6.62861111111111e-01 4.20880485452079e-01 2.59279699449588e-03
6.71879629629630e-01 4.18198777096253e-01 2.59374424953496e-03
6.80898148148148e-01 4.15534155678808e-01 2.59445804724947e-03
6.89916666666667e-01 4.12886512331374e-01 2.59494434977386e-03
6.98935185185185e-01 4.10255738871660e-01 2.59520894495655e-03
7.07953703703704e-01 4.07641727814117e-01 2.59525745323058e-03
7.16972222222222e-01 4.05044372350768e-01 2.59509533439673e-03
7.25990740740741e-01 4.02463566361324e-01 2.59472789377327e-03
7.35009259259259e-01 3.99899204394654e-01 2.59416028913205e-03
7.44027777777778e-01 3.97351181675028e-01 2.59339753286909e-03
7.53046296296296e-01 3.94819394097677e-01 2.59244450250649e-03
7.62064814814815e-01 3.92303738214418e-01 2.59130594243190e-03
7.71083333333333e-01 3.89804111242812e-01 2.58998646949022e-03
7.80101851851852e-01 3.87320411048833e-01 2.58849057772477e-03
7.89120370370370e-01 3.84852536155579e-01 2.58682264263955e-03
7.98138888888889e-01 3.82400385726482e-01 2.58498692550543e-03
8.07157407407407e-01 3.79963859573601e-01 2.58298757722230e-03
8.16175925925926e-01 3.77542858141337e-01 2.58082864223940e-03
8.25194444444445e-01 3.75137282514338e-01 2.57851406206173e-03
8.34212962962963e-01 3.72747034401705e-01 2.57604767882894e-03
8.43231481481482e-01 3.70372016144512e-01 2.57343323850714e-03
8.52250000000000e-01 3.68012130700486e-01 2.57067439416237e-03
8.61268518518519e-01 3.65667281651175e-01 2.56777470887149e-03
8.70287037037037e-01 3.63337373187069e-01 2.56473765872401e-03
8.79305555555556e-01 3.61022310114432e-01 2.56156663548268e-03
8.88324074074074e-01 3.58721997840856e-01 2.55826494934109e-03
8.97342592592593e-01 3.56436342381767e-01 2.55483583136002e-03
9.06361111111111e-01 3.54165250346394e-01 2.55128243600653e-03
9.15379629629630e-01 3.51908628943972e-01 2.54760784338914e-03
9.24398148148148e-01 3.49666385970096e-01 2.54381506160002e-03
9.33416666666667e-01 3.47438429812648e-01 2.53990702876929e-03
9.42435185185185e-01 3.45224669438520e-01 2.53588661522971e-03
9.51453703703704e-01 3.43025014399270e-01 2.53175662540791e-03
9.60472222222222e-01 3.40839374818205e-01 2.52751979982845e-03
9.69490740740741e-01 3.38667661395779e-01 2.52317881685834e-03
9.78509259259259e-01 3.36509785397023e-01 2.51873629517610e-03
9.87527777777778e-01 3.34365658654562e-01 2.51419479293676e-03
9.96546296296296e-01 3.32235193564925e-01 2.50955681555647e-03
1.00556481481481e+00 3.30118303070222e-01 2.50482480285104e-03
1.01458333333333e+00 3.28014900704562e-01 2.50000115081029e-03
1.02360185185185e+00 3.25924900505555e-01 2.49508820790717e-03
1.03262037037037e+00 3.23848217079211e-01 2.49008825764976e-03
1.04163888888889e+00 3.21784765575631e-01 2.48500353997267e-03
1.05065740740741e+00 3.19734461685528e-01 2.47983624644982e-03
1.05967592592593e+00 3.17697221636834e-01 2.47458852157008e-03
1.06869444444444e+00 3.15672962191244e-01 2.46926245848745e-03
1.07771296296296e+00 3.13661600659188e-01 2.46386011675303e-03
1.08673148148148e+00 3.11663054840987e-01 2.45838351238121e-03
1.09575000000000e+00 3.09677243079318e-01 2.45283460776523e-03
1.10476851851852e+00 3.07704084237134e-01 2.44721532959937e-03
1.11378703703704e+00 3.05743497694364e-01 2.44152756425632e-03
1.12280555555556e+00 3.03795403344633e-01 2.43577315365057e-03
1.13182407407407e+00 3.01859721608784e-01 2.42995391173487e-03
1.14084259259259e+00 2.99936373380886e-01 2.42407161504786e-03
1.14986111111111e+00 2.98025280076060e-01 2.41812799312358e-03
1.15887962962963e+00 2.96126363610143e-01 2.41212474518306e-03
1.16789814814815e+00 2.94239546396476e-01 2.40606353568109e-03
1.17691666666667e+00 2.92364751342767e-01 2.39994599512840e-03
1.18593518518519e+00 2.90501901847938e-01 2.39377371611363e-03
1.19495370370370e+00 2.88650921814209e-01 2.38754826852741e-03
1.20397222222222e+00 2.86811735598030e-01 2.38127119064614e-03
1.21299074074074e+00 2.84984268053241e-01 2.37494398009012e-03
1.22200925925926e+00 2.83168444512485e-01 2.36856810925245e-03
1.23102777777778e+00 2.81364190784135e-01 2.36214502104312e-03
1.24004629629630e+00 2.79571433149311e-01 2.35567612955826e-03
1.24906481481481e+00 2.77790098358844e-01 2.34916281627693e-03
1.25808333333333e+00 2.76020113644112e-01 2.34260644415398e-03
1.26710185185185e+00 2.74261406672323e-01 2.33600834922143e-03
1.27612037037037e+00 2.72513905585562e-01 2.32936983207483e-03
1.28513888888889e+00 2.70777538983760e-01 2.32269217216758e-03
1.29415740740741e+00 2.69052235921777e-01 2.31597662376915e-03
1.30317592592593e+00 2.67337925906524e-01 2.30922441651615e-03
1.31219444444444e+00 2.65634538894068e-01 2.30243675178307e-03
1.32121296296296e+00 2.63942005299369e-01 2.29561481576628e-03
1.33023148148148e+00 2.62260255955418e-01 2.28875977157849e-03
1.33925000000000e+00 2.60589222148659e-01 2.28187275123818e-03
1.34826851851852e+00 2.58928835603346e-01 2.27495486894288e-03
1.35728703703704e+00 2.57279028478762e-01 2.26800721724064e-03
1.36630555555556e+00 2.55639733366455e-01 2.26103086356024e-03
1.37532407407407e+00 2.54010883299106e-01 2.25402686249777e-03
1.38434259259259e+00 2.52392411712697e-01 2.24699624832185e-03
1.39336111111111e+00 2.50784252479095e-01 2.23994002737979e-03
1.40237962962963e+00 2.49186339891514e-01 2.23285919056721e-03
1.41139814814815e+00 2.47598608661814e-01 2.22575470967974e-03
1.42041666666667e+00 2.46020993917858e-01 2.21862753779715e-03
1.42943518518519e+00 2.44453431200857e-01 2.21147860599585e-03
1.43845370370370e+00 2.42895856473363e-01 2.20430883479167e-03
1.44747222222222e+00 2.41348206084563e-01 2.19711912709007e-03
1.45649074074074e+00 2.39810416799962e-01 2.18991036104311e-03
1.46550925925926e+00 2.38282425787972e-01 2.18268340167247e-03
1.47452777777778e+00 2.36764170617331e-01 2.17543909741665e-03
1.48354629629630e+00 2.35255589254584e-01 2.16817828045644e-03
1.49256481481481e+00 2.33756620061529e-01 2.16090176360331e-03
1.50158333333333e+00 2.32267201802445e-01 2.15361035097361e-03
1.51060185185185e+00 2.30787273612190e-01 2.14630483135683e-03
1.51962037037037e+00 2.29316775023284e-01 2.13898597149772e-03
1.52863888888889e+00 2.27855645953524e-01 2.13165452694284e-03
1.53765740740741e+00 2.26403826703520e-01 2.12431123878039e-03
1.54667592592593e+00 2.24961257954279e-01 2.11695683391812e-03
1.55569444444444e+00 2.23527880764765e-01 2.10959202213625e-03
1.56471296296296e+00 2.22103636578439e-01 2.10221750606187e-03
1.57373148148148e+00 2.20688467193878e-01 2.09483397492964e-03
1.58275000000000e+00 2.19282314789543e-01 2.08744209826290e-03
1.59176851851852e+00 2.17885121912304e-01 2.08004253600779e-03
1.60078703703704e+00 2.16496831475106e-01 2.07263593545740e-03
1.60980555555556e+00 2.15117386754636e-01 2.06522292844491e-03
1.61882407407407e+00 2.13746731397313e-01 2.05780414075748e-03
1.62784259259259e+00 2.12384809391913e-01 2.05038018621948e-03
1.63686111111111e+00 2.11031565092496e-01 2.04295166069988e-03
1.64587962962963e+00 2.09686943207677e-01 2.03551915167817e-03
1.65489814814815e+00 2.08350888798363e-01 2.02808323531957e-03
1.66391666666667e+00 2.07023347275517e-01 2.02064447667952e-03
1.67293518518519e+00 2.05704264397929e-01 2.01320342705294e-03
1.68195370370370e+00 2.04393586277643e-01 2.00576063278687e-03
1.69097222222222e+00 2.03091259354678e-01 1.99831662971134e-03
1.69999074074074e+00 2.01797230418052e-01 1.99087193749883e-03
1.70900925925926e+00 2.00511446595823e-01 1.98342706862484e-03
1.71802777777778e+00 1.99233855352923e-01 1.97598252560477e-03
1.72704629629630e+00 1.97964404489027e-01 1.96853880117167e-03
1.73606481481482e+00 1.96703042136413e-01 1.96109637577361e-03
1.74508333333333e+00 1.95449716764895e-01 1.95365572583062e-03
1.75410185185185e+00 1.94204377158440e-01 1.94621731849222e-03
1.76312037037037e+00 1.92966972434474e-01 1.93878160632829e-03
1.77213888888889e+00 1.91737452034626e-01 1.93134903572561e-03
1.78115740740741e+00 1.90515765722662e-01 1.92392004428259e-03
1.79017592592593e+00 1.89301863582443e-01 1.91649506096467e-03
1.79919444444444e+00 1.88095696015875e-01 1.90907450373732e-03
1.80821296296296e+00 1.86897213747397e-01 1.90165878731328e-03
1.81723148148148e+00 1.85706367802331e-01 1.89424831821475e-03
1.82625000000000e+00 1.84523109524624e-01 1.88684348977411e-03
1.83526851851852e+00 1.83347390568240e-01 1.87944469000992e-03
1.84428703703704e+00 1.82179162895185e-01 1.87205229916913e-03
1.85330555555556e+00 1.81018378773553e-01 1.86466668747476e-03
1.86232407407407e+00 1.79864990781642e-01 1.85728822246092e-03
1.87134259259259e+00 1.78718951787694e-01 1.84991726428479e-03
1.88036111111111e+00 1.77580214966396e-01 1.84255416098004e-03
1.88937962962963e+00 1.76448733790787e-01 1.83519925591435e-03
1.89839814814815e+00 1.75324462030359e-01 1.82785288545243e-03
1.90741666666667e+00 1.74207353749168e-01 1.82051537907447e-03
1.91643518518519e+00 1.73097363303964e-01 1.81318705724950e-03
1.92545370370370e+00 1.71994445347937e-01 1.80586823832408e-03
1.93447222222222e+00 1.70898554811915e-01 1.79855923410545e-03
1.94349074074074e+00 1.69809646919570e-01 1.79126034538806e-03
1.95250925925926e+00 1.68727677179870e-01 1.78397186896061e-03
1.96152777777778e+00 1.67652601385261e-01 1.77669409539903e-03
1.97054629629630e+00 1.66584375609872e-01 1.76942730917086e-03
1.97956481481482e+00 1.65522956207708e-01 1.76217178662753e-03
1.98858333333333e+00 1.64468299816081e-01 1.75492780247857e-03
1.99760185185185e+00 1.63420363338129e-01 1.74769562562823e-03
2.00662037037037e+00 1.62379103956848e-01 1.74047551495906e-03
2.01563888888889e+00 1.61344479128048e-01 1.73326772591800e-03
2.02465740740741e+00 1.60316446578613e-01 1.72607250843365e-03
2.03367592592593e+00 1.59294964304781e-01 1.71889010700942e-03
2.04269444444444e+00 1.58279990570422e-01 1.71172075882506e-03
2.05171296296296e+00 1.57271483910160e-01 1.70456469982672e-03
2.06073148148148e+00 1.56269403113126e-01 1.69742216080119e-03
2.06975000000000e+00 1.55273707235905e-01 1.69029336340049e-03
2.07876851851852e+00 1.54284355595955e-01 1.68317852633579e-03
2.08778703703704e+00 1.53301307769951e-01 1.67607786341164e-03
2.09680555555556e+00 1.52324523592133e-01 1.66899158171902e-03
2.10582407407407e+00 1.51353963157185e-01 1.66191988741406e-03
2.11484259259259e+00 1.50389586804969e-01 1.65486298198627e-03
2.12386111111111e+00 1.49431355132610e-01 1.64782105847979e-03
2.13287962962963e+00 1.48479228988299e-01 1.64079430737077e-03
2.14189814814815e+00 1.47533169469681e-01 1.63378291469732e-03
2.15091666666667e+00 1.46593137922279e-01 1.62678706213157e-03
2.15993518518519e+00 1.45659095937909e-01 1.61980692527306e-03
2.16895370370370e+00 1.44731005357308e-01 1.61284267908849e-03
2.17797222222222e+00 1.43808828255915e-01 1.60589449439118e-03
2.18699074074074e+00 1.42892526955052e-01 1.59896253427579e-03
2.19600925925926e+00 1.41982064016112e-01 1.59204695965272e-03
2.20502777777778e+00 1.41077402239035e-01 1.58514792748065e-03
2.21404629629630e+00 1.40178504660787e-01 1.57826559083159e-03
2.22306481481482e+00 1.39285334553853e-01 1.57140009727819e-03
2.23208333333333e+00 1.38397855428631e-01 1.56455159401733e-03
2.24110185185185e+00 1.37516031020181e-01 1.55772022454758e-03
2.25012037037037e+00 1.36639825298570e-01 1.55090612530441e-03
2.25913888888889e+00 1.35769202463432e-01 1.54410943087349e-03
2.26815740740741e+00 1.34904126942510e-01 1.53733027232132e-03
2.27717592592593e+00 1.34044563390200e-01 1.53056877725377e-03
2.28619444444444e+00 1.33190476686112e-01 1.52382506829058e-03
2.29521296296296e+00 1.32341831937256e-01 1.51709926789460e-03
2.30423148148148e+00 1.31498594465681e-01 1.51039149523498e-03
2.31325000000000e+00 1.30660729818051e-01 1.50370186301057e-03
2.32226851851852e+00 1.29828203760555e-01 1.49703048236284e-03
2.33128703703704e+00 1.29000982277510e-01 1.49037746129901e-03
2.34030555555556e+00 1.28179031569967e-01 1.48374290323892e-03
2.34932407407407e+00 1.27362318057745e-01 1.47712691160490e-03
2.35834259259259e+00 1.26550808367772e-01 1.47052958683707e-03
2.36736111111111e+00 1.25744469343060e-01 1.46395102337073e-03
2.37637962962963e+00 1.24943268037885e-01 1.45739131430528e-03
2.38539814814815e+00 1.24147171716443e-01 1.45085054990297e-03
2.39441666666667e+00 1.23356147851508e-01 1.44432881763492e-03
2.40343518518519e+00 1.22570164123110e-01 1.43782620080759e-03
2.41245370370370e+00 1.21789188420385e-01 1.43134278289120e-03
2.42147222222222e+00 1.21013188830690e-01 1.42487864470069e-03
2.43049074074074e+00 1.20242133647922e-01 1.41843386154012e-03
2.43950925925926e+00 1.19475991367998e-01 1.41200850760722e-03
2.44852777777778e+00 1.18714730687567e-01 1.40560265457344e-03
2.45754629629630e+00 1.17958320502734e-01 1.39921637162543e-03
2.46656481481482e+00 1.17206729907787e-01 1.39284972416679e-03
2.47558333333333e+00 1.16459928196896e-01 1.38650277790125e-03
2.48460185185185e+00 1.15717884853929e-01 1.38017559616898e-03
2.49362037037037e+00 1.14980569560183e-01 1.37386823724913e-03
2.50263888888889e+00 1.14247952190130e-01 1.36758075851522e-03
2.51165740740741e+00 1.13520002810195e-01 1.36131321509279e-03
2.52067592592593e+00 1.12796691677530e-01 1.35506565989740e-03
2.52969444444444e+00 1.12077989238795e-01 1.34883814240511e-03
2.53871296296296e+00 1.11363866131718e-01 1.34263071250746e-03
2.54773148148148e+00 1.10654293175566e-01 1.33644341799410e-03
2.55675000000000e+00 1.09949241378322e-01 1.33027630200313e-03
2.56576851851852e+00 1.09248681932695e-01 1.32412940694296e-03
2.57478703703704e+00 1.08552586214943e-01 1.31800277322347e-03
2.58380555555556e+00 1.07860925783708e-01 1.31189643808435e-03
2.59282407407407e+00 1.07173672381447e-01 1.30581043926334e-03
2.60184259259259e+00 1.06490797925445e-01 1.29974481259847e-03
2.61086111111111e+00 1.05812274514542e-01 1.29369958959996e-03
2.61987962962963e+00 1.05138074425356e-01 1.28767480118223e-03
2.62889814814815e+00 1.04468170111146e-01 1.28167047645466e-03
2.63791666666667e+00 1.03802534200691e-01 1.27568664275157e-03
2.64693518518519e+00 1.03141139497171e-01 1.26972332452402e-03
2.65595370370370e+00 1.02483958979479e-01 1.26378054680384e-03
2.66497222222222e+00 1.01830965793806e-01 1.25785833293673e-03
2.67399074074074e+00 1.01182133259893e-01 1.25195670228595e-03
2.68300925925926e+00 1.00537434867478e-01 1.24607567375779e-03
2.69202777777778e+00 9.98968442752130e-02 1.24021526465712e-03
2.70104629629630e+00 9.92603353095882e-02 1.23437549071433e-03
2.71006481481482e+00 9.86278819638635e-02 1.22855636503677e-03
2.71908333333333e+00 9.79994583992711e-02 1.22275790138127e-03
2.72810185185185e+00 9.73750389371261e-02 1.21698011201014e-03
2.73712037037037e+00 9.67545980646458e-02 1.21122300551971e-03
2.74613888888889e+00 9.61381104316063e-02 1.20548659017066e-03
2.75515740740741e+00 9.55255508493054e-02 1.19977087280495e-03
2.76417592592593e+00 9.49168942895363e-02 1.19407585887084e-03
2.77319444444444e+00 9.43121158835633e-02 1.18840155142989e-03
2.78221296296296e+00 9.37111909232241e-02 1.18274795424949e-03
2.79123148148148e+00 9.31140948535329e-02 1.17711506977482e-03
2.80025000000000e+00 9.25208032780972e-02 1.17150289707469e-03
2.80926851851852e+00 9.19312919559692e-02 1.16591143498849e-03
2.81828703703704e+00 9.13455368006562e-02 1.16034068110165e-03
2.82730555555556e+00 9.07635138791372e-02 1.15479063079817e-03
2.83632407407407e+00 9.01851994128828e-02 1.14926128020702e-03
2.84534259259259e+00 8.96105697708573e-02 1.14375262426865e-03
