Energy (eV)          EEDF (eV^-(3/2))     First Anisotropy
3.47959183673469e-03 1.14545478039580e+00 6.06471350851436e-04
1.04387755102041e-02 1.13741234687328e+00 1.00130707667566e-03
1.73979591836735e-02 1.12942638066500e+00 1.32144281957416e-03
2.43571428571429e-02 1.12149648527514e+00 1.56441159944094e-03
3.13163265306122e-02 1.11362226702608e+00 1.76685137354589e-03
3.82755102040816e-02 1.10580333500099e+00 1.94261736095171e-03
4.52346938775510e-02 1.09803930104716e+00 2.09888106567917e-03
5.21938775510204e-02 1.09032977969632e+00 2.23997397748776e-03
5.91530612244898e-02 1.08267438820700e+00 2.36876935525008e-03
6.61122448979592e-02 1.07507274652480e+00 2.48729833671075e-03
7.30714285714286e-02 1.06752447727472e+00 2.59706475443957e-03
8.00306122448980e-02 1.06002920570876e+00 2.69922203309541e-03
8.69897959183673e-02 1.05258655972137e+00 2.79467984952675e-03
9.39489795918367e-02 1.04519616981972e+00 2.88417205500815e-03
1.00908163265306e-01 1.03785766911278e+00 2.96830185519682e-03
1.07867346938776e-01 1.03057069327647e+00 3.04757295884977e-03
1.14826530612245e-01 1.02333488051986e+00 3.12241168754896e-03
1.21785714285714e-01 1.01614987167986e+00 3.19318311301031e-03
1.28744897959184e-01 1.00901530999447e+00 3.26020305082128e-03
1.35704081632653e-01 1.00193084126688e+00 3.32374714599495e-03
1.42663265306122e-01 9.94896113836701e-01 3.38405793636118e-03
1.49622448979592e-01 9.87910778412741e-01 3.44135033770384e-03
1.56581632653061e-01 9.80974488206332e-01 3.49581599321110e-03
1.63540816326531e-01 9.74086898905561e-01 3.54762681204363e-03
1.70500000000000e-01 9.67247668531370e-01 3.59693779822069e-03
1.77459183673469e-01 9.60456457548329e-01 3.64388937128715e-03
1.84418367346939e-01 9.53712928804901e-01 3.68860930457646e-03
1.91377551020408e-01 9.47016747552230e-01 3.73121434048788e-03
1.98336734693878e-01 9.40367581320038e-01 3.77181152963684e-03
2.05295918367347e-01 9.33765100008445e-01 3.81049935695289e-03
2.12255102040816e-01 9.27208975866460e-01 3.84736873958197e-03
2.19214285714286e-01 9.20698883381374e-01 3.88250384356016e-03
2.26173469387755e-01 9.14234499357531e-01 3.91598278525969e-03
2.33132653061224e-01 9.07815502896207e-01 3.94787827524044e-03
2.40091836734694e-01 9.01441575295991e-01 3.97825814282728e-03
2.47051020408163e-01 8.95112400121081e-01 4.00718579292991e-03
2.54010204081633e-01 8.88827663182262e-01 4.03472064131637e-03
2.60969387755102e-01 8.82587052446407e-01 4.06091846483217e-03
2.67928571428571e-01 8.76390258096207e-01 4.08583170982030e-03
2.74887755102041e-01 8.70236972512043e-01 4.10950979826026e-03
2.81846938775510e-01 8.64126890189190e-01 4.13199936907355e-03
2.88806122448980e-01 8.58059707790412e-01 4.15334449259205e-03
2.95765306122449e-01 8.52035124128604e-01 4.17358689334650e-03
3.02724489795918e-01 8.46052840090580e-01 4.19276612071297e-03
3.09683673469388e-01 8.40112558683650e-01 4.21091970173324e-03
3.16642857142857e-01 8.34213985018942e-01 4.22808330815824e-03
3.23602040816327e-01 8.28356826240868e-01 4.24429087975883e-03
3.30561224489796e-01 8.22540791568595e-01 4.25957473544630e-03
3.37520408163265e-01 8.16765592279952e-01 4.27396570186837e-03
3.44479591836735e-01 8.11030941645867e-01 4.28749320412777e-03
3.51438775510204e-01 8.05336554967446e-01 4.30018534795090e-03
3.58397959183673e-01 7.99682149560399e-01 4.31206902104046e-03
3.65357142857143e-01 7.94067444693861e-01 4.32316996080949e-03
3.72316326530612e-01 7.88492161623686e-01 4.33351281599810e-03
3.79275510204082e-01 7.82956023577305e-01 4.34312122825284e-03
3.86234693877551e-01 7.77458755696472e-01 4.35201788330941e-03
3.93193877551020e-01 7.72000085067241e-01 4.36022455773160e-03
4.00153061224490e-01 7.66579740705229e-01 4.36776218582673e-03
4.07112244897959e-01 7.61197453501869e-01 4.37465089869741e-03
4.14071428571429e-01 7.55852956251470e-01 4.38091006001844e-03
4.21030612244898e-01 7.50545983636865e-01 4.38655832186336e-03
4.27989795918367e-01 7.45276272178814e-01 4.39161365472520e-03
4.34948979591837e-01 7.40043560260488e-01 4.39609337509204e-03
4.41908163265306e-01 7.34847588113482e-01 4.40001419273972e-03
4.48867346938776e-01 7.29688097770063e-01 4.40339223393305e-03
4.55826530612245e-01 7.24564833085371e-01 4.40624306278207e-03
4.62785714285714e-01 7.19477539723768e-01 4.40858172186096e-03
4.69744897959184e-01 7.14425965113690e-01 4.41042275019497e-03
4.76704081632653e-01 7.09409858467788e-01 4.41178019984518e-03
4.83663265306122e-01 7.04428970769624e-01 4.41266767122737e-03
4.90622448979592e-01 6.99483054730877e-01 4.41309832706977e-03
4.97581632653061e-01 6.94571864809655e-01 4.41308490529749e-03
5.04540816326531e-01 6.89695157197512e-01 4.41263975008456e-03
5.11500000000000e-01 6.84852689778816e-01 4.41177482266713e-03
5.18459183673469e-01 6.80044222147421e-01 4.41050171331176e-03
5.25418367346939e-01 6.75269515585107e-01 4.40883166095403e-03
5.32377551020408e-01 6.70528333058519e-01 4.40677557145173e-03
5.39336734693878e-01 6.65820439180893e-01 4.40434402727099e-03
5.46295918367347e-01 6.61145600227023e-01 4.40154729447444e-03
5.53255102040816e-01 6.56503584120996e-01 4.39839534668967e-03
5.60214285714286e-01 6.51894160399729e-01 4.39489787087608e-03
5.67173469387755e-01 6.47317100226597e-01 4.39106427262590e-03
5.74132653061225e-01 6.42772176379471e-01 4.38690369786251e-03
5.81091836734694e-01 6.38259163215933e-01 4.38242503716182e-03
5.88051020408163e-01 6.33777836685688e-01 4.37763692970050e-03
5.95010204081633e-01 6.29327974318903e-01 4.37254778303383e-03
6.01969387755102e-01 6.24909355192963e-01 4.36716577625484e-03
6.08928571428571e-01 6.20521759943799e-01 4.36149886285201e-03
6.15887755102041e-01 6.16164970754492e-01 4.35555478884751e-03
6.22846938775510e-01 6.11838771323493e-01 4.34934109501763e-03
6.29806122448980e-01 6.07542946874939e-01 4.34286511886894e-03
6.36765306122449e-01 6.03277284147530e-01 4.33613401136190e-03
6.43724489795918e-01 5.99041571364105e-01 4.32915473837037e-03
6.50683673469388e-01 5.94835598241039e-01 4.32193408194249e-03
6.57642857142857e-01 5.90659155977389e-01 4.31447865579538e-03
6.64602040816327e-01 5.86512037225726e-01 4.30679490615600e-03
6.71561224489796e-01 5.82394036100709e-01 4.29888911243956e-03
6.78520408163265e-01 5.78304948168474e-01 4.29076740166738e-03
6.85479591836735e-01 5.74244570418657e-01 4.28243574880422e-03
6.92438775510204e-01 5.70212701272204e-01 4.27389997696174e-03
6.99397959183673e-01 5.66209140571004e-01 4.26516577086705e-03
7.06357142857143e-01 5.62233689551029e-01 4.25623867678734e-03
7.13316326530612e-01 5.58286150849445e-01 4.24712410234730e-03
7.20275510204082e-01 5.54366328494475e-01 4.23782732915504e-03
7.27234693877551e-01 5.50474027879595e-01 4.22835351238794e-03
7.34193877551020e-01 5.46609055770006e-01 4.21870768029725e-03
7.41153061224490e-01 5.42771220292717e-01 4.20889474607955e-03
7.48112244897959e-01 5.38960330911738e-01 4.19891950718584e-03
7.55071428571429e-01 5.35176198433963e-01 4.18878664457184e-03
7.62030612244898e-01 5.31418634999467e-01 4.17850073389175e-03
7.68989795918367e-01 5.27687454057645e-01 4.16806624458260e-03
7.75948979591837e-01 5.23982470372545e-01 4.15748753890608e-03
7.82908163265306e-01 5.20303500013387e-01 4.14676888253018e-03
7.89867346938775e-01 5.16650360331576e-01 4.13591444343121e-03
7.96826530612245e-01 5.13022869965553e-01 4.12492829076765e-03
8.03785714285714e-01 5.09420848831504e-01 4.11381440490549e-03
8.10744897959184e-01 5.05844118101227e-01 4.10257667617255e-03
8.17704081632653e-01 5.02292500206513e-01 4.09121890359721e-03
8.24663265306122e-01 4.98765818830064e-01 4.07974480442564e-03
8.31622448979592e-01 4.95263898884154e-01 4.06815801275824e-03
8.38581632653061e-01 4.91786566514584e-01 4.05646207818096e-03
8.45540816326531e-01 4.88333649091798e-01 4.04466047481639e-03
8.52500000000000e-01 4.84904975190302e-01 4.03275659986655e-03
8.59459183673469e-01 4.81500374592226e-01 4.02075377324883e-03
8.66418367346939e-01 4.78119678274828e-01 4.00865524185013e-03
8.73377551020408e-01 4.74762718405870e-01 3.99646418345582e-03
8.80336734693878e-01 4.71429328323925e-01 3.98418370633040e-03
8.87295918367347e-01 4.68119342541524e-01 3.97181684765801e-03
8.94255102040816e-01 4.64832596736713e-01 3.95936658168340e-03
9.01214285714286e-01 4.61568927734039e-01 3.94683581809264e-03
9.08173469387755e-01 4.58328173507360e-01 3.93422740040693e-03
9.15132653061224e-01 4.55110173171594e-01 3.92154411376342e-03
9.22091836734694e-01 4.51914766964343e-01 3.90878868326180e-03
9.29051020408163e-01 4.48741796248397e-01 3.89596377232351e-03
9.36010204081633e-01 4.45591103503663e-01 3.88307199013819e-03
9.42969387755102e-01 4.42462532309406e-01 3.87011588998607e-03
9.49928571428571e-01 4.39355927346466e-01 3.85709796757407e-03
9.56887755102041e-01 4.36271134389361e-01 3.84402066817019e-03
9.63846938775510e-01 4.33208000289120e-01 3.83088638491067e-03
9.70806122448980e-01 4.30166372975234e-01 3.81769745712191e-03
9.77765306122449e-01 4.27146101447926e-01 3.80445617716282e-03
9.84724489795918e-01 4.24147035761555e-01 3.79116478872591e-03
9.91683673469388e-01 4.21169027026308e-01 3.77782548515133e-03
9.98642857142857e-01 4.18211927400655e-01 3.76444041687836e-03
1.00560204081633e+00 4.15275590072415e-01 3.75101168360859e-03
1.01256122448980e+00 4.12359869280067e-01 3.73754135091247e-03
1.01952040816327e+00 4.09464620243464e-01 3.72403142971498e-03
1.02647959183673e+00 4.06589699254737e-01 3.71048388393277e-03
1.03343877551020e+00 4.03734963586812e-01 3.69690066177057e-03
1.04039795918367e+00 4.00900271488371e-01 3.68328364495172e-03
1.04735714285714e+00 3.98085482256727e-01 3.66963467544762e-03
1.05431632653061e+00 3.95290456150124e-01 3.65595558131771e-03
1.06127551020408e+00 3.92515054382654e-01 3.64224812754570e-03
1.06823469387755e+00 3.89759139193996e-01 3.62851404974317e-03
1.07519387755102e+00 3.87022573740501e-01 3.61475504745215e-03
1.08215306122449e+00 3.84305222189318e-01 3.60097277614430e-03
1.08911224489796e+00 3.81606949636041e-01 3.58716888013029e-03
1.09607142857143e+00 3.78927622099764e-01 3.57334494568395e-03
1.10303061224490e+00 3.76267106588205e-01 3.55950252556421e-03
1.10998979591837e+00 3.73625271018625e-01 3.54564316274687e-03
1.11694897959184e+00 3.71001984212935e-01 3.53176834501178e-03
1.12390816326531e+00 3.68397115960032e-01 3.51787953594468e-03
1.13086734693878e+00 3.65810536917583e-01 3.50397816866789e-03
1.13782653061224e+00 3.63242118696339e-01 3.49006563837242e-03
1.14478571428571e+00 3.60691733785808e-01 3.47614333261331e-03
1.15174489795918e+00 3.58159255549427e-01 3.46221258799296e-03
1.15870408163265e+00 3.55644558282906e-01 3.44827471269740e-03
1.16566326530612e+00 3.53147517142752e-01 3.43433100833882e-03
1.17262244897959e+00 3.50668008141547e-01 3.42038272797139e-03
1.17958163265306e+00 3.48205908203814e-01 3.40643109791045e-03
1.18654081632653e+00 3.45761095097304e-01 3.39247733887456e-03
1.19350000000000e+00 3.43333447428295e-01 3.37852262528795e-03
1.20045918367347e+00 3.40922844695162e-01 3.36456811291397e-03
1.20741836734694e+00 3.38529167203001e-01 3.35061493317222e-03
1.21437755102041e+00 3.36152296136219e-01 3.33666418638514e-03
1.22133673469388e+00 3.33792113493808e-01 3.32271696880873e-03
1.22829591836735e+00 3.31448502084761e-01 3.30877433378841e-03
1.23525510204082e+00 3.29121345578280e-01 3.29483731186209e-03
1.24221428571429e+00 3.26810528441463e-01 3.28090693025565e-03
1.24917346938776e+00 3.24515935934802e-01 3.26698417521364e-03
1.25613265306122e+00 3.22237454160335e-01 3.25307001146964e-03
1.26309183673469e+00 3.19974970001661e-01 3.23916540114293e-03
1.27005102040816e+00 3.17728371119469e-01 3.22527126720188e-03
1.27701020408163e+00 3.15497545997762e-01 3.21138851816502e-03
1.28396938775510e+00 3.13282383869325e-01 3.19751804295474e-03
1.29092857142857e+00 3.11082774778491e-01 3.18366070479070e-03
1.29788775510204e+00 3.08898609524531e-01 3.16981736537394e-03
1.30484693877551e+00 3.06729779657330e-01 3.15598884999408e-03
1.31180612244898e+00 3.04576177520761e-01 3.14217596550811e-03
1.31876530612245e+00 3.02437696198145e-01 3.12837951779347e-03
1.32572448979592e+00 3.00314229507976e-01 3.11460027789386e-03
1.33268367346939e+00 2.98205672045581e-01 3.10083900486126e-03
1.33964285714286e+00 2.96111919115363e-01 3.08709644095175e-03
1.34660204081633e+00 2.94032866787470e-01 3.07337330593459e-03
1.35356122448980e+00 2.91968411846297e-01 3.05967031946679e-03
1.36052040816327e+00 2.89918451786313e-01 3.04598816874939e-03
1.36747959183673e+00 2.87882884851215e-01 3.03232752514398e-03
1.37443877551020e+00 2.85861609984248e-01 3.01868906031409e-03
1.38139795918367e+00 2.83854526824126e-01 3.00507341483361e-03
1.38835714285714e+00 2.81861535742637e-01 2.99148121430417e-03
1.39531632653061e+00 2.79882537796740e-01 2.97791308501449e-03
1.40227551020408e+00 2.77917434724522e-01 2.96436962346891e-03
1.40923469387755e+00 2.75966128981363e-01 2.95085141688472e-03
1.41619387755102e+00 2.74028523680424e-01 2.93735903884263e-03
1.42315306122449e+00 2.72104522641943e-01 2.92389304414006e-03
1.43011224489796e+00 2.70194030347926e-01 2.91045398888166e-03
1.43707142857143e+00 2.68296951938227e-01 2.89704240135289e-03
1.44403061224490e+00 2.66413193244573e-01 2.88365879693813e-03
1.45098979591837e+00 2.64542660746823e-01 2.87030369262259e-03
1.45794897959184e+00 2.62685261569122e-01 2.85697757871084e-03
1.46490816326531e+00 2.60840903512615e-01 2.84368093782509e-03
1.47186734693878e+00 2.59009495001137e-01 2.83041424084650e-03
1.47882653061225e+00 2.57190945125894e-01 2.81717794211655e-03
1.48578571428571e+00 2.55385163604081e-01 2.80397249806660e-03
1.49274489795918e+00 2.53592060775124e-01 2.79079834017631e-03
1.49970408163265e+00 2.51811547631496e-01 2.77765588879049e-03
1.50666326530612e+00 2.50043535778743e-01 2.76454556656578e-03
1.51362244897959e+00 2.48287937431802e-01 2.75146777220512e-03
1.52058163265306e+00 2.46544665444653e-01 2.73842289387509e-03
1.52754081632653e+00 2.44813633271703e-01 2.72541132225982e-03
1.53450000000000e+00 2.43094754964163e-01 2.71243342504680e-03
1.54145918367347e+00 2.41387945198589e-01 2.69948956402689e-03
1.54841836734694e+00 2.39693119228940e-01 2.68658009141787e-03
1.55537755102041e+00 2.38010192925642e-01 2.67370534552074e-03
1.56233673469388e+00 2.36339082738996e-01 2.66086566749678e-03
1.56929591836735e+00 2.34679705695664e-01 2.64806137696117e-03
1.57625510204082e+00 2.33031979425573e-01 2.63529278442669e-03
1.58321428571429e+00 2.31395822126546e-01 2.62256020341726e-03
1.59017346938776e+00 2.29771152560859e-01 2.60986392675411e-03
1.59713265306122e+00 2.28157890081142e-01 2.59720423864007e-03
1.60409183673469e+00 2.26555954596200e-01 2.58458142642920e-03
1.61105102040816e+00 2.24965266567608e-01 2.57199575758243e-03
1.61801020408163e+00 2.23385747034674e-01 2.55944749508160e-03
1.62496938775510e+00 2.21817317572014e-01 2.54693689409773e-03
1.63192857142857e+00 2.20259900323786e-01 2.53446419805656e-03
1.63888775510204e+00 2.18713417971253e-01 2.52202965376891e-03
1.64584693877551e+00 2.17177793729508e-01 2.50963348937786e-03
1.65280612244898e+00 2.15652951371008e-01 2.49727592558068e-03
1.65976530612245e+00 2.14138815194220e-01 2.48495718655944e-03
1.66672448979592e+00 2.12635310020385e-01 2.47267747854618e-03
1.67368367346939e+00 2.11142361216210e-01 2.46043700414882e-03
1.68064285714286e+00 2.09659894654965e-01 2.44823595924079e-03
1.68760204081633e+00 2.08187836747654e-01 2.43607452929000e-03
1.69456122448980e+00 2.06726114413258e-01 2.42395290342537e-03
1.70152040816327e+00 2.05274655075591e-01 2.41187125391856e-03
1.70847959183673e+00 2.03833386684735e-01 2.39982974660976e-03
1.71543877551020e+00 2.02402237688227e-01 2.38782855106673e-03
1.72239795918367e+00 2.00981137027995e-01 2.37586782063722e-03
1.72935714285714e+00 1.99570014161003e-01 2.36394770258248e-03
1.73631632653061e+00 1.98168799031385e-01 2.35206834795245e-03
1.74327551020408e+00 1.96777422067417e-01 2.34022989219155e-03
1.75023469387755e+00 1.95395814201434e-01 2.32843246808090e-03
1.75719387755102e+00 1.94023906835275e-01 2.31667620291639e-03
1.76415306122449e+00 1.92661631867702e-01 2.30496121517975e-03
1.77111224489796e+00 1.91308921667926e-01 2.29328762725158e-03
1.77807142857143e+00 1.89965709072679e-01 2.28165554683980e-03
1.78503061224490e+00 1.88631927405032e-01 2.27006507640121e-03
1.79198979591837e+00 1.87307510448761e-01 2.25851632232782e-03
1.79894897959184e+00 1.85992392445475e-01 2.24700937688628e-03
1.80590816326531e+00 1.84686508112765e-01 2.23554433026232e-03
1.81286734693878e+00 1.83389792612433e-01 2.22412126792515e-03
1.81982653061224e+00 1.82102181575533e-01 2.21274026751962e-03
1.82678571428571e+00 1.80823611078006e-01 2.20140141070085e-03
1.83374489795918e+00 1.79554017637898e-01 2.19010476583594e-03
1.84070408163265e+00 1.78293338232516e-01 2.17885039676791e-03
1.84766326530612e+00 1.77041510274835e-01 2.16763837136649e-03
1.85462244897959e+00 1.75798471610769e-01 2.15646874470239e-03
1.86158163265306e+00 1.74564160535725e-01 2.14534156757180e-03
1.86854081632653e+00 1.73338515771749e-01 2.13425689481119e-03
1.87550000000000e+00 1.72121476464845e-01 2.12321476893035e-03
1.88245918367347e+00 1.70912982200951e-01 2.11221523101367e-03
1.88941836734694e+00 1.69712972977635e-01 2.10125831832657e-03
1.89637755102041e+00 1.68521389226180e-01 2.09034406149435e-03
1.90333673469388e+00 1.67338171789854e-01 2.07947249521706e-03
1.91029591836735e+00 1.66163261921305e-01 2.06864364258780e-03
1.91725510204082e+00 1.64996601297684e-01 2.05785752302871e-03
1.92421428571429e+00 1.63838131999578e-01 2.04711416003478e-03
1.93117346938776e+00 1.62687796508463e-01 2.03641356591691e-03
1.93813265306122e+00 1.61545537721300e-01 2.02575574952077e-03
1.94509183673469e+00 1.60411298930119e-01 2.01514072376128e-03
1.95205102040816e+00 1.59285023819517e-01 2.00456849077777e-03
1.95901020408163e+00 1.58166656480752e-01 1.99403905181000e-03
1.96596938775510e+00 1.57056141386473e-01 1.98355240502307e-03
1.97292857142857e+00 1.55953423410246e-01 1.97310854294521e-03
1.97988775510204e+00 1.54858447807122e-01 1.96270746217724e-03
1.98684693877551e+00 1.53771160211221e-01 1.95234914916548e-03
1.99380612244898e+00 1.52691506649070e-01 1.94203358739400e-03
2.00076530612245e+00 1.51619433520766e-01 1.93176076440471e-03
2.00772448979592e+00 1.50554887597603e-01 1.92153065795238e-03
2.01468367346939e+00 1.49497816034955e-01 1.91134324521176e-03
2.02164285714286e+00 1.48448166348971e-01 1.90119850074431e-03
2.02860204081633e+00 1.47405886434457e-01 1.89109639410346e-03
2.03556122448980e+00 1.46370924546944e-01 1.88103689888837e-03
2.04252040816327e+00 1.45343229300388e-01 1.87101997947305e-03
2.04947959183673e+00 1.44322749679373e-01 1.86104559770846e-03
2.05643877551020e+00 1.43309435021714e-01 1.85111371946716e-03
2.06339795918367e+00 1.42303235016209e-01 1.84122430172662e-03
2.07035714285714e+00 1.41304099714426e-01 1.83137729909165e-03
2.07731632653061e+00 1.40311979513832e-01 1.82157267016450e-03
2.08427551020408e+00 1.39326825155582e-01 1.81181036497170e-03
2.09123469387755e+00 1.38348587735911e-01 1.80209033331693e-03
2.09819387755102e+00 1.37377218685276e-01 1.79241252293232e-03
2.10515306122449e+00 1.36412669784205e-01 1.78277687730041e-03
2.11211224489796e+00 1.35454893147223e-01 1.77318334387050e-03
2.11907142857143e+00 1.34503841220715e-01 1.76363186200391e-03
2.12603061224490e+00 1.33559466793718e-01 1.75412236905576e-03
2.13298979591837e+00 1.32621722982329e-01 1.74465480631667e-03
2.13994897959184e+00 1.31690563227608e-01 1.73522910727703e-03
2.14690816326531e+00 1.30765941306010e-01 1.72584520542119e-03
2.15386734693878e+00 1.29847811310112e-01 1.71650303249747e-03
2.16082653061224e+00 1.28936127663159e-01 1.70720251648221e-03
2.16778571428571e+00 1.28030845104197e-01 1.69794358924801e-03
2.17474489795918e+00 1.27131918686049e-01 1.68872617530941e-03
2.18170408163265e+00 1.26239303785197e-01 1.67955019749577e-03
2.18866326530612e+00 1.25352956087364e-01 1.67041558249607e-03
2.19562244897959e+00 1.24472831585527e-01 1.66132224990101e-03
