Energy (eV)          EEDF (eV^-(3/2))     First Anisotropy
1.45918367346939e-02 1.33768883169590e-01 7.16142086638863e-05
4.37755102040816e-02 1.32827867659366e-01 1.18236960843240e-04
7.29591836734694e-02 1.31893471853385e-01 1.56037311261445e-04
1.02142857142857e-01 1.30965649182106e-01 1.84724806562317e-04
1.31326530612245e-01 1.30044353405067e-01 2.08625947179763e-04
1.60510204081633e-01 1.29129538612261e-01 2.29376900063930e-04
1.89693877551020e-01 1.28221159206303e-01 2.47824565683151e-04
2.18877551020408e-01 1.27319169921753e-01 2.64480469561260e-04
2.48061224489796e-01 1.26423525802062e-01 2.79683934496209e-04
2.77244897959184e-01 1.25534182215180e-01 2.93674835680139e-04
3.06428571428571e-01 1.24651094835738e-01 3.06630777178914e-04
3.35612244897959e-01 1.23774219656681e-01 3.18687981885630e-04
3.64795918367347e-01 1.22903512974653e-01 3.29953887492526e-04
3.93979591836735e-01 1.22038931399078e-01 3.40515167228068e-04
4.23163265306122e-01 1.21180431839715e-01 3.50443065310528e-04
4.52346938775510e-01 1.20327971513966e-01 3.59797075036555e-04
4.81530612244898e-01 1.19481507936000e-01 3.68627551465998e-04
5.10714285714286e-01 1.18640998922761e-01 3.76977614548199e-04
5.39897959183673e-01 1.17806402585875e-01 3.84884567170751e-04
5.69081632653061e-01 1.16977677330292e-01 3.92380969540887e-04
5.98265306122449e-01 1.16154781856542e-01 3.99495469798208e-04
6.27448979591837e-01 1.15337675152859e-01 4.06253453739932e-04
6.56632653061224e-01 1.14526316498658e-01 4.12677560433516e-04
6.85816326530612e-01 1.13720665457262e-01 4.18788096283990e-04
7.15000000000000e-01 1.12920681878875e-01 4.24603370987584e-04
7.44183673469388e-01 1.12126325893825e-01 4.30139972895126e-04
7.73367346938776e-01 1.11337557915123e-01 4.35412996589366e-04
8.02551020408163e-01 1.10554338632140e-01 4.40436232621493e-04
8.31734693877551e-01 1.09776629012812e-01 4.45222326761616e-04
8.60918367346939e-01 1.09004390297705e-01 4.49782914698139e-04
8.90102040816326e-01 1.08237584001914e-01 4.54128736585808e-04
9.19285714285714e-01 1.07476171909460e-01 4.58269735142068e-04
9.48469387755102e-01 1.06720116074935e-01 4.62215139894498e-04
9.77653061224490e-01 1.05969378818964e-01 4.65973540684272e-04
1.00683673469388e+00 1.05223922726524e-01 4.69552950276236e-04
1.03602040816327e+00 1.04483710647982e-01 4.72960860136234e-04
1.06520408163265e+00 1.03748705694892e-01 4.76204290737458e-04
1.09438775510204e+00 1.03018871230257e-01 4.79289830496184e-04
1.12357142857143e+00 1.02294170888289e-01 4.82223676575726e-04
1.15275510204082e+00 1.01574568545857e-01 4.85011667629022e-04
1.18193877551020e+00 1.00860028346787e-01 4.87659312439504e-04
1.21112244897959e+00 1.00150514680552e-01 4.90171820739775e-04
1.24030612244898e+00 9.94459921814880e-02 4.92554120803716e-04
1.26948979591837e+00 9.87464257443508e-02 4.94810883967843e-04
1.29867346938776e+00 9.80517805048758e-02 4.96946546783984e-04
1.32785714285714e+00 9.73620218389201e-02 4.98965322533292e-04
1.35704081632653e+00 9.66771153765037e-02 5.00871219907362e-04
1.38622448979592e+00 9.59970269839846e-02 5.02668060005309e-04
1.41540816326531e+00 9.53217227631399e-02 5.04359483761805e-04
1.44459183673469e+00 9.46511690639041e-02 5.05948966553761e-04
1.47377551020408e+00 9.39853324679450e-02 5.07439831569541e-04
1.50295918367347e+00 9.33241797876984e-02 5.08835254432363e-04
1.53214285714286e+00 9.26676780779689e-02 5.10138274884823e-04
1.56132653061224e+00 9.20157946207524e-02 5.11351807544972e-04
1.59051020408163e+00 9.13684969242062e-02 5.12478644570752e-04
1.61969387755102e+00 9.07257527332734e-02 5.13521465196733e-04
1.64887755102041e+00 9.00875300155983e-02 5.14482844565667e-04
1.67806122448980e+00 8.94537969604488e-02 5.15365255004947e-04
1.70724489795918e+00 8.88245219884767e-02 5.16171073954332e-04
1.73642857142857e+00 8.81996737386034e-02 5.16902591348180e-04
1.76561224489796e+00 8.75792210669075e-02 5.17562009899041e-04
1.79479591836735e+00 8.69631330556170e-02 5.18151452496587e-04
1.82397959183673e+00 8.63513789975129e-02 5.18672965673612e-04
1.85316326530612e+00 8.57439284082083e-02 5.19128522678798e-04
1.88234693877551e+00 8.51407510142944e-02 5.19520029919296e-04
1.91153061224490e+00 8.45418167522101e-02 5.19849326115380e-04
1.94071428571429e+00 8.39470957762341e-02 5.20118187554061e-04
1.96989795918367e+00 8.33565584473641e-02 5.20328333032441e-04
1.99908163265306e+00 8.27701753321904e-02 5.20481422600838e-04
2.02826530612245e+00 8.21879172102907e-02 5.20579062169567e-04
2.05744897959184e+00 8.16097550637745e-02 5.20622807851533e-04
2.08663265306122e+00 8.10356600761625e-02 5.20614164409909e-04
2.11581632653061e+00 8.04656036392428e-02 5.20554589341607e-04
2.14500000000000e+00 7.98995573432210e-02 5.20445496731978e-04
2.17418367346939e+00 7.93374929756057e-02 5.20288255492766e-04
2.20336734693878e+00 7.87793825275786e-02 5.20084193015670e-04
2.23255102040816e+00 7.82251981846993e-02 5.19834598626855e-04
2.26173469387755e+00 7.76749123257953e-02 5.19540721679103e-04
2.29091836734694e+00 7.71284975288913e-02 5.19203774846510e-04
2.32010204081633e+00 7.65859265624263e-02 5.18824937247958e-04
2.34928571428571e+00 7.60471723841440e-02 5.18405352440950e-04
2.37846938775510e+00 7.55122081466244e-02 5.17946131413731e-04
2.40765306122449e+00 7.49810071889707e-02 5.17448355431291e-04
2.43683673469388e+00 7.44535430357023e-02 5.16913073966432e-04
2.46602040816327e+00 7.39297894019233e-02 5.16341307435411e-04
2.49520408163265e+00 7.34097201854414e-02 5.15734049807838e-04
2.52438775510204e+00 7.28933094656673e-02 5.15092266502350e-04
2.55357142857143e+00 7.23805315084486e-02 5.14416897391270e-04
2.58275510204082e+00 7.18713607566268e-02 5.13708857249373e-04
2.61193877551020e+00 7.13657718368070e-02 5.12969036082027e-04
2.64112244897959e+00 7.08637395520700e-02 5.12198301942308e-04
2.67030612244898e+00 7.03652388808958e-02 5.11397498785852e-04
2.69948979591837e+00 6.98702449815432e-02 5.10567448700743e-04
2.72867346938776e+00 6.93787331851153e-02 5.09708954041530e-04
2.75785714285714e+00 6.88906789944998e-02 5.08822795295232e-04
2.78704081632653e+00 6.84060580884737e-02 5.07909733161071e-04
2.81622448979592e+00 6.79248463150973e-02 5.06970510540537e-04
2.84540816326531e+00 6.74470196906718e-02 5.06005850424494e-04
2.87459183673469e+00 6.69725544035891e-02 5.05016457840186e-04
2.90377551020408e+00 6.65014268080334e-02 5.04003021713826e-04
2.93295918367347e+00 6.60336134229555e-02 5.02966212786532e-04
2.96214285714286e+00 6.55690909356868e-02 5.01906685442276e-04
2.99132653061224e+00 6.51078361959312e-02 5.00825079458322e-04
3.02051020408163e+00 6.46498262147502e-02 4.99722017955325e-04
3.04969387755102e+00 6.41950381679633e-02 4.98598109117457e-04
3.07887755102041e+00 6.37434493904094e-02 4.97453947843285e-04
3.10806122448980e+00 6.32950373749452e-02 4.96290113733876e-04
3.13724489795918e+00 6.28497797756448e-02 4.95107172715840e-04
3.16642857142857e+00 6.24076544023159e-02 4.93905678602422e-04
3.19561224489796e+00 6.19686392195102e-02 4.92686171122596e-04
3.22479591836735e+00 6.15327123495381e-02 4.91449177826183e-04
3.25397959183673e+00 6.10998520658991e-02 4.90195214080754e-04
3.28316326530612e+00 6.06700367976079e-02 4.88924782996584e-04
3.31234693877551e+00 6.02432451240693e-02 4.87638377254977e-04
3.34153061224490e+00 5.98194557741154e-02 4.86336477194611e-04
3.37071428571429e+00 5.93986476287627e-02 4.85019552226418e-04
3.39989795918367e+00 5.89807997163020e-02 4.83688062198165e-04
3.42908163265306e+00 5.85658912113532e-02 4.82342455526554e-04
3.45826530612245e+00 5.81539014374653e-02 4.80983170544376e-04
3.48744897959184e+00 5.77448098624082e-02 4.79610636798781e-04
3.51663265306122e+00 5.73385960972456e-02 4.78225273229678e-04
3.54581632653061e+00 5.69352398987873e-02 4.76827489454402e-04
3.57500000000000e+00 5.65347211650729e-02 4.75417687005049e-04
3.60418367346939e+00 5.61370199344617e-02 4.73996257553281e-04
3.63336734693878e+00 5.57421163879470e-02 4.72563584136779e-04
3.66255102040816e+00 5.53499908448216e-02 4.71120042340745e-04
3.69173469387755e+00 5.49606237617839e-02 4.69665998568917e-04
3.72091836734694e+00 5.45739957351234e-02 4.68201811215488e-04
3.75010204081633e+00 5.41900874965590e-02 4.66727831795207e-04
3.77928571428571e+00 5.38088799123592e-02 4.65244403260226e-04
3.80846938775510e+00 5.34303539854088e-02 4.63751861120888e-04
3.83765306122449e+00 5.30544908512100e-02 4.62250534528385e-04
3.86683673469388e+00 5.26812717770170e-02 4.60740744636649e-04
3.89602040816327e+00 5.23106781637908e-02 4.59222805675452e-04
3.92520408163265e+00 5.19426915423553e-02 4.57697025988725e-04
3.95438775510204e+00 5.15772935725460e-02 4.56163706440727e-04
3.98357142857143e+00 5.12144660450595e-02 4.54623141721794e-04
4.01275510204082e+00 5.08541908768652e-02 4.53075620234478e-04
4.04193877551020e+00 5.04964501139418e-02 4.51521423931047e-04
4.07112244897959e+00 5.01412259276576e-02 4.49960829580478e-04
4.10030612244898e+00 4.97885006139462e-02 4.48394107237330e-04
4.12948979591837e+00 4.94382565950077e-02 4.46821521208184e-04
4.15867346938775e+00 4.90904764158240e-02 4.45243330987356e-04
4.18785714285714e+00 4.87451427433500e-02 4.43659789768251e-04
4.21704081632653e+00 4.84022383681246e-02 4.42071145372760e-04
4.24622448979592e+00 4.80617462009134e-02 4.40477641150470e-04
4.27540816326531e+00 4.77236492719167e-02 4.38879514531567e-04
4.30459183673469e+00 4.73879307322943e-02 4.37276997921304e-04
4.33377551020408e+00 4.70545738509306e-02 4.35670319564820e-04
4.36295918367347e+00 4.67235620136578e-02 4.34059702140543e-04
4.39214285714286e+00 4.63948787247004e-02 4.32445363621291e-04
4.42132653061224e+00 4.60685076035574e-02 4.30827518107101e-04
4.45051020408163e+00 4.57444323842394e-02 4.29206374458090e-04
4.47969387755102e+00 4.54226369166375e-02 4.27582137123430e-04
4.50887755102041e+00 4.51031051635178e-02 4.25955006944212e-04
4.53806122448980e+00 4.47858211997720e-02 4.24325179824694e-04
4.56724489795918e+00 4.44707692137152e-02 4.22692847530857e-04
4.59642857142857e+00 4.41579335041873e-02 4.21058198464841e-04
4.62561224489796e+00 4.38472984798165e-02 4.19421416373504e-04
4.65479591836735e+00 4.35388486602511e-02 4.17782681336126e-04
4.68397959183673e+00 4.32325686727121e-02 4.16142169638014e-04
4.71316326530612e+00 4.29284432538738e-02 4.14500053607255e-04
4.74234693877551e+00 4.26264572471205e-02 4.12856502577728e-04
4.77153061224490e+00 4.23265956018347e-02 4.11211681651248e-04
4.80071428571429e+00 4.20288433745336e-02 4.09565752425901e-04
4.82989795918367e+00 4.17331857262208e-02 4.07918873703556e-04
4.85908163265306e+00 4.14396079216880e-02 4.06271200286851e-04
4.88826530612245e+00 4.11480953305937e-02 4.04622883682803e-04
4.91744897959184e+00 4.08586334249045e-02 4.02974072785723e-04
4.94663265306122e+00 4.05712077782114e-02 4.01324912708082e-04
4.97581632653061e+00 4.02858040667523e-02 3.99675545460489e-04
5.00500000000000e+00 4.00024080669406e-02 3.98026110611216e-04
5.03418367346939e+00 3.97210056546946e-02 3.96376744149966e-04
5.06336734693877e+00 3.94415828064078e-02 3.94727579145129e-04
5.09255102040816e+00 3.91641255965604e-02 3.93078746381153e-04
5.12173469387755e+00 3.88886201970620e-02 3.91430373254251e-04
5.15091836734694e+00 3.86150528781722e-02 3.89782584407701e-04
5.18010204081633e+00 3.83434100061919e-02 3.88135502348269e-04
5.20928571428571e+00 3.80736780428185e-02 3.86489246372951e-04
5.23846938775510e+00 3.78058435460201e-02 3.84843933182964e-04
5.26765306122449e+00 3.75398931678030e-02 3.83199677480394e-04
5.29683673469388e+00 3.72758136535791e-02 3.81556590924903e-04
5.32602040816327e+00 3.70135918429963e-02 3.79914782727435e-04
5.35520408163265e+00 3.67532146677792e-02 3.78274360227829e-04
5.38438775510204e+00 3.64946691511083e-02 3.76635427880634e-04
5.41357142857143e+00 3.62379424084090e-02 3.74998087997775e-04
5.44275510204082e+00 3.59830216447973e-02 3.73362440633353e-04
5.47193877551020e+00 3.57298941563343e-02 3.71728583440515e-04
5.50112244897959e+00 3.54785473279759e-02 3.70096612397849e-04
5.53030612244898e+00 3.52289686329727e-02 3.68466620837689e-04
5.55948979591837e+00 3.49811456335996e-02 3.66838699992611e-04
5.58867346938776e+00 3.47350659791707e-02 3.65212939527022e-04
5.61785714285714e+00 3.44907174054521e-02 3.63589426592467e-04
5.64704081632653e+00 3.42480877353540e-02 3.61968246357098e-04
5.67622448979592e+00 3.40071648770090e-02 3.60349482520384e-04
5.70540816326531e+00 3.37679368231970e-02 3.58733216394689e-04
5.73459183673469e+00 3.35303916520020e-02 3.57119527418326e-04
5.76377551020408e+00 3.32945175249516e-02 3.55508493653987e-04
5.79295918367347e+00 3.30603026864527e-02 3.53900190895840e-04
5.82214285714286e+00 3.28277354644165e-02 3.52294693166665e-04
5.85132653061225e+00 3.25968042684552e-02 3.50692073200895e-04
5.88051020408163e+00 3.23674975893299e-02 3.49092401576473e-04
5.90969387755102e+00 3.21398039995433e-02 3.47495747196385e-04
5.93887755102041e+00 3.19137121515939e-02 3.45902177757115e-04
5.96806122448980e+00 3.16892107774338e-02 3.44311758904446e-04
5.99724489795918e+00 3.14662886890323e-02 3.42724554700007e-04
6.02642857142857e+00 3.12449347766839e-02 3.41140628075634e-04
6.05561224489796e+00 3.10251380084772e-02 3.39560040012447e-04
6.08479591836735e+00 3.08068874308300e-02 3.37982850128046e-04
6.11397959183673e+00 3.05901721664981e-02 3.36409116576236e-04
6.14316326530612e+00 3.03749814154640e-02 3.34838895924649e-04
6.17234693877551e+00 3.01613044533268e-02 3.33272243730113e-04
6.20153061224490e+00 2.99491306307889e-02 3.31709213751915e-04
6.23071428571429e+00 2.97384493741506e-02 3.30149858382968e-04
6.25989795918367e+00 2.95292501837497e-02 3.28594229070043e-04
6.28908163265306e+00 2.93215226334578e-02 3.27042375548590e-04
6.31826530612245e+00 2.91152563711510e-02 3.25494346261151e-04
6.34744897959184e+00 2.89104411171956e-02 3.23950188764911e-04
6.37663265306122e+00 2.87070666639560e-02 3.22409948987391e-04
6.40581632653061e+00 2.85051228762406e-02 3.20873671632600e-04
6.43500000000000e+00 2.83045996898338e-02 3.19341400576334e-04
6.46418367346939e+00 2.81054871110134e-02 3.17813178142160e-04
6.49336734693878e+00 2.79077752169746e-02 3.16289045495626e-04
6.52255102040816e+00 2.77114541544055e-02 3.14769043027838e-04
6.55173469387755e+00 2.75165141390147e-02 3.13253209651196e-04
6.58091836734694e+00 2.73229454559333e-02 3.11741583181889e-04
6.61010204081633e+00 2.71307384583338e-02 3.10234200712323e-04
6.63928571428571e+00 2.69398835669662e-02 3.08731097925995e-04
6.66846938775510e+00 2.67503712705406e-02 3.07232309468621e-04
6.69765306122449e+00 2.65621921243864e-02 3.05737869309818e-04
6.72683673469388e+00 2.63753367499984e-02 3.04247810076530e-04
6.75602040816327e+00 2.61897958353995e-02 3.02762163413206e-04
6.78520408163265e+00 2.60055601338399e-02 3.01280960333154e-04
6.81438775510204e+00 2.58226204633521e-02 2.99804230569928e-04
6.84357142857143e+00 2.56409677070952e-02 2.98332003032904e-04
6.87275510204082e+00 2.54605928118323e-02 2.96864305723973e-04
6.90193877551020e+00 2.52814867885372e-02 2.95401165636982e-04
6.93112244897959e+00 2.51036407111541e-02 2.93942609204795e-04
6.96030612244898e+00 2.49270457161673e-02 2.92488661677423e-04
6.98948979591837e+00 2.47516930029197e-02 2.91039347456128e-04
7.01867346938776e+00 2.45775738324080e-02 2.89594690419422e-04
7.04785714285714e+00 2.44046795268617e-02 2.88154713317912e-04
7.07704081632653e+00 2.42330014700454e-02 2.86719438098927e-04
7.10622448979592e+00 2.40625311060886e-02 2.85288886223064e-04
7.13540816326531e+00 2.38932599390737e-02 2.83863078075325e-04
7.16459183673469e+00 2.37251795333221e-02 2.82442033280555e-04
7.19377551020408e+00 2.35582815122587e-02 2.81025771010858e-04
7.22295918367347e+00 2.33925575580073e-02 2.79614309412507e-04
7.25214285714286e+00 2.32279994116629e-02 2.78207665912448e-04
7.28132653061224e+00 2.30645988721883e-02 2.76805857516987e-04
7.31051020408163e+00 2.29023477960178e-02 2.75408900254066e-04
7.33969387755102e+00 2.27412380973158e-02 2.74016809470952e-04
7.36887755102041e+00 2.25812617469041e-02 2.72629600124600e-04
7.39806122448980e+00 2.24224107718749e-02 2.71247286238782e-04
7.42724489795918e+00 2.22646772558348e-02 2.69869881193275e-04
7.45642857142857e+00 2.21080533378638e-02 2.68497398006221e-04
7.48561224489796e+00 2.19525312121351e-02 2.67129848805559e-04
7.51479591836735e+00 2.17981031281471e-02 2.65767245196079e-04
7.54397959183673e+00 2.16447613895102e-02 2.64409598189380e-04
7.57316326530612e+00 2.14924983543821e-02 2.63056918119866e-04
7.60234693877551e+00 2.13413064344737e-02 2.61709215005234e-04
7.63153061224490e+00 2.11911780946815e-02 2.60366498039528e-04
7.66071428571429e+00 2.10421058533020e-02 2.59028775861957e-04
7.68989795918367e+00 2.08940822810647e-02 2.57696056819471e-04
7.71908163265306e+00 2.07471000007726e-02 2.56368348473238e-04
7.74826530612245e+00 2.06011516875050e-02 2.55045657860060e-04
7.77744897959184e+00 2.04562300676776e-02 2.53727991747596e-04
7.80663265306122e+00 2.03123279186908e-02 2.52415356153830e-04
7.83581632653061e+00 2.01694380691212e-02 2.51107756601344e-04
7.86500000000000e+00 2.00275533978084e-02 2.49805198365371e-04
7.89418367346939e+00 1.98866668335102e-02 2.48507686005963e-04
7.92336734693878e+00 1.97467713550840e-02 2.47215223615243e-04
7.95255102040816e+00 1.96078599905991e-02 2.45927815058613e-04
7.98173469387755e+00 1.94699258169987e-02 2.44645463519234e-04
8.01091836734694e+00 1.93329619602721e-02 2.43368171738406e-04
8.04010204081633e+00 1.91969615945909e-02 2.42095942250203e-04
8.06928571428571e+00 1.90619179419785e-02 2.40828776937892e-04
8.09846938775510e+00 1.89278242724725e-02 2.39566677267672e-04
8.12765306122449e+00 1.87946739032853e-02 2.38309644516934e-04
8.15683673469388e+00 1.86624601984801e-02 2.37057679342283e-04
8.18602040816327e+00 1.85311765691244e-02 2.35810782006796e-04
8.21520408163265e+00 1.84008164724738e-02 2.34568952602161e-04
8.24438775510204e+00 1.82713734116546e-02 2.33332190627975e-04
8.27357142857143e+00 1.81428409358088e-02 2.32100495280909e-04
8.30275510204082e+00 1.80152126391482e-02 2.30873865397541e-04
8.33193877551020e+00 1.78884821612539e-02 2.29652299386166e-04
8.36112244897959e+00 1.77626431862957e-02 2.28435795511055e-04
8.39030612244898e+00 1.76376894427252e-02 2.27224351488734e-04
8.41948979591837e+00 1.75136147034096e-02 2.26017964699697e-04
8.44867346938775e+00 1.73904127848720e-02 2.24816632395281e-04
8.47785714285714e+00 1.72680775469910e-02 2.23620351304492e-04
8.50704081632653e+00 1.71466028931268e-02 2.22429117839984e-04
8.53622448979592e+00 1.70259827693822e-02 2.21242928299279e-04
8.56540816326531e+00 1.69062111643083e-02 2.20061778481788e-04
8.59459183673469e+00 1.67872821090239e-02 2.18885663889338e-04
8.62377551020408e+00 1.66691896764959e-02 2.17714579921879e-04
8.65295918367347e+00 1.65519279812519e-02 2.16548521504457e-04
8.68214285714286e+00 1.64354911794917e-02 2.15387483282314e-04
8.71132653061225e+00 1.63198734683881e-02 2.14231459811347e-04
8.74051020408163e+00 1.62050690858048e-02 2.13080445194754e-04
8.76969387755102e+00 1.60910723104016e-02 2.11934433272801e-04
8.79887755102041e+00 1.59778774609544e-02 2.10793417808280e-04
8.82806122448980e+00 1.58654788960782e-02 2.09657392132500e-04
8.85724489795918e+00 1.57538710143269e-02 2.08526349329921e-04
8.88642857142857e+00 1.56430482535310e-02 2.07400282418696e-04
8.91561224489796e+00 1.55330050905265e-02 2.06279184005795e-04
8.94479591836735e+00 1.54237360412489e-02 2.05163046522435e-04
8.97397959183673e+00 1.53152356599683e-02 2.04051862176336e-04
9.00316326530612e+00 1.52074985395051e-02 2.02945622894982e-04
9.03234693877551e+00 1.51005193105957e-02 2.01844320557192e-04
9.06153061224490e+00 1.49942926416310e-02 2.00747946662044e-04
9.09071428571429e+00 1.48888132387420e-02 1.99656492501049e-04
9.11989795918367e+00 1.47840758451824e-02 1.98569949326542e-04
9.14908163265306e+00 1.46800752410723e-02 1.97488308029143e-04
9.17826530612245e+00 1.45768062434789e-02 1.96411559305375e-04
9.20744897959184e+00 1.44742637058151e-02 1.95339693821564e-04
