Energy (eV)          EEDF (eV^-(3/2))     First Anisotropy
7.22093023255814e-04 1.47469516192261e+01 7.81401921806467e-03
2.16627906976744e-03 1.46289401828010e+01 1.28948884275392e-02
3.61046511627907e-03 1.45118731250283e+01 1.70007976320104e-02
5.05465116279070e-03 1.43957428880066e+01 2.01067819863148e-02
6.49883720930233e-03 1.42805419749150e+01 2.26862220813960e-02
7.94302325581395e-03 1.41662629490861e+01 2.49183938518509e-02
9.38720930232558e-03 1.40528984330270e+01 2.68962188129652e-02
1.08313953488372e-02 1.39404411087110e+01 2.86758956988419e-02
1.22755813953488e-02 1.38288837156960e+01 3.02947528893974e-02
1.37197674418605e-02 1.37182190531972e+01 3.17792129608893e-02
1.51639534883721e-02 1.36084399764538e+01 3.31488644463279e-02
1.66081395348837e-02 1.34995393993063e+01 3.44187510453771e-02
1.80523255813953e-02 1.33915102910144e+01 3.56007526457509e-02
1.94965116279070e-02 1.32843456782703e+01 3.67044651610483e-02
2.09406976744186e-02 1.31780386424978e+01 3.77377861040986e-02
2.23848837209302e-02 1.30725823214721e+01 3.87073184335666e-02
2.38290697674419e-02 1.29679699073606e+01 3.96186577129699e-02
2.52732558139535e-02 1.28641946464867e+01 4.04766011352849e-02
2.67174418604651e-02 1.27612498399446e+01 4.12853035104949e-02
2.81616279069767e-02 1.26591288417524e+01 4.20483955787174e-02
2.96058139534884e-02 1.25578250597572e+01 4.27690753641827e-02
3.10500000000000e-02 1.24573319539483e+01 4.34501797623418e-02
3.24941860465116e-02 1.23576430372303e+01 4.40942413612652e-02
3.39383720930233e-02 1.22587518738693e+01 4.47035340989507e-02
3.53825581395349e-02 1.21606520801574e+01 4.52801103252104e-02
3.68267441860465e-02 1.20633373229713e+01 4.58258311979622e-02
3.82709302325581e-02 1.19668013203461e+01 4.63423918162542e-02
3.97151162790698e-02 1.18710378401306e+01 4.68313421880118e-02
4.11593023255814e-02 1.17760407004837e+01 4.72941048164996e-02
4.26034883720930e-02 1.16818037688062e+01 4.77319896833647e-02
4.40476744186047e-02 1.15883209614008e+01 4.81462068069917e-02
4.54918604651163e-02 1.14955862436225e+01 4.85378771852240e-02
4.69360465116279e-02 1.14035936287638e+01 4.89080421304985e-02
4.83802325581395e-02 1.13123371783667e+01 4.92576713609876e-02
4.98244186046512e-02 1.12218110011659e+01 4.95876700444303e-02
5.12686046511628e-02 1.11320092533587e+01 4.98988849448990e-02
5.27127906976744e-02 1.10429261375994e+01 5.01921098222448e-02
5.41569767441860e-02 1.09545559032324e+01 5.04680901814794e-02
5.56011627906977e-02 1.08668928453338e+01 5.07275274783644e-02
5.70453488372093e-02 1.07799313049113e+01 5.09710828446546e-02
5.84895348837209e-02 1.06936656679884e+01 5.11993804108038e-02
5.99337209302326e-02 1.06080903657757e+01 5.14130102674182e-02
6.13779069767442e-02 1.05231998737938e+01 5.16125311241546e-02
6.28220930232558e-02 1.04389887120189e+01 5.17984726782272e-02
6.42662790697675e-02 1.03554514441539e+01 5.19713378245094e-02
6.57104651162791e-02 1.02725826773001e+01 5.21316045076868e-02
6.71546511627907e-02 1.01903770619334e+01 5.22797275383578e-02
6.85988372093023e-02 1.01088292911266e+01 5.24161401757204e-02
7.00430232558140e-02 1.00279341006272e+01 5.25412555762240e-02
7.14872093023256e-02 9.94768626810859e+00 5.26554681191175e-02
7.29313953488372e-02 9.86808061323110e+00 5.27591546125728e-02
7.43755813953488e-02 9.78911199691979e+00 5.28526754024611e-02
7.58197674418605e-02 9.71077532141045e+00 5.29363753845613e-02
7.72639534883721e-02 9.63306552955241e+00 5.30105849391754e-02
7.87081395348837e-02 9.55597760484088e+00 5.30756207868450e-02
8.01523255813953e-02 9.47950657074327e+00 5.31317867817545e-02
8.15965116279070e-02 9.40364749071913e+00 5.31793746400831e-02
8.30406976744186e-02 9.32839546756856e+00 5.32186646179883e-02
8.44848837209302e-02 9.25374564344097e+00 5.32499261244081e-02
8.59290697674419e-02 9.17969319927866e+00 5.32734183481464e-02
8.73732558139535e-02 9.10623335451748e+00 5.32893907293321e-02
8.88174418604651e-02 9.03336136699457e+00 5.32980835058866e-02
9.02616279069768e-02 8.96107253235402e+00 5.32997281713746e-02
9.17058139534884e-02 8.88936218402486e+00 5.32945479091949e-02
9.31500000000000e-02 8.81822569264442e+00 5.32827580017303e-02
9.45941860465116e-02 8.74765846602880e+00 5.32645662092781e-02
9.60383720930233e-02 8.67765594861297e+00 5.32401731283276e-02
9.74825581395349e-02 8.60821362141443e+00 5.32097725237796e-02
9.89267441860465e-02 8.53932700148929e+00 5.31735516440917e-02
1.00370930232558e-01 8.47099164188969e+00 5.31316914863311e-02
1.01815116279070e-01 8.40320313130536e+00 5.30843671577790e-02
1.03259302325581e-01 8.33595709349902e+00 5.30317480694315e-02
1.04703488372093e-01 8.26924918736966e+00 5.29739981539075e-02
1.06147674418605e-01 8.20307510655568e+00 5.29112761532227e-02
1.07591860465116e-01 8.13743057915687e+00 5.28437358179017e-02
1.09036046511628e-01 8.07231136745863e+00 5.27715261973542e-02
1.10480232558140e-01 8.00771326715683e+00 5.26947915794650e-02
1.11924418604651e-01 7.94363210860612e+00 5.26136718465146e-02
1.13368604651163e-01 7.88006375501566e+00 5.25283028227092e-02
1.14812790697674e-01 7.81700410269899e+00 5.24388161776244e-02
1.16256976744186e-01 7.75444908080918e+00 5.23453396710786e-02
1.17701162790698e-01 7.69239465107602e+00 5.22479973019440e-02
1.19145348837209e-01 7.63083680754528e+00 5.21469094494762e-02
1.20589534883721e-01 7.56977157632016e+00 5.20421930076396e-02
1.22033720930233e-01 7.50919501530470e+00 5.19339615128495e-02
1.23477906976744e-01 7.44910321394932e+00 5.18223252655527e-02
1.24922093023256e-01 7.38949229299840e+00 5.17073914460775e-02
1.26366279069767e-01 7.33035840423946e+00 5.15892642248436e-02
1.27810465116279e-01 7.27169773025547e+00 5.14680448675815e-02
1.29254651162791e-01 7.21350648417801e+00 5.13438318358385e-02
1.30698837209302e-01 7.15578090944285e+00 5.12167208827436e-02
1.32143023255814e-01 7.09851727954741e+00 5.10868051445643e-02
1.33587209302326e-01 7.04171189781023e+00 5.09541752282048e-02
1.35031395348837e-01 6.98536109713228e+00 5.08189192948802e-02
1.36475581395349e-01 6.92946123976026e+00 5.06811231401897e-02
1.37919767441860e-01 6.87400871705175e+00 5.05408702707675e-02
1.39363953488372e-01 6.81899994924228e+00 5.03982420407624e-02
1.40808139534884e-01 6.76443138488204e+00 5.02533175314964e-02
1.42252325581395e-01 6.71029950161201e+00 5.01061737469354e-02
1.43696511627907e-01 6.65660080492207e+00 4.99568858080359e-02
1.45140697674419e-01 6.60333182826667e+00 4.98055268190481e-02
1.46584883720930e-01 6.55048913284109e+00 4.96521679929465e-02
1.48029069767442e-01 6.49806930735942e+00 4.94968787087054e-02
1.49473255813953e-01 6.44606896783433e+00 4.93397265663495e-02
1.50917441860465e-01 6.39448475735864e+00 4.91807774398783e-02
1.52361627906977e-01 6.34331334588861e+00 4.90200955281653e-02
1.53805813953488e-01 6.29255143002892e+00 4.88577434039443e-02
1.55250000000000e-01 6.24219573281948e+00 4.86937820609694e-02
1.56694186046512e-01 6.19224300352376e+00 4.85282709593964e-02
1.58138372093023e-01 6.14269001741906e+00 4.83612680694997e-02
1.59582558139535e-01 6.09353357558836e+00 4.81928299138627e-02
1.61026744186047e-01 6.04477050471380e+00 4.80230116080277e-02
1.62470930232558e-01 5.99639765687177e+00 4.78518668996809e-02
1.63915116279070e-01 5.94841190932970e+00 4.76794482064650e-02
1.65359302325581e-01 5.90081016434448e+00 4.75058066524710e-02
1.66803488372093e-01 5.85358934896250e+00 4.73309921034797e-02
1.68247674418605e-01 5.80674641482124e+00 4.71550532009884e-02
1.69691860465116e-01 5.76027833795250e+00 4.69780373950822e-02
1.71136046511628e-01 5.71418211858717e+00 4.67999910238968e-02
1.72580232558140e-01 5.66845478073480e+00 4.66209592001907e-02
1.74024418604651e-01 5.62309337267753e+00 4.64409859376568e-02
1.75468604651163e-01 5.57809496608771e+00 4.62601142778032e-02
1.76912790697674e-01 5.53345665607144e+00 4.60783861697081e-02
1.78356976744186e-01 5.48917556098104e+00 4.58958425466460e-02
1.79801162790698e-01 5.44524882222902e+00 4.57125233521295e-02
1.81245348837209e-01 5.40167360410355e+00 4.55284675651317e-02
1.82689534883721e-01 5.35844709358537e+00 4.53437132245164e-02
1.84133720930233e-01 5.31556650016625e+00 4.51582974527067e-02
1.85577906976744e-01 5.27302905566880e+00 4.49722564786333e-02
1.87022093023256e-01 5.23083201406776e+00 4.47856256599947e-02
1.88466279069767e-01 5.18897265131269e+00 4.45984395047737e-02
1.89910465116279e-01 5.14744826515226e+00 4.44107316921587e-02
1.91354651162791e-01 5.10625617495972e+00 4.42225350928808e-02
1.92798837209302e-01 5.06539372155986e+00 4.40338817888822e-02
1.94243023255814e-01 5.02485826705735e+00 4.38448030924297e-02
1.95687209302326e-01 4.98464719466643e+00 4.36553295646641e-02
1.97131395348837e-01 4.94475790854198e+00 4.34654910336228e-02
1.98575581395349e-01 4.90518783361196e+00 4.32753166117402e-02
2.00019767441860e-01 4.86593441541117e+00 4.30848347128446e-02
2.01463953488372e-01 4.82699511991635e+00 4.28940731058217e-02
2.02908139534884e-01 4.78836743321966e+00 4.27030588184309e-02
2.04352325581395e-01 4.75004886185901e+00 4.25118182280791e-02
2.05796511627907e-01 4.71203693216054e+00 4.23203771535013e-02
2.07240697674419e-01 4.67432919024584e+00 4.21287607542216e-02
2.08684883720930e-01 4.63692320187348e+00 4.19369935836164e-02
2.10129069767442e-01 4.59981655228186e+00 4.17450996028719e-02
2.11573255813954e-01 4.56300684603338e+00 4.15531021945728e-02
2.13017441860465e-01 4.52649170685974e+00 4.13610241759236e-02
2.14461627906977e-01 4.49026877750858e+00 4.11688878116124e-02
2.15905813953488e-01 4.45433571959128e+00 4.09767148263400e-02
2.17350000000000e-01 4.41869021343202e+00 4.07845264170269e-02
2.18794186046512e-01 4.38332995791799e+00 4.05923432646835e-02
2.20238372093023e-01 4.34825267035088e+00 4.04001855459662e-02
2.21682558139535e-01 4.31345608629957e+00 4.02080729444657e-02
2.23126744186047e-01 4.27893795945385e+00 4.00160246616964e-02
2.24570930232558e-01 4.24469606147950e+00 3.98240594277942e-02
2.26015116279070e-01 4.21072818187436e+00 3.96321955119446e-02
2.27459302325581e-01 4.17703212782568e+00 3.94404507325529e-02
2.28903488372093e-01 4.14360572406853e+00 3.92488424671589e-02
2.30347674418605e-01 4.11044681274539e+00 3.90573876621008e-02
2.31791860465116e-01 4.07755325326685e+00 3.88661028419470e-02
2.33236046511628e-01 4.04492292217342e+00 3.86750041476154e-02
2.34680232558140e-01 4.01255371288050e+00 3.84841072579572e-02
2.36124418604651e-01 3.98044353589889e+00 3.82934274569938e-02
2.37568604651163e-01 3.94859031834070e+00 3.81029797020698e-02
2.39012790697674e-01 3.91699200390617e+00 3.79127785424079e-02
2.40456976744186e-01 3.88564655275095e+00 3.77228381573790e-02
2.41901162790698e-01 3.85455194135440e+00 3.75331723644449e-02
2.43345348837209e-01 3.82370616238897e+00 3.73437946269058e-02
2.44789534883721e-01 3.79310722459060e+00 3.71547180614647e-02
2.46233720930233e-01 3.76275315263018e+00 3.69659554456236e-02
2.47677906976744e-01 3.73264198698605e+00 3.67775192248964e-02
2.49122093023256e-01 3.70277178381749e+00 3.65894215198681e-02
2.50566279069767e-01 3.67314061483916e+00 3.64016741330610e-02
2.52010465116279e-01 3.64374656719677e+00 3.62142885556586e-02
2.53454651162791e-01 3.61458774334348e+00 3.60272759741048e-02
2.54898837209302e-01 3.58566226091747e+00 3.58406472765090e-02
2.56343023255814e-01 3.55696825262035e+00 3.56544130589244e-02
2.57787209302326e-01 3.52850386609671e+00 3.54685836314857e-02
2.59231395348837e-01 3.50026726381443e+00 3.52831690243978e-02
2.60675581395349e-01 3.47225662294614e+00 3.50981789938010e-02
2.62119767441860e-01 3.44447013525154e+00 3.49136230275042e-02
2.63563953488372e-01 3.41690600696061e+00 3.47295103735808e-02
2.65008139534884e-01 3.38956245856964e+00 3.45458499763898e-02
2.66452325581395e-01 3.36243772499295e+00 3.43626505283918e-02
2.67896511627907e-01 3.33553005518035e+00 3.41799205228088e-02
2.69340697674419e-01 3.30883771209434e+00 3.39976681873779e-02
2.70784883720930e-01 3.28235897259792e+00 3.38159015133165e-02
2.72229069767442e-01 3.25609212734337e+00 3.36346282602313e-02
2.73673255813954e-01 3.23003548066194e+00 3.34538559609140e-02
2.75117441860465e-01 3.20418735045431e+00 3.32735919260335e-02
2.76561627906977e-01 3.17854606808208e+00 3.30938432487334e-02
2.78005813953488e-01 3.15310997825998e+00 3.29146168091263e-02
2.79450000000000e-01 3.12787743894906e+00 3.27359192786945e-02
2.80894186046512e-01 3.10284682125068e+00 3.25577571245961e-02
2.82338372093023e-01 3.07801650930130e+00 3.23801366138708e-02
2.83782558139535e-01 3.05338490016827e+00 3.22030638175735e-02
2.85226744186047e-01 3.02895040374629e+00 3.20265446148207e-02
2.86670930232558e-01 3.00471144265476e+00 3.18505846967351e-02
2.88115116279070e-01 2.98066645213596e+00 3.16751895703207e-02
2.89559302325581e-01 2.95681387995404e+00 3.15003645622583e-02
2.91003488372093e-01 2.93315218629479e+00 3.13261148226110e-02
2.92447674418605e-01 2.90967984366629e+00 3.11524453284623e-02
2.93891860465116e-01 2.88639533680023e+00 3.09793608874784e-02
2.95336046511628e-01 2.86329716255415e+00 3.08068661595967e-02
2.96780232558140e-01 2.84038382974842e+00 3.06349656054763e-02
2.98224418604651e-01 2.81765385926925e+00 3.04636635265952e-02
2.99668604651163e-01 2.79510578377255e+00 3.02929641060692e-02
3.01112790697674e-01 2.77273814765650e+00 3.01228713553806e-02
3.02556976744186e-01 2.75054950696767e+00 2.99533891364790e-02
3.04001162790698e-01 2.72853842930775e+00 2.97845211648664e-02
3.05445348837209e-01 2.70670349374109e+00 2.96162710126132e-02
3.06889534883721e-01 2.68504329070299e+00 2.94486421113162e-02
3.08333720930233e-01 2.66355642190869e+00 2.92816377550063e-02
3.09777906976744e-01 2.64224150026311e+00 2.91152611029849e-02
3.11222093023256e-01 2.62109714977130e+00 2.89495151826167e-02
3.12666279069767e-01 2.60012200544959e+00 2.87844028920505e-02
3.14110465116279e-01 2.57931471323753e+00 2.86199270028940e-02
3.15554651162791e-01 2.55867392991042e+00 2.84560901628436e-02
3.16998837209302e-01 2.53819832299264e+00 2.82928948982531e-02
3.18443023255814e-01 2.51788657067160e+00 2.81303436166572e-02
3.19887209302326e-01 2.49773736171245e+00 2.79684386092371e-02
3.21331395348837e-01 2.47774939537339e+00 2.78071820532464e-02
3.22775581395349e-01 2.45792138132169e+00 2.76465760143850e-02
3.24219767441860e-01 2.43825203955045e+00 2.74866224491236e-02
3.25663953488372e-01 2.41874010029593e+00 2.73273232216355e-02
3.27108139534884e-01 2.39938430390502e+00 2.71686800618139e-02
3.28552325581395e-01 2.38018340090665e+00 2.70106945970222e-02
3.29996511627907e-01 2.36113615177736e+00 2.68533683844627e-02
3.31440697674419e-01 2.34224132691289e+00 2.66967028678438e-02
3.32884883720930e-01 2.32349770654879e+00 2.65406993946968e-02
3.34329069767442e-01 2.30490408068169e+00 2.63853592184036e-02
3.35773255813954e-01 2.28645924899120e+00 2.62306835001898e-02
3.37217441860465e-01 2.26816202076240e+00 2.60766733110782e-02
3.38661627906977e-01 2.25001121480899e+00 2.59233296338002e-02
3.40105813953488e-01 2.23200565939702e+00 2.57706533646800e-02
3.41550000000000e-01 2.21414419216928e+00 2.56186453154746e-02
3.42994186046512e-01 2.19642566007020e+00 2.54673062151772e-02
3.44438372093023e-01 2.17884891927150e+00 2.53166367117911e-02
3.45882558139535e-01 2.16141283509827e+00 2.51666373740706e-02
3.47326744186047e-01 2.14411628195579e+00 2.50173086932273e-02
3.48770930232558e-01 2.12695814325683e+00 2.48686510846035e-02
3.50215116279070e-01 2.10993731134954e+00 2.47206648893141e-02
3.51659302325581e-01 2.09305268744601e+00 2.45733503758580e-02
3.53103488372093e-01 2.07630318155129e+00 2.44267077416966e-02
3.54547674418605e-01 2.05968771239304e+00 2.42807371148028e-02
3.55991860465116e-01 2.04320520735173e+00 2.41354385551859e-02
3.57436046511628e-01 2.02685460239138e+00 2.39908120680964e-02
3.58880232558140e-01 2.01063484195229e+00 2.38468575701242e-02
3.60324418604651e-01 1.99454487899949e+00 2.37035749142659e-02
3.61768604651163e-01 1.97858367483773e+00 2.35609639155084e-02
3.63212790697674e-01 1.96275019908386e+00 2.34190243158672e-02
3.64656976744186e-01 1.94704342960031e+00 2.32777557979359e-02
3.66101162790698e-01 1.93146235242908e+00 2.31371579862211e-02
3.67545348837209e-01 1.91600596172629e+00 2.29972304484461e-02
3.68989534883721e-01 1.90067325969727e+00 2.28579726968342e-02
3.70433720930233e-01 1.88546325653212e+00 2.27193841893683e-02
3.71877906976744e-01 1.87037497034184e+00 2.25814643310253e-02
3.73322093023256e-01 1.85540742709492e+00 2.24442124749925e-02
3.74766279069767e-01 1.84055966055445e+00 2.23076279238509e-02
3.76210465116279e-01 1.82583071221579e+00 2.21717099307404e-02
3.77654651162791e-01 1.81121963124466e+00 2.20364577005131e-02
3.79098837209302e-01 1.79672547441575e+00 2.19018703908537e-02
3.80543023255814e-01 1.78234730605187e+00 2.17679471133842e-02
3.81987209302326e-01 1.76808419796351e+00 2.16346869347466e-02
3.83431395348837e-01 1.75393522938891e+00 2.15020888776641e-02
3.84875581395349e-01 1.73989948693468e+00 2.13701519219852e-02
3.86319767441860e-01 1.72597606451678e+00 2.12388750057057e-02
3.87763953488372e-01 1.71216406330202e+00 2.11082570354783e-02
3.89208139534884e-01 1.69846259162003e+00 2.09782968589116e-02
3.90652325581395e-01 1.68487076499644e+00 2.08489932846988e-02
3.92096511627907e-01 1.67138770600440e+00 2.07203451031828e-02
3.93540697674419e-01 1.65801254423862e+00 2.05923510578034e-02
3.94984883720930e-01 1.64474441625915e+00 2.04650098559061e-02
3.96429069767442e-01 1.63158246553565e+00 2.03383201696379e-02
3.97873255813953e-01 1.61852584239213e+00 2.02122806368262e-02
3.99317441860465e-01 1.60557370395205e+00 2.00868898618464e-02
4.00761627906977e-01 1.59272521408394e+00 1.99621464164701e-02
4.02205813953488e-01 1.57997954334742e+00 1.98380488406989e-02
4.03650000000000e-01 1.56733586893964e+00 1.97145956435815e-02
4.05094186046512e-01 1.55479337464216e+00 1.95917853040156e-02
4.06538372093023e-01 1.54235125076829e+00 1.94696162715348e-02
4.07982558139535e-01 1.53000869411080e+00 1.93480869670817e-02
4.09426744186047e-01 1.51776490789004e+00 1.92271957837680e-02
4.10870930232558e-01 1.50561910170259e+00 1.91069410876204e-02
4.12315116279070e-01 1.49357049147012e+00 1.89873212183080e-02
4.13759302325581e-01 1.48161829938887e+00 1.88683344898609e-02
4.15203488372093e-01 1.46976175387939e+00 1.87499791913731e-02
4.16647674418605e-01 1.45800008953673e+00 1.86322535876960e-02
4.18091860465116e-01 1.44633254708105e+00 1.85151559201142e-02
4.19536046511628e-01 1.43475837330859e+00 1.83986844146644e-02
4.20980232558140e-01 1.42327682101976e+00 1.82828372596826e-02
4.22424418604651e-01 1.41188714904124e+00 1.81676126218797e-02
4.23868604651163e-01 1.40058862210732e+00 1.80530086627705e-02
4.25312790697674e-01 1.38938051083621e+00 1.79390235155396e-02
4.26756976744186e-01 1.37826209168296e+00 1.78256552936158e-02
4.28201162790698e-01 1.36723264689271e+00 1.77129020912677e-02
4.29645348837209e-01 1.35629146445440e+00 1.76007619841843e-02
4.31089534883721e-01 1.34543783805479e+00 1.74892330300475e-02
4.32533720930233e-01 1.33467106703285e+00 1.73783132690936e-02
4.33977906976744e-01 1.32399045633456e+00 1.72680007246651e-02
4.35422093023256e-01 1.31339531646799e+00 1.71582934037524e-02
4.36866279069767e-01 1.30288496345885e+00 1.70491892975205e-02
4.38310465116279e-01 1.29245871880630e+00 1.69406863818313e-02
4.39754651162791e-01 1.28211590943913e+00 1.68327826177549e-02
4.41198837209302e-01 1.27185586767238e+00 1.67254759520705e-02
4.42643023255814e-01 1.26167793116416e+00 1.66187643177586e-02
4.44087209302326e-01 1.25158144287293e+00 1.65126456344842e-02
4.45531395348837e-01 1.24156575101508e+00 1.64071178090665e-02
4.46975581395349e-01 1.23163020902286e+00 1.63021787359446e-02
4.48419767441860e-01 1.22177417550262e+00 1.61978262976348e-02
4.49863953488372e-01 1.21199701419344e+00 1.60940583714204e-02
4.51308139534884e-01 1.20229809390765e+00 1.59908728109392e-02
4.52752325581395e-01 1.19267678854555e+00 1.58882674592038e-02
4.54196511627907e-01 1.18313247699919e+00 1.57862401619154e-02
4.55640697674419e-01 1.17366454313099e+00 1.56847887485030e-02
