Energy (eV)          EEDF (eV^-(3/2))     First Anisotropy
1.48000000000000e-04 1.26321900915977e+02 4.22955157096845e-02
4.44000000000000e-04 1.25454340988235e+02 6.98368640314431e-02
7.40000000000000e-04 1.24592739332201e+02 9.21791865178023e-02
1.03600000000000e-03 1.23737055027477e+02 1.09144680681376e-01
1.33200000000000e-03 1.22887247434600e+02 1.23287378246754e-01
1.62800000000000e-03 1.22043276193199e+02 1.35572909464655e-01
1.92400000000000e-03 1.21205101220090e+02 1.46500980822833e-01
2.22000000000000e-03 1.20372682707370e+02 1.56373345334790e-01
2.51600000000000e-03 1.19545981120530e+02 1.65390127437131e-01
2.81200000000000e-03 1.18724957196580e+02 1.73692768378289e-01
3.10800000000000e-03 1.17909571942180e+02 1.81385968351956e-01
3.40400000000000e-03 1.17099786631790e+02 1.88550015109854e-01
3.70000000000000e-03 1.16295562805833e+02 1.95248216947736e-01
3.99600000000000e-03 1.15496862268865e+02 2.01531635506874e-01
4.29200000000000e-03 1.14703647087764e+02 2.07442233696109e-01
4.58800000000000e-03 1.13915879589926e+02 2.13015045672105e-01
4.88400000000000e-03 1.13133522361476e+02 2.18279718039589e-01
5.18000000000000e-03 1.12356538245494e+02 2.23261632577044e-01
5.47600000000000e-03 1.11584890340247e+02 2.27982742148397e-01
5.77200000000000e-03 1.10818541997436e+02 2.32462204991837e-01
6.06800000000000e-03 1.10057456820461e+02 2.36716874105217e-01
6.36400000000000e-03 1.09301598662683e+02 2.40761680445500e-01
6.66000000000000e-03 1.08550931625719e+02 2.44609936959315e-01
6.95600000000000e-03 1.07805420057725e+02 2.48273582669920e-01
7.25200000000000e-03 1.07065028551712e+02 2.51763380743006e-01
7.54800000000000e-03 1.06329721943860e+02 2.55089080773717e-01
7.84400000000000e-03 1.05599465311848e+02 2.58259552938779e-01
8.14000000000000e-03 1.04874223973198e+02 2.61282899792830e-01
8.43600000000000e-03 1.04153963483624e+02 2.64166550130515e-01
8.73200000000000e-03 1.03438649635399e+02 2.66917338334352e-01
9.02800000000000e-03 1.02728248455732e+02 2.69541571880444e-01
9.32400000000000e-03 1.02022726205148e+02 2.72045089109474e-01
9.62000000000000e-03 1.01322049375892e+02 2.74433308938971e-01
9.91600000000000e-03 1.00626184690335e+02 2.76711273860874e-01
1.02120000000000e-02 9.99350990993931e+01 2.78883687310229e-01
1.05080000000000e-02 9.92487597809597e+01 2.80954946288280e-01
1.08040000000000e-02 9.85671341383446e+01 2.82929169963087e-01
1.11000000000000e-02 9.78901897987271e+01 2.84810224843677e-01
1.13960000000000e-02 9.72178946116182e+01 2.86601747021510e-01
1.16920000000000e-02 9.65502166473334e+01 2.88307161890576e-01
1.19880000000000e-02 9.58871241954769e+01 2.89929701690715e-01
1.22840000000000e-02 9.52285857634349e+01 2.91472421164140e-01
1.25800000000000e-02 9.45745700748803e+01 2.92938211570284e-01
1.28760000000000e-02 9.39250460682869e+01 2.94329813267067e-01
1.31720000000000e-02 9.32799828954548e+01 2.95649827036112e-01
1.34680000000000e-02 9.26393499200444e+01 2.96900724303825e-01
1.37640000000000e-02 9.20031167161225e+01 2.98084856388902e-01
1.40600000000000e-02 9.13712530667162e+01 2.99204462888761e-01
1.43560000000000e-02 9.07437289623785e+01 3.00261679302376e-01
1.46520000000000e-02 9.01205145997627e+01 3.01258543974022e-01
1.49480000000000e-02 8.95015803802070e+01 3.02197004431524e-01
1.52440000000000e-02 8.88868969083289e+01 3.03078923183447e-01
1.55400000000000e-02 8.82764349906288e+01 3.03906083031441e-01
1.58360000000000e-02 8.76701656341040e+01 3.04680191947212e-01
1.61320000000000e-02 8.70680600448710e+01 3.05402887557766e-01
1.64280000000000e-02 8.64700896267987e+01 3.06075741277330e-01
1.67240000000000e-02 8.58762259801499e+01 3.06700262120056e-01
1.70200000000000e-02 8.52864409002325e+01 3.07277900223622e-01
1.73160000000000e-02 8.47007063760599e+01 3.07810050110635e-01
1.76120000000000e-02 8.41189945890210e+01 3.08298053711817e-01
1.79080000000000e-02 8.35412779115586e+01 3.08743203172218e-01
1.82040000000000e-02 8.29675289058575e+01 3.09146743459650e-01
1.85000000000000e-02 8.23977203225412e+01 3.09509874792494e-01
1.87960000000000e-02 8.18318250993780e+01 3.09833754902193e-01
1.90920000000000e-02 8.12698163599955e+01 3.10119501144363e-01
1.93880000000000e-02 8.07116674126042e+01 3.10368192470988e-01
1.96840000000000e-02 8.01573517487298e+01 3.10580871274906e-01
1.99800000000000e-02 7.96068430419542e+01 3.10758545116863e-01
2.02760000000000e-02 7.90601151466653e+01 3.10902188344340e-01
2.05720000000000e-02 7.85171420968151e+01 3.11012743610571e-01
2.08680000000000e-02 7.79778981046865e+01 3.11091123301255e-01
2.11640000000000e-02 7.74423575596688e+01 3.11138210876022e-01
2.14600000000000e-02 7.69104950270408e+01 3.11154862130914e-01
2.17560000000000e-02 7.63822852467634e+01 3.11141906387607e-01
2.20520000000000e-02 7.58577031322796e+01 3.11100147614710e-01
2.23480000000000e-02 7.53367237693231e+01 3.11030365485941e-01
2.26440000000000e-02 7.48193224147352e+01 3.10933316379534e-01
2.29400000000000e-02 7.43054744952893e+01 3.10809734322994e-01
2.32360000000000e-02 7.37951556065242e+01 3.10660331886939e-01
2.35320000000000e-02 7.32883415115848e+01 3.10485801031291e-01
2.38280000000000e-02 7.27850081400712e+01 3.10286813907245e-01
2.41240000000000e-02 7.22851315868954e+01 3.10064023617640e-01
2.44200000000000e-02 7.17886881111458e+01 3.09818064938488e-01
2.47160000000000e-02 7.12956541349600e+01 3.09549555004255e-01
2.50120000000000e-02 7.08060062424048e+01 3.09259093959053e-01
2.53080000000000e-02 7.03197211783641e+01 3.08947265575850e-01
2.56040000000000e-02 6.98367758474345e+01 3.08614637845719e-01
2.59000000000000e-02 6.93571473128282e+01 3.08261763538975e-01
2.61960000000000e-02 6.88808127952841e+01 3.07889180739733e-01
2.64920000000000e-02 6.84077496719856e+01 3.07497413355586e-01
2.67880000000000e-02 6.79379354754860e+01 3.07086971603802e-01
2.70840000000000e-02 6.74713478926418e+01 3.06658352475446e-01
2.73800000000000e-02 6.70079647635531e+01 3.06212040178645e-01
2.76760000000000e-02 6.65477640805103e+01 3.05748506562105e-01
2.79720000000000e-02 6.60907239869500e+01 3.05268211520116e-01
2.82680000000000e-02 6.56368227764162e+01 3.04771603380019e-01
2.85640000000000e-02 6.51860388915296e+01 3.04259119272998e-01
2.88600000000000e-02 6.47383509229636e+01 3.03731185489181e-01
2.91560000000000e-02 6.42937376084279e+01 3.03188217817907e-01
2.94520000000000e-02 6.38521778316584e+01 3.02630621873916e-01
2.97480000000000e-02 6.34136506214142e+01 3.02058793410111e-01
3.00440000000000e-02 6.29781351504820e+01 3.01473118617708e-01
3.03400000000000e-02 6.25456107346863e+01 3.00873974414349e-01
3.06360000000000e-02 6.21160568319078e+01 3.00261728720816e-01
3.09320000000000e-02 6.16894530411072e+01 2.99636740726856e-01
3.12280000000000e-02 6.12657791013565e+01 2.98999361146739e-01
3.15240000000000e-02 6.08450148908768e+01 2.98349932465027e-01
3.18200000000000e-02 6.04271404260824e+01 2.97688789172941e-01
3.21160000000000e-02 6.00121358606322e+01 2.97016257995926e-01
3.24120000000000e-02 5.95999814844865e+01 2.96332658112680e-01
3.27080000000000e-02 5.91906577229713e+01 2.95638301366158e-01
3.30040000000000e-02 5.87841451358485e+01 2.94933492466894e-01
3.33000000000000e-02 5.83804244163929e+01 2.94218529188954e-01
3.35960000000000e-02 5.79794763904746e+01 2.93493702558915e-01
3.38920000000000e-02 5.75812820156490e+01 2.92759297038113e-01
3.41880000000000e-02 5.71858223802521e+01 2.92015590698559e-01
3.44840000000000e-02 5.67930787025025e+01 2.91262855392746e-01
3.47800000000000e-02 5.64030323296091e+01 2.90501356917547e-01
3.50760000000000e-02 5.60156647368854e+01 2.89731355172597e-01
3.53720000000000e-02 5.56309575268698e+01 2.88953104313345e-01
3.56680000000000e-02 5.52488924284516e+01 2.88166852898912e-01
3.59640000000000e-02 5.48694512960035e+01 2.87372844035132e-01
3.62600000000000e-02 5.44926161085193e+01 2.86571315512864e-01
3.65560000000000e-02 5.41183689687589e+01 2.85762499941762e-01
3.68520000000000e-02 5.37466921023973e+01 2.84946624879817e-01
3.71480000000000e-02 5.33775678571813e+01 2.84123912958702e-01
3.74440000000000e-02 5.30109787020903e+01 2.83294582005160e-01
3.77400000000000e-02 5.26469072265045e+01 2.82458845158557e-01
3.80360000000000e-02 5.22853361393775e+01 2.81616910984814e-01
3.83320000000000e-02 5.19262482684152e+01 2.80768983586815e-01
3.86280000000000e-02 5.15696265592603e+01 2.79915262711397e-01
3.89240000000000e-02 5.12154540746821e+01 2.79055943853133e-01
3.92200000000000e-02 5.08637139937726e+01 2.78191218354950e-01
3.95160000000000e-02 5.05143896111469e+01 2.77321273505785e-01
3.98120000000000e-02 5.01674643361506e+01 2.76446292635324e-01
4.01080000000000e-02 4.98229216920710e+01 2.75566455205954e-01
4.04040000000000e-02 4.94807453153554e+01 2.74681936902083e-01
4.07000000000000e-02 4.91409189548333e+01 2.73792909716773e-01
4.09960000000000e-02 4.88034264709448e+01 2.72899542035958e-01
4.12920000000000e-02 4.84682518349741e+01 2.72001998720272e-01
4.15880000000000e-02 4.81353791282884e+01 2.71100441184555e-01
4.18840000000000e-02 4.78047925415814e+01 2.70195027475094e-01
4.21800000000000e-02 4.74764763741230e+01 2.69285912344724e-01
4.24760000000000e-02 4.71504150330132e+01 2.68373247325910e-01
4.27720000000000e-02 4.68265930324419e+01 2.67457180801767e-01
4.30680000000000e-02 4.65049949929530e+01 2.66537858075161e-01
4.33640000000000e-02 4.61856056407143e+01 2.65615421435927e-01
4.36600000000000e-02 4.58684098067921e+01 2.64690010226328e-01
4.39560000000000e-02 4.55533924264305e+01 2.63761760904726e-01
4.42520000000000e-02 4.52405385383362e+01 2.62830807107565e-01
4.45480000000000e-02 4.49298332839677e+01 2.61897279709778e-01
4.48440000000000e-02 4.46212619068300e+01 2.60961306883564e-01
4.51400000000000e-02 4.43148097517733e+01 2.60023014155654e-01
4.54360000000000e-02 4.40104622642970e+01 2.59082524463113e-01
4.57320000000000e-02 4.37082049898591e+01 2.58139958207722e-01
4.60280000000000e-02 4.34080235731889e+01 2.57195433308963e-01
4.63240000000000e-02 4.31099037576055e+01 2.56249065255648e-01
4.66200000000000e-02 4.28138313843411e+01 2.55300967156309e-01
4.69160000000000e-02 4.25197923918679e+01 2.54351249788308e-01
4.72120000000000e-02 4.22277728152306e+01 2.53400021645675e-01
4.75080000000000e-02 4.19377587853832e+01 2.52447388985850e-01
4.78040000000000e-02 4.16497365285302e+01 2.51493455875271e-01
4.81000000000000e-02 4.13636923654726e+01 2.50538324233783e-01
4.83960000000000e-02 4.10796127109579e+01 2.49582093878058e-01
4.86920000000000e-02 4.07974840730351e+01 2.48624862563949e-01
4.89880000000000e-02 4.05172930524140e+01 2.47666726027809e-01
4.92840000000000e-02 4.02390263418287e+01 2.46707778026842e-01
4.95800000000000e-02 3.99626707254055e+01 2.45748110378522e-01
4.98760000000000e-02 3.96882130780356e+01 2.44787812999077e-01
5.01720000000000e-02 3.94156403647512e+01 2.43826973941062e-01
5.04680000000000e-02 3.91449396401069e+01 2.42865679430068e-01
5.07640000000000e-02 3.88760980475646e+01 2.41904013900619e-01
5.10600000000000e-02 3.86091028188830e+01 2.40942060031196e-01
5.13560000000000e-02 3.83439412735112e+01 2.39979898778461e-01
5.16520000000000e-02 3.80806008179863e+01 2.39017609410784e-01
5.19480000000000e-02 3.78190689453357e+01 2.38055269540928e-01
5.22440000000000e-02 3.75593332344824e+01 2.37092955158038e-01
5.25400000000000e-02 3.73013813496559e+01 2.36130740658917e-01
5.28360000000000e-02 3.70452010398058e+01 2.35168698878598e-01
5.31320000000000e-02 3.67907801380199e+01 2.34206901120268e-01
5.34280000000000e-02 3.65381065609468e+01 2.33245417184473e-01
5.37240000000000e-02 3.62871683082215e+01 2.32284315397755e-01
5.40200000000000e-02 3.60379534618959e+01 2.31323662640651e-01
5.43160000000000e-02 3.57904501858726e+01 2.30363524375057e-01
5.46120000000000e-02 3.55446467253427e+01 2.29403964671050e-01
5.49080000000000e-02 3.53005314062274e+01 2.28445046233051e-01
5.52040000000000e-02 3.50580926346240e+01 2.27486830425540e-01
5.55000000000000e-02 3.48173188962547e+01 2.26529377298141e-01
5.57960000000000e-02 3.45781987559204e+01 2.25572745610224e-01
5.60920000000000e-02 3.43407208569569e+01 2.24616992854986e-01
5.63880000000000e-02 3.41048739206961e+01 2.23662175283013e-01
5.66840000000000e-02 3.38706467459299e+01 2.22708347925329e-01
5.69800000000000e-02 3.36380282083787e+01 2.21755564616033e-01
5.72760000000000e-02 3.34070072601625e+01 2.20803878014415e-01
5.75720000000000e-02 3.31775729292767e+01 2.19853339626638e-01
5.78680000000000e-02 3.29497143190706e+01 2.18903999826990e-01
5.81640000000000e-02 3.27234206077303e+01 2.17955907878672e-01
5.84600000000000e-02 3.24986810477643e+01 2.17009111954157e-01
5.87560000000000e-02 3.22754849654933e+01 2.16063659155209e-01
5.90520000000000e-02 3.20538217605434e+01 2.15119595532442e-01
5.93480000000000e-02 3.18336809053422e+01 2.14176966104450e-01
5.96440000000000e-02 3.16150519446194e+01 2.13235814876684e-01
5.99400000000000e-02 3.13979244949096e+01 2.12296184859819e-01
6.02360000000000e-02 3.11822882440599e+01 2.11358118087797e-01
6.05320000000000e-02 3.09681329507392e+01 2.10421655635586e-01
6.08280000000000e-02 3.07554484439529e+01 2.09486837636515e-01
6.11240000000000e-02 3.05442246225588e+01 2.08553703299281e-01
6.14200000000000e-02 3.03344514547882e+01 2.07622290924634e-01
6.17160000000000e-02 3.01261189777687e+01 2.06692637921754e-01
6.20120000000000e-02 2.99192172970518e+01 2.05764780824294e-01
6.23080000000000e-02 2.97137365861423e+01 2.04838755306100e-01
6.26040000000000e-02 2.95096670860322e+01 2.03914596196667e-01
6.29000000000000e-02 2.93069991047365e+01 2.02992337496285e-01
6.31960000000000e-02 2.91057230168338e+01 2.02072012390884e-01
6.34920000000000e-02 2.89058292630081e+01 2.01153653266583e-01
6.37880000000000e-02 2.87073083495959e+01 2.00237291724010e-01
6.40840000000000e-02 2.85101508481343e+01 1.99322958592335e-01
6.43800000000000e-02 2.83143473949140e+01 1.98410683943028e-01
6.46760000000000e-02 2.81198886905341e+01 1.97500497103345e-01
6.49720000000000e-02 2.79267654994607e+01 1.96592426669589e-01
6.52680000000000e-02 2.77349686495880e+01 1.95686500520146e-01
6.55640000000000e-02 2.75444890318030e+01 1.94782745828237e-01
6.58600000000000e-02 2.73553175995527e+01 1.93881189074426e-01
6.61560000000000e-02 2.71674453684144e+01 1.92981856058931e-01
6.64520000000000e-02 2.69808634156691e+01 1.92084771913714e-01
6.67480000000000e-02 2.67955628798777e+01 1.91189961114320e-01
6.70440000000000e-02 2.66115349604602e+01 1.90297447491506e-01
6.73400000000000e-02 2.64287709172776e+01 1.89407254242692e-01
6.76360000000000e-02 2.62472620702170e+01 1.88519403943166e-01
6.79320000000000e-02 2.60669997987789e+01 1.87633918557099e-01
6.82280000000000e-02 2.58879755416685e+01 1.86750819448355e-01
6.85240000000000e-02 2.57101807963884e+01 1.85870127391123e-01
6.88200000000000e-02 2.55336071188352e+01 1.84991862580343e-01
6.91160000000000e-02 2.53582461228984e+01 1.84116044641966e-01
6.94120000000000e-02 2.51840894800619e+01 1.83242692643006e-01
6.97080000000000e-02 2.50111289190087e+01 1.82371825101402e-01
7.00040000000000e-02 2.48393562252280e+01 1.81503459995767e-01
7.03000000000000e-02 2.46687632406248e+01 1.80637614774905e-01
7.05960000000000e-02 2.44993418631331e+01 1.79774306367173e-01
7.08920000000000e-02 2.43310840463303e+01 1.78913551189699e-01
7.11880000000000e-02 2.41639817990556e+01 1.78055365157405e-01
7.14840000000000e-02 2.39980271850302e+01 1.77199763691913e-01
7.17800000000000e-02 2.38332123224806e+01 1.76346761730269e-01
7.20760000000000e-02 2.36695293837641e+01 1.75496373733507e-01
7.23720000000000e-02 2.35069705949970e+01 1.74648613695088e-01
7.26680000000000e-02 2.33455282356856e+01 1.73803495149180e-01
7.29640000000000e-02 2.31851946383593e+01 1.72961031178788e-01
7.32600000000000e-02 2.30259621882065e+01 1.72121234423758e-01
7.35560000000000e-02 2.28678233227130e+01 1.71284117088636e-01
7.38520000000000e-02 2.27107705313031e+01 1.70449690950391e-01
7.41480000000000e-02 2.25547963549822e+01 1.69617967366007e-01
7.44440000000000e-02 2.23998933859832e+01 1.68788957279956e-01
7.47400000000000e-02 2.22460542674144e+01 1.67962671231523e-01
7.50360000000000e-02 2.20932716929101e+01 1.67139119362008e-01
7.53320000000000e-02 2.19415384062836e+01 1.66318311421816e-01
7.56280000000000e-02 2.17908472011826e+01 1.65500256777446e-01
7.59240000000000e-02 2.16411909207472e+01 1.64684964418327e-01
7.62200000000000e-02 2.14925624572693e+01 1.63872442963526e-01
7.65160000000000e-02 2.13449547518558e+01 1.63062700668390e-01
7.68120000000000e-02 2.11983607940930e+01 1.62255745431069e-01
7.71080000000000e-02 2.10527736217135e+01 1.61451584798888e-01
7.74040000000000e-02 2.09081863202659e+01 1.60650225974653e-01
7.77000000000000e-02 2.07645920227862e+01 1.59851675822822e-01
7.79960000000000e-02 2.06219839094714e+01 1.59055940875597e-01
7.82920000000000e-02 2.04803552073563e+01 1.58263027338910e-01
7.85880000000000e-02 2.03396991899912e+01 1.57472941098284e-01
7.88840000000000e-02 2.02000091771226e+01 1.56685687724639e-01
7.91800000000000e-02 2.00612785343761e+01 1.55901272479976e-01
7.94760000000000e-02 1.99235006729411e+01 1.55119700322949e-01
7.97720000000000e-02 1.97866690492581e+01 1.54340975914376e-01
8.00680000000000e-02 1.96507771647077e+01 1.53565103622662e-01
8.03640000000000e-02 1.95158185653019e+01 1.52792087529099e-01
8.06600000000000e-02 1.93817868413780e+01 1.52021931433102e-01
8.09560000000000e-02 1.92486756272937e+01 1.51254638857368e-01
8.12520000000000e-02 1.91164786011252e+01 1.50490213052918e-01
8.15480000000000e-02 1.89851894843664e+01 1.49728657004079e-01
8.18440000000000e-02 1.88548020416314e+01 1.48969973433388e-01
8.21400000000000e-02 1.87253100803576e+01 1.48214164806407e-01
8.24360000000000e-02 1.85967074505124e+01 1.47461233336454e-01
8.27320000000000e-02 1.84689880443004e+01 1.46711180989256e-01
8.30280000000000e-02 1.83421457958739e+01 1.45964009487554e-01
8.33240000000000e-02 1.82161746810443e+01 1.45219720315617e-01
8.36200000000000e-02 1.80910687169962e+01 1.44478314723634e-01
8.39160000000000e-02 1.79668219620035e+01 1.43739793732100e-01
8.42120000000000e-02 1.78434285151469e+01 1.43004158136127e-01
8.45080000000000e-02 1.77208825160336e+01 1.42271408509656e-01
8.48040000000000e-02 1.75991781445193e+01 1.41541545209599e-01
8.51000000000000e-02 1.74783096204315e+01 1.40814568379936e-01
8.53960000000000e-02 1.73582712032950e+01 1.40090477955740e-01
8.56920000000000e-02 1.72390571920594e+01 1.39369273667128e-01
8.59880000000000e-02 1.71206619248282e+01 1.38650955043144e-01
8.62840000000000e-02 1.70030797785900e+01 1.37935521415603e-01
8.65800000000000e-02 1.68863051689515e+01 1.37222971922855e-01
8.68760000000000e-02 1.67703325498719e+01 1.36513305513475e-01
8.71720000000000e-02 1.66551564134001e+01 1.35806520949937e-01
8.74680000000000e-02 1.65407712894126e+01 1.35102616812183e-01
8.77640000000000e-02 1.64271717453539e+01 1.34401591501161e-01
8.80600000000000e-02 1.63143523859785e+01 1.33703443242303e-01
8.83560000000000e-02 1.62023078530946e+01 1.33008170088938e-01
8.86520000000000e-02 1.60910328253099e+01 1.32315769925652e-01
8.89480000000000e-02 1.59805220177782e+01 1.31626240471600e-01
8.92440000000000e-02 1.58707701819493e+01 1.30939579283769e-01
8.95400000000000e-02 1.57617721053188e+01 1.30255783760176e-01
8.98360000000000e-02 1.56535226111814e+01 1.29574851143021e-01
9.01320000000000e-02 1.55460165583844e+01 1.28896778521795e-01
9.04280000000000e-02 1.54392488410838e+01 1.28221562836321e-01
9.07240000000000e-02 1.53332143885018e+01 1.27549200879772e-01
9.10200000000000e-02 1.52279081646860e+01 1.26879689301622e-01
9.13160000000000e-02 1.51233251682702e+01 1.26213024610554e-01
9.16120000000000e-02 1.50194604322365e+01 1.25549203177320e-01
9.19080000000000e-02 1.49163090236803e+01 1.24888221237570e-01
9.22040000000000e-02 1.48138660435749e+01 1.24230074894608e-01
9.25000000000000e-02 1.47121266265397e+01 1.23574760122128e-01
9.27960000000000e-02 1.46110859406088e+01 1.22922272766894e-01
9.30920000000000e-02 1.45107391870013e+01 1.22272608551397e-01
9.33880000000000e-02 1.44110815998939e+01 1.21625763076442e-01
