Energy (eV)          EEDF (eV^-(3/2))     First Anisotropy
1.85365853658537e-02 1.21602197994320e-01 7.10607968578410e-05
5.56097560975610e-02 1.20582669754266e-01 1.17243820736863e-04
9.26829268292683e-02 1.19571689366888e-01 1.54516382966977e-04
1.29756097560976e-01 1.18569185169437e-01 1.82675651894907e-04
1.66829268292683e-01 1.17575086092241e-01 2.06031269207889e-04
2.03902439024390e-01 1.16589321666187e-01 2.26216284914712e-04
2.40975609756098e-01 1.15611822017655e-01 2.44077592314559e-04
2.78048780487805e-01 1.14642517848967e-01 2.60127660358214e-04
3.15121951219512e-01 1.13681340448359e-01 2.74707058549034e-04
3.52195121951219e-01 1.12728221680141e-01 2.88056979812195e-04
3.89268292682927e-01 1.11783093982504e-01 3.00356325474973e-04
4.26341463414634e-01 1.10845890354635e-01 3.11742558550062e-04
4.63414634146341e-01 1.09916544360179e-01 3.22324286212040e-04
5.00487804878049e-01 1.08994990119836e-01 3.32189278554454e-04
5.37560975609756e-01 1.08081162308432e-01 3.41409806324341e-04
5.74634146341463e-01 1.07174996144776e-01 3.50046322806658e-04
6.11707317073171e-01 1.06276427392670e-01 3.58150080670735e-04
6.48780487804878e-01 1.05385392355921e-01 3.65765041090875e-04
6.85853658536585e-01 1.04501827869481e-01 3.72929295154574e-04
7.22926829268293e-01 1.03625671299344e-01 3.79676143345127e-04
7.60000000000000e-01 1.02756860536623e-01 3.86034929633977e-04
7.97073170731707e-01 1.01895333994284e-01 3.92031695114860e-04
8.34146341463415e-01 1.01041030599381e-01 3.97689696599727e-04
8.71219512195122e-01 1.00193889792148e-01 4.03029823256720e-04
9.08292682926829e-01 9.93538515205649e-02 4.08070935459150e-04
9.45365853658537e-01 9.85208562369983e-02 4.12830142645234e-04
9.82439024390244e-01 9.76948448912350e-02 4.17323032814082e-04
1.01951219512195e+00 9.68757589290646e-02 4.21563863800297e-04
1.05658536585366e+00 9.60635402879879e-02 4.25565724827218e-04
1.09365853658537e+00 9.52581313914568e-02 4.29340672620785e-04
1.13073170731707e+00 9.44594751456680e-02 4.32899847204148e-04
1.16780487804878e+00 9.36675149355039e-02 4.36253571374445e-04
1.20487804878049e+00 9.28821946205188e-02 4.39411436285502e-04
1.24195121951220e+00 9.21034585309588e-02 4.42382375540899e-04
1.27902439024390e+00 9.13312514638150e-02 4.45174730485670e-04
1.31609756097561e+00 9.05655186730801e-02 4.47796303986471e-04
1.35317073170732e+00 8.98062058836327e-02 4.50254411576001e-04
1.39024390243902e+00 8.90532592693327e-02 4.52555926716040e-04
1.42731707317073e+00 8.83066254553283e-02 4.54707316693313e-04
1.46439024390244e+00 8.75662515142716e-02 4.56714677680027e-04
1.50146341463415e+00 8.68320849625669e-02 4.58583765170035e-04
1.53853658536585e+00 8.61040737566496e-02 4.60320021170763e-04
1.57560975609756e+00 8.53821662892849e-02 4.61928598562983e-04
1.61268292682927e+00 8.46663113859347e-02 4.63414382995061e-04
1.64975609756098e+00 8.39564583011162e-02 4.64782012615499e-04
1.68682926829268e+00 8.32525567148042e-02 4.66035895894504e-04
1.72390243902439e+00 8.25545567288645e-02 4.67180227766869e-04
1.76097560975610e+00 8.18624088635161e-02 4.68219004929725e-04
1.79804878048780e+00 8.11760640500061e-02 4.69156037231237e-04
1.83512195121951e+00 8.04954736387342e-02 4.69994961143083e-04
1.87219512195122e+00 7.98205893840445e-02 4.70739252189614e-04
1.90926829268293e+00 7.91513634447802e-02 4.71392233122961e-04
1.94634146341463e+00 7.84877483808916e-02 4.71957083929618e-04
1.98341463414634e+00 7.78296971500735e-02 4.72436850408417e-04
2.02048780487805e+00 7.71771631044303e-02 4.72834452068590e-04
2.05756097560976e+00 7.65300999871668e-02 4.73152689413332e-04
2.09463414634146e+00 7.58884619293099e-02 4.73394250666569e-04
2.13170731707317e+00 7.52522034464626e-02 4.73561717999049e-04
2.16878048780488e+00 7.46212794355757e-02 4.73657573297836e-04
2.20585365853659e+00 7.39956451717501e-02 4.73684203518465e-04
2.24292682926829e+00 7.33752563050665e-02 4.73643905659498e-04
2.28000000000000e+00 7.27600688574414e-02 4.73538891893765e-04
2.31707317073171e+00 7.21500392168842e-02 4.73371292362019e-04
2.35414634146341e+00 7.15451241423720e-02 4.73143160219980e-04
2.39121951219512e+00 7.09452807527245e-02 4.72856476427456e-04
2.42829268292683e+00 7.03504665262834e-02 4.72513151704683e-04
2.46536585365854e+00 6.97606392978977e-02 4.72115030348955e-04
2.50243902439024e+00 6.91757572559350e-02 4.71663893320558e-04
2.53951219512195e+00 6.85957789393171e-02 4.71161461138952e-04
2.57658536585366e+00 6.80206632345791e-02 4.70609396602430e-04
2.61365853658537e+00 6.74503693729582e-02 4.70009307345632e-04
2.65073170731707e+00 6.68848569275035e-02 4.69362748248309e-04
2.68780487804878e+00 6.63240858102093e-02 4.68671223703960e-04
2.72487804878049e+00 6.57680162691732e-02 4.67936189758972e-04
2.76195121951219e+00 6.52166088857777e-02 4.67159056132085e-04
2.79902439024390e+00 6.46698245718966e-02 4.66341188525193e-04
2.83609756097561e+00 6.41276245652207e-02 4.65483909208435e-04
2.87317073170732e+00 6.35899704322781e-02 4.64588499546717e-04
2.91024390243902e+00 6.30568240598808e-02 4.63656202443073e-04
2.94731707317073e+00 6.25281476543871e-02 4.62688222621235e-04
2.98439024390244e+00 6.20039037390221e-02 4.61685728499674e-04
3.02146341463415e+00 6.14840551512211e-02 4.60649853571699e-04
3.05853658536585e+00 6.09685650399953e-02 4.59581697716918e-04
3.09560975609756e+00 6.04573968633174e-02 4.58482328446648e-04
3.13268292682927e+00 5.99505143855356e-02 4.57352782089658e-04
3.16975609756098e+00 5.94478816748026e-02 4.56194064921810e-04
3.20682926829268e+00 5.89494631005283e-02 4.55007154240709e-04
3.24390243902439e+00 5.84552233308544e-02 4.53792999390589e-04
3.28097560975610e+00 5.79651273301493e-02 4.52552523073857e-04
3.31804878048780e+00 5.74791403550669e-02 4.51286621273712e-04
3.35512195121951e+00 5.69972279564999e-02 4.49996164823343e-04
3.39219512195122e+00 5.65193559726778e-02 4.48682000942376e-04
3.42926829268293e+00 5.60454905282470e-02 4.47344953014939e-04
3.46634146341463e+00 5.55755980318693e-02 4.45985821715919e-04
3.50341463414634e+00 5.51096451738408e-02 4.44605385755879e-04
3.54048780487805e+00 5.46475989237304e-02 4.43204402594399e-04
3.57756097560976e+00 5.41894265280380e-02 4.41783609123463e-04
3.61463414634146e+00 5.37350955078727e-02 4.40343722321940e-04
3.65170731707317e+00 5.32845736566518e-02 4.38885439883930e-04
3.68878048780488e+00 5.28378290378170e-02 4.37409440821824e-04
3.72585365853659e+00 5.23948299825701e-02 4.35916386044547e-04
3.76292682926829e+00 5.19555450876281e-02 4.34406918913077e-04
3.80000000000000e+00 5.15199432129975e-02 4.32881666050094e-04
3.83707317073171e+00 5.10879934786471e-02 4.31341237019022e-04
3.87414634146341e+00 5.06596652657078e-02 4.29786225377082e-04
3.91121951219512e+00 5.02349282108818e-02 4.28217209715860e-04
3.94829268292683e+00 4.98137522054413e-02 4.26634753263255e-04
3.98536585365854e+00 4.93961073930942e-02 4.25039404610313e-04
4.02243902439024e+00 4.89819641678670e-02 4.23431698134738e-04
4.05951219512195e+00 4.85712931720069e-02 4.21812154409110e-04
4.09658536585366e+00 4.81640652938994e-02 4.20181280593933e-04
4.13365853658537e+00 4.77602516660061e-02 4.18539570816701e-04
4.17073170731707e+00 4.73598236628181e-02 4.16887506538081e-04
4.20780487804878e+00 4.69627528988264e-02 4.15225556904868e-04
4.24487804878049e+00 4.65690112265098e-02 4.13554179090569e-04
4.28195121951219e+00 4.61785707343395e-02 4.11873818624359e-04
4.31902439024390e+00 4.57914037448007e-02 4.10184909938867e-04
4.35609756097561e+00 4.54074828115548e-02 4.08487875982003e-04
4.39317073170732e+00 4.50267807201435e-02 4.06783128980020e-04
4.43024390243902e+00 4.46492704833867e-02 4.05071071196213e-04
4.46731707317073e+00 4.42749253403680e-02 4.03352094496032e-04
4.50439024390244e+00 4.39037187545385e-02 4.01626580854664e-04
4.54146341463415e+00 4.35356244118348e-02 3.99894902616751e-04
4.57853658536585e+00 4.31706162188139e-02 3.98157422747857e-04
4.61560975609756e+00 4.28086683008032e-02 3.96414495077425e-04
4.65268292682927e+00 4.24497550000673e-02 3.94666464534500e-04
4.68975609756098e+00 4.20938508739886e-02 3.92913667376417e-04
4.72682926829268e+00 4.17409306932635e-02 3.91156431409817e-04
4.76390243902439e+00 4.13909694401144e-02 3.89395076205058e-04
4.80097560975610e+00 4.10439423065157e-02 3.87629913499730e-04
4.83804878048780e+00 4.06998246917289e-02 3.85861246808936e-04
4.87512195121951e+00 4.03585922026967e-02 3.84089372017342e-04
4.91219512195122e+00 4.00202206501572e-02 3.82314577970273e-04
4.94926829268293e+00 3.96846860476547e-02 3.80537146052017e-04
4.98634146341463e+00 3.93519646098388e-02 3.78757350567858e-04
5.02341463414634e+00 3.90220327507785e-02 3.76975458917465e-04
5.06048780487805e+00 3.86948670822906e-02 3.75191731763366e-04
5.09756097560976e+00 3.83704444122810e-02 3.73406423194540e-04
5.13463414634146e+00 3.80487417431010e-02 3.71619780885076e-04
5.17170731707317e+00 3.77297362699175e-02 3.69832046248686e-04
5.20878048780488e+00 3.74134053790960e-02 3.68043454588902e-04
5.24585365853658e+00 3.70997266465977e-02 3.66254235244789e-04
5.28292682926829e+00 3.67886778363898e-02 3.64464611732729e-04
5.32000000000000e+00 3.64802368988692e-02 3.62674802049617e-04
5.35707317073171e+00 3.61743819687326e-02 3.60885018307721e-04
5.39414634146341e+00 3.58710913651411e-02 3.59095467199761e-04
5.43121951219512e+00 3.55703435884548e-02 3.57306350464877e-04
5.46829268292683e+00 3.52721173192891e-02 3.55517864500769e-04
5.50536585365854e+00 3.49763914170043e-02 3.53730200655580e-04
5.54243902439024e+00 3.46831449182062e-02 3.51943545344907e-04
5.57951219512195e+00 3.43923570352607e-02 3.50158080165784e-04
5.61658536585366e+00 3.41040071548193e-02 3.48373982007586e-04
5.65365853658537e+00 3.38180748363588e-02 3.46591423159960e-04
5.69073170731707e+00 3.35345398107321e-02 3.44810571418216e-04
5.72780487804878e+00 3.32533819787312e-02 3.43031590185905e-04
5.76487804878049e+00 3.29745814096623e-02 3.41254638574691e-04
5.80195121951219e+00 3.26981183399334e-02 3.39479871501687e-04
5.83902439024390e+00 3.24239731716527e-02 3.37707439924575e-04
5.87609756097561e+00 3.21521264707805e-02 3.35937490510650e-04
5.91317073170732e+00 3.18825589671401e-02 3.34170166010802e-04
5.95024390243902e+00 3.16152515516519e-02 3.32405605635076e-04
5.98731707317073e+00 3.13501852754495e-02 3.30643944704719e-04
6.02439024390244e+00 3.10873413485361e-02 3.28885314881431e-04
6.06146341463415e+00 3.08267011384525e-02 3.27129844248922e-04
6.09853658536585e+00 3.05682461689567e-02 3.25377657392623e-04
6.13560975609756e+00 3.03119581187134e-02 3.23628875477207e-04
6.17268292682927e+00 3.00578188199961e-02 3.21883616322342e-04
6.20975609756097e+00 2.98058102573988e-02 3.20141994476856e-04
6.24682926829268e+00 2.95559145665590e-02 3.18404121290868e-04
6.28390243902439e+00 2.93081140328912e-02 3.16670104986258e-04
6.32097560975610e+00 2.90623910903315e-02 3.14940050846303e-04
6.35804878048780e+00 2.88187283197113e-02 3.13214060917876e-04
6.39512195121951e+00 2.85771084486734e-02 3.11492234321648e-04
6.43219512195122e+00 2.83375143492880e-02 3.09774667564048e-04
6.46926829268293e+00 2.80999290372280e-02 3.08061454226064e-04
6.50634146341463e+00 2.78643356705649e-02 3.06352685149817e-04
6.54341463414634e+00 2.76307175485755e-02 3.04648448498285e-04
6.58048780487805e+00 2.73990581105571e-02 3.02948829813681e-04
6.61756097560976e+00 2.71693409346545e-02 3.01253912074439e-04
6.65463414634146e+00 2.69415497366949e-02 2.99563775750843e-04
6.69170731707317e+00 2.67156683690346e-02 2.97878498859522e-04
6.72878048780488e+00 2.64916808194134e-02 2.96198157016704e-04
6.76585365853659e+00 2.62695712098204e-02 2.94522823490240e-04
6.80292682926829e+00 2.60493237953677e-02 2.92852569250417e-04
6.84000000000000e+00 2.58309229631745e-02 2.91187463122861e-04
6.87707317073171e+00 2.56143532309481e-02 2.89527571525404e-04
6.91414634146341e+00 2.53995992468305e-02 2.87872958724491e-04
6.95121951219512e+00 2.51866457873590e-02 2.86223687093428e-04
6.98829268292683e+00 2.49754777567059e-02 2.84579816838549e-04
7.02536585365854e+00 2.47660801856092e-02 2.82941406150812e-04
7.06243902439024e+00 2.45584382303109e-02 2.81308511249305e-04
7.09951219512195e+00 2.43525371715051e-02 2.79681186423783e-04
7.13658536585366e+00 2.41483624132943e-02 2.78059484076209e-04
7.17365853658537e+00 2.39458994821548e-02 2.76443454761445e-04
7.21073170731707e+00 2.37451340259109e-02 2.74833147227154e-04
7.24780487804878e+00 2.35460518127175e-02 2.73228608452730e-04
7.28487804878049e+00 2.33486387300510e-02 2.71629883687432e-04
7.32195121951219e+00 2.31528807837089e-02 2.70037016487707e-04
7.35902439024390e+00 2.29587640968180e-02 2.68450048842148e-04
7.39609756097561e+00 2.27662749085924e-02 2.66869020940112e-04
7.43317073170732e+00 2.25753995741383e-02 2.65293971385635e-04
7.47024390243902e+00 2.23861245627007e-02 2.63724937413144e-04
7.50731707317073e+00 2.21984364569679e-02 2.62161954647468e-04
7.54439024390244e+00 2.20123219521209e-02 2.60605057228442e-04
7.58146341463415e+00 2.18277678548900e-02 2.59054277843015e-04
7.61853658536585e+00 2.16447610826195e-02 2.57509647756753e-04
7.65560975609756e+00 2.14632886623401e-02 2.55971196844565e-04
7.69268292682927e+00 2.12833377298499e-02 2.54438953620859e-04
7.72975609756098e+00 2.11048955288020e-02 2.52912945269146e-04
7.76682926829268e+00 2.09279494098002e-02 2.51393197670937e-04
7.80390243902439e+00 2.07524868295027e-02 2.49879735434052e-04
7.84097560975610e+00 2.05784953497326e-02 2.48372581997207e-04
7.87804878048780e+00 2.04059626363788e-02 2.46871759425143e-04
7.91512195121951e+00 2.02348764591787e-02 2.45377288590642e-04
7.95219512195122e+00 2.00652246901893e-02 2.43889189358251e-04
7.98926829268293e+00 1.98969953031501e-02 2.42407480372218e-04
8.02634146341463e+00 1.97301763726301e-02 2.40932179161236e-04
8.06341463414634e+00 1.95647560731825e-02 2.39463302162956e-04
8.10048780487805e+00 1.94007226785070e-02 2.38000864747991e-04
8.13756097560976e+00 1.92380645606175e-02 2.36544881243429e-04
8.17463414634146e+00 1.90767701890189e-02 2.35095364955844e-04
8.21170731707317e+00 1.89168281298890e-02 2.33652328193913e-04
8.24878048780488e+00 1.87582270452682e-02 2.32215782290552e-04
8.28585365853658e+00 1.86009556922561e-02 2.30785737624569e-04
8.32292682926829e+00 1.84450029222139e-02 2.29362203641924e-04
8.36000000000000e+00 1.82903576799745e-02 2.27945188942677e-04
8.39707317073171e+00 1.81370090028776e-02 2.26534701101671e-04
8.43414634146341e+00 1.79849460205400e-02 2.25130746822298e-04
8.47121951219512e+00 1.78341579535335e-02 2.23733332091758e-04
8.50829268292683e+00 1.76846341128061e-02 2.22342461995774e-04
8.54536585365854e+00 1.75363638989240e-02 2.20958140806072e-04
8.58243902439024e+00 1.73893368013205e-02 2.19580371998810e-04
8.61951219512195e+00 1.72435423975509e-02 2.18209158272654e-04
8.65658536585366e+00 1.70989703525535e-02 2.16844501566492e-04
8.69365853658537e+00 1.69556104179171e-02 2.15486403076784e-04
8.73073170731707e+00 1.68134524311544e-02 2.14134863274640e-04
8.76780487804878e+00 1.66724863149819e-02 2.12789881922507e-04
8.80487804878049e+00 1.65327020766052e-02 2.11451458090528e-04
8.84195121951219e+00 1.63940898070108e-02 2.10119590172564e-04
8.87902439024390e+00 1.62566396802635e-02 2.08794275958974e-04
8.91609756097561e+00 1.61203419526587e-02 2.07475512479835e-04
8.95317073170732e+00 1.59851869624890e-02 2.06163296135347e-04
8.99024390243902e+00 1.58511651288988e-02 2.04857622827663e-04
9.02731707317073e+00 1.57182669513594e-02 2.03558487799129e-04
9.06439024390244e+00 1.55864830089957e-02 2.02265885705690e-04
9.10146341463415e+00 1.54558039599186e-02 2.00979810630825e-04
9.13853658536585e+00 1.53262205405623e-02 1.99700256099261e-04
9.17560975609756e+00 1.51977235650283e-02 1.98427215090376e-04
9.21268292682927e+00 1.50703039244334e-02 1.97160680051352e-04
9.24975609756098e+00 1.49439525862648e-02 1.95900642910128e-04
9.28682926829268e+00 1.48186605937393e-02 1.94647095088026e-04
9.32390243902439e+00 1.46944190651685e-02 1.93400027512154e-04
9.36097560975610e+00 1.45712191933293e-02 1.92159430677383e-04
9.39804878048781e+00 1.44490522447104e-02 1.90925294507905e-04
9.43512195121951e+00 1.43279095592829e-02 1.89697608469608e-04
9.47219512195122e+00 1.42077825494943e-02 1.88476361683726e-04
9.50926829268293e+00 1.40886626997909e-02 1.87261542784151e-04
9.54634146341463e+00 1.39705415660149e-02 1.86053139980100e-04
9.58341463414634e+00 1.38534107748049e-02 1.84851141066924e-04
9.62048780487805e+00 1.37372620230032e-02 1.83655533436718e-04
9.65756097560975e+00 1.36220870770667e-02 1.82466304088723e-04
9.69463414634146e+00 1.35078777724834e-02 1.81283439639494e-04
9.73170731707317e+00 1.33946260131935e-02 1.80106926332924e-04
9.76878048780488e+00 1.32823237710157e-02 1.78936750050042e-04
9.80585365853658e+00 1.31709630850781e-02 1.77772896318624e-04
9.84292682926829e+00 1.30605360612536e-02 1.76615350322624e-04
9.88000000000000e+00 1.29510348716004e-02 1.75464096954496e-04
9.91707317073171e+00 1.28424517536988e-02 1.74319120694179e-04
9.95414634146341e+00 1.27347790104287e-02 1.73180405705065e-04
9.99121951219512e+00 1.26280090090934e-02 1.72047935931121e-04
1.00282926829268e+01 1.25221341809901e-02 1.70921695096700e-04
1.00653658536585e+01 1.24171470205615e-02 1.69801666097485e-04
1.01024390243902e+01 1.23130400865192e-02 1.68687832246164e-04
1.01395121951220e+01 1.22098059979075e-02 1.67580176711387e-04
1.01765853658537e+01 1.21074374366858e-02 1.66478681554293e-04
1.02136585365854e+01 1.20059271461692e-02 1.65383328606575e-04
1.02507317073171e+01 1.19052679314896e-02 1.64294100242671e-04
1.02878048780488e+01 1.18054526561402e-02 1.63210978593466e-04
1.03248780487805e+01 1.17064742444324e-02 1.62133944363617e-04
1.03619512195122e+01 1.16083256809420e-02 1.61062979204441e-04
1.03990243902439e+01 1.15110000071731e-02 1.59998064545642e-04
1.04360975609756e+01 1.14144903239193e-02 1.58939180448625e-04
1.04731707317073e+01 1.13187897907251e-02 1.57886307905571e-04
1.05102439024390e+01 1.12238916226645e-02 1.56839427706970e-04
1.05473170731707e+01 1.11297890926123e-02 1.55798519689226e-04
1.05843902439024e+01 1.10364755298437e-02 1.54763563525943e-04
1.06214634146341e+01 1.09439443204282e-02 1.53734539423958e-04
1.06585365853659e+01 1.08521889041482e-02 1.52711427413829e-04
1.06956097560976e+01 1.07612027766603e-02 1.51694206281236e-04
1.07326829268293e+01 1.06709794889896e-02 1.50682855708202e-04
1.07697560975610e+01 1.05815126445537e-02 1.49677355218084e-04
1.08068292682927e+01 1.04927959012415e-02 1.48677683473786e-04
1.08439024390244e+01 1.04048229701152e-02 1.47683819014693e-04
1.08809756097561e+01 1.03175876157609e-02 1.46695740905049e-04
1.09180487804878e+01 1.02310836534424e-02 1.45713428071996e-04
1.09551219512195e+01 1.01453049510806e-02 1.44736858309928e-04
1.09921951219512e+01 1.00602454287772e-02 1.43766010275290e-04
1.10292682926829e+01 9.97589905606515e-03 1.42800862502993e-04
1.10663414634146e+01 9.89225985381214e-03 1.41841392440947e-04
1.11034146341463e+01 9.80932189375706e-03 1.40887578383517e-04
1.11404878048780e+01 9.72707929585318e-03 1.39939398517598e-04
1.11775609756098e+01 9.64552623010078e-03 1.38996830288873e-04
1.12146341463415e+01 9.56465691537916e-03 1.38059851066675e-04
1.12517073170732e+01 9.48446561974527e-03 1.37128438729120e-04
1.12887804878049e+01 9.40494665789134e-03 1.36202571065082e-04
1.13258536585366e+01 9.32609439288962e-03 1.35282224873869e-04
1.13629268292683e+01 9.24790323575635e-03 1.34367377767175e-04
1.14000000000000e+01 9.17036764299449e-03 1.33458007279825e-04
1.14370731707317e+01 9.09348211827343e-03 1.32554090278335e-04
1.14741463414634e+01 9.01724121134436e-03 1.31655603580540e-04
1.15112195121951e+01 8.94163951830644e-03 1.30762524501009e-04
1.15482926829268e+01 8.86667167925510e-03 1.29874830292930e-04
1.15853658536585e+01 8.79233237988174e-03 1.28992497308521e-04
1.16224390243902e+01 8.71861635106356e-03 1.28115502678906e-04
1.16595121951220e+01 8.64551836658984e-03 1.27243823484745e-04
1.16965853658537e+01 8.57303324470212e-03 1.26377436204250e-04
