Energy (eV)          EEDF (eV^-(3/2))     First Anisotropy
1.00925925925926e-02 2.01926627404592e-01 1.03051924728570e-04
3.02777777777778e-02 2.00633628931621e-01 1.70195362441699e-04
5.04629629629630e-02 1.99348909926524e-01 2.24749616522438e-04
7.06481481481481e-02 1.98072417373700e-01 2.66239052100939e-04
9.08333333333333e-02 1.96804098598145e-01 3.00878320872108e-04
1.11018518518519e-01 1.95543901257251e-01 3.31015470375769e-04
1.31203703703704e-01 1.94291773350676e-01 3.57864816561622e-04
1.51388888888889e-01 1.93047663206575e-01 3.82159177296011e-04
1.71574074074074e-01 1.91811519484424e-01 4.04384260973251e-04
1.91759259259259e-01 1.90583291165997e-01 4.24883137574976e-04
2.11944444444444e-01 1.89362927573765e-01 4.43909604618023e-04
2.32129629629630e-01 1.88150378347133e-01 4.61658164896487e-04
2.52314814814815e-01 1.86945593448002e-01 4.78282093383983e-04
2.72500000000000e-01 1.85748523158858e-01 4.93904940379141e-04
2.92685185185185e-01 1.84559118076434e-01 5.08628178747082e-04
3.12870370370370e-01 1.83377329122467e-01 5.22536475985745e-04
3.33055555555556e-01 1.82203107528412e-01 5.35701437983795e-04
3.53240740740741e-01 1.81036404837982e-01 5.48184333589964e-04
3.73425925925926e-01 1.79877172905236e-01 5.60038124516773e-04
3.93611111111111e-01 1.78725363889576e-01 5.71309003545738e-04
4.13796296296296e-01 1.77580930262899e-01 5.82037582628357e-04
4.33981481481481e-01 1.76443824798246e-01 5.92259823111261e-04
4.54166666666667e-01 1.75314000571065e-01 6.02007771883401e-04
4.74351851851852e-01 1.74191410957281e-01 6.11310153524306e-04
4.94537037037037e-01 1.73076009631393e-01 6.20192850681070e-04
5.14722222222222e-01 1.71967750562386e-01 6.28679296413926e-04
5.34907407407407e-01 1.70866588018430e-01 6.36790799809345e-04
5.55092592592593e-01 1.69772476558250e-01 6.44546817358082e-04
5.75277777777778e-01 1.68685371031527e-01 6.51965179284150e-04
5.95462962962963e-01 1.67605226577083e-01 6.59062282205235e-04
6.15648148148148e-01 1.66531998619251e-01 6.65853251698563e-04
6.35833333333333e-01 1.65465642871380e-01 6.72352082618691e-04
6.56018518518518e-01 1.64406115328562e-01 6.78571759882145e-04
6.76203703703704e-01 1.63353372267664e-01 6.84524361609329e-04
6.96388888888889e-01 1.62307370245529e-01 6.90221149739715e-04
7.16574074074074e-01 1.61268066097188e-01 6.95672649109484e-04
7.36759259259259e-01 1.60235416932678e-01 7.00888715847986e-04
7.56944444444444e-01 1.59209380139522e-01 7.05878598661589e-04
7.77129629629630e-01 1.58189913376646e-01 7.10650993014701e-04
7.97314814814815e-01 1.57176974574096e-01 7.15214088009063e-04
8.17500000000000e-01 1.56170521931317e-01 7.19575609178222e-04
8.37685185185185e-01 1.55170513914221e-01 7.23742855621042e-04
8.57870370370370e-01 1.54176909257105e-01 7.27722734237080e-04
8.78055555555555e-01 1.53189666957267e-01 7.31521790494921e-04
8.98240740740741e-01 1.52208746274553e-01 7.35146235072210e-04
9.18425925925926e-01 1.51234106729685e-01 7.38601968900793e-04
9.38611111111111e-01 1.50265708101560e-01 7.41894604858027e-04
9.58796296296296e-01 1.49303510428718e-01 7.45029488360349e-04
9.78981481481481e-01 1.48347474004519e-01 7.48011716110710e-04
9.99166666666667e-01 1.47397559376576e-01 7.50846152391574e-04
1.01935185185185e+00 1.46453727344195e-01 7.53537443079621e-04
1.03953703703704e+00 1.45515938964045e-01 7.56090033501176e-04
1.05972222222222e+00 1.44584155527843e-01 7.58508176305023e-04
1.07990740740741e+00 1.43658338592746e-01 7.60795946004272e-04
1.10009259259259e+00 1.42738449944955e-01 7.62957251014528e-04
1.12027777777778e+00 1.41824451623907e-01 7.64995836550197e-04
1.14046296296296e+00 1.40916305920258e-01 7.66915304095551e-04
1.16064814814815e+00 1.40013975349849e-01 7.68719113132708e-04
1.18083333333333e+00 1.39117422684417e-01 7.70410590423192e-04
1.20101851851852e+00 1.38226610918603e-01 7.71992937562079e-04
1.22120370370370e+00 1.37341503299106e-01 7.73469237413356e-04
1.24138888888889e+00 1.36462063293233e-01 7.74842460650574e-04
1.26157407407407e+00 1.35588254616604e-01 7.76115471294420e-04
1.28175925925926e+00 1.34720041203136e-01 7.77291032407228e-04
1.30194444444444e+00 1.33857387231406e-01 7.78371810880949e-04
1.32212962962963e+00 1.33000257095965e-01 7.79360382420701e-04
1.34231481481481e+00 1.32148615432454e-01 7.80259235702746e-04
1.36250000000000e+00 1.31302427090159e-01 7.81070776757265e-04
1.38268518518519e+00 1.30461657155968e-01 7.81797332594417e-04
1.40287037037037e+00 1.29626270928084e-01 7.82441155076231e-04
1.42305555555556e+00 1.28796233938893e-01 7.83004424091119e-04
1.44324074074074e+00 1.27971511929769e-01 7.83489250989275e-04
1.46342592592593e+00 1.27152070872926e-01 7.83897681372025e-04
1.48361111111111e+00 1.26337876947238e-01 7.84231698152329e-04
1.50379629629630e+00 1.25528896559144e-01 7.84493224014157e-04
1.52398148148148e+00 1.24725096319420e-01 7.84684124149497e-04
1.54416666666667e+00 1.23926443063198e-01 7.84806208433368e-04
1.56435185185185e+00 1.23132903827634e-01 7.84861233881098e-04
1.58453703703704e+00 1.22344445871089e-01 7.84850906577529e-04
1.60472222222222e+00 1.21561036651648e-01 7.84776883890437e-04
1.62490740740741e+00 1.20782643845505e-01 7.84640776186656e-04
1.64509259259259e+00 1.20009235326291e-01 7.84444149986343e-04
1.66527777777778e+00 1.19240779178124e-01 7.84188524872123e-04
1.68546296296296e+00 1.18477243694068e-01 7.83875382200315e-04
1.70564814814815e+00 1.17718597361051e-01 7.83506162013915e-04
1.72583333333333e+00 1.16964808876781e-01 7.83082265539667e-04
1.74601851851852e+00 1.16215847130581e-01 7.82605056767563e-04
1.76620370370370e+00 1.15471681219644e-01 7.82075863607997e-04
1.78638888888889e+00 1.14732280430545e-01 7.81495979334557e-04
1.80657407407407e+00 1.13997614254868e-01 7.80866663623948e-04
1.82675925925926e+00 1.13267652371365e-01 7.80189143877195e-04
1.84694444444444e+00 1.12542364660982e-01 7.79464616156501e-04
1.86712962962963e+00 1.11821721189632e-01 7.78694246398181e-04
1.88731481481481e+00 1.11105692222660e-01 7.77879171257934e-04
1.90750000000000e+00 1.10394248208195e-01 7.77020499227307e-04
1.92768518518519e+00 1.09687359791078e-01 7.76119311397800e-04
1.94787037037037e+00 1.08984997796768e-01 7.75176662490684e-04
1.96805555555556e+00 1.08287133244761e-01 7.74193581548857e-04
1.98824074074074e+00 1.07593737333028e-01 7.73171072889015e-04
2.00842592592593e+00 1.06904781450942e-01 7.72110116729070e-04
2.02861111111111e+00 1.06220237164223e-01 7.71011670070392e-04
2.04879629629630e+00 1.05540076227406e-01 7.69876667267515e-04
2.06898148148148e+00 1.04864270569260e-01 7.68706020847311e-04
2.08916666666667e+00 1.04192792304824e-01 7.67500622027019e-04
2.10935185185185e+00 1.03525613721280e-01 7.66261341476304e-04
2.12953703703704e+00 1.02862707289571e-01 7.64989029789004e-04
2.14972222222222e+00 1.02204045650713e-01 7.63684518193394e-04
2.16990740740741e+00 1.01549601627013e-01 7.62348618982137e-04
2.19009259259259e+00 1.00899348208802e-01 7.60982127016727e-04
2.21027777777778e+00 1.00253258562366e-01 7.59585816749723e-04
2.23046296296296e+00 9.96113060287091e-02 7.58160447878007e-04
2.25064814814815e+00 9.89734641137461e-02 7.56706762441056e-04
2.27083333333333e+00 9.83397064987451e-02 7.55225486038692e-04
2.29101851851852e+00 9.77100070278873e-02 7.53717328396311e-04
2.31120370370370e+00 9.70843397183637e-02 7.52182983676147e-04
2.33138888888889e+00 9.64626787483018e-02 7.50623131008161e-04
2.35157407407407e+00 9.58449984665290e-02 7.49038434774749e-04
2.37175925925926e+00 9.52312733808539e-02 7.47429545110080e-04
2.39194444444444e+00 9.46214781675095e-02 7.45797098161157e-04
2.41212962962963e+00 9.40155876597742e-02 7.44141716557955e-04
2.43231481481481e+00 9.34135768571094e-02 7.42464009652677e-04
2.45250000000000e+00 9.28154209141064e-02 7.40764573963404e-04
2.47268518518519e+00 9.22210951493306e-02 7.39043993393229e-04
2.49287037037037e+00 9.16305750345826e-02 7.37302839649385e-04
2.51305555555556e+00 9.10438362034603e-02 7.35541672444645e-04
2.53324074074074e+00 9.04608544409223e-02 7.33761039893416e-04
2.55342592592593e+00 8.98816056915793e-02 7.31961478696418e-04
2.57361111111111e+00 8.93060660495480e-02 7.30143514516058e-04
2.59379629629630e+00 8.87342117664838e-02 7.28307662146020e-04
2.61398148148148e+00 8.81660192417132e-02 7.26454425866965e-04
2.63416666666667e+00 8.76014650300182e-02 7.24584299602472e-04
2.65435185185185e+00 8.70405258320374e-02 7.22697767256529e-04
2.67453703703704e+00 8.64831785018111e-02 7.20795302856777e-04
2.69472222222222e+00 8.59294000374423e-02 7.18877370875328e-04
2.71490740740741e+00 8.53791675884110e-02 7.16944426360342e-04
2.73509259259259e+00 8.48324584464856e-02 7.14996915874329e-04
2.75527777777778e+00 8.42892500508599e-02 7.13035275078311e-04
2.77546296296296e+00 8.37495199871408e-02 7.11059932811981e-04
2.79564814814815e+00 8.32132459805568e-02 7.09071308745947e-04
2.81583333333333e+00 8.26804059028184e-02 7.07069814146112e-04
2.83601851851852e+00 8.21509777635344e-02 7.05055852145346e-04
2.85620370370370e+00 8.16249397168682e-02 7.03029817840184e-04
2.87638888888889e+00 8.11022700531775e-02 7.00992098550031e-04
2.89657407407407e+00 8.05829472054736e-02 6.98943073905911e-04
2.91675925925926e+00 8.00669497412781e-02 6.96883116098135e-04
2.93694444444444e+00 7.95542563688922e-02 6.94812589957877e-04
2.95712962962963e+00 7.90448459294618e-02 6.92731853193830e-04
2.97731481481481e+00 7.85386974030646e-02 6.90641256466934e-04
2.99750000000000e+00 7.80357899009771e-02 6.88541143616992e-04
3.01768518518519e+00 7.75361026715849e-02 6.86431851731237e-04
3.03787037037037e+00 7.70396150928457e-02 6.84313711361091e-04
3.05805555555556e+00 7.65463066780291e-02 6.82187046585128e-04
3.07824074074074e+00 7.60561570683685e-02 6.80052175217067e-04
3.09842592592593e+00 7.55691460386371e-02 6.77909408863101e-04
3.11861111111111e+00 7.50852534899823e-02 6.75759053121314e-04
3.13879629629630e+00 7.46044594553432e-02 6.73601407634323e-04
3.15898148148148e+00 7.41267440924627e-02 6.71436766280645e-04
3.17916666666667e+00 7.36520876891511e-02 6.69265417222683e-04
3.19935185185185e+00 7.31804706564699e-02 6.67087643090602e-04
3.21953703703704e+00 7.27118735338481e-02 6.64903721026089e-04
3.23972222222222e+00 7.22462769824313e-02 6.62713922858990e-04
3.25990740740741e+00 7.17836617900557e-02 6.60518515147319e-04
3.28009259259259e+00 7.13240088647579e-02 6.58317759833294e-04
3.30027777777778e+00 7.08672992382391e-02 6.56111912331537e-04
3.32046296296296e+00 7.04135140650267e-02 6.53901224603545e-04
3.34064814814815e+00 6.99626346175831e-02 6.51685943299604e-04
3.36083333333333e+00 6.95146422909927e-02 6.49466310295081e-04
3.38101851851852e+00 6.90695185968033e-02 6.47242562845551e-04
3.40120370370370e+00 6.86272451675857e-02 6.45014933614466e-04
3.42138888888889e+00 6.81878037509208e-02 6.42783650822651e-04
3.44157407407407e+00 6.77511762138346e-02 6.40548938273216e-04
3.46175925925926e+00 6.73173445369275e-02 6.38311015495807e-04
3.48194444444444e+00 6.68862908186883e-02 6.36070097768798e-04
3.50212962962963e+00 6.64579972697614e-02 6.33826396258476e-04
3.52231481481481e+00 6.60324462171446e-02 6.31580118038955e-04
3.54250000000000e+00 6.56096200985891e-02 6.29331466226440e-04
3.56268518518519e+00 6.51895014666847e-02 6.27080639996913e-04
3.58287037037037e+00 6.47720729833900e-02 6.24827834715726e-04
3.60305555555556e+00 6.43573174240077e-02 6.22573241953351e-04
3.62324074074074e+00 6.39452176718409e-02 6.20317049610628e-04
3.64342592592593e+00 6.35357567220627e-02 6.18059441932435e-04
3.66361111111111e+00 6.31289176764946e-02 6.15800599628764e-04
3.68379629629630e+00 6.27246837473738e-02 6.13540699886722e-04
3.70398148148148e+00 6.23230382522501e-02 6.11279916487499e-04
3.72416666666667e+00 6.19239646176544e-02 6.09018419816816e-04
3.74435185185185e+00 6.15274463741106e-02 6.06756376978048e-04
3.76453703703704e+00 6.11334671597081e-02 6.04493951800982e-04
3.78472222222222e+00 6.07420107152254e-02 6.02231304951508e-04
3.80490740740741e+00 6.03530608876102e-02 5.99968593938845e-04
3.82509259259259e+00 5.99666016252116e-02 5.97705973600387e-04
3.84527777777778e+00 5.95826169801800e-02 5.95443594590577e-04
3.86546296296296e+00 5.92010911077700e-02 5.93181605750991e-04
3.88564814814815e+00 5.88220082627202e-02 5.90920152640988e-04
3.90583333333333e+00 5.84453528025426e-02 5.88659377934871e-04
3.92601851851852e+00 5.80711091829841e-02 5.86399421520303e-04
3.94620370370370e+00 5.76992619612322e-02 5.84140420500888e-04
3.96638888888889e+00 5.73297957914762e-02 5.81882509291730e-04
3.98657407407407e+00 5.69626954280305e-02 5.79625819620946e-04
4.00675925925926e+00 5.65979457209931e-02 5.77370480622287e-04
4.02694444444444e+00 5.62355316192890e-02 5.75116618835744e-04
4.04712962962963e+00 5.58754381664237e-02 5.72864358297430e-04
4.06731481481481e+00 5.55176505034491e-02 5.70613820539258e-04
4.08750000000000e+00 5.51621538648087e-02 5.68365124676110e-04
4.10768518518519e+00 5.48089335812290e-02 5.66118387404867e-04
4.12787037037037e+00 5.44579750756539e-02 5.63873723088913e-04
4.14805555555556e+00 5.41092638660634e-02 5.61631243756305e-04
4.16824074074074e+00 5.37627855614950e-02 5.59391059182052e-04
4.18842592592593e+00 5.34185258647921e-02 5.57153276885459e-04
4.20861111111111e+00 5.30764705687104e-02 5.54918002209974e-04
4.22879629629630e+00 5.27366055585966e-02 5.52685338319957e-04
4.24898148148148e+00 5.23989168085789e-02 5.50455386278249e-04
4.26916666666667e+00 5.20633903841784e-02 5.48228245042402e-04
4.28935185185185e+00 5.17300124385798e-02 5.46004011539977e-04
4.30953703703704e+00 5.13987692151789e-02 5.43782780664183e-04
4.32972222222222e+00 5.10696470439311e-02 5.41564645347171e-04
4.34990740740741e+00 5.07426323438360e-02 5.39349696555091e-04
4.37009259259259e+00 5.04177116193630e-02 5.37138023657307e-04
4.39027777777778e+00 5.00948714621459e-02 5.34929713227352e-04
4.41046296296296e+00 4.97740985504014e-02 5.32724850896295e-04
4.43064814814815e+00 4.94553796461962e-02 5.30523520186348e-04
4.45083333333333e+00 4.91387015978009e-02 5.28325802813792e-04
4.47101851851852e+00 4.88240513362793e-02 5.26131778755703e-04
4.49120370370370e+00 4.85114158777852e-02 5.23941526243261e-04
4.51138888888889e+00 4.82007823202221e-02 5.21755121826812e-04
4.53157407407407e+00 4.78921378454839e-02 5.19572640368675e-04
4.55175925925926e+00 4.75854697161840e-02 5.17394155106459e-04
4.57194444444444e+00 4.72807652778408e-02 5.15219737645641e-04
4.59212962962963e+00 4.69780119556744e-02 5.13049458021160e-04
4.61231481481481e+00 4.66771972567395e-02 5.10883384689727e-04
4.63250000000000e+00 4.63783087667870e-02 5.08721584589755e-04
4.65268518518519e+00 4.60813341523458e-02 5.06564123133459e-04
4.67287037037037e+00 4.57862611576481e-02 5.04411064265292e-04
4.69305555555556e+00 4.54930776066615e-02 5.02262470453505e-04
4.71324074074074e+00 4.52017714000762e-02 5.00118402747270e-04
4.73342592592593e+00 4.49123305172887e-02 4.97978920768172e-04
4.75361111111111e+00 4.46247430134500e-02 4.95844082765683e-04
4.77379629629630e+00 4.43389970214015e-02 4.93713945608380e-04
4.79398148148148e+00 4.40550807487828e-02 4.91588564838062e-04
4.81416666666667e+00 4.37729824799218e-02 4.89467994660971e-04
4.83435185185185e+00 4.34926905730000e-02 4.87352288000365e-04
4.85453703703704e+00 4.32141934618977e-02 4.85241496487461e-04
4.87472222222222e+00 4.29374796534167e-02 4.83135670512931e-04
4.89490740740741e+00 4.26625377290809e-02 4.81034859217593e-04
4.91509259259259e+00 4.23893563424145e-02 4.78939110778809e-04
4.93527777777778e+00 4.21179242201560e-02 4.76848471454671e-04
4.95546296296296e+00 4.18482301617719e-02 4.74762987047574e-04
4.97564814814815e+00 4.15802630373624e-02 4.72682701974068e-04
4.99583333333333e+00 4.13140117893714e-02 4.70607659500171e-04
5.01601851851852e+00 4.10494654299835e-02 4.68537901788584e-04
5.03620370370370e+00 4.07866130427944e-02 4.66473469888874e-04
5.05638888888889e+00 4.05254437802597e-02 4.64414403783694e-04
5.07657407407407e+00 4.02659468653253e-02 4.62360742378787e-04
5.09675925925926e+00 4.00081115889265e-02 4.60312523548038e-04
5.11694444444444e+00 3.97519273115808e-02 4.58269784123446e-04
5.13712962962963e+00 3.94973834609355e-02 4.56232559939146e-04
5.15731481481481e+00 3.92444695333234e-02 4.54200885821280e-04
5.17750000000000e+00 3.89931750913586e-02 4.52174795630919e-04
5.19768518518519e+00 3.87434897654555e-02 4.50154322253940e-04
5.21787037037037e+00 3.84954032514720e-02 4.48139497642956e-04
5.23805555555556e+00 3.82489053121927e-02 4.46130352807116e-04
5.25824074074074e+00 3.80039857750177e-02 4.44126917852946e-04
5.27842592592593e+00 3.77606345334127e-02 4.42129221974256e-04
5.29861111111111e+00 3.75188415446409e-02 4.40137293492114e-04
5.31879629629630e+00 3.72785968311801e-02 4.38151159844471e-04
5.33898148148148e+00 3.70398904784991e-02 4.36170847625278e-04
5.35916666666667e+00 3.68027126364413e-02 4.34196382574214e-04
5.37935185185185e+00 3.65670535170442e-02 4.32227789614830e-04
5.39953703703704e+00 3.63329033958909e-02 4.30265092844274e-04
5.41972222222222e+00 3.61002526099717e-02 4.28308315570523e-04
5.43990740740741e+00 3.58690915590045e-02 4.26357480302065e-04
5.46009259259259e+00 3.56394107033372e-02 4.24412608972857e-04
5.48027777777778e+00 3.54112005648257e-02 4.22473722176959e-04
5.50046296296296e+00 3.51844517264277e-02 4.20540840332834e-04
5.52064814814815e+00 3.49591548305786e-02 4.18613982938207e-04
5.54083333333333e+00 3.47353005804473e-02 4.16693168755087e-04
5.56101851851852e+00 3.45128797379273e-02 4.14778415844233e-04
5.58120370370370e+00 3.42918831248642e-02 4.12869741554794e-04
5.60138888888889e+00 3.40723016210846e-02 4.10967162558099e-04
5.62157407407407e+00 3.38541261655960e-02 4.09070694837234e-04
5.64175925925926e+00 3.36373477546526e-02 4.07180353720055e-04
5.66194444444444e+00 3.34219574429280e-02 4.05296153868865e-04
5.68212962962963e+00 3.32079463416177e-02 4.03418109312610e-04
5.70231481481482e+00 3.29953056195851e-02 4.01546233436644e-04
5.72250000000000e+00 3.27840265014994e-02 3.99680539014250e-04
5.74268518518519e+00 3.25741002689563e-02 3.97821038196335e-04
5.76287037037037e+00 3.23655182586502e-02 3.95967742542314e-04
5.78305555555556e+00 3.21582718634698e-02 3.94120663009891e-04
5.80324074074074e+00 3.19523525307046e-02 3.92279809985239e-04
5.82342592592593e+00 3.17477517631158e-02 3.90445193272767e-04
5.84361111111111e+00 3.15444611171761e-02 3.88616822124638e-04
5.86379629629630e+00 3.13424722041165e-02 3.86794705230695e-04
5.88398148148148e+00 3.11417766881993e-02 3.84978850747317e-04
5.90416666666667e+00 3.09423662877406e-02 3.83169266287290e-04
5.92435185185185e+00 3.07442327734158e-02 3.81365958948064e-04
5.94453703703704e+00 3.05473679692598e-02 3.79568935301774e-04
5.96472222222222e+00 3.03517637510026e-02 3.77778201422841e-04
5.98490740740741e+00 3.01574120470479e-02 3.75993762878002e-04
6.00509259259259e+00 2.99643048368392e-02 3.74215624904439e-04
6.02527777777778e+00 2.97724341515017e-02 3.72443791794533e-04
6.04546296296296e+00 2.95817920735011e-02 3.70678267827364e-04
6.06564814814815e+00 2.93923707353727e-02 3.68919056669374e-04
6.08583333333333e+00 2.92041623206523e-02 3.67166161521207e-04
6.10601851851852e+00 2.90171590623104e-02 3.65419585143385e-04
6.12620370370370e+00 2.88313532436627e-02 3.63679329846385e-04
6.14638888888889e+00 2.86467371968325e-02 3.61945397515884e-04
6.16657407407407e+00 2.84633033036418e-02 3.60217789602981e-04
6.18675925925926e+00 2.82810439941011e-02 3.58496507148827e-04
6.20694444444444e+00 2.80999517472810e-02 3.56781550774938e-04
6.22712962962963e+00 2.79200190898297e-02 3.55072920707257e-04
6.24731481481481e+00 2.77412385968251e-02 3.53370616766589e-04
6.26750000000000e+00 2.75636028903193e-02 3.51674638392229e-04
6.28768518518519e+00 2.73871046401718e-02 3.49984984632327e-04
6.30787037037037e+00 2.72117365626208e-02 3.48301654167052e-04
6.32805555555556e+00 2.70374914210976e-02 3.46624645299133e-04
6.34824074074074e+00 2.68643620248240e-02 3.44953955976462e-04
6.36842592592593e+00 2.66923412296088e-02 3.43289583782692e-04
