Energy (eV)          EEDF (eV^-(3/2))     First Anisotropy
1.19423076923077e-03 1.47076555575708e+01 9.99605218130492e-03
3.58269230769231e-03 1.45135107902557e+01 1.64526902277537e-02
5.97115384615385e-03 1.43219287828961e+01 2.15777944208273e-02
8.35961538461539e-03 1.41328757064441e+01 2.53862611347196e-02
1.07480769230769e-02 1.39463181785321e+01 2.84929079059733e-02
1.31365384615385e-02 1.37622232569226e+01 3.11324329897381e-02
1.55250000000000e-02 1.35805584351780e+01 3.34274052695826e-02
1.79134615384615e-02 1.34012916343418e+01 3.54524987531317e-02
2.03019230769231e-02 1.32243912009129e+01 3.72576701396064e-02
2.26903846153846e-02 1.30498258981128e+01 3.88785301419879e-02
2.50788461538462e-02 1.28775649009919e+01 4.03416611228576e-02
2.74673076923077e-02 1.27075777927511e+01 4.16676156300171e-02
2.98557692307692e-02 1.25398345569386e+01 4.28727303999514e-02
3.22442307692308e-02 1.23743055743994e+01 4.39702853762257e-02
3.46326923076923e-02 1.22109616163786e+01 4.49712774022128e-02
3.70211538461538e-02 1.20497738396043e+01 4.58849551916468e-02
3.94096153846154e-02 1.18907137823294e+01 4.67192008241263e-02
4.17980769230769e-02 1.17337533577634e+01 4.74808085437420e-02
4.41865384615385e-02 1.15788648505694e+01 4.81756930675730e-02
4.65750000000000e-02 1.14260209108900e+01 4.88090483225014e-02
4.89634615384615e-02 1.12751945496378e+01 4.93854701807116e-02
5.13519230769231e-02 1.11263591345434e+01 4.99090530771135e-02
5.37403846153846e-02 1.09794883845975e+01 5.03834669539188e-02
5.61288461538462e-02 1.08345563654948e+01 5.08120191225691e-02
5.85173076923077e-02 1.06915374857237e+01 5.11977048094163e-02
6.09057692307692e-02 1.05504064911516e+01 5.15432486612117e-02
6.32942307692308e-02 1.04111384614240e+01 5.18511391840568e-02
6.56826923076923e-02 1.02737088049227e+01 5.21236576339351e-02
6.80711538461539e-02 1.01380932544804e+01 5.23629022300178e-02
7.04596153846154e-02 1.00042678636132e+01 5.25708088417534e-02
7.28480769230769e-02 9.87220900159833e+00 5.27491685994068e-02
7.52365384615385e-02 9.74189334997019e+00 5.28996430228863e-02
7.76250000000000e-02 9.61329789790390e+00 5.30237771616556e-02
8.00134615384615e-02 9.48639993818990e+00 5.31230108856701e-02
8.24019230769231e-02 9.36117706363966e+00 5.31986888468035e-02
8.47903846153846e-02 9.23760716270000e+00 5.32520692132956e-02
8.71788461538462e-02 9.11566841557915e+00 5.32843312609531e-02
8.95673076923077e-02 8.99533929075576e+00 5.32965821916133e-02
9.19557692307692e-02 8.87659854069405e+00 5.32898631345945e-02
9.43442307692308e-02 8.75942519855961e+00 5.32651544876831e-02
9.67326923076923e-02 8.64379857416722e+00 5.32233807431014e-02
9.91211538461538e-02 8.52969825035110e+00 5.31654147527389e-02
1.01509615384615e-01 8.41710407926985e+00 5.30920814564758e-02
1.03898076923077e-01 8.30599618019060e+00 5.30041616391137e-02
1.06286538461538e-01 8.19635493301774e+00 5.29023948537640e-02
1.08675000000000e-01 8.08816097846478e+00 5.27874823335536e-02
1.11063461538462e-01 7.98139521104334e+00 5.26600896041095e-02
1.13451923076923e-01 7.87603877914655e+00 5.25208488165653e-02
1.15840384615385e-01 7.77207307839165e+00 5.23703609324408e-02
1.18228846153846e-01 7.66947975154171e+00 5.22091976704434e-02
1.20617307692308e-01 7.56824068217290e+00 5.20379033429227e-02
1.23005769230769e-01 7.46833799445685e+00 5.18569964937808e-02
1.25394230769231e-01 7.36975404712743e+00 5.16669715252961e-02
1.27782692307692e-01 7.27247143248982e+00 5.14682998022599e-02
1.30171153846154e-01 7.17647297328395e+00 5.12614314026549e-02
1.32559615384615e-01 7.08174171769261e+00 5.10467960385948e-02
1.34948076923077e-01 6.98826093892473e+00 5.08248042308273e-02
1.37336538461538e-01 6.89601412977115e+00 5.05958483702089e-02
1.39725000000000e-01 6.80498500209831e+00 5.03603036625227e-02
1.42113461538462e-01 6.71515748164213e+00 5.01185290491700e-02
1.44501923076923e-01 6.62651570742459e+00 4.98708680257720e-02
1.46890384615385e-01 6.53904402676992e+00 4.96176494452255e-02
1.49278846153846e-01 6.45272699465498e+00 4.93591882306662e-02
1.51667307692308e-01 6.36754936893367e+00 4.90957860795429e-02
1.54055769230769e-01 6.28349610963061e+00 4.88277320875957e-02
1.56444230769231e-01 6.20055237436097e+00 4.85553034224954e-02
1.58832692307692e-01 6.11870351713455e+00 4.82787656581372e-02
1.61221153846154e-01 6.03793508572969e+00 4.79983736420809e-02
1.63609615384615e-01 5.95823281781893e+00 4.77143717801969e-02
1.65998076923077e-01 5.87958264019402e+00 4.74269945503394e-02
1.68386538461538e-01 5.80197066458886e+00 4.71364669632908e-02
1.70775000000000e-01 5.72538318686971e+00 4.68430049669266e-02
1.73163461538462e-01 5.64980668302040e+00 4.65468158581878e-02
1.75551923076923e-01 5.57522780830341e+00 4.62480986431920e-02
1.77940384615385e-01 5.50163339339848e+00 4.59470444067338e-02
1.80328846153846e-01 5.42901044353970e+00 4.56438366341988e-02
1.82717307692308e-01 5.35734613479942e+00 4.53386515440583e-02
1.85105769230769e-01 5.28662781320577e+00 4.50316583765248e-02
1.87494230769231e-01 5.21684299116450e+00 4.47230197347024e-02
1.89882692307692e-01 5.14797934625063e+00 4.44128916794249e-02
1.92271153846154e-01 5.08002471900583e+00 4.41014242458903e-02
1.94659615384615e-01 5.01296710986214e+00 4.37887615239577e-02
1.97048076923077e-01 4.94679467824986e+00 4.34750419251586e-02
1.99436538461538e-01 4.88149573931303e+00 4.31603984181326e-02
2.01825000000000e-01 4.81705876300803e+00 4.28449587296899e-02
2.04213461538462e-01 4.75347237093650e+00 4.25288455593165e-02
2.06601923076923e-01 4.69072533543755e+00 4.22121767615527e-02
2.08990384615385e-01 4.62880657653263e+00 4.18950655418784e-02
2.11378846153846e-01 4.56770516101376e+00 4.15776206224977e-02
2.13767307692308e-01 4.50741029949522e+00 4.12599464216078e-02
2.16155769230769e-01 4.44791134550002e+00 4.09421432044086e-02
2.18544230769231e-01 4.38919779261367e+00 4.06243072794861e-02
2.20932692307692e-01 4.33125927334661e+00 4.03065310082061e-02
2.23321153846154e-01 4.27408555728478e+00 3.99889031467515e-02
2.25709615384615e-01 4.21766654861212e+00 3.96715088520827e-02
2.28098076923077e-01 4.16199228521481e+00 3.93544298371852e-02
2.30486538461538e-01 4.10705293605740e+00 3.90377445047251e-02
2.32875000000000e-01 4.05283880029017e+00 3.87215280573352e-02
2.35263461538462e-01 3.99934030471371e+00 3.84058526209571e-02
2.37651923076923e-01 3.94654800289075e+00 3.80907873460574e-02
2.40040384615385e-01 3.89445257269551e+00 3.77763985216242e-02
2.42428846153846e-01 3.84304481543121e+00 3.74627496681992e-02
2.44817307692308e-01 3.79231565346067e+00 3.71499016433908e-02
2.47205769230769e-01 3.74225612933060e+00 3.68379127274923e-02
2.49594230769231e-01 3.69285740348009e+00 3.65268387464701e-02
2.51982692307692e-01 3.64411075320745e+00 3.62167330497454e-02
2.54371153846154e-01 3.59600757111643e+00 3.59076467513689e-02
2.56759615384615e-01 3.54853936310185e+00 3.55996287082081e-02
2.59148076923077e-01 3.50169774750387e+00 3.52927256172156e-02
2.61536538461538e-01 3.45547445298920e+00 3.49869820968885e-02
2.63925000000000e-01 3.40986131771443e+00 3.46824407517829e-02
2.66313461538462e-01 3.36485028727550e+00 3.43791422483350e-02
2.68701923076923e-01 3.32043341388065e+00 3.40771253745390e-02
2.71090384615385e-01 3.27660285436559e+00 3.37764271105956e-02
2.73478846153846e-01 3.23335086937664e+00 3.34770826841649e-02
2.75867307692308e-01 3.19066982144909e+00 3.31791256362665e-02
2.78255769230769e-01 3.14855217420094e+00 3.28825878724762e-02
2.80644230769231e-01 3.10699049047215e+00 3.25874997444410e-02
2.83032692307692e-01 3.06597743140567e+00 3.22938900171189e-02
2.85421153846154e-01 3.02550575514168e+00 3.20017860456498e-02
2.87809615384615e-01 2.98556831516860e+00 3.17112137442877e-02
2.90198076923077e-01 2.94615805955122e+00 3.14221976505418e-02
2.92586538461538e-01 2.90726802920646e+00 3.11347609772786e-02
2.94975000000000e-01 2.86889135714285e+00 3.08489256520964e-02
2.97363461538462e-01 2.83102126679010e+00 3.05647123661092e-02
2.99751923076923e-01 2.79365107125025e+00 3.02821406105455e-02
3.02140384615385e-01 2.75677417167905e+00 3.00012287224685e-02
3.04528846153846e-01 2.72038405654898e+00 2.97219939188163e-02
3.06917307692308e-01 2.68447430008063e+00 2.94444523392712e-02
3.09305769230769e-01 2.64903856151771e+00 2.91686190779428e-02
3.11694230769231e-01 2.61407058360668e+00 2.88945082395517e-02
3.14082692307692e-01 2.57956419179017e+00 2.86221329048590e-02
3.16471153846154e-01 2.54551329310929e+00 2.83515052637567e-02
3.18859615384615e-01 2.51191187484724e+00 2.80826365827156e-02
3.21248076923077e-01 2.47875400383910e+00 2.78155372486143e-02
3.23636538461538e-01 2.44603382506065e+00 2.75502168031926e-02
3.26025000000000e-01 2.41374556095024e+00 2.72866839677132e-02
3.28413461538462e-01 2.38188351004046e+00 2.70249466753585e-02
3.30801923076923e-01 2.35044204629210e+00 2.67650120942233e-02
3.33190384615385e-01 2.31941561776727e+00 2.65068866577857e-02
3.35578846153846e-01 2.28879874597542e+00 2.62505760863534e-02
3.37967307692308e-01 2.25858602458648e+00 2.59960854157388e-02
3.40355769230769e-01 2.22877211878901e+00 2.57434190172610e-02
3.42744230769231e-01 2.19935176404193e+00 2.54925806375567e-02
3.45132692307692e-01 2.17031976537304e+00 2.52435733658308e-02
3.47521153846154e-01 2.14167099645603e+00 2.49963997357815e-02
3.49909615384615e-01 2.11340039849068e+00 2.47510616948232e-02
3.52298076923077e-01 2.08550297959398e+00 2.45075606347930e-02
3.54686538461538e-01 2.05797381364016e+00 2.42658974152575e-02
3.57075000000000e-01 2.03080803966361e+00 2.40260723791749e-02
3.59463461538462e-01 2.00400086073341e+00 2.37880853748651e-02
3.61851923076923e-01 1.97754754336794e+00 2.35519357706288e-02
3.64240384615385e-01 1.95144341644276e+00 2.33176224754690e-02
3.66628846153846e-01 1.92568387061685e+00 2.30851439527371e-02
3.69017307692308e-01 1.90026435727281e+00 2.28544982396776e-02
3.71405769230769e-01 1.87518038795450e+00 2.26256829601652e-02
3.73794230769231e-01 1.85042753333859e+00 2.23986953534690e-02
3.76182692307692e-01 1.82600142262817e+00 2.21735322447165e-02
3.78571153846154e-01 1.80189774277673e+00 2.19501901239405e-02
3.80959615384615e-01 1.77811223756091e+00 2.17286651183238e-02
3.83348076923077e-01 1.75464070704852e+00 2.15089530140978e-02
3.85736538461538e-01 1.73147900664176e+00 2.12910492725458e-02
3.88125000000000e-01 1.70862304655623e+00 2.10749490399712e-02
3.90513461538462e-01 1.68606879089213e+00 2.08606471628057e-02
3.92901923076923e-01 1.66381225712412e+00 2.06481381969123e-02
3.95290384615385e-01 1.64184951519963e+00 2.04374164218548e-02
3.97678846153846e-01 1.62017668703941e+00 2.02284758495721e-02
4.00067307692308e-01 1.59878994566210e+00 2.00213102378607e-02
4.02455769230769e-01 1.57768551469534e+00 1.98159130984598e-02
4.04844230769231e-01 1.55685966752579e+00 1.96122777181354e-02
4.07232692307692e-01 1.53630872677758e+00 1.94103971327222e-02
4.09621153846154e-01 1.51602906365967e+00 1.92102641890006e-02
4.12009615384615e-01 1.49601709719643e+00 1.90118715202965e-02
4.14398076923077e-01 1.47626929376588e+00 1.88152115622956e-02
4.16786538461538e-01 1.45678216630851e+00 1.86202765641244e-02
4.19175000000000e-01 1.43755227387552e+00 1.84270585946376e-02
4.21563461538462e-01 1.41857622086042e+00 1.82355495528911e-02
4.23951923076923e-01 1.39985065655714e+00 1.80457411739908e-02
4.26340384615385e-01 1.38137227441373e+00 1.78576250389918e-02
4.28728846153846e-01 1.36313781160012e+00 1.76711925803363e-02
4.31117307692308e-01 1.34514404828333e+00 1.74864350912135e-02
4.33505769230769e-01 1.32738780720467e+00 1.73033437306115e-02
4.35894230769231e-01 1.30986595297575e+00 1.71219095389302e-02
4.38282692307692e-01 1.29257539163144e+00 1.69421234155149e-02
4.40671153846154e-01 1.27551307008097e+00 1.67639761674336e-02
4.43059615384615e-01 1.25867597546827e+00 1.65874584883429e-02
4.45448076923077e-01 1.24206113477332e+00 1.64125609700068e-02
4.47836538461538e-01 1.22566561415637e+00 1.62392741100003e-02
4.50225000000000e-01 1.20948651856823e+00 1.60675883155751e-02
4.52613461538462e-01 1.19352099111317e+00 1.58974939109410e-02
4.55001923076923e-01 1.17776621266792e+00 1.57289811408429e-02
4.57390384615385e-01 1.16221940126281e+00 1.55620401774432e-02
4.59778846153846e-01 1.14687781170930e+00 1.53966611236289e-02
4.62167307692308e-01 1.13173873499868e+00 1.52328340195159e-02
4.64555769230769e-01 1.11679949793811e+00 1.50705488454997e-02
4.66944230769231e-01 1.10205746256640e+00 1.49097955339046e-02
4.69332692307692e-01 1.08751002577179e+00 1.47505639497182e-02
4.71721153846154e-01 1.07315461883044e+00 1.45928439292566e-02
4.74109615384615e-01 1.05898870687371e+00 1.44366252620269e-02
4.76498076923077e-01 1.04500978854547e+00 1.42818976991652e-02
4.78886538461538e-01 1.03121539545750e+00 1.41286509587848e-02
4.81275000000000e-01 1.01760309185460e+00 1.39768747282408e-02
4.83663461538462e-01 1.00417047408541e+00 1.38265586691816e-02
4.86051923076923e-01 9.90915170275220e-01 1.36776924196203e-02
4.88440384615385e-01 9.77834839811714e-01 1.35302655987088e-02
4.90828846153846e-01 9.64927173025310e-01 1.33842678086302e-02
4.93217307692308e-01 9.52189890689462e-01 1.32396886391047e-02
4.95605769230769e-01 9.39620743708335e-01 1.30965176691143e-02
4.97994230769231e-01 9.27217512631204e-01 1.29547444756380e-02
5.00382692307692e-01 9.14978007326526e-01 1.28143586172314e-02
5.02771153846154e-01 9.02900066593651e-01 1.26753496648121e-02
5.05159615384615e-01 8.90981557718873e-01 1.25377071861864e-02
5.07548076923077e-01 8.79220376181534e-01 1.24014207522500e-02
5.09936538461539e-01 8.67614445201241e-01 1.22664799406784e-02
5.12325000000000e-01 8.56161715450832e-01 1.21328743371275e-02
5.14713461538462e-01 8.44860164616298e-01 1.20005935387167e-02
5.17101923076923e-01 8.33707797116465e-01 1.18696271551039e-02
5.19490384615385e-01 8.22702643675248e-01 1.17399648117673e-02
5.21878846153846e-01 8.11842761047913e-01 1.16115961509646e-02
5.24267307692308e-01 8.01126231605303e-01 1.14845108348265e-02
5.26655769230769e-01 7.90551163066546e-01 1.13586985462026e-02
5.29044230769231e-01 7.80115688094899e-01 1.12341489952366e-02
5.31432692307692e-01 7.69817964020251e-01 1.11108519054236e-02
5.33821153846154e-01 7.59656172512523e-01 1.09887970382113e-02
5.36209615384615e-01 7.49628519211218e-01 1.08679741798537e-02
5.38598076923077e-01 7.39733233474089e-01 1.07483731459694e-02
5.40986538461538e-01 7.29968568000161e-01 1.06299837840582e-02
5.43375000000000e-01 7.20332798584355e-01 1.05127959740038e-02
5.45763461538462e-01 7.10824223751015e-01 1.03967996304410e-02
5.48151923076923e-01 7.01441164514365e-01 1.02819847031755e-02
5.50540384615385e-01 6.92181964022232e-01 1.01683411794116e-02
5.52928846153846e-01 6.83044987322215e-01 1.00558590840928e-02
5.55317307692308e-01 6.74028621015314e-01 9.94452848199641e-03
5.57705769230769e-01 6.65131273027678e-01 9.83433947800301e-03
5.60094230769231e-01 6.56351372273859e-01 9.72528222205443e-03
5.62482692307692e-01 6.47687368420892e-01 9.61734689734919e-03
5.64871153846154e-01 6.39137731613568e-01 9.51052374005909e-03
5.67259615384615e-01 6.30700952165058e-01 9.40480302818983e-03
5.69648076923077e-01 6.22375540342410e-01 9.30017508492963e-03
5.72036538461538e-01 6.14160026052352e-01 9.19663028033115e-03
5.74425000000000e-01 6.06052958631937e-01 9.09415903135950e-03
5.76813461538462e-01 5.98052906543054e-01 8.99275180346866e-03
5.79201923076923e-01 5.90158457168107e-01 8.89239911059620e-03
5.81590384615385e-01 5.82368216512983e-01 8.79309151664017e-03
5.83978846153846e-01 5.74680809007655e-01 8.69481963540363e-03
5.86367307692308e-01 5.67094877217364e-01 8.59757413197733e-03
5.88755769230769e-01 5.59609081648037e-01 8.50134572263938e-03
5.91144230769231e-01 5.52222100465450e-01 8.40612517859560e-03
5.93532692307692e-01 5.44932629294887e-01 8.31190331600338e-03
5.95921153846154e-01 5.37739380990048e-01 8.21867101181463e-03
5.98309615384615e-01 5.30641085374484e-01 8.12641919435419e-03
6.00698076923077e-01 5.23636489058834e-01 8.03513884577054e-03
6.03086538461538e-01 5.16724355178717e-01 7.94482100312703e-03
6.05475000000000e-01 5.09903463216398e-01 7.85545675816131e-03
6.07863461538462e-01 5.03172608745908e-01 7.76703725830017e-03
6.10251923076923e-01 4.96530603259041e-01 7.67955370638729e-03
6.12640384615385e-01 4.89976273917497e-01 7.59299736162682e-03
6.15028846153846e-01 4.83508463383114e-01 7.50735953928069e-03
6.17417307692308e-01 4.77126029576832e-01 7.42263161154567e-03
6.19805769230769e-01 4.70827845513062e-01 7.33880500722307e-03
6.22194230769231e-01 4.64612799065280e-01 7.25587121454062e-03
6.24582692307692e-01 4.58479792796075e-01 7.17382177273181e-03
6.26971153846154e-01 4.52427743762749e-01 7.09264828479184e-03
6.29359615384615e-01 4.46455583301095e-01 7.01234240952068e-03
6.31748076923077e-01 4.40562256869880e-01 6.93289586330787e-03
6.34136538461539e-01 4.34746723832030e-01 6.85430042080370e-03
6.36525000000000e-01 4.29007957302917e-01 6.77654791450498e-03
6.38913461538462e-01 4.23344943937548e-01 6.69963023537268e-03
6.41301923076923e-01 4.17756683782574e-01 6.62353933240000e-03
6.43690384615385e-01 4.12242190069313e-01 6.54826721317973e-03
6.46078846153846e-01 4.06800489069390e-01 6.47380594345534e-03
6.48467307692308e-01 4.01430619893433e-01 6.40014764764070e-03
6.50855769230769e-01 3.96131634350261e-01 6.32728450835567e-03
6.53244230769231e-01 3.90902596751094e-01 6.25520876855139e-03
6.55632692307692e-01 3.85742583765497e-01 6.18391272440940e-03
6.58021153846154e-01 3.80650684257855e-01 6.11338873563114e-03
6.60409615384615e-01 3.75625999106445e-01 6.04362921872382e-03
6.62798076923077e-01 3.70667641071277e-01 5.97462664828942e-03
6.65186538461539e-01 3.65774734611278e-01 5.90637355740061e-03
6.67575000000000e-01 3.60946415755393e-01 5.83886253709126e-03
6.69963461538462e-01 3.56181831924766e-01 5.77208623669483e-03
6.72351923076923e-01 3.51480141807022e-01 5.70603736332618e-03
6.74740384615385e-01 3.46840515183306e-01 5.64070868218468e-03
6.77128846153846e-01 3.42262132805672e-01 5.57609301602752e-03
6.79517307692308e-01 3.37744186228847e-01 5.51218324544061e-03
6.81905769230769e-01 3.33285877690647e-01 5.44897230830415e-03
6.84294230769231e-01 3.28886419948338e-01 5.38645320138915e-03
6.86682692307692e-01 3.24545036156626e-01 5.32461897437287e-03
6.89071153846154e-01 3.20260959730090e-01 5.26346273815188e-03
6.91459615384615e-01 3.16033434191726e-01 5.20297765918045e-03
6.93848076923077e-01 3.11861713060740e-01 5.14315696039083e-03
6.96236538461538e-01 3.07745059699729e-01 5.08399392136430e-03
6.98625000000000e-01 3.03682747205259e-01 5.02548187777801e-03
7.01013461538462e-01 2.99674058259208e-01 4.96761422155008e-03
7.03401923076923e-01 2.95718285022062e-01 4.91038440028376e-03
7.05790384615385e-01 2.91814728988307e-01 4.85378591738848e-03
7.08178846153846e-01 2.87962700882374e-01 4.79781233152154e-03
7.10567307692308e-01 2.84161520517972e-01 4.74245725668674e-03
7.12955769230769e-01 2.80410516696617e-01 4.68771436167449e-03
7.15344230769231e-01 2.76709027070793e-01 4.63357737125535e-03
7.17732692307692e-01 2.73056398040673e-01 4.58004006113873e-03
7.20121153846154e-01 2.69451984638395e-01 4.52709626469915e-03
7.22509615384615e-01 2.65895150401221e-01 4.47473986820348e-03
7.24898076923077e-01 2.62385267276350e-01 4.42296481145768e-03
7.27286538461538e-01 2.58921715493111e-01 4.37176508783816e-03
7.29675000000000e-01 2.55503883470149e-01 4.32113474372948e-03
7.32063461538462e-01 2.52131167691089e-01 4.27106787853837e-03
7.34451923076923e-01 2.48802972614036e-01 4.22155864413231e-03
7.36840384615385e-01 2.45518710550621e-01 4.17260124483725e-03
7.39228846153846e-01 2.42277801577758e-01 4.12418993687852e-03
7.41617307692308e-01 2.39079673419971e-01 4.07631902836294e-03
7.44005769230769e-01 2.35923761363361e-01 4.02898287872162e-03
7.46394230769231e-01 2.32809508141123e-01 3.98217589959747e-03
7.48782692307692e-01 2.29736363846169e-01 3.93589255060048e-03
7.51171153846154e-01 2.26703785833779e-01 3.89012734475499e-03
7.53559615384615e-01 2.23711238615329e-01 3.84487484447865e-03
