Energy (eV)          EEDF (eV^-(3/2))     First Anisotropy
2.05769230769231e-02 7.28695331911481e-02 3.78794591745790e-05
6.17307692307692e-02 7.23873470904073e-02 6.25530953083945e-05
1.02884615384615e-01 7.19083516713799e-02 8.25860278008170e-05
1.44038461538462e-01 7.14325258215831e-02 9.78105979781917e-05
1.85192307692308e-01 7.09598485634806e-02 1.10512547234090e-04
2.26346153846154e-01 7.04902990660044e-02 1.21555753602285e-04
2.67500000000000e-01 7.00238566321187e-02 1.31387112445972e-04
3.08653846153846e-01 6.95605007018524e-02 1.40276394580203e-04
3.49807692307692e-01 6.91002108513626e-02 1.48402453691730e-04
3.90961538461538e-01 6.86429667920071e-02 1.55891655575568e-04
4.32115384615385e-01 6.81887483683109e-02 1.62837509808757e-04
4.73269230769231e-01 6.77375355604969e-02 1.69311699085139e-04
5.14423076923077e-01 6.72893084800176e-02 1.75370728056884e-04
5.55576923076923e-01 6.68440473699401e-02 1.81060155869767e-04
5.96730769230769e-01 6.64017326040601e-02 1.86417411284779e-04
6.37884615384615e-01 6.59623446860630e-02 1.91473732925246e-04
6.79038461538461e-01 6.55258642486464e-02 1.96255547205733e-04
7.20192307692308e-01 6.50922720520554e-02 2.00785471723343e-04
7.61346153846154e-01 6.46615489851139e-02 2.05083062526784e-04
8.02500000000000e-01 6.42336760624473e-02 2.09165381099998e-04
8.43653846153846e-01 6.38086344243086e-02 2.13047431433608e-04
8.84807692307692e-01 6.33864053357502e-02 2.16742502460529e-04
9.25961538461538e-01 6.29669701858004e-02 2.20262439708275e-04
9.67115384615385e-01 6.25503104862028e-02 2.23617863140661e-04
1.00826923076923e+00 6.21364078719384e-02 2.26818343951314e-04
1.04942307692308e+00 6.17252441005930e-02 2.29872550444723e-04
1.09057692307692e+00 6.13168010458325e-02 2.32788366781145e-04
1.13173076923077e+00 6.09110607044091e-02 2.35572991879398e-04
1.17288461538462e+00 6.05080051958053e-02 2.38233025834181e-04
1.21403846153846e+00 6.01076167506524e-02 2.40774538794295e-04
1.25519230769231e+00 5.97098777239561e-02 2.43203131582462e-04
1.29634615384615e+00 5.93147705810344e-02 2.45523987854247e-04
1.33750000000000e+00 5.89222779064551e-02 2.47741916475916e-04
1.37865384615385e+00 5.85323824029321e-02 2.49861392712510e-04
1.41980769230769e+00 5.81450668818223e-02 2.51886590163617e-04
1.46096153846154e+00 5.77603142711239e-02 2.53821408481326e-04
1.50211538461538e+00 5.73781076144340e-02 2.55669501555462e-04
1.54326923076923e+00 5.69984300622762e-02 2.57434298224389e-04
1.58442307692308e+00 5.66212648817291e-02 2.59119022439521e-04
1.62557692307692e+00 5.62465954457514e-02 2.60726711345972e-04
1.66673076923077e+00 5.58744052397369e-02 2.62260229245175e-04
1.70788461538462e+00 5.55046778605873e-02 2.63722283954524e-04
1.74903846153846e+00 5.51373970092976e-02 2.65115437736841e-04
1.79019230769231e+00 5.47725464989929e-02 2.66442118815822e-04
1.83134615384615e+00 5.44101102457900e-02 2.67704631910271e-04
1.87250000000000e+00 5.40500722742954e-02 2.68905165829158e-04
1.91365384615385e+00 5.36924167167283e-02 2.70045803889759e-04
1.95480769230769e+00 5.33371278064993e-02 2.71128530304769e-04
1.99596153846154e+00 5.29841898832514e-02 2.72155235903050e-04
2.03711538461538e+00 5.26335873920148e-02 2.73127726398921e-04
2.07826923076923e+00 5.22853048772186e-02 2.74047726675194e-04
2.11942307692308e+00 5.19393269889801e-02 2.74916886218360e-04
2.16057692307692e+00 5.15956384756859e-02 2.75736784230911e-04
2.20173076923077e+00 5.12542241882921e-02 2.76508932651070e-04
2.24288461538462e+00 5.09150690795408e-02 2.77234782055203e-04
2.28403846153846e+00 5.05781581986605e-02 2.77915724089443e-04
2.32519230769231e+00 5.02434766967987e-02 2.78553095115014e-04
2.36634615384615e+00 4.99110098204610e-02 2.79148179691565e-04
2.40750000000000e+00 4.95807429152297e-02 2.79702212266452e-04
2.44865384615385e+00 4.92526614250130e-02 2.80216381623293e-04
2.48980769230769e+00 4.89267508873227e-02 2.80691832503143e-04
2.53096153846154e+00 4.86029969367292e-02 2.81129667061165e-04
2.57211538461538e+00 4.82813853041314e-02 2.81530948717765e-04
2.61326923076923e+00 4.79619018123002e-02 2.81896703063767e-04
2.65442307692308e+00 4.76445323802988e-02 2.82227919966538e-04
2.69557692307692e+00 4.73292630179549e-02 2.82525555631337e-04
2.73673076923077e+00 4.70160798288747e-02 2.82790533161812e-04
2.77788461538462e+00 4.67049690097555e-02 2.83023745662777e-04
2.81903846153846e+00 4.63959168463595e-02 2.83226056654460e-04
2.86019230769231e+00 4.60889097174109e-02 2.83398301635472e-04
2.90134615384615e+00 4.57839340896107e-02 2.83541289634333e-04
2.94250000000000e+00 4.54809765202916e-02 2.83655803400968e-04
2.98365384615385e+00 4.51800236567551e-02 2.83742601985783e-04
3.02480769230769e+00 4.48810622326212e-02 2.83802421070806e-04
3.06596153846154e+00 4.45840790703149e-02 2.83835973250145e-04
3.10711538461538e+00 4.42890610804203e-02 2.83843950376523e-04
3.14826923076923e+00 4.39959952582077e-02 2.83827023527500e-04
3.18942307692308e+00 4.37048686868840e-02 2.83785844038842e-04
3.23057692307692e+00 4.34156685332911e-02 2.83721044552771e-04
3.27173076923077e+00 4.31283820501076e-02 2.83633238868466e-04
3.31288461538462e+00 4.28429965752338e-02 2.83523023967069e-04
3.35403846153846e+00 4.25594995286133e-02 2.83390979827310e-04
3.39519230769231e+00 4.22778784151365e-02 2.83237670247760e-04
3.43634615384615e+00 4.19981208207109e-02 2.83063643691718e-04
3.47750000000000e+00 4.17202144142231e-02 2.82869433024087e-04
3.51865384615385e+00 4.14441469469456e-02 2.82655557289425e-04
3.55980769230769e+00 4.11699062496205e-02 2.82422521623334e-04
3.60096153846154e+00 4.08974802343071e-02 2.82170817146882e-04
3.64211538461538e+00 4.06268568938020e-02 2.81900922629537e-04
3.68326923076923e+00 4.03580242988508e-02 2.81613304162089e-04
3.72442307692308e+00 4.00909706006090e-02 2.81308415754561e-04
3.76557692307692e+00 3.98256840271964e-02 2.80986699962151e-04
3.80673076923077e+00 3.95621528853496e-02 2.80648587515030e-04
3.84788461538462e+00 3.93003655598667e-02 2.80294498809376e-04
3.88903846153846e+00 3.90403105110316e-02 2.79924843535803e-04
3.93019230769231e+00 3.87819762768328e-02 2.79540021179471e-04
3.97134615384615e+00 3.85253514697866e-02 2.79140421549272e-04
4.01250000000000e+00 3.82704247784219e-02 2.78726424376364e-04
4.05365384615385e+00 3.80171849667440e-02 2.78298400664263e-04
4.09480769230769e+00 3.77656208718510e-02 2.77856712456143e-04
4.13596153846154e+00 3.75157214053368e-02 2.77401712597081e-04
4.17711538461538e+00 3.72674755527672e-02 2.76933746016198e-04
4.21826923076923e+00 3.70208723713911e-02 2.76453149315475e-04
4.25942307692308e+00 3.67759009920447e-02 2.75960251158975e-04
4.30057692307692e+00 3.65325506163321e-02 2.75455372691117e-04
4.34173076923077e+00 3.62908105178895e-02 2.74938827109242e-04
4.38288461538462e+00 3.60506700418819e-02 2.74410920838615e-04
4.42403846153846e+00 3.58121186028745e-02 2.73871953114382e-04
4.46519230769231e+00 3.55751456865607e-02 2.73322216318855e-04
4.50634615384615e+00 3.53397408471453e-02 2.72761996347180e-04
4.54750000000000e+00 3.51058937084868e-02 2.72191572178412e-04
4.58865384615385e+00 3.48735939636114e-02 2.71611216958492e-04
4.62980769230769e+00 3.46428313727304e-02 2.71021197724389e-04
4.67096153846154e+00 3.44135957643225e-02 2.70421775127956e-04
4.71211538461538e+00 3.41858770346585e-02 2.69813204473635e-04
4.75326923076923e+00 3.39596651458920e-02 2.69195735299157e-04
4.79442307692308e+00 3.37349501275557e-02 2.68569611651145e-04
4.83557692307692e+00 3.35117220742183e-02 2.67935072387457e-04
4.87673076923077e+00 3.32899711464639e-02 2.67292350752715e-04
4.91788461538462e+00 3.30696875704357e-02 2.66641675341831e-04
4.95903846153846e+00 3.28508616360498e-02 2.65983269687884e-04
5.00019230769231e+00 3.26334836983607e-02 2.65317352507089e-04
5.04134615384615e+00 3.24175441753746e-02 2.64644137969426e-04
5.08250000000000e+00 3.22030335489388e-02 2.63963835283603e-04
5.12365384615385e+00 3.19899423642998e-02 2.63276649594860e-04
5.16480769230769e+00 3.17782612284325e-02 2.62582781706134e-04
5.20596153846154e+00 3.15679808108847e-02 2.61882427800826e-04
5.24711538461538e+00 3.13590918433445e-02 2.61175780307695e-04
5.28826923076923e+00 3.11515851180280e-02 2.60463027502236e-04
5.32942307692308e+00 3.09454514888686e-02 2.59744353713854e-04
5.37057692307692e+00 3.07406818695453e-02 2.59019939556827e-04
5.41173076923077e+00 3.05372672342502e-02 2.58289961531253e-04
5.45288461538462e+00 3.03351986172723e-02 2.57554592832750e-04
5.49403846153846e+00 3.01344671114827e-02 2.56814002966130e-04
5.53519230769231e+00 2.99350638694246e-02 2.56068357932875e-04
5.57634615384615e+00 2.97369801014650e-02 2.55317820441247e-04
5.61750000000000e+00 2.95402070764945e-02 2.54562549520542e-04
5.65865384615385e+00 2.93447361215238e-02 2.53802701280894e-04
5.69980769230769e+00 2.91505586202608e-02 2.53038428647742e-04
5.74096153846154e+00 2.89576660137759e-02 2.52269881098738e-04
5.78211538461538e+00 2.87660498001070e-02 2.51497205398334e-04
5.82326923076923e+00 2.85757015328839e-02 2.50720545229969e-04
5.86442307692308e+00 2.83866128222833e-02 2.49940041358615e-04
5.90557692307692e+00 2.81987753333525e-02 2.49155831814224e-04
5.94673076923077e+00 2.80121807866156e-02 2.48368051525619e-04
5.98788461538462e+00 2.78268209576932e-02 2.47576833011994e-04
6.02903846153846e+00 2.76426876760059e-02 2.46782306028759e-04
6.07019230769231e+00 2.74597728256518e-02 2.45984597716594e-04
6.11134615384615e+00 2.72780683438304e-02 2.45183832770275e-04
6.15250000000000e+00 2.70975662213957e-02 2.44380133086591e-04
6.19365384615385e+00 2.69182585024888e-02 2.43573618416417e-04
6.23480769230769e+00 2.67401372833149e-02 2.42764406118756e-04
6.27596153846154e+00 2.65631947126706e-02 2.41952610917394e-04
6.31711538461538e+00 2.63874229915835e-02 2.41138345532798e-04
6.35826923076923e+00 2.62128143721288e-02 2.40321720347673e-04
6.39942307692308e+00 2.60393611582014e-02 2.39502843538467e-04
6.44057692307692e+00 2.58670557040797e-02 2.38681821225141e-04
6.48173076923077e+00 2.56958904149066e-02 2.37858757139326e-04
6.52288461538461e+00 2.55258577463419e-02 2.37033753221395e-04
6.56403846153846e+00 2.53569502034441e-02 2.36206909299456e-04
6.60519230769231e+00 2.51891603413821e-02 2.35378323211104e-04
6.64634615384615e+00 2.50224807640799e-02 2.34548090942450e-04
6.68750000000000e+00 2.48569041246572e-02 2.33716306309771e-04
6.72865384615385e+00 2.46924231250929e-02 2.32883061524510e-04
6.76980769230769e+00 2.45290305151680e-02 2.32048446968672e-04
6.81096153846154e+00 2.43667190928844e-02 2.31212550972751e-04
6.85211538461538e+00 2.42054817041362e-02 2.30375460364195e-04
6.89326923076923e+00 2.40453112416843e-02 2.29537260165489e-04
6.93442307692308e+00 2.38862006457850e-02 2.28698033703025e-04
6.97557692307692e+00 2.37281429029507e-02 2.27857862731873e-04
7.01673076923077e+00 2.35711310463326e-02 2.27016827136703e-04
7.05788461538461e+00 2.34151581554038e-02 2.26175005451599e-04
7.09903846153846e+00 2.32602173549879e-02 2.25332474570666e-04
7.14019230769231e+00 2.31063018158392e-02 2.24489309849495e-04
7.18134615384615e+00 2.29534047534712e-02 2.23645585221781e-04
7.22250000000000e+00 2.28015194285071e-02 2.22801372912793e-04
7.26365384615385e+00 2.26506391463729e-02 2.21956743932424e-04
7.30480769230769e+00 2.25007572563772e-02 2.21111767871605e-04
7.34596153846154e+00 2.23518671520455e-02 2.20266512701152e-04
7.38711538461538e+00 2.22039622708194e-02 2.19421045250951e-04
7.42826923076923e+00 2.20570360931641e-02 2.18575430938464e-04
7.46942307692308e+00 2.19110821430813e-02 2.17729733860341e-04
7.51057692307692e+00 2.17660939870346e-02 2.16884016897923e-04
7.55173076923077e+00 2.16220652342548e-02 2.16038341448588e-04
7.59288461538462e+00 2.14789895364495e-02 2.15192767880930e-04
7.63403846153846e+00 2.13368605869559e-02 2.14347355274675e-04
7.67519230769231e+00 2.11956721212160e-02 2.13502161506548e-04
7.71634615384615e+00 2.10554179157571e-02 2.12657243349367e-04
7.75750000000000e+00 2.09160917884726e-02 2.11812656214730e-04
7.79865384615385e+00 2.07776875983407e-02 2.10968454585650e-04
7.83980769230769e+00 2.06401992446199e-02 2.10124691832816e-04
7.88096153846154e+00 2.05036206671164e-02 2.09281420033038e-04
7.92211538461538e+00 2.03679458459085e-02 2.08438690390079e-04
7.96326923076923e+00 2.02331688005655e-02 2.07596552990978e-04
8.00442307692308e+00 2.00992835905690e-02 2.06755056884076e-04
8.04557692307692e+00 1.99662843143750e-02 2.05914250169281e-04
8.08673076923077e+00 1.98341651096586e-02 2.05074179757075e-04
8.12788461538461e+00 1.97029201530477e-02 2.04234891768914e-04
8.16903846153846e+00 1.95725436593808e-02 2.03396431303865e-04
8.21019230769231e+00 1.94430298820965e-02 2.02558842512058e-04
8.25134615384615e+00 1.93143731123443e-02 2.01722168679741e-04
8.29250000000000e+00 1.91865676792074e-02 2.00886451998523e-04
8.33365384615385e+00 1.90596079494465e-02 2.00051733946569e-04
8.37480769230769e+00 1.89334883267929e-02 1.99218055123083e-04
8.41596153846154e+00 1.88082032521621e-02 1.98385455084874e-04
8.45711538461538e+00 1.86837472034018e-02 1.97553972717400e-04
8.49826923076923e+00 1.85601146946052e-02 1.96723646016200e-04
8.53942307692308e+00 1.84373002764577e-02 1.95894512154053e-04
8.58057692307692e+00 1.83152985354161e-02 1.95066607558847e-04
8.62173076923077e+00 1.81941040939030e-02 1.94239967697479e-04
8.66288461538461e+00 1.80737116100643e-02 1.93414627429456e-04
8.70403846153846e+00 1.79541157771149e-02 1.92590620797538e-04
8.74519230769231e+00 1.78353113236602e-02 1.91767981091146e-04
8.78634615384615e+00 1.77172930129156e-02 1.90946740919964e-04
8.82750000000000e+00 1.76000556428852e-02 1.90126932007007e-04
8.86865384615385e+00 1.74835940461261e-02 1.89308585525729e-04
8.90980769230769e+00 1.73679030891263e-02 1.88491731951025e-04
8.95096153846154e+00 1.72529776724744e-02 1.87676400912220e-04
8.99211538461538e+00 1.71388127306296e-02 1.86862621521412e-04
9.03326923076923e+00 1.70254032313154e-02 1.86050422177395e-04
9.07442307692308e+00 1.69127441758063e-02 1.85239830623876e-04
9.11557692307692e+00 1.68008305982054e-02 1.84430874017132e-04
9.15673076923077e+00 1.66896575656002e-02 1.83623578732222e-04
9.19788461538461e+00 1.65792201778398e-02 1.82817970676205e-04
9.23903846153846e+00 1.64695135669576e-02 1.82014075100367e-04
9.28019230769231e+00 1.63605328974367e-02 1.81211916655286e-04
9.32134615384615e+00 1.62522733655223e-02 1.80411519454931e-04
9.36250000000000e+00 1.61447301993647e-02 1.79612906891103e-04
9.40365384615385e+00 1.60378986588030e-02 1.78816101932298e-04
9.44480769230769e+00 1.59317740348155e-02 1.78021126989793e-04
9.48596153846154e+00 1.58263516496545e-02 1.77228003785414e-04
9.52711538461538e+00 1.57216268566352e-02 1.76436753642795e-04
9.56826923076923e+00 1.56175950396003e-02 1.75647397311501e-04
9.60942307692308e+00 1.55142516131556e-02 1.74859955017808e-04
9.65057692307692e+00 1.54115920220341e-02 1.74074446523803e-04
9.69173076923077e+00 1.53096117412195e-02 1.73290890953561e-04
9.73288461538461e+00 1.52083062757416e-02 1.72509307071280e-04
9.77403846153846e+00 1.51076711601658e-02 1.71729713112795e-04
9.81519230769231e+00 1.50077019588115e-02 1.70952126833691e-04
9.85634615384615e+00 1.49083942651463e-02 1.70176565565430e-04
9.89750000000000e+00 1.48097437018981e-02 1.69403046048832e-04
9.93865384615385e+00 1.47117459208583e-02 1.68631584699724e-04
9.97980769230769e+00 1.46143966023934e-02 1.67862197406449e-04
1.00209615384615e+01 1.45176914557441e-02 1.67094899903246e-04
1.00621153846154e+01 1.44216262176830e-02 1.66329706923116e-04
1.01032692307692e+01 1.43261966548132e-02 1.65566633217347e-04
1.01444230769231e+01 1.42313985598580e-02 1.64805693018434e-04
1.01855769230769e+01 1.41372277552539e-02 1.64046899732054e-04
1.02267307692308e+01 1.40436800901367e-02 1.63290267569904e-04
1.02678846153846e+01 1.39507514402141e-02 1.62535809149783e-04
1.03090384615385e+01 1.38584377102900e-02 1.61783537086171e-04
1.03501923076923e+01 1.37667348304796e-02 1.61033463635124e-04
1.03913461538462e+01 1.36756387595982e-02 1.60285600654438e-04
1.04325000000000e+01 1.35851454814505e-02 1.59539959656012e-04
1.04736538461538e+01 1.34952510081508e-02 1.58796551766559e-04
1.05148076923077e+01 1.34059513764852e-02 1.58055387778984e-04
1.05559615384615e+01 1.33172426511640e-02 1.57316478113663e-04
1.05971153846154e+01 1.32291209212558e-02 1.56579832868865e-04
1.06382692307692e+01 1.31415823033733e-02 1.55845461782580e-04
1.06794230769231e+01 1.30546229381774e-02 1.55113374281985e-04
1.07205769230769e+01 1.29682389934990e-02 1.54383579093808e-04
1.07617307692308e+01 1.28824266617042e-02 1.53656085703457e-04
1.08028846153846e+01 1.27971821595743e-02 1.52930902208685e-04
1.08440384615385e+01 1.27125017304988e-02 1.52208036741208e-04
1.08851923076923e+01 1.26283816411665e-02 1.51487497148442e-04
1.09263461538462e+01 1.25448181845130e-02 1.50769290957478e-04
1.09675000000000e+01 1.24618076764763e-02 1.50053425421145e-04
1.10086538461538e+01 1.23793464588848e-02 1.49339907482536e-04
1.10498076923077e+01 1.22974308962758e-02 1.48628743820216e-04
1.10909615384615e+01 1.22160573787258e-02 1.47919940813217e-04
1.11321153846154e+01 1.21352223187302e-02 1.47213504585452e-04
1.11732692307692e+01 1.20549221539770e-02 1.46509440971236e-04
1.12144230769231e+01 1.19751533442874e-02 1.45807755558841e-04
1.12555769230769e+01 1.18959123743331e-02 1.45108453341361e-04
1.12967307692308e+01 1.18171957513294e-02 1.44411540022376e-04
1.13378846153846e+01 1.17390000049213e-02 1.43717020094063e-04
1.13790384615385e+01 1.16613216890934e-02 1.43024898109427e-04
1.14201923076923e+01 1.15841573792706e-02 1.42335178396793e-04
1.14613461538462e+01 1.15075036748878e-02 1.41647865027273e-04
1.15025000000000e+01 1.14313571965457e-02 1.40962961855420e-04
1.15436538461538e+01 1.13557145885298e-02 1.40280472487151e-04
1.15848076923077e+01 1.12805725160209e-02 1.39600400319671e-04
1.16259615384615e+01 1.12059276675637e-02 1.38922748509883e-04
1.16671153846154e+01 1.11317767523308e-02 1.38247520013559e-04
1.17082692307692e+01 1.10581165025424e-02 1.37574717554216e-04
1.17494230769231e+01 1.09849436707825e-02 1.36904343661611e-04
1.17905769230769e+01 1.09122550323710e-02 1.36236400358576e-04
1.18317307692308e+01 1.08400473833373e-02 1.35570890330711e-04
1.18728846153846e+01 1.07683175403145e-02 1.34907815203598e-04
1.19140384615385e+01 1.06970623422050e-02 1.34247176682664e-04
1.19551923076923e+01 1.06262786476355e-02 1.33588976296852e-04
1.19963461538462e+01 1.05559633372013e-02 1.32933215369240e-04
1.20375000000000e+01 1.04861133109685e-02 1.32279895052988e-04
1.20786538461538e+01 1.04167254906753e-02 1.31629016302375e-04
1.21198076923077e+01 1.03477968172808e-02 1.30980579908133e-04
1.21609615384615e+01 1.02793242531233e-02 1.30334586468910e-04
1.22021153846154e+01 1.02113047795155e-02 1.29691036425951e-04
1.22432692307692e+01 1.01437353988604e-02 1.29049930034987e-04
1.22844230769231e+01 1.00766131322918e-02 1.28411267400323e-04
1.23255769230769e+01 1.00099350217491e-02 1.27775048193693e-04
1.23667307692308e+01 9.94369812819439e-03 1.27141272703264e-04
1.24078846153846e+01 9.87789953151309e-03 1.26509940287756e-04
1.24490384615385e+01 9.81253633197100e-03 1.25881050398842e-04
1.24901923076923e+01 9.74760564797418e-03 1.25254602350788e-04
1.25313461538462e+01 9.68310461803413e-03 1.24630595293891e-04
1.25725000000000e+01 9.61903039856942e-03 1.24009028246386e-04
1.26136538461538e+01 9.55538016583290e-03 1.23389900068296e-04
1.26548076923077e+01 9.49215111375412e-03 1.22773209492731e-04
1.26959615384615e+01 9.42934045582953e-03 1.22158955100118e-04
1.27371153846154e+01 9.36694542300484e-03 1.21547135349001e-04
1.27782692307692e+01 9.30496326552886e-03 1.20937748550621e-04
1.28194230769231e+01 9.24339125087515e-03 1.20330792899171e-04
1.28605769230769e+01 9.18222666556021e-03 1.19726266219186e-04
1.29017307692308e+01 9.12146681357178e-03 1.19124166907235e-04
1.29428846153846e+01 9.06110901627593e-03 1.18524492543496e-04
1.29840384615385e+01 9.00115061369361e-03 1.17927240809669e-04
