Energy (eV)          EEDF (eV^-(3/2))     First Anisotropy
8.23076923076923e-02 7.21347444582806e-02 7.42579343578930e-05
2.46923076923077e-01 7.02442135684483e-02 1.21422308693623e-04
4.11538461538462e-01 6.84032303361881e-02 1.57146836792885e-04
5.76153846153846e-01 6.66104961905580e-02 1.82446007054564e-04
7.40769230769231e-01 6.48647466072046e-02 2.02073526948874e-04
9.05384615384615e-01 6.31647501967779e-02 2.17882694200294e-04
1.07000000000000e+00 6.15093078453798e-02 2.30860360055771e-04
1.23461538461538e+00 5.98972518698824e-02 2.41618720338002e-04
1.39923076923077e+00 5.83274451757115e-02 2.50574256615735e-04
1.56384615384615e+00 5.67987804922125e-02 2.58028466878484e-04
1.72846153846154e+00 5.53101795456043e-02 2.64209597084380e-04
1.89307692307692e+00 5.38605923418223e-02 2.69296363241285e-04
2.05769230769231e+00 5.24489963876942e-02 2.73432422066881e-04
2.22230769230769e+00 5.10743960036573e-02 2.76735693277974e-04
2.38692307692308e+00 4.97358215968005e-02 2.79304636297171e-04
2.55153846153846e+00 4.84323289811546e-02 2.81222626676155e-04
2.71615384615385e+00 4.71629987267890e-02 2.82561105409672e-04
2.88076923076923e+00 4.59269354908099e-02 2.83381900804084e-04
3.04538461538462e+00 4.47232674046793e-02 2.83738979187686e-04
3.21000000000000e+00 4.35511454418136e-02 2.83679790778291e-04
3.37461538461538e+00 4.24097428348448e-02 2.83246321429169e-04
3.53923076923077e+00 4.12982544774765e-02 2.82475927331988e-04
3.70384615384615e+00 4.02158963705215e-02 2.81402005916715e-04
3.86846153846154e+00 3.91619050559167e-02 2.80054541984132e-04
4.03307692307692e+00 3.81355370903302e-02 2.78460556701906e-04
4.19769230769231e+00 3.71360685094272e-02 2.76644480740407e-04
4.36230769230769e+00 3.61627943278327e-02 2.74628466631136e-04
4.52692307692308e+00 3.52150280340016e-02 2.72432653563892e-04
4.69153846153846e+00 3.42921011068635e-02 2.70075391221116e-04
4.85615384615385e+00 3.33933625501501e-02 2.67573433047823e-04
5.02076923076923e+00 3.25181784253513e-02 2.64942102311443e-04
5.18538461538462e+00 3.16659314119786e-02 2.62195436166827e-04
5.35000000000000e+00 3.08360203651163e-02 2.59346311438037e-04
5.51461538461538e+00 3.00278598980325e-02 2.56406554742290e-04
5.67923076923077e+00 2.92408799629858e-02 2.53387039589210e-04
5.84384615384615e+00 2.84745254550890e-02 2.50297772139148e-04
6.00846153846154e+00 2.77282558151132e-02 2.47147967468485e-04
6.17307692307692e+00 2.70015446535544e-02 2.43946117437159e-04
6.33769230769231e+00 2.62938793742521e-02 2.40700051496993e-04
6.50230769230769e+00 2.56047608176547e-02 2.37416991073282e-04
6.66692307692308e+00 2.49337029051417e-02 2.34103599032864e-04
6.83153846153846e+00 2.42802322964872e-02 2.30766023425918e-04
6.99615384615385e+00 2.36438880588468e-02 2.27409937935345e-04
7.16076923076923e+00 2.30242213378166e-02 2.24040578203478e-04
7.32538461538461e+00 2.24207950444672e-02 2.20662774885460e-04
7.49000000000000e+00 2.18331835435659e-02 2.17280983856120e-04
7.65461538461538e+00 2.12609723566625e-02 2.13899313730217e-04
7.81923076923077e+00 2.07037578665692e-02 2.10521551121740e-04
7.98384615384615e+00 2.01611470356837e-02 2.07151183737609e-04
8.14846153846154e+00 1.96327571258709e-02 2.03791421656246e-04
8.31307692307692e+00 1.91182154312500e-02 2.00445216841585e-04
8.47769230769231e+00 1.86171590126666e-02 1.97115281185749e-04
8.64230769230769e+00 1.81292344442092e-02 1.93804103047304e-04
8.80692307692308e+00 1.76540975620404e-02 1.90513962850528e-04
8.97153846153846e+00 1.71914132217849e-02 1.87246946954491e-04
9.13615384615385e+00 1.67408550636765e-02 1.84004961033224e-04
9.30076923076923e+00 1.63021052802991e-02 1.80789742248219e-04
9.46538461538461e+00 1.58748543943881e-02 1.77602870558359e-04
9.63000000000000e+00 1.54588010386478e-02 1.74445779276723e-04
9.79461538461538e+00 1.50536517449892e-02 1.71319764846172e-04
9.95923076923077e+00 1.46591207357916e-02 1.68225996143784e-04
1.01238461538462e+01 1.42749297224705e-02 1.65165522127563e-04
1.02884615384615e+01 1.39008077154945e-02 1.62139281239347e-04
1.04530769230769e+01 1.35364908193648e-02 1.59148108229860e-04
1.06176923076923e+01 1.31817220585886e-02 1.56192739929684e-04
1.07823076923077e+01 1.28362511925673e-02 1.53273823053055e-04
1.09469230769231e+01 1.24998345390758e-02 1.50391919805709e-04
1.11115384615385e+01 1.21722348024012e-02 1.47547513533466e-04
1.12761538461538e+01 1.18532209059512e-02 1.44741013711082e-04
1.14407692307692e+01 1.15425678319569e-02 1.41972761813678e-04
1.16053846153846e+01 1.12400564544960e-02 1.39243035335918e-04
1.17700000000000e+01 1.09454733933664e-02 1.36552051489345e-04
1.19346153846154e+01 1.06586108606981e-02 1.33899972270440e-04
1.20992307692308e+01 1.03792665143916e-02 1.31286907949234e-04
1.22638461538462e+01 1.01072433153971e-02 1.28712920414545e-04
1.24284615384615e+01 9.84234939083723e-03 1.26178027296019e-04
1.25930769230769e+01 9.58439789220258e-03 1.23682204621083e-04
1.27576923076923e+01 9.33320687015831e-03 1.21225389253735e-04
1.29223076923077e+01 9.08859914395545e-03 1.18807482494445e-04
1.30869230769231e+01 8.85040217644903e-03 1.16428352426507e-04
1.32515384615385e+01 8.61844795240819e-03 1.14087836380085e-04
1.34161538461538e+01 8.39257285999859e-03 1.11785743053643e-04
1.35807692307692e+01 8.17261757698184e-03 1.09521855287190e-04
1.37453846153846e+01 7.95842695342090e-03 1.07295931705176e-04
1.39100000000000e+01 7.74984990726142e-03 1.05107708216000e-04
1.40746153846154e+01 7.54673931605368e-03 1.02956900461642e-04
1.42392307692308e+01 7.34895191318026e-03 1.00843205297892e-04
1.44038461538462e+01 7.15634818680293e-03 9.87663022311647e-05
1.45684615384615e+01 6.96879228272757e-03 9.67258554109445e-05
1.47330769230769e+01 6.78615190467922e-03 9.47215147093665e-05
1.48976923076923e+01 6.60829822496510e-03 9.27529166988084e-05
1.50623076923077e+01 6.43510579224966e-03 9.08196864258441e-05
1.52269230769231e+01 6.26645244306328e-03 8.89214384013297e-05
1.53915384615385e+01 6.10221921563858e-03 8.70577776995555e-05
1.55561538461538e+01 5.94229026599620e-03 8.52283008625583e-05
1.57207692307692e+01 5.78655278721337e-03 8.34325972616017e-05
1.58853846153846e+01 5.63489692685275e-03 8.16702497418778e-05
1.60500000000000e+01 5.48721571253997e-03 7.99408351973055e-05
1.62146153846154e+01 5.34340497546584e-03 7.82439257929003e-05
1.63792307692308e+01 5.20336327691079e-03 7.65790895711743e-05
1.65438461538462e+01 5.06699183669479e-03 7.49458910491848e-05
1.67084615384615e+01 4.93419446428588e-03 7.33438922015946e-05
1.68730769230769e+01 4.80487748854703e-03 7.17726528582780e-05
1.70376923076923e+01 4.67894969411721e-03 7.02317310508991e-05
1.72023076923077e+01 4.55632225623677e-03 6.87206839010495e-05
1.73669230769231e+01 4.43690867809237e-03 6.72390680050568e-05
1.75315384615385e+01 4.32062472980850e-03 6.57864399043013e-05
1.76961538461538e+01 4.20738838903325e-03 6.43623564390315e-05
1.78607692307692e+01 4.09711978369340e-03 6.29663754178908e-05
1.80253846153846e+01 3.98974113378730e-03 6.15980558230360e-05
1.81900000000000e+01 3.88517669842807e-03 6.02569579794843e-05
1.83546153846154e+01 3.78335272176970e-03 5.89426441644311e-05
1.85192307692308e+01 3.68419738098319e-03 5.76546788172335e-05
1.86838461538462e+01 3.58764073559587e-03 5.63926287517917e-05
1.88484615384615e+01 3.49361467865017e-03 5.51560636347111e-05
1.90130769230769e+01 3.40205288715600e-03 5.39445560814979e-05
1.91776923076923e+01 3.31289077684693e-03 5.27576817263066e-05
1.93423076923077e+01 3.22606545610172e-03 5.15950196597188e-05
1.95069230769231e+01 3.14151568158210e-03 5.04561525380440e-05
1.96715384615385e+01 3.05918181503585e-03 4.93406667559868e-05
1.98361538461538e+01 2.97900578122922e-03 4.82481525475390e-05
2.00007692307692e+01 2.90093102736865e-03 4.71782043039098e-05
2.01653846153846e+01 2.82490248203036e-03 4.61304205864371e-05
2.03300000000000e+01 2.75086651751882e-03 4.51044041207943e-05
2.04946153846154e+01 2.67877091163013e-03 4.40997620904153e-05
2.06592307692308e+01 2.60856481081671e-03 4.31161061676352e-05
2.08238461538462e+01 2.54019869431750e-03 4.21530525507570e-05
2.09884615384615e+01 2.47362433954058e-03 4.12102221837073e-05
2.11530769230769e+01 2.40879478709099e-03 4.02872407236328e-05
2.13176923076923e+01 2.34566430862421e-03 3.93837384946299e-05
2.14823076923077e+01 2.28418837425889e-03 3.84993506920209e-05
2.16469230769231e+01 2.22432362116669e-03 3.76337173698959e-05
2.18115384615385e+01 2.16602782298674e-03 3.67864834744989e-05
2.19761538461538e+01 2.10925986004027e-03 3.59572988325583e-05
2.21407692307692e+01 2.05397969057292e-03 3.51458182887238e-05
2.23053846153846e+01 2.00014832175644e-03 3.43517016407809e-05
2.24700000000000e+01 1.94772778295392e-03 3.35746135650715e-05
2.26346153846154e+01 1.89668109867497e-03 3.28142237458752e-05
2.27992307692308e+01 1.84697226249478e-03 3.20702068309447e-05
2.29638461538462e+01 1.79856621165672e-03 3.13422423933744e-05
2.31284615384615e+01 1.75142880254132e-03 3.06300150189489e-05
2.32930769230769e+01 1.70552678596752e-03 2.99332142258017e-05
2.34576923076923e+01 1.66082778436722e-03 2.92515343768612e-05
2.36223076923077e+01 1.61730026873403e-03 2.85846747632888e-05
2.37869230769231e+01 1.57491353638367e-03 2.79323395437762e-05
2.39515384615385e+01 1.53363768929800e-03 2.72942377166312e-05
2.41161538461538e+01 1.49344361303582e-03 2.66700830632141e-05
2.42807692307692e+01 1.45430295635573e-03 2.60595941939186e-05
2.44453846153846e+01 1.41618811073153e-03 2.54624944591443e-05
2.46100000000000e+01 1.37907219137449e-03 2.48785118552409e-05
2.47746153846154e+01 1.34292901810100e-03 2.43073790698432e-05
2.49392307692308e+01 1.30773309686614e-03 2.37488334111888e-05
2.51038461538462e+01 1.27345960178128e-03 2.32026167430772e-05
2.52684615384615e+01 1.24008435773300e-03 2.26684755061728e-05
2.54330769230769e+01 1.20758382293240e-03 2.21461606270616e-05
2.55976923076923e+01 1.17593507271589e-03 2.16354274236688e-05
2.57623076923077e+01 1.14511578323684e-03 2.11360356276816e-05
2.59269230769231e+01 1.11510421571905e-03 2.06477493105278e-05
2.60915384615385e+01 1.08587920112337e-03 2.01703368326655e-05
2.62561538461538e+01 1.05742012521565e-03 1.97035707745056e-05
2.64207692307692e+01 1.02970691412979e-03 1.92472279379547e-05
2.65853846153846e+01 1.00272001989181e-03 1.88010892573445e-05
2.67500000000000e+01 9.76440406954178e-04 1.83649397078975e-05
2.69146153846154e+01 9.50849538659063e-04 1.79385683096998e-05
2.70792307692308e+01 9.25929364163371e-04 1.75217680538398e-05
2.72438461538462e+01 9.01662305706402e-04 1.71143358331963e-05
2.74084615384615e+01 8.78031246296113e-04 1.67160724327370e-05
2.75730769230769e+01 8.55019517375468e-04 1.63267824443229e-05
2.77376923076923e+01 8.32610887330080e-04 1.59462741797960e-05
2.79023076923077e+01 8.10789549948953e-04 1.55743596643259e-05
2.80669230769231e+01 7.89540113275282e-04 1.52108545649220e-05
2.82315384615385e+01 7.68847588749751e-04 1.48555781354694e-05
2.83961538461538e+01 7.48697380638050e-04 1.45083531499099e-05
2.85607692307692e+01 7.29075275803381e-04 1.41690058841489e-05
2.87253846153846e+01 7.09967433473795e-04 1.38373660368815e-05
2.88900000000000e+01 6.91360375690686e-04 1.35132666493278e-05
2.90546153846154e+01 6.73240977730110e-04 1.31965440905621e-05
2.92192307692308e+01 6.55596458845134e-04 1.28870379904049e-05
2.93838461538462e+01 6.38414373250818e-04 1.25845911759908e-05
2.95484615384615e+01 6.21682601401205e-04 1.22890496494252e-05
2.97130769230769e+01 6.05389341269973e-04 1.20002625144659e-05
2.98776923076923e+01 5.89523100199698e-04 1.17180819025074e-05
3.00423076923077e+01 5.74072686736242e-04 1.14423629537474e-05
3.02069230769231e+01 5.59027202734652e-04 1.11729637545974e-05
3.03715384615385e+01 5.44376035672153e-04 1.09097452867851e-05
3.05361538461538e+01 5.30108851162401e-04 1.06525713687784e-05
3.07007692307692e+01 5.16215585710629e-04 1.04013086308795e-05
3.08653846153846e+01 5.02686439478777e-04 1.01558264490034e-05
3.10300000000000e+01 4.89511869512140e-04 9.91599687808346e-06
3.11946153846154e+01 4.76682582960832e-04 9.68169463062593e-06
3.13592307692308e+01 4.64189530524991e-04 9.45279701981119e-06
3.15238461538462e+01 4.52023900071756e-04 9.22918390543374e-06
3.16884615384615e+01 4.40177110456348e-04 9.01073766825724e-06
3.18530769230769e+01 4.28640805356602e-04 8.79734314983983e-06
3.20176923076923e+01 4.17406847493541e-04 8.58888759218720e-06
3.21823076923077e+01 4.06467312852628e-04 8.38526061542162e-06
3.23469230769231e+01 3.95814485094428e-04 8.18635416582817e-06
3.25115384615385e+01 3.85440850111869e-04 7.99206247216831e-06
3.26761538461538e+01 3.75339090730030e-04 7.80228199700314e-06
3.28407692307692e+01 3.65502081574416e-04 7.61691141132258e-06
3.30053846153846e+01 3.55922883954696e-04 7.43585154114584e-06
3.31700000000000e+01 3.46594741062431e-04 7.25900531410737e-06
3.33346153846154e+01 3.37511073173790e-04 7.08627773717821e-06
3.34992307692308e+01 3.28665473008477e-04 6.91757585034977e-06
3.36638461538462e+01 3.20051701210289e-04 6.75280868247323e-06
3.38284615384615e+01 3.11663681970527e-04 6.59188722678042e-06
3.39930769230769e+01 3.03495498667653e-04 6.43472439295196e-06
3.41576923076923e+01 2.95541389770051e-04 6.28123495926458e-06
3.43223076923077e+01 2.87795744746192e-04 6.13133555097815e-06
3.44869230769231e+01 2.80253100107149e-04 5.98494459861314e-06
3.46515384615385e+01 2.72908135552909e-04 5.84198230207286e-06
3.48161538461538e+01 2.65755670219606e-04 5.70237059151581e-06
3.49807692307692e+01 2.58790659044763e-04 5.56603310438391e-06
3.51453846153846e+01 2.52008189148688e-04 5.43289514336907e-06
3.53100000000000e+01 2.45403476430268e-04 5.30288363452670e-06
3.54746153846154e+01 2.38971862171648e-04 5.17592710690007e-06
3.56392307692308e+01 2.32708809752164e-04 5.05195565580618e-06
3.58038461538462e+01 2.26609901448385e-04 4.93090090773961e-06
3.59684615384615e+01 2.20670835334276e-04 4.81269599892928e-06
3.61330769230769e+01 2.14887422197054e-04 4.69727553792879e-06
3.62976923076923e+01 2.09255582632947e-04 4.58457556839060e-06
3.64623076923077e+01 2.03771344152520e-04 4.47453354998283e-06
3.66269230769231e+01 1.98430838378614e-04 4.36708832562353e-06
3.67915384615385e+01 1.93230298317766e-04 4.26218009284550e-06
3.69561538461538e+01 1.88166055703099e-04 4.15975037304295e-06
3.71207692307692e+01 1.83234538419962e-04 4.05974199193322e-06
3.72853846153846e+01 1.78432267946261e-04 3.96209904702692e-06
3.74500000000000e+01 1.73755856939631e-04 3.86676687530363e-06
3.76146153846154e+01 1.69202006834270e-04 3.77369203577226e-06
3.77792307692308e+01 1.64767505514257e-04 3.68282228090207e-06
3.79438461538462e+01 1.60449225047851e-04 3.59410652925929e-06
3.81084615384615e+01 1.56244119492032e-04 3.50749484762671e-06
3.82730769230769e+01 1.52149222710782e-04 3.42293842223152e-06
3.84376923076923e+01 1.48161646316735e-04 3.34038953018663e-06
3.86023076923077e+01 1.44278577622320e-04 3.25980152349434e-06
3.87669230769231e+01 1.40497277655783e-04 3.18112880372182e-06
3.89315384615385e+01 1.36815079229238e-04 3.10432679959682e-06
3.90961538461538e+01 1.33229385057327e-04 3.02935194322148e-06
3.92607692307692e+01 1.29737665933953e-04 2.95616165408181e-06
3.94253846153846e+01 1.26337458921484e-04 2.88471431418585e-06
3.95900000000000e+01 1.23026365640787e-04 2.81496924341325e-06
3.97546153846154e+01 1.19802050570222e-04 2.74688668517963e-06
3.99192307692308e+01 1.16662239398260e-04 2.68042778450566e-06
4.00838461538462e+01 1.13604717419267e-04 2.61555456697877e-06
4.02484615384615e+01 1.10627327978623e-04 2.55222992430967e-06
4.04130769230769e+01 1.07727970929220e-04 2.49041759244625e-06
4.05776923076923e+01 1.04904601172798e-04 2.43008212989241e-06
4.07423076923077e+01 1.02155227209692e-04 2.37118890473736e-06
4.09069230769231e+01 9.94779097341004e-05 2.31370407531456e-06
4.10715384615385e+01 9.68707602661848e-05 2.25759457292554e-06
4.12361538461538e+01 9.43319398199978e-05 2.20282808366220e-06
4.14007692307692e+01 9.18596576122169e-05 2.14937303565393e-06
4.15653846153846e+01 8.94521697810091e-05 2.09719858024750e-06
4.17300000000000e+01 8.71077781742992e-05 2.04627457337978e-06
4.18946153846154e+01 8.48248291457299e-05 1.99657156410716e-06
4.20592307692308e+01 8.26017123882443e-05 1.94806077794370e-06
4.22238461538462e+01 8.04368597982378e-05 1.90071410085681e-06
4.23884615384615e+01 7.83287443743718e-05 1.85450406785438e-06
4.25530769230769e+01 7.62758791255150e-05 1.80940384647811e-06
4.27176923076923e+01 7.42768160371272e-05 1.76538722047740e-06
4.28823076923077e+01 7.23301450447031e-05 1.72242857953080e-06
4.30469230769231e+01 7.04344930391612e-05 1.68050290460988e-06
4.32115384615385e+01 6.85885228983125e-05 1.63958575480357e-06
4.33761538461538e+01 6.67909325437002e-05 1.59965325355489e-06
4.35407692307692e+01 6.50404540261231e-05 1.56068207867687e-06
4.37053846153846e+01 6.33358526191669e-05 1.52264944821276e-06
4.38700000000000e+01 6.16759259606073e-05 1.48553310646117e-06
4.40346153846154e+01 6.00595032001175e-05 1.44931131497296e-06
4.41992307692308e+01 5.84854441733964e-05 1.41396283999450e-06
4.43638461538462e+01 5.69526385979401e-05 1.37946694039362e-06
4.45284615384615e+01 5.54600052931902e-05 1.34580335878553e-06
4.46930769230769e+01 5.40064914078212e-05 1.31295230916766e-06
4.48576923076923e+01 5.25910716873764e-05 1.28089446470592e-06
4.50223076923077e+01 5.12127477476003e-05 1.24961094972429e-06
4.51869230769231e+01 4.98705473702139e-05 1.21908332870962e-06
4.53515384615385e+01 4.85635238171525e-05 1.18929359634979e-06
4.55161538461538e+01 4.72907551627700e-05 1.16022416718936e-06
4.56807692307692e+01 4.60513436462199e-05 1.13185786792038e-06
4.58453846153846e+01 4.48444150300400e-05 1.10417792682317e-06
4.60100000000000e+01 4.36691179918196e-05 1.07716796334279e-06
4.61746153846154e+01 4.25246235208812e-05 1.05081198112309e-06
4.63392307692308e+01 4.14101243335282e-05 1.02509435860500e-06
4.65038461538462e+01 4.03248343036180e-05 9.99999839978136e-07
4.66684615384615e+01 3.92679879102872e-05 9.75513528364556e-07
4.68330769230769e+01 3.82388396911674e-05 9.51620876607118e-07
4.69976923076923e+01 3.72366637235059e-05 9.28307678180578e-07
4.71623076923077e+01 3.62607531097692e-05 9.05560061027289e-07
4.73269230769231e+01 3.53104194790222e-05 8.83364479346058e-07
4.74915384615385e+01 3.43849925013804e-05 8.61707706112132e-07
4.76561538461538e+01 3.34838194151824e-05 8.40576825348716e-07
4.78207692307692e+01 3.26062645683639e-05 8.19959226237613e-07
4.79853846153846e+01 3.17517089645691e-05 7.99842595273120e-07
4.81500000000000e+01 3.09195498321606e-05 7.80214908524454e-07
4.83146153846154e+01 3.01092001971352e-05 7.61064426305179e-07
4.84792307692308e+01 2.93200884690949e-05 7.42379686171216e-07
4.86438461538461e+01 2.85516580380690e-05 7.24149496176654e-07
4.88084615384615e+01 2.78033668834114e-05 7.06362929688183e-07
4.89730769230769e+01 2.70746871868663e-05 6.89009318553899e-07
4.91376923076923e+01 2.63651049649643e-05 6.72078246369553e-07
4.93023076923077e+01 2.56741197048818e-05 6.55559543781556e-07
4.94669230769231e+01 2.50012440113966e-05 6.39443282384723e-07
4.96315384615385e+01 2.43460032630996e-05 6.23719769137636e-07
4.97961538461538e+01 2.37079352776141e-05 6.08379540616898e-07
4.99607692307692e+01 2.30865899868137e-05 5.93413358556008e-07
5.01253846153846e+01 2.24815291156189e-05 5.78812204039333e-07
5.02900000000000e+01 2.18923258766665e-05 5.64567271781438e-07
5.04546153846154e+01 2.13185646679750e-05 5.50669966083416e-07
5.06192307692308e+01 2.07598407797945e-05 5.37111895641174e-07
5.07838461538461e+01 2.02157601091398e-05 5.23884868541465e-07
5.09484615384615e+01 1.96859388828289e-05 5.10980888346983e-07
5.11130769230769e+01 1.91700033836547e-05 4.98392149049919e-07
5.12776923076923e+01 1.86675896899661e-05 4.86111030101525e-07
5.14423076923077e+01 1.81783434178888e-05 4.74130092861375e-07
5.16069230769231e+01 1.77019194713555e-05 4.62442076080903e-07
5.17715384615385e+01 1.72379817986892e-05 4.51039891753463e-07
5.19361538461538e+01 1.67862031555646e-05 4.39916620860229e-07
