Energy (eV)          EEDF (eV^-(3/2))     First Anisotropy
1.20675675675676e-04 2.70187138519368e+02 0.00000000000000e+00
3.62027027027027e-04 2.67676420933278e+02 0.00000000000000e+00
6.03378378378378e-04 2.65189034224072e+02 0.00000000000000e+00
8.44729729729730e-04 2.62724761589074e+02 0.00000000000000e+00
1.08608108108108e-03 2.60283388240408e+02 0.00000000000000e+00
1.32743243243243e-03 2.57864701386135e+02 0.00000000000000e+00
1.56878378378378e-03 2.55468490211701e+02 0.00000000000000e+00
1.81013513513514e-03 2.53094545861546e+02 0.00000000000000e+00
2.05148648648649e-03 2.50742661420909e+02 0.00000000000000e+00
2.29283783783784e-03 2.48412631897784e+02 0.00000000000000e+00
2.53418918918919e-03 2.46104254205059e+02 0.00000000000000e+00
2.77554054054054e-03 2.43817327142812e+02 0.00000000000000e+00
3.01689189189189e-03 2.41551651380771e+02 0.00000000000000e+00
3.25824324324324e-03 2.39307029440947e+02 0.00000000000000e+00
3.49959459459459e-03 2.37083265680416e+02 0.00000000000000e+00
3.74094594594595e-03 2.34880166274268e+02 0.00000000000000e+00
3.98229729729730e-03 2.32697539198714e+02 0.00000000000000e+00
4.22364864864865e-03 2.30535194214351e+02 0.00000000000000e+00
4.46500000000000e-03 2.28392942849574e+02 0.00000000000000e+00
4.70635135135135e-03 2.26270598384157e+02 0.00000000000000e+00
4.94770270270270e-03 2.24167975832971e+02 0.00000000000000e+00
5.18905405405405e-03 2.22084891929866e+02 0.00000000000000e+00
5.43040540540541e-03 2.20021165111693e+02 0.00000000000000e+00
5.67175675675676e-03 2.17976615502484e+02 0.00000000000000e+00
5.91310810810811e-03 2.15951064897768e+02 0.00000000000000e+00
6.15445945945946e-03 2.13944336749042e+02 0.00000000000000e+00
6.39581081081081e-03 2.11956256148384e+02 0.00000000000000e+00
6.63716216216216e-03 2.09986649813205e+02 0.00000000000000e+00
6.87851351351351e-03 2.08035346071146e+02 0.00000000000000e+00
7.11986486486487e-03 2.06102174845118e+02 0.00000000000000e+00
7.36121621621622e-03 2.04186967638472e+02 0.00000000000000e+00
7.60256756756757e-03 2.02289557520319e+02 0.00000000000000e+00
7.84391891891892e-03 2.00409779110978e+02 0.00000000000000e+00
8.08527027027027e-03 1.98547468567559e+02 0.00000000000000e+00
8.32662162162162e-03 1.96702463569685e+02 0.00000000000000e+00
8.56797297297297e-03 1.94874603305345e+02 0.00000000000000e+00
8.80932432432432e-03 1.93063728456872e+02 0.00000000000000e+00
9.05067567567568e-03 1.91269681187063e+02 0.00000000000000e+00
9.29202702702703e-03 1.89492305125420e+02 0.00000000000000e+00
9.53337837837838e-03 1.87731445354519e+02 0.00000000000000e+00
9.77472972972973e-03 1.85986948396507e+02 0.00000000000000e+00
1.00160810810811e-02 1.84258662199728e+02 0.00000000000000e+00
1.02574324324324e-02 1.82546436125466e+02 0.00000000000000e+00
1.04987837837838e-02 1.80850120934820e+02 0.00000000000000e+00
1.07401351351351e-02 1.79169568775692e+02 0.00000000000000e+00
1.09814864864865e-02 1.77504633169900e+02 0.00000000000000e+00
1.12228378378378e-02 1.75855169000415e+02 0.00000000000000e+00
1.14641891891892e-02 1.74221032498709e+02 0.00000000000000e+00
1.17055405405405e-02 1.72602081232225e+02 0.00000000000000e+00
1.19468918918919e-02 1.70998174091961e+02 0.00000000000000e+00
1.21882432432432e-02 1.69409171280175e+02 0.00000000000000e+00
1.24295945945946e-02 1.67834934298196e+02 0.00000000000000e+00
1.26709459459459e-02 1.66275325934352e+02 0.00000000000000e+00
1.29122972972973e-02 1.64730210252016e+02 0.00000000000000e+00
1.31536486486486e-02 1.63199452577752e+02 0.00000000000000e+00
1.33950000000000e-02 1.61682919489577e+02 0.00000000000000e+00
1.36363513513514e-02 1.60180478805336e+02 0.00000000000000e+00
1.38777027027027e-02 1.58691999571177e+02 0.00000000000000e+00
1.41190540540541e-02 1.57217352050141e+02 0.00000000000000e+00
1.43604054054054e-02 1.55756407710847e+02 0.00000000000000e+00
1.46017567567568e-02 1.54309039216298e+02 0.00000000000000e+00
1.48431081081081e-02 1.52875120412774e+02 0.00000000000000e+00
1.50844594594595e-02 1.51454526318844e+02 0.00000000000000e+00
1.53258108108108e-02 1.50047133114464e+02 0.00000000000000e+00
1.55671621621622e-02 1.48652818130194e+02 0.00000000000000e+00
1.58085135135135e-02 1.47271459836498e+02 0.00000000000000e+00
1.60498648648649e-02 1.45902937833158e+02 0.00000000000000e+00
1.62912162162162e-02 1.44547132838772e+02 0.00000000000000e+00
1.65325675675676e-02 1.43203926680367e+02 0.00000000000000e+00
1.67739189189189e-02 1.41873202283091e+02 0.00000000000000e+00
1.70152702702703e-02 1.40554843660012e+02 0.00000000000000e+00
1.72566216216216e-02 1.39248735902009e+02 0.00000000000000e+00
1.74979729729730e-02 1.37954765167755e+02 0.00000000000000e+00
1.77393243243243e-02 1.36672818673794e+02 0.00000000000000e+00
1.79806756756757e-02 1.35402784684715e+02 0.00000000000000e+00
1.82220270270270e-02 1.34144552503406e+02 0.00000000000000e+00
1.84633783783784e-02 1.32898012461411e+02 0.00000000000000e+00
1.87047297297297e-02 1.31663055909370e+02 0.00000000000000e+00
1.89460810810811e-02 1.30439575207548e+02 0.00000000000000e+00
1.91874324324324e-02 1.29227463716454e+02 0.00000000000000e+00
1.94287837837838e-02 1.28026615787546e+02 0.00000000000000e+00
1.96701351351351e-02 1.26836926754022e+02 0.00000000000000e+00
1.99114864864865e-02 1.25658292921699e+02 0.00000000000000e+00
2.01528378378378e-02 1.24490611559970e+02 0.00000000000000e+00
2.03941891891892e-02 1.23333780892859e+02 0.00000000000000e+00
2.06355405405405e-02 1.22187700090139e+02 0.00000000000000e+00
2.08768918918919e-02 1.21052269258553e+02 0.00000000000000e+00
2.11182432432432e-02 1.19927389433103e+02 0.00000000000000e+00
2.13595945945946e-02 1.18812962568423e+02 0.00000000000000e+00
2.16009459459459e-02 1.17708891530236e+02 0.00000000000000e+00
2.18422972972973e-02 1.16615080086886e+02 0.00000000000000e+00
2.20836486486486e-02 1.15531432900952e+02 0.00000000000000e+00
2.23250000000000e-02 1.14457855520935e+02 0.00000000000000e+00
2.25663513513514e-02 1.13394254373031e+02 0.00000000000000e+00
2.28077027027027e-02 1.12340536752970e+02 0.00000000000000e+00
2.30490540540541e-02 1.11296610817936e+02 0.00000000000000e+00
2.32904054054054e-02 1.10262385578567e+02 0.00000000000000e+00
2.35317567567568e-02 1.09237770891019e+02 0.00000000000000e+00
2.37731081081081e-02 1.08222677449111e+02 0.00000000000000e+00
2.40144594594595e-02 1.07217016776541e+02 0.00000000000000e+00
2.42558108108108e-02 1.06220701219174e+02 0.00000000000000e+00
2.44971621621622e-02 1.05233643937402e+02 0.00000000000000e+00
2.47385135135135e-02 1.04255758898577e+02 0.00000000000000e+00
2.49798648648649e-02 1.03286960869508e+02 0.00000000000000e+00
2.52212162162162e-02 1.02327165409036e+02 0.00000000000000e+00
2.54625675675676e-02 1.01376288860673e+02 0.00000000000000e+00
2.57039189189189e-02 1.00434248345308e+02 0.00000000000000e+00
2.59452702702703e-02 9.95009617539879e+01 0.00000000000000e+00
2.61866216216216e-02 9.85763477407563e+01 0.00000000000000e+00
2.64279729729730e-02 9.76603257155657e+01 0.00000000000000e+00
2.66693243243243e-02 9.67528158372529e+01 0.00000000000000e+00
2.69106756756757e-02 9.58537390065793e+01 0.00000000000000e+00
2.71520270270270e-02 9.49630168593376e+01 0.00000000000000e+00
2.73933783783784e-02 9.40805717595204e+01 0.00000000000000e+00
2.76347297297297e-02 9.32063267925545e+01 0.00000000000000e+00
2.78760810810811e-02 9.23402057585959e+01 0.00000000000000e+00
2.81174324324324e-02 9.14821331658889e+01 0.00000000000000e+00
2.83587837837838e-02 9.06320342241858e+01 0.00000000000000e+00
2.86001351351351e-02 8.97898348382285e+01 0.00000000000000e+00
2.88414864864865e-02 8.89554616012900e+01 0.00000000000000e+00
2.90828378378378e-02 8.81288417887761e+01 0.00000000000000e+00
2.93241891891892e-02 8.73099033518870e+01 0.00000000000000e+00
2.95655405405405e-02 8.64985749113375e+01 0.00000000000000e+00
2.98068918918919e-02 8.56947857511349e+01 0.00000000000000e+00
3.00482432432432e-02 8.48984658124164e+01 0.00000000000000e+00
3.02895945945946e-02 8.41095456873415e+01 0.00000000000000e+00
3.05309459459459e-02 8.33279566130436e+01 0.00000000000000e+00
3.07722972972973e-02 8.25536304656355e+01 0.00000000000000e+00
3.10136486486486e-02 8.17864997542722e+01 0.00000000000000e+00
3.12550000000000e-02 8.10264976152685e+01 0.00000000000000e+00
3.14963513513513e-02 8.02735578062707e+01 0.00000000000000e+00
3.17377027027027e-02 7.95276147004830e+01 0.00000000000000e+00
3.19790540540541e-02 7.87886032809476e+01 0.00000000000000e+00
3.22204054054054e-02 7.80564591348778e+01 0.00000000000000e+00
3.24617567567568e-02 7.73311184480431e+01 0.00000000000000e+00
3.27031081081081e-02 7.66125179992082e+01 0.00000000000000e+00
3.29444594594595e-02 7.59005951546214e+01 0.00000000000000e+00
3.31858108108108e-02 7.51952878625563e+01 0.00000000000000e+00
3.34271621621622e-02 7.44965346479030e+01 0.00000000000000e+00
3.36685135135135e-02 7.38042746068097e+01 0.00000000000000e+00
3.39098648648649e-02 7.31184474013747e+01 0.00000000000000e+00
3.41512162162162e-02 7.24389932543867e+01 0.00000000000000e+00
3.43925675675676e-02 7.17658529441153e+01 0.00000000000000e+00
3.46339189189189e-02 7.10989677991486e+01 0.00000000000000e+00
3.48752702702703e-02 7.04382796932797e+01 0.00000000000000e+00
3.51166216216216e-02 6.97837310404400e+01 0.00000000000000e+00
3.53579729729730e-02 6.91352647896806e+01 0.00000000000000e+00
3.55993243243243e-02 6.84928244201990e+01 0.00000000000000e+00
3.58406756756757e-02 6.78563539364132e+01 0.00000000000000e+00
3.60820270270270e-02 6.72257978630807e+01 0.00000000000000e+00
3.63233783783784e-02 6.66011012404636e+01 0.00000000000000e+00
3.65647297297297e-02 6.59822096195380e+01 0.00000000000000e+00
3.68060810810811e-02 6.53690690572484e+01 0.00000000000000e+00
3.70474324324324e-02 6.47616261118057e+01 0.00000000000000e+00
3.72887837837838e-02 6.41598278380294e+01 0.00000000000000e+00
3.75301351351351e-02 6.35636217827328e+01 0.00000000000000e+00
3.77714864864865e-02 6.29729559801512e+01 0.00000000000000e+00
3.80128378378378e-02 6.23877789474124e+01 0.00000000000000e+00
3.82541891891892e-02 6.18080396800494e+01 0.00000000000000e+00
3.84955405405405e-02 6.12336876475551e+01 0.00000000000000e+00
3.87368918918919e-02 6.06646727889777e+01 0.00000000000000e+00
3.89782432432432e-02 6.01009455085572e+01 0.00000000000000e+00
3.92195945945946e-02 5.95424566714034e+01 0.00000000000000e+00
3.94609459459460e-02 5.89891575992122e+01 0.00000000000000e+00
3.97022972972973e-02 5.84410000660237e+01 0.00000000000000e+00
3.99436486486486e-02 5.78979362940180e+01 0.00000000000000e+00
4.01850000000000e-02 5.73599189493516e+01 0.00000000000000e+00
4.04263513513514e-02 5.68269011380311e+01 0.00000000000000e+00
4.06677027027027e-02 5.62988364018262e+01 0.00000000000000e+00
4.09090540540541e-02 5.57756787142205e+01 0.00000000000000e+00
4.11504054054054e-02 5.52573824763995e+01 0.00000000000000e+00
4.13917567567568e-02 5.47439025132761e+01 0.00000000000000e+00
4.16331081081081e-02 5.42351940695537e+01 0.00000000000000e+00
4.18744594594595e-02 5.37312128058246e+01 0.00000000000000e+00
4.21158108108108e-02 5.32319147947056e+01 0.00000000000000e+00
4.23571621621622e-02 5.27372565170095e+01 0.00000000000000e+00
4.25985135135135e-02 5.22471948579517e+01 0.00000000000000e+00
4.28398648648649e-02 5.17616871033921e+01 0.00000000000000e+00
4.30812162162162e-02 5.12806909361126e+01 0.00000000000000e+00
4.33225675675676e-02 5.08041644321281e+01 0.00000000000000e+00
4.35639189189189e-02 5.03320660570330e+01 0.00000000000000e+00
4.38052702702703e-02 4.98643546623805e+01 0.00000000000000e+00
4.40466216216216e-02 4.94009894820963e+01 0.00000000000000e+00
4.42879729729730e-02 4.89419301289256e+01 0.00000000000000e+00
4.45293243243243e-02 4.84871365909125e+01 0.00000000000000e+00
4.47706756756757e-02 4.80365692279128e+01 0.00000000000000e+00
4.50120270270270e-02 4.75901887681389e+01 0.00000000000000e+00
4.52533783783784e-02 4.71479563047367e+01 0.00000000000000e+00
4.54947297297297e-02 4.67098332923947e+01 0.00000000000000e+00
4.57360810810811e-02 4.62757815439841e+01 0.00000000000000e+00
4.59774324324324e-02 4.58457632272306e+01 0.00000000000000e+00
4.62187837837838e-02 4.54197408614167e+01 0.00000000000000e+00
4.64601351351351e-02 4.49976773141151e+01 0.00000000000000e+00
4.67014864864865e-02 4.45795357979520e+01 0.00000000000000e+00
4.69428378378378e-02 4.41652798674007e+01 0.00000000000000e+00
4.71841891891892e-02 4.37548734156052e+01 0.00000000000000e+00
4.74255405405405e-02 4.33482806712329e+01 0.00000000000000e+00
4.76668918918919e-02 4.29454661953566e+01 0.00000000000000e+00
4.79082432432432e-02 4.25463948783661e+01 0.00000000000000e+00
4.81495945945946e-02 4.21510319369074e+01 0.00000000000000e+00
4.83909459459460e-02 4.17593429108516e+01 0.00000000000000e+00
4.86322972972973e-02 4.13712936602908e+01 0.00000000000000e+00
4.88736486486486e-02 4.09868503625627e+01 0.00000000000000e+00
4.91150000000000e-02 4.06059795093025e+01 0.00000000000000e+00
4.93563513513514e-02 4.02286479035225e+01 0.00000000000000e+00
4.95977027027027e-02 3.98548226567181e+01 0.00000000000000e+00
4.98390540540541e-02 3.94844711860020e+01 0.00000000000000e+00
5.00804054054054e-02 3.91175612112635e+01 0.00000000000000e+00
5.03217567567568e-02 3.87540607523553e+01 0.00000000000000e+00
5.05631081081081e-02 3.83939381263062e+01 0.00000000000000e+00
5.08044594594595e-02 3.80371619445594e+01 0.00000000000000e+00
5.10458108108108e-02 3.76837011102365e+01 0.00000000000000e+00
5.12871621621622e-02 3.73335248154274e+01 0.00000000000000e+00
5.15285135135135e-02 3.69866025385049e+01 0.00000000000000e+00
5.17698648648649e-02 3.66429040414644e+01 0.00000000000000e+00
5.20112162162162e-02 3.63023993672885e+01 0.00000000000000e+00
5.22525675675676e-02 3.59650588373355e+01 0.00000000000000e+00
5.24939189189189e-02 3.56308530487532e+01 0.00000000000000e+00
5.27352702702703e-02 3.52997528719155e+01 0.00000000000000e+00
5.29766216216216e-02 3.49717294478838e+01 0.00000000000000e+00
5.32179729729730e-02 3.46467541858919e+01 0.00000000000000e+00
5.34593243243243e-02 3.43247987608532e+01 0.00000000000000e+00
5.37006756756757e-02 3.40058351108927e+01 0.00000000000000e+00
5.39420270270270e-02 3.36898354349005e+01 0.00000000000000e+00
5.41833783783784e-02 3.33767721901090e+01 0.00000000000000e+00
5.44247297297297e-02 3.30666180896923e+01 0.00000000000000e+00
5.46660810810811e-02 3.27593461003873e+01 0.00000000000000e+00
5.49074324324324e-02 3.24549294401382e+01 0.00000000000000e+00
5.51487837837838e-02 3.21533415757618e+01 0.00000000000000e+00
5.53901351351351e-02 3.18545562206345e+01 0.00000000000000e+00
5.56314864864865e-02 3.15585473324019e+01 0.00000000000000e+00
5.58728378378378e-02 3.12652891107084e+01 0.00000000000000e+00
5.61141891891892e-02 3.09747559949485e+01 0.00000000000000e+00
5.63555405405405e-02 3.06869226620389e+01 0.00000000000000e+00
5.65968918918919e-02 3.04017640242116e+01 0.00000000000000e+00
5.68382432432432e-02 3.01192552268269e+01 0.00000000000000e+00
5.70795945945946e-02 2.98393716462071e+01 0.00000000000000e+00
5.73209459459460e-02 2.95620888874905e+01 0.00000000000000e+00
5.75622972972973e-02 2.92873827825048e+01 0.00000000000000e+00
5.78036486486486e-02 2.90152293876609e+01 0.00000000000000e+00
5.80450000000000e-02 2.87456049818658e+01 0.00000000000000e+00
5.82863513513514e-02 2.84784860644551e+01 0.00000000000000e+00
5.85277027027027e-02 2.82138493531445e+01 0.00000000000000e+00
5.87690540540541e-02 2.79516717820008e+01 0.00000000000000e+00
5.90104054054054e-02 2.76919304994313e+01 0.00000000000000e+00
5.92517567567568e-02 2.74346028661918e+01 0.00000000000000e+00
5.94931081081081e-02 2.71796664534138e+01 0.00000000000000e+00
5.97344594594595e-02 2.69270990406493e+01 0.00000000000000e+00
5.99758108108108e-02 2.66768786139341e+01 0.00000000000000e+00
6.02171621621622e-02 2.64289833638690e+01 0.00000000000000e+00
6.04585135135135e-02 2.61833916837191e+01 0.00000000000000e+00
6.06998648648649e-02 2.59400821675301e+01 0.00000000000000e+00
6.09412162162162e-02 2.56990336082632e+01 0.00000000000000e+00
6.11825675675676e-02 2.54602249959459e+01 0.00000000000000e+00
6.14239189189189e-02 2.52236355158413e+01 0.00000000000000e+00
6.16652702702703e-02 2.49892445466339e+01 0.00000000000000e+00
6.19066216216216e-02 2.47570316586317e+01 0.00000000000000e+00
6.21479729729730e-02 2.45269766119862e+01 0.00000000000000e+00
6.23893243243243e-02 2.42990593549278e+01 0.00000000000000e+00
6.26306756756757e-02 2.40732600220183e+01 0.00000000000000e+00
6.28720270270270e-02 2.38495589324192e+01 0.00000000000000e+00
6.31133783783784e-02 2.36279365881767e+01 0.00000000000000e+00
6.33547297297297e-02 2.34083736725218e+01 0.00000000000000e+00
6.35960810810811e-02 2.31908510481869e+01 0.00000000000000e+00
6.38374324324324e-02 2.29753497557378e+01 0.00000000000000e+00
6.40787837837838e-02 2.27618510119209e+01 0.00000000000000e+00
6.43201351351351e-02 2.25503362080264e+01 0.00000000000000e+00
6.45614864864865e-02 2.23407869082662e+01 0.00000000000000e+00
6.48028378378378e-02 2.21331848481667e+01 0.00000000000000e+00
6.50441891891892e-02 2.19275119329777e+01 0.00000000000000e+00
6.52855405405405e-02 2.17237502360942e+01 0.00000000000000e+00
6.55268918918919e-02 2.15218819974947e+01 0.00000000000000e+00
6.57682432432432e-02 2.13218896221929e+01 0.00000000000000e+00
6.60095945945946e-02 2.11237556787040e+01 0.00000000000000e+00
6.62509459459460e-02 2.09274628975257e+01 0.00000000000000e+00
6.64922972972973e-02 2.07329941696327e+01 0.00000000000000e+00
6.67336486486487e-02 2.05403325449854e+01 0.00000000000000e+00
6.69750000000000e-02 2.03494612310530e+01 0.00000000000000e+00
6.72163513513514e-02 2.01603635913491e+01 0.00000000000000e+00
6.74577027027027e-02 1.99730231439825e+01 0.00000000000000e+00
6.76990540540541e-02 1.97874235602198e+01 0.00000000000000e+00
6.79404054054054e-02 1.96035486630630e+01 0.00000000000000e+00
6.81817567567568e-02 1.94213824258386e+01 0.00000000000000e+00
6.84231081081081e-02 1.92409089708015e+01 0.00000000000000e+00
6.86644594594595e-02 1.90621125677506e+01 0.00000000000000e+00
6.89058108108108e-02 1.88849776326581e+01 0.00000000000000e+00
6.91471621621622e-02 1.87094887263107e+01 0.00000000000000e+00
6.93885135135135e-02 1.85356305529645e+01 0.00000000000000e+00
6.96298648648649e-02 1.83633879590112e+01 0.00000000000000e+00
6.98712162162162e-02 1.81927459316579e+01 0.00000000000000e+00
7.01125675675676e-02 1.80236895976180e+01 0.00000000000000e+00
7.03539189189189e-02 1.78562042218153e+01 0.00000000000000e+00
7.05952702702703e-02 1.76902752060995e+01 0.00000000000000e+00
7.08366216216216e-02 1.75258880879738e+01 0.00000000000000e+00
7.10779729729730e-02 1.73630285393341e+01 0.00000000000000e+00
7.13193243243243e-02 1.72016823652207e+01 0.00000000000000e+00
7.15606756756757e-02 1.70418355025806e+01 0.00000000000000e+00
7.18020270270270e-02 1.68834740190421e+01 0.00000000000000e+00
7.20433783783784e-02 1.67265841116999e+01 0.00000000000000e+00
7.22847297297297e-02 1.65711521059128e+01 0.00000000000000e+00
7.25260810810811e-02 1.64171644541109e+01 0.00000000000000e+00
7.27674324324324e-02 1.62646077346158e+01 0.00000000000000e+00
7.30087837837838e-02 1.61134686504698e+01 0.00000000000000e+00
7.32501351351351e-02 1.59637340282777e+01 0.00000000000000e+00
7.34914864864865e-02 1.58153908170578e+01 0.00000000000000e+00
7.37328378378378e-02 1.56684260871054e+01 0.00000000000000e+00
7.39741891891892e-02 1.55228270288647e+01 0.00000000000000e+00
7.42155405405405e-02 1.53785809518132e+01 0.00000000000000e+00
7.44568918918919e-02 1.52356752833553e+01 0.00000000000000e+00
7.46982432432432e-02 1.50940975677261e+01 0.00000000000000e+00
7.49395945945946e-02 1.49538354649063e+01 0.00000000000000e+00
7.51809459459459e-02 1.48148767495464e+01 0.00000000000000e+00
7.54222972972973e-02 1.46772093099009e+01 0.00000000000000e+00
7.56636486486486e-02 1.45408211467732e+01 0.00000000000000e+00
7.59050000000000e-02 1.44057003724691e+01 0.00000000000000e+00
7.61463513513514e-02 1.42718352097611e+01 0.00000000000000e+00
