Energy (eV)          EEDF (eV^-(3/2))     First Anisotropy
3.73809523809524e-03 3.66602080460919e+00 2.90843159936906e-03
1.12142857142857e-02 3.60605711702864e+00 4.77943724646235e-03
1.86904761904762e-02 3.54707423210052e+00 6.24820888464373e-03
2.61666666666667e-02 3.48905610780533e+00 7.32750086013536e-03
3.36428571428571e-02 3.43198696353079e+00 8.19789885850620e-03
4.11190476190476e-02 3.37585127718661e+00 8.92868476630746e-03
4.85952380952381e-02 3.32063378057548e+00 9.55621123497234e-03
5.60714285714286e-02 3.26631945533300e+00 1.01027259167154e-02
6.35476190476190e-02 3.21289352852589e+00 1.05831770243525e-02
7.10238095238095e-02 3.16034146896711e+00 1.10082643748912e-02
7.85000000000000e-02 3.10864898315072e+00 1.13860067449675e-02
8.59761904761905e-02 3.05780201142329e+00 1.17226272403451e-02
9.34523809523809e-02 3.00778672397625e+00 1.20230899264227e-02
1.00928571428571e-01 2.95858951727261e+00 1.22914433443591e-02
1.08404761904762e-01 2.91019701014559e+00 1.25310501882286e-02
1.15880952380952e-01 2.86259604078870e+00 1.27447465673963e-02
1.23357142857143e-01 2.81577366191735e+00 1.29349556333257e-02
1.30833333333333e-01 2.76971713880509e+00 1.31037708700406e-02
1.38309523809524e-01 2.72441394429580e+00 1.32530184452618e-02
1.45785714285714e-01 2.67985175681026e+00 1.33843047737531e-02
1.53261904761905e-01 2.63601845567916e+00 1.34990534437891e-02
1.60738095238095e-01 2.59290211907447e+00 1.35985342634584e-02
1.68214285714286e-01 2.55049101985952e+00 1.36838865452269e-02
1.75690476190476e-01 2.50877362250518e+00 1.37561377295751e-02
1.83166666666667e-01 2.46773858062013e+00 1.38162187573791e-02
1.90642857142857e-01 2.42737473297049e+00 1.38649766680884e-02
1.98119047619048e-01 2.38767110129048e+00 1.39031850831951e-02
2.05595238095238e-01 2.34861688649437e+00 1.39315530094985e-02
2.13071428571429e-01 2.31020146650044e+00 1.39507322657844e-02
2.20547619047619e-01 2.27241439261873e+00 1.39613238125081e-02
2.28023809523810e-01 2.23524538739705e+00 1.39638831612359e-02
2.35500000000000e-01 2.19868434117055e+00 1.39589250446415e-02
2.42976190476190e-01 2.16272130993649e+00 1.39469274518242e-02
2.50452380952381e-01 2.12734651205379e+00 1.39283351514268e-02
2.57928571428571e-01 2.09255032615152e+00 1.39035627649275e-02
2.65404761904762e-01 2.05832328796820e+00 1.38729974767161e-02
2.72880952380952e-01 2.02465608829782e+00 1.38370014175922e-02
2.80357142857143e-01 1.99153956995992e+00 1.37959137853918e-02
2.87833333333333e-01 1.95896472578591e+00 1.37500527233734e-02
2.95309523809524e-01 1.92692269571206e+00 1.36997170049435e-02
3.02785714285714e-01 1.89540476480820e+00 1.36451875351987e-02
3.10261904761905e-01 1.86440236048645e+00 1.35867287075553e-02
3.17738095238095e-01 1.83390705057383e+00 1.35245896103478e-02
3.25214285714286e-01 1.80391054071774e+00 1.34590051690053e-02
3.32690476190476e-01 1.77440467215241e+00 1.33901970874151e-02
3.40166666666667e-01 1.74538141973057e+00 1.33183747926970e-02
3.47642857142857e-01 1.71683288940660e+00 1.32437362551012e-02
3.55119047619048e-01 1.68875131641143e+00 1.31664687400482e-02
3.62595238095238e-01 1.66112906283021e+00 1.30867495019544e-02
3.70071428571429e-01 1.63395861582424e+00 1.30047464150126e-02
3.77547619047619e-01 1.60723258529880e+00 1.29206185581476e-02
3.85023809523809e-01 1.58094370217182e+00 1.28345167483757e-02
3.92500000000000e-01 1.55508481612773e+00 1.27465840378110e-02
3.99976190476190e-01 1.52964889393250e+00 1.26569561679777e-02
4.07452380952381e-01 1.50462901726966e+00 1.25657619950913e-02
4.14928571428571e-01 1.48001838110120e+00 1.24731238796479e-02
4.22404761904762e-01 1.45581029158219e+00 1.23791580526960e-02
4.29880952380952e-01 1.43199816446685e+00 1.22839749519864e-02
4.37357142857143e-01 1.40857552309845e+00 1.21876795392990e-02
4.44833333333333e-01 1.38553599685989e+00 1.20903715921273e-02
4.52309523809524e-01 1.36287331923566e+00 1.19921459801060e-02
4.59785714285714e-01 1.34058132630615e+00 1.18930929194268e-02
4.67261904761905e-01 1.31865395487873e+00 1.17932982148477e-02
4.74738095238095e-01 1.29708524102502e+00 1.16928434774148e-02
4.82214285714286e-01 1.27586931831967e+00 1.15918063584283e-02
4.89690476190476e-01 1.25500041625305e+00 1.14902607143375e-02
4.97166666666667e-01 1.23447285878236e+00 1.13882768143549e-02
5.04642857142857e-01 1.21428106262725e+00 1.12859215115704e-02
5.12119047619048e-01 1.19441953590696e+00 1.11832584063311e-02
5.19595238095238e-01 1.17488287649552e+00 1.10803480034234e-02
5.27071428571429e-01 1.15566577069905e+00 1.09772478572790e-02
5.34547619047619e-01 1.13676299166823e+00 1.08740127121100e-02
5.42023809523809e-01 1.11816939811472e+00 1.07706946313926e-02
5.49500000000000e-01 1.09987993277877e+00 1.06673431232111e-02
5.56976190476190e-01 1.08188962118388e+00 1.05640052560783e-02
5.64452380952381e-01 1.06419357015737e+00 1.04607257713859e-02
5.71928571428571e-01 1.04678696662227e+00 1.03575471873007e-02
5.79404761904762e-01 1.02966507616898e+00 1.02545098999296e-02
5.86880952380952e-01 1.01282324188346e+00 1.01516522767655e-02
5.94357142857143e-01 9.96256882967946e-01 1.00490107479350e-02
6.01833333333333e-01 9.79961493604527e-01 9.94661989045292e-03
6.09309523809524e-01 9.63932641623203e-01 9.84451251072031e-03
6.16785714285714e-01 9.48165967399832e-01 9.74271972066656e-03
6.24261904761905e-01 9.32657182569795e-01 9.64127101250366e-03
6.31738095238095e-01 9.17402068959407e-01 9.54019432445698e-03
6.39214285714286e-01 9.02396477365615e-01 9.43951612159220e-03
6.46690476190476e-01 8.87636326431208e-01 9.33926143912604e-03
6.54166666666667e-01 8.73117601599398e-01 9.23945395622791e-03
6.61642857142857e-01 8.58836353935869e-01 9.14011605138742e-03
6.69119047619048e-01 8.44788699138458e-01 9.04126885669835e-03
6.76595238095238e-01 8.30970816399163e-01 8.94293231159942e-03
6.84071428571429e-01 8.17378947444274e-01 8.84512521234338e-03
6.91547619047619e-01 8.04009395434926e-01 8.74786526109443e-03
6.99023809523809e-01 7.90858524036810e-01 8.65116911107684e-03
7.06500000000000e-01 7.77922756357910e-01 8.55505241149710e-03
7.13976190476190e-01 7.65198574046938e-01 8.45952984880697e-03
7.21452380952381e-01 7.52682516266939e-01 8.36461518786144e-03
7.28928571428571e-01 7.40371178821631e-01 8.27032130967861e-03
7.36404761904762e-01 7.28261213163612e-01 8.17666024919761e-03
7.43880952380952e-01 7.16349325547790e-01 8.08364322987463e-03
7.51357142857143e-01 7.04632276072983e-01 7.99128069836097e-03
7.58833333333333e-01 6.93106877861644e-01 7.89958235623539e-03
7.66309523809524e-01 6.81769996133689e-01 7.80855719189021e-03
7.73785714285714e-01 6.70618547411748e-01 7.71821350966458e-03
7.81261904761905e-01 6.59649498626090e-01 7.62855895919265e-03
7.88738095238095e-01 6.48859866344644e-01 7.53960056013641e-03
7.96214285714286e-01 6.38246715920485e-01 7.45134473742003e-03
8.03690476190476e-01 6.27807160695549e-01 7.36379733366096e-03
8.11166666666667e-01 6.17538361252311e-01 7.27696364173929e-03
8.18642857142857e-01 6.07437524592525e-01 7.19084842648779e-03
8.26119047619048e-01 5.97501903425321e-01 7.10545594645537e-03
8.33595238095238e-01 5.87728795373401e-01 7.02078997600073e-03
8.41071428571428e-01 5.78115542283453e-01 6.93685382534548e-03
8.48547619047619e-01 5.68659529458851e-01 6.85365036098281e-03
8.56023809523810e-01 5.59358184991723e-01 6.77118202416632e-03
8.63500000000000e-01 5.50208979021249e-01 6.68945084977425e-03
8.70976190476190e-01 5.41209423086713e-01 6.60845848336558e-03
8.78452380952381e-01 5.32357069410532e-01 6.52820619862562e-03
8.85928571428571e-01 5.23649510271658e-01 6.44869491310737e-03
8.93404761904762e-01 5.15084377312489e-01 6.36992520437554e-03
9.00880952380952e-01 5.06659340932000e-01 6.29189732453994e-03
9.08357142857143e-01 4.98372109615721e-01 6.21461121520010e-03
9.15833333333333e-01 4.90220429348004e-01 6.13806652086952e-03
9.23309523809524e-01 4.82202082964276e-01 6.06226260281613e-03
9.30785714285714e-01 4.74314889581852e-01 5.98719855146471e-03
9.38261904761905e-01 4.66556703973715e-01 5.91287319921981e-03
9.45738095238095e-01 4.58925416017302e-01 5.83928513060931e-03
9.53214285714286e-01 4.51418950096476e-01 5.76643269946295e-03
9.60690476190476e-01 4.44035264538025e-01 5.69431403162801e-03
9.68166666666667e-01 4.36772351078138e-01 5.62292704092562e-03
9.75642857142857e-01 4.29628234287198e-01 5.55226943830369e-03
9.83119047619048e-01 4.22600971060798e-01 5.48233874125924e-03
9.90595238095238e-01 4.15688650063594e-01 5.41313228366741e-03
9.98071428571428e-01 4.08889391236445e-01 5.34464721994384e-03
1.00554761904762e+00 4.02201345283540e-01 5.27688054797704e-03
1.01302380952381e+00 3.95622693119609e-01 5.20982910681048e-03
1.02050000000000e+00 3.89151645432541e-01 5.14348958957981e-03
1.02797619047619e+00 3.82786442119206e-01 5.07785852950662e-03
1.03545238095238e+00 3.76525351983423e-01 5.01293232565743e-03
1.04292857142857e+00 3.70366672085980e-01 4.94870727286919e-03
1.05040476190476e+00 3.64308727341991e-01 4.88517953438880e-03
1.05788095238095e+00 3.58349870065293e-01 4.82234516013696e-03
1.06535714285714e+00 3.52488479520292e-01 4.76020009313773e-03
1.07283333333333e+00 3.46722961481150e-01 4.69874017570462e-03
1.08030952380952e+00 3.41051747798165e-01 4.63796115539293e-03
1.08778571428571e+00 3.35473295971263e-01 4.57785869072559e-03
1.09526190476190e+00 3.29986088730452e-01 4.51842835670163e-03
1.10273809523810e+00 3.24588633623143e-01 4.45966565009938e-03
1.11021428571429e+00 3.19279462608199e-01 4.40156599456425e-03
1.11769047619048e+00 3.14057131656696e-01 4.34412474551071e-03
1.12516666666667e+00 3.08920220359134e-01 4.28733719484541e-03
1.13264285714286e+00 3.03867331539108e-01 4.23119857549510e-03
1.14011904761905e+00 2.98897090873290e-01 4.17570406576530e-03
1.14759523809524e+00 2.94008146517635e-01 4.12084879353023e-03
1.15507142857143e+00 2.89199168739689e-01 4.06662784026041e-03
1.16254761904762e+00 2.84468849556923e-01 4.01303624489356e-03
1.17002380952381e+00 2.79815902380977e-01 3.96006900755481e-03
1.17750000000000e+00 2.75239061667722e-01 3.90772110021513e-03
1.18497619047619e+00 2.70737082537411e-01 3.85598744861297e-03
1.19245238095238e+00 2.66308740544412e-01 3.80486294998522e-03
1.19992857142857e+00 2.61952831234404e-01 3.75434249119347e-03
1.20740476190476e+00 2.57668169853862e-01 3.70442092917884e-03
1.21488095238095e+00 2.53453591027820e-01 3.65509310150558e-03
1.22235714285714e+00 2.49307948442905e-01 3.60635382916309e-03
1.22983333333333e+00 2.45230114535550e-01 3.55819791925491e-03
1.23730952380952e+00 2.41218980185316e-01 3.51062016757863e-03
1.24478571428571e+00 2.37273454413217e-01 3.46361536110002e-03
1.25226190476190e+00 2.33392464084995e-01 3.41717828032502e-03
1.25973809523810e+00 2.29574953619237e-01 3.37130370157656e-03
1.26721428571429e+00 2.25819884700256e-01 3.32598639916874e-03
1.27469047619048e+00 2.22126235995711e-01 3.28122114749454e-03
1.28216666666667e+00 2.18493002878800e-01 3.23700272303056e-03
1.28964285714286e+00 2.14919197155019e-01 3.19332590624843e-03
1.29711904761905e+00 2.11403846793379e-01 3.15018548344677e-03
1.30459523809524e+00 2.07945995662030e-01 3.10757624850397e-03
1.31207142857143e+00 2.04544703268203e-01 3.06549300455400e-03
1.31954761904762e+00 2.01199044502408e-01 3.02393056558824e-03
1.32702380952381e+00 1.97908109386816e-01 2.98288375798643e-03
1.33450000000000e+00 1.94671002827755e-01 2.94234742668538e-03
1.34197619047619e+00 1.91486844350009e-01 2.90231642228241e-03
1.34945238095238e+00 1.88354767924947e-01 2.86278561195164e-03
1.35692857142857e+00 1.85273921666483e-01 2.82374989065456e-03
1.36440476190476e+00 1.82243467622501e-01 2.78520416734450e-03
1.37188095238095e+00 1.79262581546950e-01 2.74714337118255e-03
1.37935714285714e+00 1.76330452675653e-01 2.70956245263411e-03
1.38683333333333e+00 1.73446283505792e-01 2.67245638451159e-03
1.39430952380952e+00 1.70609289578996e-01 2.63582016296548e-03
1.40178571428571e+00 1.67818699267979e-01 2.59964880842558e-03
1.40926190476190e+00 1.65073753566664e-01 2.56393736649375e-03
1.41673809523810e+00 1.62373705883748e-01 2.52868090879215e-03
1.42421428571429e+00 1.59717821839626e-01 2.49387453376190e-03
1.43169047619048e+00 1.57105379066666e-01 2.45951336742155e-03
1.43916666666667e+00 1.54535667012726e-01 2.42559256408700e-03
1.44664285714286e+00 1.52007986747892e-01 2.39210730704656e-03
1.45411904761905e+00 1.49521650774378e-01 2.35905280919882e-03
1.46159523809524e+00 1.47075982839536e-01 2.32642431365323e-03
1.46907142857143e+00 1.44670317751921e-01 2.29421709429442e-03
1.47654761904762e+00 1.42304001200370e-01 2.26242645631206e-03
1.48402380952381e+00 1.39976389576035e-01 2.23104773669707e-03
1.49150000000000e+00 1.37686849797332e-01 2.20007630785526e-03
1.49897619047619e+00 1.35434759123664e-01 2.16950756847837e-03
1.50645238095238e+00 1.33219505028836e-01 2.13933695035797e-03
1.51392857142857e+00 1.31040484991111e-01 2.10955992541233e-03
1.52140476190476e+00 1.28897106343971e-01 2.08017199599407e-03
1.52888095238095e+00 1.26788786114916e-01 2.05116869859702e-03
1.53635714285714e+00 1.24714950866901e-01 2.02254560415028e-03
1.54383333333333e+00 1.22675036542374e-01 1.99429831828707e-03
1.55130952380952e+00 1.20668488309852e-01 1.96642248158969e-03
1.55878571428571e+00 1.18694760413020e-01 1.93891376981190e-03
1.56626190476190e+00 1.16753316022287e-01 1.91176789407873e-03
1.57373809523810e+00 1.14843627088779e-01 1.88498060106607e-03
1.58121428571429e+00 1.12965174200711e-01 1.85854767315727e-03
1.58869047619048e+00 1.11117446442119e-01 1.83246492858145e-03
1.59616666666667e+00 1.09299941253897e-01 1.80672822153518e-03
1.60364285714286e+00 1.07512164297102e-01 1.78133344228293e-03
1.61111904761905e+00 1.05753629318507e-01 1.75627651724088e-03
1.61859523809524e+00 1.04023858018339e-01 1.73155340904416e-03
1.62607142857143e+00 1.02322379920192e-01 1.70716011659787e-03
1.63354761904762e+00 1.00648732243061e-01 1.68309267511248e-03
1.64102380952381e+00 9.90024597754726e-02 1.65934715612457e-03
1.64850000000000e+00 9.73831147516709e-02 1.63591966962225e-03
1.65597619047619e+00 9.57902567208186e-02 1.61280635760499e-03
1.66345238095238e+00 9.42234524545831e-02 1.59000339837513e-03
1.67092857142857e+00 9.26822758015717e-02 1.56750701098133e-03
1.67840476190476e+00 9.11663075807859e-02 1.54531344842026e-03
1.68588095238095e+00 8.96751354676100e-02 1.52341899985835e-03
1.69335714285714e+00 8.82083538816632e-02 1.50181999056408e-03
1.70083333333333e+00 8.67655638764871e-02 1.48051278182973e-03
1.70830952380952e+00 8.53463730310371e-02 1.45949377088282e-03
1.71578571428571e+00 8.39503953429488e-02 1.43875939078802e-03
1.72326190476190e+00 8.25772511235499e-02 1.41830611033976e-03
1.73073809523810e+00 8.12265668945898e-02 1.39813043394638e-03
1.73821428571429e+00 7.98979752866557e-02 1.37822890150448e-03
1.74569047619048e+00 7.85911149392572e-02 1.35859808826608e-03
1.75316666666667e+00 7.73056304025388e-02 1.33923460469938e-03
1.76064285714286e+00 7.60411720406012e-02 1.32013509634036e-03
1.76811904761905e+00 7.47973959364051e-02 1.30129624363798e-03
1.77559523809524e+00 7.35739637982299e-02 1.28271476179295e-03
1.78307142857143e+00 7.23705428676626e-02 1.26438740058992e-03
1.79054761904762e+00 7.11868058290915e-02 1.24631094422380e-03
1.79802380952381e+00 7.00224307206803e-02 1.22848221112043e-03
1.80550000000000e+00 6.88771008467987e-02 1.21089805518409e-03
1.81297619047619e+00 6.77505046860619e-02 1.19355536126009e-03
1.82045238095238e+00 6.66423358242870e-02 1.17645104785352e-03
1.82792857142857e+00 6.55522928532439e-02 1.15958206995601e-03
1.83540476190476e+00 6.44800792947210e-02 1.14294541427809e-03
1.84288095238095e+00 6.34254035198867e-02 1.12653810058118e-03
1.85035714285714e+00 6.23879786699701e-02 1.11035718146613e-03
1.85783333333333e+00 6.13675225782389e-02 1.09439974215814e-03
1.86530952380952e+00 6.03637576932533e-02 1.07866290028822e-03
1.87278571428571e+00 5.93764110033757e-02 1.06314380567147e-03
1.88026190476190e+00 5.84052139625148e-02 1.04783964008249e-03
1.88773809523810e+00 5.74499024170846e-02 1.03274761702840e-03
1.89521428571429e+00 5.65102165341561e-02 1.01786498151817e-03
1.90269047619048e+00 5.55859007307889e-02 1.00318900983027e-03
1.91016666666667e+00 5.46767036045146e-02 9.88717009278853e-04
1.91764285714286e+00 5.37823778649581e-02 9.74446317976887e-04
1.92511904761905e+00 5.29026802665778e-02 9.60374304597652e-04
1.93259523809524e+00 5.20373715425058e-02 9.46498368134647e-04
1.94007142857143e+00 5.11862163394704e-02 9.32815937659960e-04
1.94754761904762e+00 5.03489831537826e-02 9.19324472081162e-04
1.95502380952381e+00 4.95254442683702e-02 9.06021459896973e-04
1.96250000000000e+00 4.87153756908417e-02 8.92904419923562e-04
1.96997619047619e+00 4.79185570887729e-02 8.79970898098724e-04
1.97745238095238e+00 4.71347717412889e-02 8.67218469210873e-04
1.98492857142857e+00 4.63638064684663e-02 8.54644738704074e-04
1.99240476190476e+00 4.56054515772836e-02 8.42247339333266e-04
1.99988095238095e+00 4.48595008045875e-02 8.30023931959561e-04
2.00735714285714e+00 4.41257512609916e-02 8.17972205300797e-04
2.01483333333333e+00 4.34040033756931e-02 8.06089875681662e-04
2.02230952380952e+00 4.26940608421922e-02 7.94374686783681e-04
2.02978571428571e+00 4.19957305648988e-02 7.82824409395184e-04
2.03726190476190e+00 4.13088226066131e-02 7.71436841161202e-04
2.04473809523809e+00 4.06331501368649e-02 7.60209806333685e-04
2.05221428571429e+00 3.99685293810974e-02 7.49141155521294e-04
2.05969047619048e+00 3.93147795706844e-02 7.38228765439841e-04
2.06716666666667e+00 3.86717228937622e-02 7.27470538663544e-04
2.07464285714286e+00 3.80391844468677e-02 7.16864403376063e-04
2.08211904761905e+00 3.74169921873661e-02 7.06408313122185e-04
2.08959523809524e+00 3.68049768866579e-02 6.96100246560104e-04
2.09707142857143e+00 3.62029720841508e-02 6.85938207214364e-04
2.10454761904762e+00 3.56108140419840e-02 6.75920223229472e-04
2.11202380952381e+00 3.50283417004940e-02 6.66044347124203e-04
2.11950000000000e+00 3.44553966344083e-02 6.56308656208198e-04
2.12697619047619e+00 3.38918230072733e-02 6.46711250330727e-04
2.13445238095238e+00 3.33374675366064e-02 6.37250252982456e-04
2.14192857142857e+00 3.27921794445745e-02 6.27923812450805e-04
2.14940476190476e+00 3.22558104195597e-02 6.18730099471815e-04
2.15688095238095e+00 3.17282145758199e-02 6.09667307700951e-04
2.16435714285714e+00 3.12092484138101e-02 6.00733653474211e-04
2.17183333333333e+00 3.06987707811520e-02 5.91927375570447e-04
2.17930952380952e+00 3.01966428342426e-02 5.83246734974893e-04
2.18678571428571e+00 2.97027280004899e-02 5.74690014643830e-04
2.19426190476190e+00 2.92168919411676e-02 5.66255519270577e-04
2.20173809523809e+00 2.87390025148760e-02 5.57941575052940e-04
2.20921428571429e+00 2.82689297416010e-02 5.49746529461537e-04
2.21669047619048e+00 2.78065457673620e-02 5.41668751009833e-04
2.22416666666667e+00 2.73517248294369e-02 5.33706629025788e-04
2.23164285714286e+00 2.69043432221558e-02 5.25858573424505e-04
2.23911904761905e+00 2.64642792632548e-02 5.18123014482486e-04
2.24659523809524e+00 2.60314132607802e-02 5.10498402613359e-04
2.25407142857143e+00 2.56056274805332e-02 5.02983208145089e-04
2.26154761904762e+00 2.51868061140481e-02 4.95575921098696e-04
2.26902380952381e+00 2.47748352470938e-02 4.88275050968551e-04
2.27650000000000e+00 2.43696028286901e-02 4.81079126955577e-04
2.28397619047619e+00 2.39709986389970e-02 4.73986696380695e-04
2.29145238095238e+00 2.35789142642998e-02 4.66996325387546e-04
2.29892857142857e+00 2.31932430624975e-02 4.60106599682819e-04
2.30640476190476e+00 2.28138801357926e-02 4.53316122886408e-04
2.31388095238095e+00 2.24407223021608e-02 4.46623516806338e-04
2.32135714285714e+00 2.20736680672863e-02 4.40027421230189e-04
2.32883333333333e+00 2.17126175969567e-02 4.33526493718205e-04
2.33630952380952e+00 2.13574726899094e-02 4.27119409398054e-04
2.34378571428571e+00 2.10081367511222e-02 4.20804860761276e-04
2.35126190476190e+00 2.06645147655402e-02 4.14581557461391e-04
2.35873809523809e+00 2.03265132722334e-02 4.08448226113765e-04
