Energy (eV)          EEDF (eV^-(3/2))     First Anisotropy
1.65217391304348e-02 1.21658652365875e-01 6.71494713987444e-05
4.95652173913043e-02 1.20749106095059e-01 1.10840996688157e-04
8.26086956521739e-02 1.19846359789784e-01 1.46211807428251e-04
1.15652173913043e-01 1.18950362609726e-01 1.73015905944784e-04
1.48695652173913e-01 1.18061064097870e-01 1.95315160799043e-04
1.81739130434783e-01 1.17178414174241e-01 2.14646660892125e-04
2.14782608695652e-01 1.16302363127824e-01 2.31806513501575e-04
2.47826086956522e-01 1.15432861629029e-01 2.47275854638604e-04
2.80869565217391e-01 1.14569860711561e-01 2.61374038295256e-04
3.13913043478261e-01 1.13713311775351e-01 2.74326956529289e-04
3.46956521739130e-01 1.12863166581343e-01 2.86301957987665e-04
3.80000000000000e-01 1.12019377256535e-01 2.97427474553636e-04
4.13043478260870e-01 1.11181896282903e-01 3.07804858271594e-04
4.46086956521739e-01 1.10350676497731e-01 3.17515919900246e-04
4.79130434782609e-01 1.09525671089213e-01 3.26627944667343e-04
5.12173913043478e-01 1.08706833599192e-01 3.35197151464255e-04
5.45217391304348e-01 1.07894117914884e-01 3.43271150546248e-04
5.78260869565217e-01 1.07087478268289e-01 3.50890733834525e-04
6.11304347826087e-01 1.06286869232285e-01 3.58091208335180e-04
6.44347826086957e-01 1.05492245722114e-01 3.64903408754604e-04
6.77391304347826e-01 1.04703562988633e-01 3.71354479086297e-04
7.10434782608696e-01 1.03920776617281e-01 3.77468484254545e-04
7.43478260869565e-01 1.03143842524515e-01 3.83266895590177e-04
7.76521739130435e-01 1.02372716958529e-01 3.88768981161538e-04
8.09565217391304e-01 1.01607356493483e-01 3.93992122771583e-04
8.42608695652174e-01 1.00847718027308e-01 3.98952074722259e-04
8.75652173913043e-01 1.00093758782056e-01 4.03663178799786e-04
9.08695652173913e-01 9.93454362986218e-02 4.08138543412377e-04
9.41739130434783e-01 9.86027084353334e-02 4.12390193577032e-04
9.74782608695652e-01 9.78655333648297e-02 4.16429197788288e-04
1.00782608695652e+00 9.71338695740221e-02 4.20265776790918e-04
1.04086956521739e+00 9.64076758565025e-02 4.23909394333984e-04
1.07391304347826e+00 9.56869113251951e-02 4.27368839948504e-04
1.10695652173913e+00 9.49715353834404e-02 4.30652296860118e-04
1.14000000000000e+00 9.42615077450691e-02 4.33767399058646e-04
1.17304347826087e+00 9.35567884250701e-02 4.36721286917191e-04
1.20608695652174e+00 9.28573377373662e-02 4.39520652077543e-04
1.23913043478261e+00 9.21631162925997e-02 4.42171777022152e-04
1.27217391304348e+00 9.14740850013503e-02 4.44680573431470e-04
1.30521739130435e+00 9.07902050553674e-02 4.47052612117770e-04
1.33826086956522e+00 9.01114379421457e-02 4.49293149464595e-04
1.37130434782609e+00 8.94377454370795e-02 4.51407155282364e-04
1.40434782608696e+00 8.87690896013533e-02 4.53399334459709e-04
1.43739130434783e+00 8.81054327797942e-02 4.55274146455048e-04
1.47043478260870e+00 8.74467376032560e-02 4.57035825862468e-04
1.50347826086957e+00 8.67929669728363e-02 4.58688397316063e-04
1.53652173913043e+00 8.61440840716135e-02 4.60235688822966e-04
1.56956521739130e+00 8.55000523578910e-02 4.61681347657702e-04
1.60260869565217e+00 8.48608355631883e-02 4.63028851160399e-04
1.63565217391304e+00 8.42263976940576e-02 4.64281520066359e-04
1.66869565217391e+00 8.35967030182881e-02 4.65442527316780e-04
1.70173913043478e+00 8.29717160747818e-02 4.66514905990969e-04
1.73478260869565e+00 8.23514016675488e-02 4.67501560052456e-04
1.76782608695652e+00 8.17357248637223e-02 4.68405271503149e-04
1.80086956521739e+00 8.11246509916130e-02 4.69228707006770e-04
1.83391304347826e+00 8.05181456420544e-02 4.69974426488521e-04
1.86695652173913e+00 7.99161746564368e-02 4.70644888023871e-04
1.90000000000000e+00 7.93187041349079e-02 4.71242452252578e-04
1.93304347826087e+00 7.87257004310497e-02 4.71769389612551e-04
1.96608695652174e+00 7.81371301499915e-02 4.72227884582772e-04
1.99913043478261e+00 7.75529601465354e-02 4.72620039662281e-04
2.03217391304348e+00 7.69731575261402e-02 4.72947881338193e-04
2.06521739130435e+00 7.63976896344201e-02 4.73213362862089e-04
2.09826086956522e+00 7.58265240640335e-02 4.73418366750178e-04
2.13130434782609e+00 7.52596286499139e-02 4.73564709982394e-04
2.16434782608696e+00 7.46969714674727e-02 4.73654146612149e-04
2.19739130434783e+00 7.41385208307979e-02 4.73688370244569e-04
2.23043478260870e+00 7.35842452933561e-02 4.73669018428816e-04
2.26347826086957e+00 7.30341136386911e-02 4.73597674231281e-04
2.29652173913043e+00 7.24880948862621e-02 4.73475867637794e-04
2.32956521739130e+00 7.19461582871360e-02 4.73305079491453e-04
2.36260869565217e+00 7.14082733222736e-02 4.73086742650429e-04
2.39565217391304e+00 7.08744097030259e-02 4.72822245517108e-04
2.42869565217391e+00 7.03445373627005e-02 4.72512932993508e-04
2.46173913043478e+00 6.98186264616536e-02 4.72160107317637e-04
2.49478260869565e+00 6.92966473833261e-02 4.71765031289679e-04
2.52782608695652e+00 6.87785707325748e-02 4.71328929399553e-04
2.56086956521739e+00 6.82643673340259e-02 4.70852988925190e-04
2.59391304347826e+00 6.77540082323902e-02 4.70338362743942e-04
2.62695652173913e+00 6.72474646848931e-02 4.69786169812646e-04
2.66000000000000e+00 6.67447081656443e-02 4.69197495566939e-04
2.69304347826087e+00 6.62457103620154e-02 4.68573394542146e-04
2.72608695652174e+00 6.57504431730495e-02 4.67914891092115e-04
2.75913043478261e+00 6.52588787078806e-02 4.67222980101775e-04
2.79217391304348e+00 6.47709892859050e-02 4.66498629297860e-04
2.82521739130435e+00 6.42867474299475e-02 4.65742779431717e-04
2.85826086956522e+00 6.38061258700311e-02 4.64956344404814e-04
2.89130434782609e+00 6.33290975400505e-02 4.64140213457176e-04
2.92434782608696e+00 6.28556355762551e-02 4.63295251619195e-04
2.95739130434783e+00 6.23857133157342e-02 4.62422300170429e-04
2.99043478260870e+00 6.19193042964718e-02 4.61522178586505e-04
3.02347826086956e+00 6.14563822511481e-02 4.60595684533160e-04
3.05652173913043e+00 6.09969211104052e-02 4.59643593818123e-04
3.08956521739130e+00 6.05408949997810e-02 4.58666662258583e-04
3.12260869565217e+00 6.00882782382603e-02 4.57665625598900e-04
3.15565217391304e+00 5.96390453382424e-02 4.56641201224761e-04
3.18869565217391e+00 5.91931709998196e-02 4.55594088054127e-04
3.22173913043478e+00 5.87506301136714e-02 4.54524966394817e-04
3.25478260869565e+00 5.83113977581986e-02 4.53434499602388e-04
3.28782608695652e+00 5.78754491981195e-02 4.52323334249111e-04
3.32086956521739e+00 5.74427598830809e-02 4.51192100310497e-04
3.35391304347826e+00 5.70133054475491e-02 4.50041412658217e-04
3.38695652173913e+00 5.65870617055815e-02 4.48871870868317e-04
3.42000000000000e+00 5.61640046533496e-02 4.47684059003341e-04
3.45304347826087e+00 5.57441104664811e-02 4.46478547068601e-04
3.48608695652174e+00 5.53273554987192e-02 4.45255891092737e-04
3.51913043478261e+00 5.49137162805934e-02 4.44016633228256e-04
3.55217391304348e+00 5.45031695192474e-02 4.42761303068789e-04
3.58521739130435e+00 5.40956920936470e-02 4.41490417405550e-04
3.61826086956522e+00 5.36912610567841e-02 4.40204479963007e-04
3.65130434782609e+00 5.32898536332054e-02 4.38903982692597e-04
3.68434782608696e+00 5.28914472177328e-02 4.37589405792272e-04
3.71739130434783e+00 5.24960193741899e-02 4.36261217746831e-04
3.75043478260870e+00 5.21035478351811e-02 4.34919876502602e-04
3.78347826086957e+00 5.17140104976854e-02 4.33565829192849e-04
3.81652173913043e+00 5.13273854249865e-02 4.32199511845959e-04
3.84956521739130e+00 5.09436508443695e-02 4.30821350545640e-04
3.88260869565217e+00 5.05627851458990e-02 4.29431761139449e-04
3.91565217391304e+00 5.01847668821605e-02 4.28031150313577e-04
3.94869565217391e+00 4.98095747641506e-02 4.26619915303812e-04
3.98173913043478e+00 4.94371876630010e-02 4.25198443591776e-04
4.01478260869565e+00 4.90675846078064e-02 4.23767113970260e-04
4.04782608695652e+00 4.87007447844437e-02 4.22326296494805e-04
4.08086956521739e+00 4.83366475344019e-02 4.20876352455774e-04
4.11391304347826e+00 4.79752723544915e-02 4.19417635350650e-04
4.14695652173913e+00 4.76165988930491e-02 4.17950490586023e-04
4.18000000000000e+00 4.72606069514506e-02 4.16475255166955e-04
4.21304347826087e+00 4.69072764820803e-02 4.14992258664472e-04
4.24608695652174e+00 4.65565875872024e-02 4.13501823145754e-04
4.27913043478261e+00 4.62085205178418e-02 4.12004263124310e-04
4.31217391304348e+00 4.58630556734687e-02 4.10499886444840e-04
4.34521739130435e+00 4.55201735984848e-02 4.08988993983069e-04
4.37826086956522e+00 4.51798549835547e-02 4.07471879334621e-04
4.41130434782609e+00 4.48420806637021e-02 4.05948829698312e-04
4.44434782608696e+00 4.45068316172329e-02 4.04420125792083e-04
4.47739130434783e+00 4.41740889646639e-02 4.02886041787907e-04
4.51043478260870e+00 4.38438339683875e-02 4.01346846121008e-04
4.54347826086956e+00 4.35160480294151e-02 3.99802801192292e-04
4.57652173913043e+00 4.31907126885466e-02 3.98254163061183e-04
4.60956521739130e+00 4.28678096245855e-02 3.96701182255550e-04
4.64260869565217e+00 4.25473206533096e-02 3.95144103471439e-04
4.67565217391304e+00 4.22292277271222e-02 3.93583166326653e-04
4.70869565217391e+00 4.19135129319931e-02 3.92018605068100e-04
4.74173913043478e+00 4.16001584885060e-02 3.90450648270711e-04
4.77478260869565e+00 4.12891467501670e-02 3.88879519592897e-04
4.80782608695652e+00 4.09804602024106e-02 3.87305437677779e-04
4.84086956521739e+00 4.06740814616148e-02 3.85728616071903e-04
4.87391304347826e+00 4.03699932747415e-02 3.84149263919135e-04
4.90695652173913e+00 4.00681785164915e-02 3.82567585675732e-04
4.94000000000000e+00 3.97686201902262e-02 3.80983780817652e-04
4.97304347826087e+00 3.94713014263768e-02 3.79398044537686e-04
5.00608695652174e+00 3.91762054814952e-02 3.77810567643310e-04
5.03913043478261e+00 3.88833157373111e-02 3.76221536470956e-04
5.07217391304348e+00 3.85926157003662e-02 3.74631133527091e-04
5.10521739130435e+00 3.83040889993636e-02 3.73039537212282e-04
5.13826086956522e+00 3.80177193859787e-02 3.71446921538394e-04
5.17130434782609e+00 3.77334907333622e-02 3.69853456773603e-04
5.20434782608696e+00 3.74513870352330e-02 3.68259309338783e-04
5.23739130434783e+00 3.71713924049767e-02 3.66664641719620e-04
5.27043478260870e+00 3.68934910752749e-02 3.65069613060297e-04
5.30347826086957e+00 3.66176673956338e-02 3.63474378897513e-04
5.33652173913043e+00 3.63439058330968e-02 3.61879090888289e-04
5.36956521739130e+00 3.60721909708341e-02 3.60283897408245e-04
5.40260869565217e+00 3.58025075072765e-02 3.58688943286757e-04
5.43565217391304e+00 3.55348402557416e-02 3.57094370364853e-04
5.46869565217391e+00 3.52691741421016e-02 3.55500317238264e-04
5.50173913043478e+00 3.50054942054211e-02 3.53906918994697e-04
5.53478260869565e+00 3.47437855966157e-02 3.52314307776463e-04
5.56782608695652e+00 3.44840335776157e-02 3.50722612677762e-04
5.60086956521739e+00 3.42262235205367e-02 3.49131959655879e-04
5.63391304347826e+00 3.39703409073069e-02 3.47542472049839e-04
5.66695652173913e+00 3.37163713274867e-02 3.45954270334228e-04
5.70000000000000e+00 3.34643004788285e-02 3.44367471867613e-04
5.73304347826087e+00 3.32141141660113e-02 3.42782191416162e-04
5.76608695652174e+00 3.29657982998412e-02 3.41198541052774e-04
5.79913043478261e+00 3.27193388964585e-02 3.39616630069376e-04
5.83217391304348e+00 3.24747220769666e-02 3.38036565459948e-04
5.86521739130435e+00 3.22319340653920e-02 3.36458451685039e-04
5.89826086956522e+00 3.19909611891748e-02 3.34882390431476e-04
5.93130434782609e+00 3.17517898779739e-02 3.33308481100402e-04
5.96434782608696e+00 3.15144066629032e-02 3.31736820708815e-04
5.99739130434783e+00 3.12787981757729e-02 3.30167503803604e-04
6.03043478260870e+00 3.10449511487223e-02 3.28600622912043e-04
6.06347826086956e+00 3.08128524123084e-02 3.27036268316992e-04
6.09652173913043e+00 3.05824888959358e-02 3.25474527827597e-04
6.12956521739130e+00 3.03538476267273e-02 3.23915487234933e-04
6.16260869565217e+00 3.01269157287940e-02 3.22359230089229e-04
6.19565217391304e+00 2.99016804228711e-02 3.20805838125498e-04
6.22869565217391e+00 2.96781290245079e-02 3.19255391047683e-04
6.26173913043478e+00 2.94562489444507e-02 3.17707966308470e-04
6.29478260869565e+00 2.92360276875655e-02 3.16163639539960e-04
6.32782608695652e+00 2.90174528521346e-02 3.14622484460502e-04
6.36086956521739e+00 2.88005121291582e-02 3.13084572792524e-04
6.39391304347826e+00 2.85851933019961e-02 3.11549974660500e-04
6.42695652173913e+00 2.83714842446690e-02 3.10018758385255e-04
6.46000000000000e+00 2.81593729221928e-02 3.08490990274358e-04
6.49304347826087e+00 2.79488473895591e-02 3.06966735025056e-04
6.52608695652174e+00 2.77398957910627e-02 3.05446055634303e-04
6.55913043478261e+00 2.75325063596349e-02 3.03929013319256e-04
6.59217391304348e+00 2.73266674164900e-02 3.02415667889744e-04
6.62521739130435e+00 2.71223673695314e-02 3.00906077552479e-04
6.65826086956522e+00 2.69195947136415e-02 2.99400298711643e-04
6.69130434782609e+00 2.67183380297168e-02 2.97898386346191e-04
6.72434782608696e+00 2.65185859840258e-02 2.96400393923277e-04
6.75739130434783e+00 2.63203273275706e-02 2.94906373321530e-04
6.79043478260870e+00 2.61235508957411e-02 2.93416375179949e-04
6.82347826086956e+00 2.59282456068170e-02 2.91930448711725e-04
6.85652173913043e+00 2.57344004622185e-02 2.90448641514620e-04
6.88956521739130e+00 2.55420045455931e-02 2.88970999924593e-04
6.92260869565217e+00 2.53510470222020e-02 2.87497568831735e-04
6.95565217391304e+00 2.51615171385793e-02 2.86028392010946e-04
6.98869565217391e+00 2.49734042211105e-02 2.84563511943559e-04
7.02173913043478e+00 2.47866976762529e-02 2.83102969635672e-04
7.05478260869565e+00 2.46013869896631e-02 2.81646804953482e-04
7.08782608695652e+00 2.44174617256052e-02 2.80195056542890e-04
7.12086956521739e+00 2.42349115263632e-02 2.78747761757773e-04
7.15391304347826e+00 2.40537261119092e-02 2.77304956970361e-04
7.18695652173913e+00 2.38738952785652e-02 2.75866677401681e-04
7.22000000000000e+00 2.36954088991923e-02 2.74432956948941e-04
7.25304347826087e+00 2.35182569223641e-02 2.73003828500330e-04
7.28608695652174e+00 2.33424293718009e-02 2.71579323858010e-04
7.31913043478261e+00 2.31679163458079e-02 2.70159473669299e-04
7.35217391304348e+00 2.29947080169515e-02 2.68744307718057e-04
7.38521739130435e+00 2.28227946307995e-02 2.67333854763618e-04
7.41826086956522e+00 2.26521665060825e-02 2.65928142376932e-04
7.45130434782609e+00 2.24828140339101e-02 2.64527197236212e-04
7.48434782608696e+00 2.23147276772303e-02 2.63131045053205e-04
7.51739130434783e+00 2.21478979702920e-02 2.61739710507289e-04
7.55043478260870e+00 2.19823155183300e-02 2.60353217519275e-04
7.58347826086956e+00 2.18179709963785e-02 2.58971589098424e-04
7.61652173913043e+00 2.16548551494071e-02 2.57594847186815e-04
7.64956521739130e+00 2.14929587915778e-02 2.56223012937296e-04
7.68260869565217e+00 2.13322728057282e-02 2.54856106562351e-04
7.71565217391304e+00 2.11727881430629e-02 2.53494147594208e-04
7.74869565217391e+00 2.10144958220247e-02 2.52137154738411e-04
7.78173913043478e+00 2.08573869284118e-02 2.50785145724873e-04
7.81478260869565e+00 2.07014526146669e-02 2.49438137571929e-04
7.84782608695652e+00 2.05466840993786e-02 2.48096146518444e-04
7.88086956521739e+00 2.03930726667877e-02 2.46759187962904e-04
7.91391304347826e+00 2.02406096664868e-02 2.45427276708071e-04
7.94695652173913e+00 2.00892865123566e-02 2.44100426821969e-04
7.98000000000000e+00 1.99390946826623e-02 2.42778651496465e-04
8.01304347826087e+00 1.97900257193799e-02 2.41461963295732e-04
8.04608695652174e+00 1.96420712277188e-02 2.40150374091492e-04
8.07913043478261e+00 1.94952228756502e-02 2.38843895004737e-04
8.11217391304348e+00 1.93494723936155e-02 2.37542536636033e-04
8.14521739130435e+00 1.92048115735225e-02 2.36246308933521e-04
8.17826086956522e+00 1.90612322688247e-02 2.34955221058677e-04
8.21130434782609e+00 1.89187263938808e-02 2.33669281620286e-04
8.24434782608696e+00 1.87772859234995e-02 2.32388498612613e-04
8.27739130434782e+00 1.86369028924878e-02 2.31112879359735e-04
8.31043478260870e+00 1.84975693953685e-02 2.29842430732407e-04
8.34347826086957e+00 1.83592775854326e-02 2.28577159022746e-04
8.37652173913043e+00 1.82220196748034e-02 2.27317069816887e-04
8.40956521739130e+00 1.80857879338276e-02 2.26062168215320e-04
8.44260869565217e+00 1.79505746906405e-02 2.24812458709138e-04
8.47565217391304e+00 1.78163723308913e-02 2.23567945386434e-04
8.50869565217391e+00 1.76831732968397e-02 2.22328631812372e-04
8.54173913043478e+00 1.75509700874074e-02 2.21094520907281e-04
8.57478260869565e+00 1.74197552575959e-02 2.19865615156372e-04
8.60782608695652e+00 1.72895214180668e-02 2.18641916552991e-04
8.64086956521739e+00 1.71602612347263e-02 2.17423426547503e-04
8.67391304347826e+00 1.70319674284585e-02 2.16210146241727e-04
8.70695652173913e+00 1.69046327742727e-02 2.15002076275114e-04
8.74000000000000e+00 1.67782501013421e-02 2.13799216709091e-04
8.77304347826087e+00 1.66528122924503e-02 2.12601567224679e-04
8.80608695652174e+00 1.65283122835910e-02 2.11409127068489e-04
8.83913043478261e+00 1.64047430635699e-02 2.10221895003894e-04
8.87217391304348e+00 1.62820976737470e-02 2.09039869494389e-04
8.90521739130435e+00 1.61603692072308e-02 2.07863048595559e-04
8.93826086956522e+00 1.60395508089058e-02 2.06691429845269e-04
8.97130434782609e+00 1.59196356749069e-02 2.05525010450076e-04
9.00434782608696e+00 1.58006170522360e-02 2.04363787233745e-04
9.03739130434782e+00 1.56824882383819e-02 2.03207756590694e-04
9.07043478260869e+00 1.55652425810714e-02 2.02056914658923e-04
9.10347826086957e+00 1.54488734775067e-02 2.00911257217511e-04
9.13652173913043e+00 1.53333743743840e-02 1.99770779582353e-04
9.16956521739130e+00 1.52187387673931e-02 1.98635476782028e-04
9.20260869565217e+00 1.51049602008515e-02 1.97505343456586e-04
9.23565217391304e+00 1.49920322674622e-02 1.96380374022289e-04
9.26869565217391e+00 1.48799486075865e-02 1.95260562573509e-04
9.30173913043478e+00 1.47687029092544e-02 1.94145902782939e-04
9.33478260869565e+00 1.46582889076855e-02 1.93036388069185e-04
9.36782608695652e+00 1.45487003849361e-02 1.91932011549647e-04
9.40086956521739e+00 1.44399311695494e-02 1.90832765997811e-04
9.43391304347826e+00 1.43319751363213e-02 1.89738643998781e-04
9.46695652173913e+00 1.42248262056125e-02 1.88649637856090e-04
9.50000000000000e+00 1.41184783433514e-02 1.87565739497066e-04
9.53304347826087e+00 1.40129255605782e-02 1.86486940630968e-04
9.56608695652174e+00 1.39081619131079e-02 1.85413232704112e-04
9.59913043478261e+00 1.38041815011956e-02 1.84344606859249e-04
9.63217391304348e+00 1.37009784693104e-02 1.83281054082331e-04
9.66521739130435e+00 1.35985470054848e-02 1.82222565114084e-04
9.69826086956522e+00 1.34968813413106e-02 1.81169130360166e-04
9.73130434782609e+00 1.33959757515048e-02 1.80120740040494e-04
9.76434782608696e+00 1.32958245535884e-02 1.79077384146533e-04
9.79739130434783e+00 1.31964221075656e-02 1.78039052402556e-04
9.83043478260869e+00 1.30977628157061e-02 1.77005734404280e-04
9.86347826086956e+00 1.29998411219291e-02 1.75977419534927e-04
9.89652173913043e+00 1.29026515117930e-02 1.74954096879912e-04
9.92956521739130e+00 1.28061885120833e-02 1.73935755367912e-04
9.96260869565217e+00 1.27104466905044e-02 1.72922383687984e-04
9.99565217391304e+00 1.26154206554680e-02 1.71913970380099e-04
1.00286956521739e+01 1.25211050555980e-02 1.70910503963460e-04
1.00617391304348e+01 1.24274945792500e-02 1.69911972603081e-04
1.00947826086957e+01 1.23345839547725e-02 1.68918363752428e-04
1.01278260869565e+01 1.22423679508299e-02 1.67929665640375e-04
1.01608695652174e+01 1.21508413733817e-02 1.66945866326500e-04
1.01939130434783e+01 1.20599990681312e-02 1.65966952872974e-04
1.02269565217391e+01 1.19698359193156e-02 1.64992912600589e-04
1.02600000000000e+01 1.18803468494192e-02 1.64023732284302e-04
1.02930434782609e+01 1.17915268197432e-02 1.63059399330893e-04
1.03260869565217e+01 1.17033708275383e-02 1.62099900998861e-04
1.03591304347826e+01 1.16158739083211e-02 1.61145223606809e-04
1.03921739130435e+01 1.15290311347235e-02 1.60195353733698e-04
1.04252173913043e+01 1.14428376162156e-02 1.59250277450030e-04
