Energy (eV)          EEDF (eV^-(3/2))     First Anisotropy
4.44000000000000e-04 6.86821475452206e+01 3.97567793220058e-02
1.33200000000000e-03 6.77405057585483e+01 6.54196371891717e-02
2.22000000000000e-03 6.68117740116477e+01 8.57538842086071e-02
3.10800000000000e-03 6.58957753060571e+01 1.00837258889406e-01
3.99600000000000e-03 6.49923350700067e+01 1.13118751138766e-01
4.88400000000000e-03 6.41012811251324e+01 1.23533978513061e-01
5.77200000000000e-03 6.32224436536603e+01 1.32571927919143e-01
6.66000000000000e-03 6.23556551660424e+01 1.40530727518287e-01
7.54800000000000e-03 6.15007504690354e+01 1.47609964839997e-01
8.43600000000000e-03 6.06575666342187e+01 1.53952008688503e-01
9.32400000000000e-03 5.98259429669428e+01 1.59663203248457e-01
1.02120000000000e-02 5.90057209757044e+01 1.64825821641387e-01
1.11000000000000e-02 5.81967443419406e+01 1.69505299945296e-01
1.19880000000000e-02 5.73988588902378e+01 1.73754860621765e-01
1.28760000000000e-02 5.66119125589487e+01 1.77618599268286e-01
1.37640000000000e-02 5.58357553712125e+01 1.81133620481916e-01
1.46520000000000e-02 5.50702394063717e+01 1.84331560609035e-01
1.55400000000000e-02 5.43152187717818e+01 1.87239701295341e-01
1.64280000000000e-02 5.35705495750067e+01 1.89881801786540e-01
1.73160000000000e-02 5.28360898963955e+01 1.92278732958493e-01
1.82040000000000e-02 5.21116997620354e+01 1.94448968448299e-01
1.90920000000000e-02 5.13972411170758e+01 1.96408970769207e-01
1.99800000000000e-02 5.06925777994167e+01 1.98173498903947e-01
2.08680000000000e-02 4.99975755137598e+01 1.99755856272589e-01
2.17560000000000e-02 4.93121018060138e+01 2.01168092790028e-01
2.26440000000000e-02 4.86360260380515e+01 2.02421171126080e-01
2.35320000000000e-02 4.79692193628127e+01 2.03525104732575e-01
2.44200000000000e-02 4.73115546997481e+01 2.04489073369535e-01
2.53080000000000e-02 4.66629067106004e+01 2.05321520526244e-01
2.61960000000000e-02 4.60231517755173e+01 2.06030236145160e-01
2.70840000000000e-02 4.53921679694919e+01 2.06622427317511e-01
2.79720000000000e-02 4.47698350391259e+01 2.07104779060154e-01
2.88600000000000e-02 4.41560343797120e+01 2.07483506855763e-01
2.97480000000000e-02 4.35506490126299e+01 2.07764402308192e-01
3.06360000000000e-02 4.29535635630522e+01 2.07952873007721e-01
3.15240000000000e-02 4.23646642379567e+01 2.08053977498862e-01
3.24120000000000e-02 4.17838388044393e+01 2.08072456083541e-01
3.33000000000000e-02 4.12109765683245e+01 2.08012758064754e-01
3.41880000000000e-02 4.06459683530693e+01 2.07879065933425e-01
3.50760000000000e-02 4.00887064789565e+01 2.07675316918406e-01
3.59640000000000e-02 3.95390847425725e+01 2.07405222252059e-01
3.68520000000000e-02 3.89969983965675e+01 2.07072284448884e-01
3.77400000000000e-02 3.84623441296922e+01 2.06679812849252e-01
3.86280000000000e-02 3.79350200471091e+01 2.06230937642827e-01
3.95160000000000e-02 3.74149256509729e+01 2.05728622555147e-01
4.04040000000000e-02 3.69019618212779e+01 2.05175676354770e-01
4.12920000000000e-02 3.63960307969673e+01 2.04574763316633e-01
4.21800000000000e-02 3.58970361573021e+01 2.03928412758894e-01
4.30680000000000e-02 3.54048828034848e+01 2.03239027755006e-01
4.39560000000000e-02 3.49194769405359e+01 2.02508893109568e-01
4.48440000000000e-02 3.44407260594180e+01 2.01740182675274e-01
4.57320000000000e-02 3.39685389194054e+01 2.00934966078695e-01
4.66200000000000e-02 3.35028255306956e+01 2.00095214914384e-01
4.75080000000000e-02 3.30434971372585e+01 1.99222808459652e-01
4.83960000000000e-02 3.25904661999218e+01 1.98319538956365e-01
4.92840000000000e-02 3.21436463796872e+01 1.97387116500652e-01
5.01720000000000e-02 3.17029525212763e+01 1.96427173576904e-01
5.10600000000000e-02 3.12683006369011e+01 1.95441269268457e-01
5.19480000000000e-02 3.08396078902582e+01 1.94430893173749e-01
5.28360000000000e-02 3.04167925807410e+01 1.93397469053755e-01
5.37240000000000e-02 2.99997741278700e+01 1.92342358233786e-01
5.46120000000000e-02 2.95884730559349e+01 1.91266862780381e-01
5.55000000000000e-02 2.91828109788487e+01 1.90172228471896e-01
5.63880000000000e-02 2.87827105852085e+01 1.89059647579606e-01
5.72760000000000e-02 2.83880956235614e+01 1.87930261474442e-01
5.81640000000000e-02 2.79988908878724e+01 1.86785163073094e-01
5.90520000000000e-02 2.76150222031920e+01 1.85625399135862e-01
5.99400000000000e-02 2.72364164115193e+01 1.84451972427504e-01
6.08280000000000e-02 2.68630013578600e+01 1.83265843751359e-01
6.17160000000000e-02 2.64947058764745e+01 1.82067933866019e-01
6.26040000000000e-02 2.61314597773155e+01 1.80859125293039e-01
6.34920000000000e-02 2.57731938326512e+01 1.79640264023468e-01
6.43800000000000e-02 2.54198397638713e+01 1.78412161130251e-01
6.52680000000000e-02 2.50713302284751e+01 1.77175594293025e-01
6.61560000000000e-02 2.47275988072365e+01 1.75931309241223e-01
6.70440000000000e-02 2.43885799915465e+01 1.74680021120995e-01
6.79320000000000e-02 2.40542091709283e+01 1.73422415790912e-01
6.88200000000000e-02 2.37244226207235e+01 1.72159151051131e-01
6.97080000000000e-02 2.33991574899478e+01 1.70890857810233e-01
7.05960000000000e-02 2.30783517893125e+01 1.69618141193674e-01
7.14840000000000e-02 2.27619443794107e+01 1.68341581597527e-01
7.23720000000000e-02 2.24498749590653e+01 1.67061735690803e-01
7.32600000000000e-02 2.21420840538367e+01 1.65779137369487e-01
7.41480000000000e-02 2.18385130046881e+01 1.64494298665184e-01
7.50360000000000e-02 2.15391039568062e+01 1.63207710611036e-01
7.59240000000000e-02 2.12437998485755e+01 1.61919844067373e-01
7.68120000000000e-02 2.09525444007028e+01 1.60631150509437e-01
7.77000000000000e-02 2.06652821054921e+01 1.59342062779311e-01
7.85880000000000e-02 2.03819582162654e+01 1.58052995804051e-01
7.94760000000000e-02 2.01025187369296e+01 1.56764347281869e-01
8.03640000000000e-02 1.98269104116851e+01 1.55476498338159e-01
8.12520000000000e-02 1.95550807148772e+01 1.54189814152927e-01
8.21400000000000e-02 1.92869778409848e+01 1.52904644561177e-01
8.30280000000000e-02 1.90225506947479e+01 1.51621324627679e-01
8.39160000000000e-02 1.87617488814296e+01 1.50340175197434e-01
8.48040000000000e-02 1.85045226972117e+01 1.49061503423100e-01
8.56920000000000e-02 1.82508231197226e+01 1.47785603270515e-01
8.65800000000000e-02 1.80006017986939e+01 1.46512756003453e-01
8.74680000000000e-02 1.77538110467462e+01 1.45243230648619e-01
8.83560000000000e-02 1.75104038303007e+01 1.43977284441862e-01
8.92440000000000e-02 1.72703337606155e+01 1.42715163256525e-01
9.01320000000000e-02 1.70335550849448e+01 1.41457102014763e-01
9.10200000000000e-02 1.68000226778193e+01 1.40203325082670e-01
9.19080000000000e-02 1.65696920324462e+01 1.38954046649938e-01
9.27960000000000e-02 1.63425192522270e+01 1.37709471094819e-01
9.36840000000000e-02 1.61184610423915e+01 1.36469793335024e-01
9.45720000000000e-02 1.58974747017470e+01 1.35235199165214e-01
9.54600000000000e-02 1.56795181145401e+01 1.34005865581677e-01
9.63480000000000e-02 1.54645497424301e+01 1.32781961094797e-01
9.72360000000000e-02 1.52525286165729e+01 1.31563646029823e-01
9.81240000000000e-02 1.50434143298127e+01 1.30351072816460e-01
9.90120000000000e-02 1.48371670289816e+01 1.29144386267765e-01
9.99000000000000e-02 1.46337474073042e+01 1.27943723848835e-01
1.00788000000000e-01 1.44331166969063e+01 1.26749215935673e-01
1.01676000000000e-01 1.42352366614267e+01 1.25560986064689e-01
1.02564000000000e-01 1.40400695887302e+01 1.24379151173215e-01
1.03452000000000e-01 1.38475782837199e+01 1.23203821831404e-01
1.04340000000000e-01 1.36577260612491e+01 1.22035102465876e-01
1.05228000000000e-01 1.34704767391294e+01 1.20873091575436e-01
1.06116000000000e-01 1.32857946312354e+01 1.19717881939196e-01
1.07004000000000e-01 1.31036445407032e+01 1.18569560817402e-01
1.07892000000000e-01 1.29239917532231e+01 1.17428210145267e-01
1.08780000000000e-01 1.27468020304230e+01 1.16293906720073e-01
1.09668000000000e-01 1.25720416033442e+01 1.15166722381794e-01
1.10556000000000e-01 1.23996771660045e+01 1.14046724187537e-01
1.11444000000000e-01 1.22296758690518e+01 1.12933974580001e-01
1.12332000000000e-01 1.20620053135029e+01 1.11828531550190e-01
1.13220000000000e-01 1.18966335445695e+01 1.10730448794613e-01
1.14108000000000e-01 1.17335290455674e+01 1.09639775867164e-01
1.14996000000000e-01 1.15726607319111e+01 1.08556558325900e-01
1.15884000000000e-01 1.14139979451885e+01 1.07480837874889e-01
1.16772000000000e-01 1.12575104473190e+01 1.06412652501306e-01
1.17660000000000e-01 1.11031684147901e+01 1.05352036607995e-01
1.18548000000000e-01 1.09509424329739e+01 1.04299021141603e-01
1.19436000000000e-01 1.08008034905211e+01 1.03253633716491e-01
1.20324000000000e-01 1.06527229738320e+01 1.02215898734560e-01
1.21212000000000e-01 1.05066726616034e+01 1.01185837501128e-01
1.22100000000000e-01 1.03626247194499e+01 1.00163468337020e-01
1.22988000000000e-01 1.02205516945997e+01 9.91488066869943e-02
1.23876000000000e-01 1.00804265106620e+01 9.81418652246198e-02
1.24764000000000e-01 9.94222246246730e+00 9.71426539537630e-02
1.25652000000000e-01 9.80591321097762e+00 9.61511803067785e-02
1.26540000000000e-01 9.67147277826682e+00 9.51674492395130e-02
1.27428000000000e-01 9.53887554256976e+00 9.41914633232477e-02
1.28316000000000e-01 9.40809623339926e+00 9.32232228336802e-02
1.29204000000000e-01 9.27910992673003e+00 9.22627258370470e-02
1.30092000000000e-01 9.15189204024862e+00 9.13099682734686e-02
1.30980000000000e-01 9.02641832866854e+00 9.03649440376408e-02
1.31868000000000e-01 8.90266487910951e+00 8.94276450569408e-02
1.32756000000000e-01 8.78060810654020e+00 8.84980613670263e-02
1.33644000000000e-01 8.66022474928331e+00 8.75761811850361e-02
1.34532000000000e-01 8.54149186458237e+00 8.66619909804559e-02
1.35420000000000e-01 8.42438682422931e+00 8.57554755437250e-02
1.36308000000000e-01 8.30888731025190e+00 8.48566180526672e-02
1.37196000000000e-01 8.19497131066045e+00 8.39654001368124e-02
1.38084000000000e-01 8.08261711525268e+00 8.30818019396714e-02
1.38972000000000e-01 7.97180331147622e+00 8.22058021790408e-02
1.39860000000000e-01 7.86250878034776e+00 8.13373782053986e-02
1.40748000000000e-01 7.75471269242816e+00 8.04765060584434e-02
1.41636000000000e-01 7.64839450385283e+00 7.96231605218522e-02
1.42524000000000e-01 7.54353395241640e+00 7.87773151762995e-02
1.43412000000000e-01 7.44011105371114e+00 7.79389424508012e-02
1.44300000000000e-01 7.33810609731834e+00 7.71080136724292e-02
1.45188000000000e-01 7.23749964305186e+00 7.62844991144599e-02
1.46076000000000e-01 7.13827251725323e+00 7.54683680429927e-02
1.46964000000000e-01 7.04040580913748e+00 7.46595887620918e-02
1.47852000000000e-01 6.94388086718913e+00 7.38581286575063e-02
1.48740000000000e-01 6.84867929560760e+00 7.30639542389967e-02
1.49628000000000e-01 6.75478295080126e+00 7.22770311813191e-02
1.50516000000000e-01 6.66217393792966e+00 7.14973243639168e-02
1.51404000000000e-01 6.57083460749309e+00 7.07247979093400e-02
1.52292000000000e-01 6.48074755196892e+00 6.99594152204519e-02
1.53180000000000e-01 6.39189560249411e+00 6.92011390164480e-02
1.54068000000000e-01 6.30426182559309e+00 6.84499313677248e-02
1.54956000000000e-01 6.21782951995061e+00 6.77057537296417e-02
1.55844000000000e-01 6.13258221322875e+00 6.69685669752000e-02
1.56732000000000e-01 6.04850365892766e+00 6.62383314266762e-02
1.57620000000000e-01 5.96557783328924e+00 6.55150068862375e-02
1.58508000000000e-01 5.88378893224335e+00 6.47985526655777e-02
1.59396000000000e-01 5.80312136839583e+00 6.40889276145980e-02
1.60284000000000e-01 5.72355976805789e+00 6.33860901491634e-02
1.61172000000000e-01 5.64508896831612e+00 6.26899982779623e-02
1.62060000000000e-01 5.56769401414278e+00 6.20006096284904e-02
1.62948000000000e-01 5.49136015554563e+00 6.13178814721954e-02
1.63836000000000e-01 5.41607284475688e+00 6.06417707488008e-02
1.64724000000000e-01 5.34181773346066e+00 5.99722340898372e-02
1.65612000000000e-01 5.26858067005848e+00 5.93092278413959e-02
1.66500000000000e-01 5.19634769697226e+00 5.86527080861391e-02
1.67388000000000e-01 5.12510504798423e+00 5.80026306645862e-02
1.68276000000000e-01 5.05483914561342e+00 5.73589511956921e-02
1.69164000000000e-01 4.98553659852796e+00 5.67216250967438e-02
1.70052000000000e-01 4.91718419899303e+00 5.60906076025920e-02
1.70940000000000e-01 4.84976892035369e+00 5.54658537842411e-02
1.71828000000000e-01 4.78327791455223e+00 5.48473185668143e-02
1.72716000000000e-01 4.71769850967963e+00 5.42349567469092e-02
1.73604000000000e-01 4.65301820756046e+00 5.36287230093700e-02
1.74492000000000e-01 4.58922468137105e+00 5.30285719434870e-02
1.75380000000000e-01 4.52630577329017e+00 5.24344580586381e-02
1.76268000000000e-01 4.46424949218203e+00 5.18463357993986e-02
1.77156000000000e-01 4.40304401131097e+00 5.12641595601219e-02
1.78044000000000e-01 4.34267766608750e+00 5.06878836990236e-02
1.78932000000000e-01 4.28313895184529e+00 5.01174625517634e-02
1.79820000000000e-01 4.22441652164860e+00 4.95528504445502e-02
1.80708000000000e-01 4.16649918412972e+00 4.89940017067917e-02
1.81596000000000e-01 4.10937590135618e+00 4.84408706832894e-02
1.82484000000000e-01 4.05303578672707e+00 4.78934117459943e-02
1.83372000000000e-01 3.99746810289831e+00 4.73515793053419e-02
1.84260000000000e-01 3.94266225973629e+00 4.68153278211767e-02
1.85148000000000e-01 3.88860781229961e+00 4.62846118132736e-02
1.86036000000000e-01 3.83529445884847e+00 4.57593858714754e-02
1.86924000000000e-01 3.78271203888134e+00 4.52396046654503e-02
1.87812000000000e-01 3.73085053119858e+00 4.47252229540865e-02
1.88700000000000e-01 3.67970005199262e+00 4.42161955945339e-02
1.89588000000000e-01 3.62925085296422e+00 4.37124775508972e-02
1.90476000000000e-01 3.57949331946471e+00 4.32140239025965e-02
1.91364000000000e-01 3.53041796866358e+00 4.27207898524057e-02
1.92252000000000e-01 3.48201544774123e+00 4.22327307341744e-02
1.93140000000000e-01 3.43427653210653e+00 4.17498020202458e-02
1.94028000000000e-01 3.38719212363879e+00 4.12719593285745e-02
1.94916000000000e-01 3.34075324895379e+00 4.07991584295601e-02
1.95804000000000e-01 3.29495105769367e+00 4.03313552526021e-02
1.96692000000000e-01 3.24977682084020e+00 3.98685058923817e-02
1.97580000000000e-01 3.20522192905122e+00 3.94105666148790e-02
1.98468000000000e-01 3.16127789101982e+00 3.89574938631392e-02
1.99356000000000e-01 3.11793633185611e+00 3.85092442627902e-02
2.00244000000000e-01 3.07518899149110e+00 3.80657746273156e-02
2.01132000000000e-01 3.03302772310248e+00 3.76270419631007e-02
2.02020000000000e-01 2.99144449156202e+00 3.71930034742487e-02
2.02908000000000e-01 2.95043137190421e+00 3.67636165671772e-02
2.03796000000000e-01 2.90998054781592e+00 3.63388388550059e-02
2.04684000000000e-01 2.87008431014675e+00 3.59186281617320e-02
2.05572000000000e-01 2.83073505543985e+00 3.55029425262070e-02
2.06460000000000e-01 2.79192528448278e+00 3.50917402059247e-02
2.07348000000000e-01 2.75364760087837e+00 3.46849796806136e-02
2.08236000000000e-01 2.71589470963508e+00 3.42826196556491e-02
2.09124000000000e-01 2.67865941577673e+00 3.38846190652897e-02
2.10012000000000e-01 2.64193462297123e+00 3.34909370757400e-02
2.10900000000000e-01 2.60571333217821e+00 3.31015330880480e-02
2.11788000000000e-01 2.56998864031513e+00 3.27163667408401e-02
2.12676000000000e-01 2.53475373894164e+00 3.23353979129008e-02
2.13564000000000e-01 2.50000191296208e+00 3.19585867255973e-02
2.14452000000000e-01 2.46572653934566e+00 3.15858935451623e-02
2.15340000000000e-01 2.43192108586429e+00 3.12172789848303e-02
2.16228000000000e-01 2.39857910984760e+00 3.08527039068346e-02
2.17116000000000e-01 2.36569425695517e+00 3.04921294242763e-02
2.18004000000000e-01 2.33326025996543e+00 3.01355169028587e-02
2.18892000000000e-01 2.30127093758131e+00 2.97828279624967e-02
2.19780000000000e-01 2.26972019325218e+00 2.94340244788046e-02
2.20668000000000e-01 2.23860201401196e+00 2.90890685844692e-02
2.21556000000000e-01 2.20791046933317e+00 2.87479226705048e-02
2.22444000000000e-01 2.17763970999670e+00 2.84105493873997e-02
2.23332000000000e-01 2.14778396697703e+00 2.80769116461546e-02
2.24220000000000e-01 2.11833755034279e+00 2.77469726192177e-02
2.25108000000000e-01 2.08929484817235e+00 2.74206957413219e-02
2.25996000000000e-01 2.06065032548431e+00 2.70980447102228e-02
2.26884000000000e-01 2.03239852318266e+00 2.67789834873428e-02
2.27772000000000e-01 2.00453405701631e+00 2.64634762983257e-02
2.28660000000000e-01 1.97705161655303e+00 2.61514876335028e-02
2.29548000000000e-01 1.94994596416734e+00 2.58429822482742e-02
2.30436000000000e-01 1.92321193404235e+00 2.55379251634090e-02
2.31324000000000e-01 1.89684443118522e+00 2.52362816652650e-02
2.32212000000000e-01 1.87083843045618e+00 2.49380173059325e-02
2.33100000000000e-01 1.84518897561082e+00 2.46430979033041e-02
2.33988000000000e-01 1.81989117835553e+00 2.43514895410728e-02
2.34876000000000e-01 1.79494021741588e+00 2.40631585686606e-02
2.35764000000000e-01 1.77033133761780e+00 2.37780716010818e-02
2.36652000000000e-01 1.74605984898129e+00 2.34961955187407e-02
2.37540000000000e-01 1.72212112582666e+00 2.32174974671674e-02
2.38428000000000e-01 1.69851060589290e+00 2.29419448566954e-02
2.39316000000000e-01 1.67522378946824e+00 2.26695053620784e-02
2.40204000000000e-01 1.65225623853261e+00 2.24001469220544e-02
2.41092000000000e-01 1.62960357591178e+00 2.21338377388531e-02
2.41980000000000e-01 1.60726148444320e+00 2.18705462776546e-02
2.42868000000000e-01 1.58522570615321e+00 2.16102412659977e-02
2.43756000000000e-01 1.56349204144558e+00 2.13528916931368e-02
2.44644000000000e-01 1.54205634830111e+00 2.10984668093575e-02
2.45532000000000e-01 1.52091454148826e+00 2.08469361252451e-02
2.46420000000000e-01 1.50006259178460e+00 2.05982694109104e-02
2.47308000000000e-01 1.47949652520887e+00 2.03524366951759e-02
2.48196000000000e-01 1.45921242226366e+00 2.01094082647199e-02
2.49084000000000e-01 1.43920641718843e+00 1.98691546631852e-02
2.49972000000000e-01 1.41947469722273e+00 1.96316466902508e-02
2.50860000000000e-01 1.40001350187959e+00 1.93968554006671e-02
2.51748000000000e-01 1.38081912222886e+00 1.91647521032599e-02
2.52636000000000e-01 1.36188790019030e+00 1.89353083599016e-02
2.53524000000000e-01 1.34321622783650e+00 1.87084959844486e-02
2.54412000000000e-01 1.32480054670521e+00 1.84842870416557e-02
2.55300000000000e-01 1.30663734712119e+00 1.82626538460561e-02
2.56188000000000e-01 1.28872316752735e+00 1.80435689608164e-02
2.57076000000000e-01 1.27105459382502e+00 1.78270051965681e-02
2.57964000000000e-01 1.25362825872329e+00 1.76129356102112e-02
2.58852000000000e-01 1.23644084109731e+00 1.74013335036967e-02
2.59740000000000e-01 1.21948906535526e+00 1.71921724227857e-02
2.60628000000000e-01 1.20276970081419e+00 1.69854261557879e-02
2.61516000000000e-01 1.18627956108423e+00 1.67810687322788e-02
2.62404000000000e-01 1.17001550346136e+00 1.65790744217984e-02
2.63292000000000e-01 1.15397442832850e+00 1.63794177325319e-02
2.64180000000000e-01 1.13815327856470e+00 1.61820734099730e-02
2.65068000000000e-01 1.12254903896260e+00 1.59870164355694e-02
2.65956000000000e-01 1.10715873565375e+00 1.57942220253545e-02
2.66844000000000e-01 1.09197943554183e+00 1.56036656285652e-02
2.67732000000000e-01 1.07700824574370e+00 1.54153229262436e-02
2.68620000000000e-01 1.06224231303804e+00 1.52291698298268e-02
2.69508000000000e-01 1.04767882332158e+00 1.50451824797245e-02
2.70396000000000e-01 1.03331500107281e+00 1.48633372438859e-02
2.71284000000000e-01 1.01914810882302e+00 1.46836107163552e-02
2.72172000000000e-01 1.00517544663453e+00 1.45059797158171e-02
2.73060000000000e-01 9.91394351586239e-01 1.43304212841333e-02
2.73948000000000e-01 9.77802197266019e-01 1.41569126848709e-02
2.74836000000000e-01 9.64396393270237e-01 1.39854314018219e-02
2.75724000000000e-01 9.51174384710052e-01 1.38159551375161e-02
2.76612000000000e-01 9.38133651724501e-01 1.36484618117279e-02
2.77500000000000e-01 9.25271709000268e-01 1.34829295599760e-02
2.78388000000000e-01 9.12586105298025e-01 1.33193367320181e-02
2.79276000000000e-01 9.00074422985278e-01 1.31576618903413e-02
2.80164000000000e-01 8.87734277575609e-01 1.29978838086469e-02
