Energy (eV)          EEDF (eV^-(3/2))     First Anisotropy
3.88095238095238e-04 3.88355673329273e+01 1.91787743749016e-02
1.16428571428571e-03 3.85170490888681e+01 3.16461231976774e-02
1.94047619047619e-03 3.82011432407968e+01 4.17143007744685e-02
2.71666666666667e-03 3.78878283619226e+01 4.93254417840095e-02
3.49285714285714e-03 3.75770832027790e+01 5.56420777003915e-02
4.26904761904762e-03 3.72688866865364e+01 6.11046062118080e-02
5.04523809523809e-03 3.69632179099935e+01 6.59413566125760e-02
5.82142857142857e-03 3.66600561418300e+01 7.02904598651563e-02
6.59761904761905e-03 3.63593808198618e+01 7.42436904552187e-02
7.37380952380952e-03 3.60611715509806e+01 7.78660274890444e-02
8.15000000000000e-03 3.57654081096415e+01 8.12056564645724e-02
8.92619047619047e-03 3.54720704355721e+01 8.42995928832525e-02
9.70238095238095e-03 3.51811386335627e+01 8.71770752008874e-02
1.04785714285714e-02 3.48925929708952e+01 8.98617267212712e-02
1.12547619047619e-02 3.46064138769738e+01 9.23729943945221e-02
1.20309523809524e-02 3.43225819437283e+01 9.47271417599413e-02
1.28071428571429e-02 3.40410779186054e+01 9.69379542250878e-02
1.35833333333333e-02 3.37618827088137e+01 9.90172531697004e-02
1.43595238095238e-02 3.34849773781317e+01 1.00975279314116e-01
1.51357142857143e-02 3.32103431470192e+01 1.02820983824097e-01
1.59119047619048e-02 3.29379613871960e+01 1.04562252796227e-01
1.66880952380952e-02 3.26678136245696e+01 1.06206083141499e-01
1.74642857142857e-02 3.23998815365438e+01 1.07758722584585e-01
1.82404761904762e-02 3.21341469508173e+01 1.09225781809003e-01
1.90166666666667e-02 3.18705918451661e+01 1.10612325851159e-01
1.97928571428571e-02 3.16091983430650e+01 1.11922948729369e-01
2.05690476190476e-02 3.13499487156697e+01 1.13161835167066e-01
2.13452380952381e-02 3.10928253795497e+01 1.14332812324269e-01
2.21214285714286e-02 3.08378108963456e+01 1.15439393256042e-01
2.28976190476190e-02 3.05848879689813e+01 1.16484813458371e-01
2.36738095238095e-02 3.03340394431229e+01 1.17472061972272e-01
2.44500000000000e-02 3.00852483051329e+01 1.18403908253735e-01
2.52261904761905e-02 2.98384976816396e+01 1.19282925305766e-01
2.60023809523810e-02 2.95937708361954e+01 1.20111509502158e-01
2.67785714285714e-02 2.93510511703597e+01 1.20891897819881e-01
2.75547619047619e-02 2.91103222218257e+01 1.21626183105089e-01
2.83309523809524e-02 2.88715676639290e+01 1.22316327459489e-01
2.91071428571429e-02 2.86347713026553e+01 1.22964173850471e-01
2.98833333333333e-02 2.83999170774433e+01 1.23571456368423e-01
3.06595238095238e-02 2.81669890594523e+01 1.24139809521203e-01
3.14357142857143e-02 2.79359714510276e+01 1.24670776501296e-01
3.22119047619048e-02 2.77068485829920e+01 1.25165816402861e-01
3.29880952380952e-02 2.74796049152332e+01 1.25626310679767e-01
3.37642857142857e-02 2.72542250350901e+01 1.26053569166311e-01
3.45404761904762e-02 2.70306936563158e+01 1.26448835291161e-01
3.53166666666667e-02 2.68089956184984e+01 1.26813290989755e-01
3.60928571428571e-02 2.65891158846322e+01 1.27148060956983e-01
3.68690476190476e-02 2.63710395415105e+01 1.27454216500720e-01
3.76452380952381e-02 2.61547517982424e+01 1.27732779211059e-01
3.84214285714286e-02 2.59402379856577e+01 1.27984724297514e-01
3.91976190476190e-02 2.57274835540698e+01 1.28210983495276e-01
3.99738095238095e-02 2.55164740735412e+01 1.28412447719791e-01
4.07500000000000e-02 2.53071952324854e+01 1.28589969653316e-01
4.15261904761905e-02 2.50996328370619e+01 1.28744366113790e-01
4.23023809523809e-02 2.48937728091044e+01 1.28876420102805e-01
4.30785714285714e-02 2.46896011862843e+01 1.28986882688563e-01
4.38547619047619e-02 2.44871041207872e+01 1.29076474886297e-01
4.46309523809524e-02 2.42862678787048e+01 1.29145889390145e-01
4.54071428571429e-02 2.40870788381059e+01 1.29195792054043e-01
4.61833333333333e-02 2.38895234891174e+01 1.29226823260704e-01
4.69595238095238e-02 2.36935884326690e+01 1.29239599325605e-01
4.77357142857143e-02 2.34992603798839e+01 1.29234713795894e-01
4.85119047619048e-02 2.33065261502777e+01 1.29212738544982e-01
4.92880952380952e-02 2.31153726717707e+01 1.29174224788999e-01
5.00642857142857e-02 2.29257869794949e+01 1.29119704188025e-01
5.08404761904762e-02 2.27377562149180e+01 1.29049689728391e-01
5.16166666666667e-02 2.25512676252342e+01 1.28964676689910e-01
5.23928571428571e-02 2.23663085616985e+01 1.28865143415211e-01
5.31690476190476e-02 2.21828664795757e+01 1.28751552027456e-01
5.39452380952381e-02 2.20009289370193e+01 1.28624349219759e-01
5.47214285714286e-02 2.18204835944686e+01 1.28483966990646e-01
5.54976190476190e-02 2.16415182130824e+01 1.28330823235091e-01
5.62738095238095e-02 2.14640206546431e+01 1.28165322297479e-01
5.70500000000000e-02 2.12879788804876e+01 1.27987855601341e-01
5.78261904761905e-02 2.11133809509111e+01 1.27798802237242e-01
5.86023809523809e-02 2.09402150236906e+01 1.27598529423039e-01
5.93785714285714e-02 2.07684693539530e+01 1.27387392935473e-01
6.01547619047619e-02 2.05981322931533e+01 1.27165737620508e-01
6.09309523809524e-02 2.04291922884867e+01 1.26933897870450e-01
6.17071428571428e-02 2.02616378814942e+01 1.26692197986631e-01
6.24833333333333e-02 2.00954577079007e+01 1.26440952520079e-01
6.32595238095238e-02 1.99306404966372e+01 1.26180466690992e-01
6.40357142857143e-02 1.97671750692629e+01 1.25911036781285e-01
6.48119047619048e-02 1.96050503386453e+01 1.25632950423323e-01
6.55880952380952e-02 1.94442553087736e+01 1.25346486871505e-01
6.63642857142857e-02 1.92847790738228e+01 1.25051917372159e-01
6.71404761904762e-02 1.91266108174148e+01 1.24749505407311e-01
6.79166666666667e-02 1.89697398120528e+01 1.24439507030748e-01
6.86928571428571e-02 1.88141554178841e+01 1.24122171087512e-01
6.94690476190476e-02 1.86598470824920e+01 1.23797739420538e-01
7.02452380952381e-02 1.85068043400076e+01 1.23466447153161e-01
7.10214285714286e-02 1.83550168105562e+01 1.23128522953672e-01
7.17976190476190e-02 1.82044741990819e+01 1.22784189213316e-01
7.25738095238095e-02 1.80551662951236e+01 1.22433662213905e-01
7.33500000000000e-02 1.79070829719636e+01 1.22077152368771e-01
7.41261904761905e-02 1.77602141860851e+01 1.21714864448420e-01
7.49023809523809e-02 1.76145499760547e+01 1.21346997725809e-01
7.56785714285714e-02 1.74700804622859e+01 1.20973746113118e-01
7.64547619047619e-02 1.73267958462219e+01 1.20595298369218e-01
7.72309523809524e-02 1.71846864098045e+01 1.20211838293784e-01
7.80071428571428e-02 1.70437425144111e+01 1.19823544846582e-01
7.87833333333333e-02 1.69039546006077e+01 1.19430592259674e-01
7.95595238095238e-02 1.67653131873638e+01 1.19033150217473e-01
8.03357142857143e-02 1.66278088715343e+01 1.18631384025152e-01
8.11119047619048e-02 1.64914323268457e+01 1.18225454707058e-01
8.18880952380952e-02 1.63561743036416e+01 1.17815519099105e-01
8.26642857142857e-02 1.62220256281287e+01 1.17401730021890e-01
8.34404761904762e-02 1.60889772017545e+01 1.16984236365223e-01
8.42166666666667e-02 1.59570200007048e+01 1.16563183247915e-01
8.49928571428571e-02 1.58261450749458e+01 1.16138712095313e-01
8.57690476190476e-02 1.56963435479649e+01 1.15710960711968e-01
8.65452380952381e-02 1.55676066160526e+01 1.15280063416370e-01
8.73214285714286e-02 1.54399255478110e+01 1.14846151166690e-01
8.80976190476190e-02 1.53132916832404e+01 1.14409351625213e-01
8.88738095238095e-02 1.51876964334759e+01 1.13969789218600e-01
8.96500000000000e-02 1.50631312800957e+01 1.13527585257475e-01
9.04261904761905e-02 1.49395877746432e+01 1.13082858047908e-01
9.12023809523809e-02 1.48170575377539e+01 1.12635722945095e-01
9.19785714285714e-02 1.46955322588885e+01 1.12186292403393e-01
9.27547619047619e-02 1.45750036956688e+01 1.11734676083075e-01
9.35309523809524e-02 1.44554636734108e+01 1.11280980949705e-01
9.43071428571429e-02 1.43369040842903e+01 1.10825311318929e-01
9.50833333333333e-02 1.42193168870751e+01 1.10367768898081e-01
9.58595238095238e-02 1.41026941064846e+01 1.09908452881927e-01
9.66357142857143e-02 1.39870278327364e+01 1.09447460041721e-01
9.74119047619048e-02 1.38723102207469e+01 1.08984884762608e-01
9.81880952380952e-02 1.37585334898636e+01 1.08520819078198e-01
9.89642857142857e-02 1.36456899232485e+01 1.08055352768882e-01
9.97404761904762e-02 1.35337718673551e+01 1.07588573346653e-01
1.00516666666667e-01 1.34227717318082e+01 1.07120566347533e-01
1.01292857142857e-01 1.33126819872895e+01 1.06651415031592e-01
1.02069047619048e-01 1.32034951678180e+01 1.06181200661630e-01
1.02845238095238e-01 1.30952038670869e+01 1.05710002514726e-01
1.03621428571429e-01 1.29878007410696e+01 1.05237897907616e-01
1.04397619047619e-01 1.28812785044605e+01 1.04764962267682e-01
1.05173809523810e-01 1.27756299331958e+01 1.04291269156023e-01
1.05950000000000e-01 1.26708478609939e+01 1.03816890335204e-01
1.06726190476190e-01 1.25669251817947e+01 1.03341895790190e-01
1.07502380952381e-01 1.24638548463957e+01 1.02866353793081e-01
1.08278571428571e-01 1.23616298648129e+01 1.02390330922100e-01
1.09054761904762e-01 1.22602433030101e+01 1.01913892123466e-01
1.09830952380952e-01 1.21596882851837e+01 1.01437100728584e-01
1.10607142857143e-01 1.20599579905819e+01 1.00960018513272e-01
1.11383333333333e-01 1.19610456557164e+01 1.00482705713290e-01
1.12159523809524e-01 1.18629445712691e+01 1.00005221081051e-01
1.12935714285714e-01 1.17656480842327e+01 9.95276218996395e-02
1.13711904761905e-01 1.16691495949016e+01 9.90499640371516e-02
1.14488095238095e-01 1.15734425589452e+01 9.85723018646304e-02
1.15264285714286e-01 1.14785204850769e+01 9.80946886881239e-02
1.16040476190476e-01 1.13843769346677e+01 9.76171761930738e-02
1.16816666666667e-01 1.12910055230765e+01 9.71398148574487e-02
1.17592857142857e-01 1.11983999168641e+01 9.66626538996588e-02
1.18369047619048e-01 1.11065538356829e+01 9.61857412883423e-02
1.19145238095238e-01 1.10154610495644e+01 9.57091237892506e-02
1.19921428571429e-01 1.09251153807512e+01 9.52328469739636e-02
1.20697619047619e-01 1.08355107010551e+01 9.47569552649386e-02
1.21473809523810e-01 1.07466409336330e+01 9.42814919432534e-02
1.22250000000000e-01 1.06585000504143e+01 9.38064991919410e-02
1.23026190476190e-01 1.05710820738218e+01 9.33320181028192e-02
1.23802380952381e-01 1.04843810742664e+01 9.28580887181928e-02
1.24578571428571e-01 1.03983911718156e+01 9.23847500368499e-02
1.25354761904762e-01 1.03131065337532e+01 9.19120400542040e-02
1.26130952380952e-01 1.02285213761961e+01 9.14399957675211e-02
1.26907142857143e-01 1.01446299617179e+01 9.09686532146094e-02
1.27683333333333e-01 1.00614266009167e+01 9.04980474783014e-02
1.28459523809524e-01 9.97890565009884e+00 9.00282127237581e-02
1.29235714285714e-01 9.89706151279997e+00 8.95591822022923e-02
1.30011904761905e-01 9.81588863752815e+00 8.90909882873376e-02
1.30788095238095e-01 9.73538151923849e+00 8.86236624031557e-02
1.31564285714286e-01 9.65553469757422e+00 8.81572353584709e-02
1.32340476190476e-01 9.57634275653291e+00 8.76917369031469e-02
1.33116666666667e-01 9.49780032540307e+00 8.72271960471853e-02
1.33892857142857e-01 9.41990207666363e+00 8.67636410141188e-02
1.34669047619048e-01 9.34264272733530e+00 8.63010992430460e-02
1.35445238095238e-01 9.26601703693275e+00 8.58395974202699e-02
1.36221428571429e-01 9.19001980877585e+00 8.53791614808589e-02
1.36997619047619e-01 9.11464588799301e+00 8.49198166392023e-02
1.37773809523810e-01 9.03989016279363e+00 8.44615873901515e-02
1.38550000000000e-01 8.96574756252111e+00 8.40044975385588e-02
1.39326190476190e-01 8.89221305888776e+00 8.35485701999877e-02
1.40102380952381e-01 8.81928166407606e+00 8.30938278293108e-02
1.40878571428571e-01 8.74694843193727e+00 8.26402922210406e-02
1.41654761904762e-01 8.67520845613955e+00 8.21879845369661e-02
1.42430952380952e-01 8.60405687133141e+00 8.17369253061737e-02
1.43207142857143e-01 8.53348885133536e+00 8.12871344517748e-02
1.43983333333333e-01 8.46349961027741e+00 8.08386312905953e-02
1.44759523809524e-01 8.39408440082486e+00 8.03914345590731e-02
1.45535714285714e-01 8.32523851528298e+00 7.99455624126453e-02
1.46311904761905e-01 8.25695728387575e+00 7.95010324508210e-02
1.47088095238095e-01 8.18923607581067e+00 7.90578616572096e-02
1.47864285714286e-01 8.12207029793049e+00 7.86160666608634e-02
1.48640476190476e-01 8.05545539442752e+00 7.81756633815338e-02
1.49416666666667e-01 7.98938684751122e+00 7.77366672795060e-02
1.50192857142857e-01 7.92386017580143e+00 7.72990933157160e-02
1.50969047619048e-01 7.85887093530789e+00 7.68629559504031e-02
1.51745238095238e-01 7.79441471786199e+00 7.64282691654384e-02
1.52521428571429e-01 7.73048715206823e+00 7.59950464627674e-02
1.53297619047619e-01 7.66708390177346e+00 7.55633008860768e-02
1.54073809523810e-01 7.60420066699116e+00 7.51330450190315e-02
1.54850000000000e-01 7.54183318240704e+00 7.47042910062933e-02
1.55626190476190e-01 7.47997721827709e+00 7.42770505515819e-02
1.56402380952381e-01 7.41862857896862e+00 7.38513349380628e-02
1.57178571428571e-01 7.35778310383269e+00 7.34271550262539e-02
1.57954761904762e-01 7.29743666577977e+00 7.30045212738063e-02
1.58730952380952e-01 7.23758517212737e+00 7.25834437332590e-02
1.59507142857143e-01 7.17822456320928e+00 7.21639320712401e-02
1.60283333333333e-01 7.11935081319924e+00 7.17459955660938e-02
1.61059523809524e-01 7.06095992875282e+00 7.13296431265072e-02
1.61835714285714e-01 7.00304794980793e+00 7.09148832890218e-02
1.62611904761905e-01 6.94561094825839e+00 7.05017242361272e-02
1.63388095238095e-01 6.88864502873200e+00 7.00901737464839e-02
1.64164285714286e-01 6.83214632754441e+00 6.96802394016929e-02
1.64940476190476e-01 6.77611101245573e+00 6.92719283014155e-02
1.65716666666667e-01 6.72053528315094e+00 6.88652472609678e-02
1.66492857142857e-01 6.66541536999637e+00 6.84602027778618e-02
1.67269047619048e-01 6.61074753475747e+00 6.80568010290309e-02
1.68045238095238e-01 6.55652806938395e+00 6.76550478871051e-02
1.68821428571429e-01 6.50275329670765e+00 6.72549489175612e-02
1.69597619047619e-01 6.44941956925557e+00 6.68565093945424e-02
1.70373809523810e-01 6.39652326992837e+00 6.64597342979258e-02
1.71150000000000e-01 6.34406081084071e+00 6.60646283287020e-02
1.71926190476190e-01 6.29202863398085e+00 6.56711959059800e-02
1.72702380952381e-01 6.24042321007758e+00 6.52794411819396e-02
1.73478571428571e-01 6.18924103924159e+00 6.48893680387726e-02
1.74254761904762e-01 6.13847864985819e+00 6.45009801032275e-02
1.75030952380952e-01 6.08813259921107e+00 6.41142807434984e-02
1.75807142857143e-01 6.03819947240014e+00 6.37292730833676e-02
1.76583333333333e-01 5.98867588294811e+00 6.33459599990522e-02
1.77359523809524e-01 5.93955847174295e+00 6.29643441329546e-02
1.78135714285714e-01 5.89084390762773e+00 6.25844278904684e-02
1.78911904761905e-01 5.84252888636706e+00 6.22062134533600e-02
1.79688095238095e-01 5.79461013122072e+00 6.18297027387132e-02
1.80464285714286e-01 5.74708439212417e+00 6.14548975636818e-02
1.81240476190476e-01 5.69994844548182e+00 6.10817994159441e-02
1.82016666666667e-01 5.65319909451518e+00 6.07104096111183e-02
1.82792857142857e-01 5.60683316829130e+00 6.03407292649342e-02
1.83569047619048e-01 5.56084752225331e+00 5.99727592899913e-02
1.84345238095238e-01 5.51523903727057e+00 5.96065004078736e-02
1.85121428571429e-01 5.47000462015478e+00 5.92419531458800e-02
1.85897619047619e-01 5.42514120273132e+00 5.88791178488244e-02
1.86673809523809e-01 5.38064574234132e+00 5.85179946757471e-02
1.87450000000000e-01 5.33651522093371e+00 5.81585836114017e-02
1.88226190476190e-01 5.29274664555364e+00 5.78008844629558e-02
1.89002380952381e-01 5.24933704745473e+00 5.74448968711747e-02
1.89778571428571e-01 5.20628348257424e+00 5.70906203071142e-02
1.90554761904762e-01 5.16358303066494e+00 5.67380540830116e-02
1.91330952380952e-01 5.12123279575754e+00 5.63871973489671e-02
1.92107142857143e-01 5.07922990531168e+00 5.60380491035591e-02
1.92883333333333e-01 5.03757151066586e+00 5.56906081905212e-02
1.93659523809524e-01 4.99625478620718e+00 5.53448733090786e-02
1.94435714285714e-01 4.95527692980918e+00 5.50008430106226e-02
1.95211904761905e-01 4.91463516201978e+00 5.46585157087857e-02
1.95988095238095e-01 4.87432672648735e+00 5.43178896456528e-02
1.96764285714286e-01 4.83434888931366e+00 5.39789630237696e-02
1.97540476190476e-01 4.79469893887864e+00 5.36417338206092e-02
1.98316666666667e-01 4.75537418609390e+00 5.33061999146647e-02
1.99092857142857e-01 4.71637196363786e+00 5.29723590624160e-02
1.99869047619048e-01 4.67768962635049e+00 5.26402088950622e-02
2.00645238095238e-01 4.63932455048502e+00 5.23097469276851e-02
2.01421428571429e-01 4.60127413409217e+00 5.19809705559850e-02
2.02197619047619e-01 4.56353579628811e+00 5.16538770652184e-02
2.02973809523810e-01 4.52610697762844e+00 5.13284636269414e-02
2.03750000000000e-01 4.48898513939203e+00 5.10047273077116e-02
2.04526190476190e-01 4.45216776394502e+00 5.06826650658585e-02
2.05302380952381e-01 4.41565235404018e+00 5.03622737599667e-02
2.06078571428571e-01 4.37943643317118e+00 5.00435501456496e-02
2.06854761904762e-01 4.34351754488714e+00 4.97264908838250e-02
2.07630952380952e-01 4.30789325313744e+00 4.94110925375030e-02
2.08407142857143e-01 4.27256114160104e+00 4.90973515798572e-02
2.09183333333333e-01 4.23751881402220e+00 4.87852643910331e-02
2.09959523809524e-01 4.20276389355412e+00 4.84748272660152e-02
2.10735714285714e-01 4.16829402308583e+00 4.81660364114487e-02
2.11511904761905e-01 4.13410686459991e+00 4.78588879533116e-02
2.12288095238095e-01 4.10020009949073e+00 4.75533779091404e-02
2.13064285714286e-01 4.06657142805018e+00 4.72495022942699e-02
2.13840476190476e-01 4.03321856931942e+00 4.69472569714410e-02
2.14616666666667e-01 4.00013926127401e+00 4.66466377522579e-02
2.15392857142857e-01 3.96733126021797e+00 4.63476403781595e-02
2.16169047619048e-01 3.93479234107894e+00 4.60502605173428e-02
2.16945238095238e-01 3.90252029681502e+00 4.57544937717716e-02
2.17721428571429e-01 3.87051293870227e+00 4.54603356741196e-02
2.18497619047619e-01 3.83876809575410e+00 4.51677816946038e-02
2.19273809523810e-01 3.80728361500121e+00 4.48768272379584e-02
2.20050000000000e-01 3.77605736092329e+00 4.45874676500991e-02
2.20826190476190e-01 3.74508721572161e+00 4.42996982151144e-02
2.21602380952381e-01 3.71437107876272e+00 4.40135141617744e-02
2.22378571428571e-01 3.68390686684395e+00 4.37289106605466e-02
2.23154761904762e-01 3.65369251364877e+00 4.34458828299469e-02
2.23930952380952e-01 3.62372597000541e+00 4.31644257335768e-02
2.24707142857143e-01 3.59400520335365e+00 4.28845343863207e-02
2.25483333333333e-01 3.56452819799667e+00 4.26062037514132e-02
2.26259523809524e-01 3.53529295457914e+00 4.23294287464863e-02
2.27035714285714e-01 3.50629749033235e+00 4.20542042406590e-02
2.27811904761905e-01 3.47753983856335e+00 4.17805250604433e-02
2.28588095238095e-01 3.44901804889370e+00 4.15083859669019e-02
2.29364285714286e-01 3.42073018684852e+00 4.12377817414561e-02
2.30140476190476e-01 3.39267433373114e+00 4.09687070636806e-02
2.30916666666667e-01 3.36484858675865e+00 4.07011565932327e-02
2.31692857142857e-01 3.33725105857907e+00 4.04351249541420e-02
2.32469047619048e-01 3.30987987749311e+00 4.01706067320156e-02
2.33245238095238e-01 3.28273318698139e+00 3.99075964794427e-02
2.34021428571429e-01 3.25580914592050e+00 3.96460887132307e-02
2.34797619047619e-01 3.22910592811998e+00 3.93860779196795e-02
2.35573809523809e-01 3.20262172253278e+00 3.91275585518425e-02
2.36350000000000e-01 3.17635473280189e+00 3.88705250346774e-02
2.37126190476190e-01 3.15030317746531e+00 3.86149717623341e-02
2.37902380952381e-01 3.12446528951211e+00 3.83608931031819e-02
2.38678571428571e-01 3.09883931658205e+00 3.81082833971319e-02
2.39454761904762e-01 3.07342352053084e+00 3.78571369605443e-02
2.40230952380952e-01 3.04821617762462e+00 3.76074480835721e-02
2.41007142857143e-01 3.02321557811418e+00 3.73592110349593e-02
2.41783333333333e-01 2.99842002642437e+00 3.71124200594085e-02
2.42559523809524e-01 2.97382784073717e+00 3.68670693822701e-02
2.43335714285714e-01 2.94943735317620e+00 3.66231532069410e-02
2.44111904761905e-01 2.92524690939830e+00 3.63806657194336e-02
2.44888095238095e-01 2.90125486877336e+00 3.61396010695925e-02
