Energy (eV)          EEDF (eV^-(3/2))     First Anisotropy
1.76153846153846e-03 2.30240170186763e+01 2.13083704970218e-02
5.28461538461538e-03 2.24208597064356e+01 3.48424256527486e-02
8.80769230769231e-03 2.18335032306790e+01 4.50941958238557e-02
1.23307692307692e-02 2.12615336581612e+01 5.23545549755449e-02
1.58538461538462e-02 2.07045479029375e+01 5.79875336041516e-02
1.93769230769231e-02 2.01621534349499e+01 6.25249076129837e-02
2.29000000000000e-02 1.96339680077849e+01 6.62498344507056e-02
2.64230769230769e-02 1.91196193872193e+01 6.93379687646028e-02
2.99461538461538e-02 1.86187450940201e+01 7.19088083753200e-02
3.34692307692308e-02 1.81309921427595e+01 7.40488587913366e-02
3.69923076923077e-02 1.76560167951666e+01 7.58236074782989e-02
4.05153846153846e-02 1.71934843169493e+01 7.72843305591445e-02
4.40384615384615e-02 1.67430687448433e+01 7.84722448806989e-02
4.75615384615385e-02 1.63044526537119e+01 7.94211830792601e-02
5.10846153846154e-02 1.58773269339609e+01 8.01593940262035e-02
5.46076923076923e-02 1.54613905737325e+01 8.07107991513746e-02
5.81307692307692e-02 1.50563504461824e+01 8.10958956359415e-02
6.16538461538462e-02 1.46619211046587e+01 8.13324227008767e-02
6.51769230769231e-02 1.42778245796898e+01 8.14358640045143e-02
6.87000000000000e-02 1.39037901837443e+01 8.14198336952237e-02
7.22230769230769e-02 1.35395543200571e+01 8.12963781834377e-02
7.57461538461539e-02 1.31848602981281e+01 8.10762156240391e-02
7.92692307692308e-02 1.28394581514985e+01 8.07689284739668e-02
8.27923076923077e-02 1.25031044620505e+01 8.03831201026328e-02
8.63153846153846e-02 1.21755621881591e+01 7.99265436192416e-02
8.98384615384615e-02 1.18566004985890e+01 7.94062089243939e-02
9.33615384615385e-02 1.15459946088295e+01 7.88284724259267e-02
9.68846153846154e-02 1.12435256230196e+01 7.81991127630672e-02
1.00407692307692e-01 1.09489803796910e+01 7.75233953499684e-02
1.03930769230769e-01 1.06621513008614e+01 7.68061275561920e-02
1.07453846153846e-01 1.03828362476295e+01 7.60517064225729e-02
1.10976923076923e-01 1.01108383760174e+01 7.52641600864632e-02
1.14500000000000e-01 9.84596599874244e+00 7.44471836656190e-02
1.18023076923077e-01 9.58803245189557e+00 7.36041711799436e-02
1.21546153846154e-01 9.33685595795169e+00 7.27382431965648e-02
1.25069230769231e-01 9.09225950325199e+00 7.18522712454175e-02
1.28592307692308e-01 8.85407071134086e+00 7.09488999928585e-02
1.32115384615385e-01 8.62212172148590e+00 7.00305666210033e-02
1.35638461538462e-01 8.39624907038018e+00 6.90995182566483e-02
1.39161538461538e-01 8.17629357694357e+00 6.81578276116660e-02
1.42684615384615e-01 7.96210023013844e+00 6.72074070606446e-02
1.46207692307692e-01 7.75351807973512e+00 6.62500213492498e-02
1.49730769230769e-01 7.55040012992748e+00 6.52872990974230e-02
1.53253846153846e-01 7.35260323573947e+00 6.43207432368833e-02
1.56776923076923e-01 7.15998800214546e+00 6.33517405049152e-02
1.60300000000000e-01 6.97241868583336e+00 6.23815700434526e-02
1.63823076923077e-01 6.78976310043821e+00 6.14114114744205e-02
1.67346153846154e-01 6.61189252063020e+00 6.04423520214832e-02
1.70869230769231e-01 6.43868159421962e+00 5.94753930217905e-02
1.74392307692308e-01 6.27000825285199e+00 5.85114562074029e-02
1.77915384615385e-01 6.10575362598179e+00 5.75513892490350e-02
1.81438461538462e-01 5.94580195709996e+00 5.65959709231549e-02
1.84961538461538e-01 5.79004052215589e+00 5.56459158802989e-02
1.88484615384615e-01 5.63835955011513e+00 5.47018790509972e-02
1.92007692307692e-01 5.49065214560258e+00 5.37644597225259e-02
1.95530769230769e-01 5.34681421356767e+00 5.28342053156712e-02
1.99053846153846e-01 5.20674438592460e+00 5.19116148870442e-02
2.02576923076923e-01 5.07034395011443e+00 5.09971423807659e-02
2.06100000000000e-01 4.93751677953858e+00 5.00911996158721e-02
2.09623076923077e-01 4.80816926630986e+00 4.91941592032318e-02
2.13146153846154e-01 4.68221025376479e+00 4.83063570919172e-02
2.16669230769231e-01 4.55955097377555e+00 4.74280949307097e-02
2.20192307692308e-01 4.44010498366168e+00 4.65596424592157e-02
2.23715384615385e-01 4.32378810527069e+00 4.57012395907014e-02
2.27238461538462e-01 4.21051836565442e+00 4.48530983943987e-02
2.30761538461538e-01 4.10021593929972e+00 4.40154049480389e-02
2.34284615384615e-01 3.99280309187162e+00 4.31883210699731e-02
2.37807692307692e-01 3.88820412543242e+00 4.23719859398522e-02
2.41330769230769e-01 3.78634532509374e+00 4.15665176158602e-02
2.44853846153846e-01 3.68715490706681e+00 4.07720144555388e-02
2.48376923076923e-01 3.59056296807370e+00 3.99885564471401e-02
2.51900000000000e-01 3.49650143608386e+00 3.92162064355050e-02
2.55423076923077e-01 3.40490402262836e+00 3.84550113601159e-02
2.58946153846154e-01 3.31570617520355e+00 3.77050033076887e-02
2.62469230769231e-01 3.22884503267821e+00 3.69662004927000e-02
2.65992307692308e-01 3.14425938068624e+00 3.62386082992277e-02
2.69515384615385e-01 3.06188960848659e+00 3.55222201634563e-02
2.73038461538462e-01 2.98167766695324e+00 3.48170184263996e-02
2.76561538461538e-01 2.90356702766585e+00 3.41229751349304e-02
2.80084615384615e-01 2.82750264307165e+00 3.34400527942816e-02
2.83607692307692e-01 2.75343090769204e+00 3.27682050751961e-02
2.87130769230769e-01 2.68129962034442e+00 3.21073774785570e-02
2.90653846153846e-01 2.61105794735397e+00 3.14575079599742e-02
2.94176923076923e-01 2.54265638672928e+00 3.08185275168957e-02
2.97700000000000e-01 2.47604673327639e+00 3.01903607260874e-02
3.01223076923077e-01 2.41118204479901e+00 2.95729263065250e-02
3.04746153846154e-01 2.34801660848891e+00 2.89661375776500e-02
3.08269230769231e-01 2.28650590924930e+00 2.83699028853479e-02
3.11792307692308e-01 2.22660659813978e+00 2.77841260815655e-02
3.15315384615385e-01 2.16827646182672e+00 2.72087069126930e-02
3.18838461538462e-01 2.11147439283387e+00 2.66435414001398e-02
3.22361538461538e-01 2.05616036057238e+00 2.60885221979463e-02
3.25884615384615e-01 2.00229538312954e+00 2.55435389287125e-02
3.29407692307692e-01 1.94984149979711e+00 2.50084784991572e-02
3.32930769230769e-01 1.89876174431874e+00 2.44832253964865e-02
3.36453846153846e-01 1.84902011883850e+00 2.39676619665856e-02
3.39976923076923e-01 1.80058156853173e+00 2.34616686751322e-02
3.43500000000000e-01 1.75341195690065e+00 2.29651243430907e-02
3.47023076923077e-01 1.70747804182282e+00 2.24779064055545e-02
3.50546153846154e-01 1.66274745180024e+00 2.19998911078117e-02
3.54069230769231e-01 1.61918866347660e+00 2.15309536858118e-02
3.57592307692308e-01 1.57677097930902e+00 2.10709685873976e-02
3.61115384615385e-01 1.53546450593428e+00 2.06198096383925e-02
3.64638461538462e-01 1.49524013310188e+00 2.01773502082277e-02
3.68161538461538e-01 1.45606951315887e+00 1.97434633648164e-02
3.71684615384615e-01 1.41792504107217e+00 1.93180220192438e-02
3.75207692307692e-01 1.38077983497434e+00 1.89008990608800e-02
3.78730769230769e-01 1.34460771721889e+00 1.84919674834507e-02
3.82253846153846e-01 1.30938319593184e+00 1.80911005025235e-02
3.85776923076923e-01 1.27508144704666e+00 1.76981716649232e-02
3.89300000000000e-01 1.24167829680977e+00 1.73130549441975e-02
3.92823076923077e-01 1.20915020481053e+00 1.69356248545217e-02
3.96346153846154e-01 1.17747424718897e+00 1.65657565256093e-02
3.99869230769231e-01 1.14662810068708e+00 1.62033257697990e-02
4.03392307692308e-01 1.11659002684643e+00 1.58482091787161e-02
4.06915384615385e-01 1.08733885668830e+00 1.55002841855479e-02
4.10438461538462e-01 1.05885397579502e+00 1.51594291291858e-02
4.13961538461538e-01 1.03111530978225e+00 1.48255233132675e-02
4.17484615384615e-01 1.00410331015174e+00 1.44984470603852e-02
4.21007692307692e-01 9.77798940514864e-01 1.41780817617607e-02
4.24530769230769e-01 9.52183663176877e-01 1.38643099226423e-02
4.28053846153846e-01 9.27239426072708e-01 1.35570152036395e-02
4.31576923076923e-01 9.02948650044981e-01 1.32560824582496e-02
4.35100000000000e-01 8.79294216455305e-01 1.29613977625564e-02
4.38623076923077e-01 8.56259455162044e-01 1.26728484587143e-02
4.42146153846154e-01 8.33828132643945e-01 1.23903231736905e-02
4.45669230769231e-01 8.11984440690641e-01 1.21137118340453e-02
4.49192307692308e-01 7.90712985217478e-01 1.18429057017664e-02
4.52715384615385e-01 7.69998775416709e-01 1.15777973882388e-02
4.56238461538462e-01 7.49827213192907e-01 1.13182808705790e-02
4.59761538461538e-01 7.30184082875124e-01 1.10642515056144e-02
4.63284615384615e-01 7.11055541198540e-01 1.08156060416353e-02
4.66807692307692e-01 6.92428107548644e-01 1.05722426280714e-02
4.70330769230769e-01 6.74288654460898e-01 1.03340608232185e-02
4.73853846153846e-01 6.56624398369317e-01 1.01009616001213e-02
4.77376923076923e-01 6.39422890597391e-01 9.87284735073728e-03
4.80900000000000e-01 6.22672008585037e-01 9.64962188563804e-03
4.84423076923077e-01 6.06359947372235e-01 9.43119044376731e-03
4.87946153846154e-01 5.90475211197415e-01 9.21745968627720e-03
4.91469230769231e-01 5.75006605479810e-01 9.00833768839196e-03
4.94992307692308e-01 5.59943228901687e-01 8.80373394613123e-03
4.98515384615385e-01 5.45274465725771e-01 8.60355936895081e-03
5.02038461538462e-01 5.30989978313931e-01 8.40772627459118e-03
5.05561538461539e-01 5.17079699841850e-01 8.21614838292841e-03
5.09084615384615e-01 5.03533827204535e-01 8.02874080889008e-03
5.12607692307692e-01 4.90342814107727e-01 7.84542005451306e-03
5.16130769230769e-01 4.77497364340248e-01 7.66610400020525e-03
5.19653846153846e-01 4.64988425222601e-01 7.49071189526059e-03
5.23176923076923e-01 4.52807181227206e-01 7.31916434769262e-03
5.26700000000000e-01 4.40945047765758e-01 7.15138331150829e-03
5.30223076923077e-01 4.29393665156716e-01 6.98729208122772e-03
5.33746153846154e-01 4.18144892680767e-01 6.82681527605747e-03
5.37269230769231e-01 4.07190802897954e-01 6.66987882313046e-03
5.40792307692308e-01 3.96523676042474e-01 6.51640995119411e-03
5.44315384615385e-01 3.86135994582268e-01 6.36633717514327e-03
5.47838461538461e-01 3.76020437921123e-01 6.21959028240713e-03
5.51361538461538e-01 3.66169877239572e-01 6.07610031900562e-03
5.54884615384615e-01 3.56577370470934e-01 5.93579957530647e-03
5.58407692307692e-01 3.47236157408990e-01 5.79862157152001e-03
5.61930769230769e-01 3.38139654943801e-01 5.66450104296177e-03
5.65453846153846e-01 3.29281452422339e-01 5.53337392510571e-03
5.68976923076923e-01 3.20655307130653e-01 5.40517733845954e-03
5.72500000000000e-01 3.12255139894388e-01 5.27984957197619e-03
5.76023076923077e-01 3.04075030805889e-01 5.15733007165079e-03
5.79546153846154e-01 2.96109215017576e-01 5.03755942234632e-03
5.83069230769231e-01 2.88352078714556e-01 4.92047932922703e-03
5.86592307692308e-01 2.80798155146343e-01 4.80603260652643e-03
5.90115384615385e-01 2.73442120774231e-01 4.69416316032331e-03
5.93638461538462e-01 2.66278791519596e-01 4.58481597279537e-03
5.97161538461538e-01 2.59303119110470e-01 4.47793708645944e-03
6.00684615384615e-01 2.52510187523835e-01 4.37347358841117e-03
6.04207692307692e-01 2.45895209521119e-01 4.27137359458237e-03
6.07730769230769e-01 2.39453523274441e-01 4.17158623402894e-03
6.11253846153846e-01 2.33180589081244e-01 4.07406163325867e-03
6.14776923076923e-01 2.27071986164994e-01 3.97875090061375e-03
6.18300000000000e-01 2.21123409559688e-01 3.88560610982523e-03
6.21823076923077e-01 2.15330667083406e-01 3.79458028726415e-03
6.25346153846154e-01 2.09689676361211e-01 3.70562739473739e-03
6.28869230769231e-01 2.04196461971301e-01 3.61870231216719e-03
6.32392307692308e-01 1.98847152635500e-01 3.53376082541625e-03
6.35915384615385e-01 1.93637978491024e-01 3.45075961017133e-03
6.39438461538462e-01 1.88565268433714e-01 3.36965621697069e-03
6.42961538461538e-01 1.83625447530871e-01 3.29040905635459e-03
6.46484615384615e-01 1.78815034501856e-01 3.21297738414326e-03
6.50007692307692e-01 1.74130639264710e-01 3.13732128684988e-03
6.53530769230769e-01 1.69568960547027e-01 3.06340166723370e-03
6.57053846153846e-01 1.65126783559424e-01 2.99118022999555e-03
6.60576923076923e-01 1.60800977729955e-01 2.92061946762151e-03
6.64100000000000e-01 1.56588494497875e-01 2.85168264576829e-03
6.67623076923077e-01 1.52486365170104e-01 2.78433379127824e-03
6.71146153846154e-01 1.48491698814099e-01 2.71853767725112e-03
6.74669230769231e-01 1.44601680235768e-01 2.65425980813179e-03
6.78192307692308e-01 1.40813567990310e-01 2.59146640840867e-03
6.81715384615385e-01 1.37124692450208e-01 2.53012440870948e-03
6.85238461538462e-01 1.33532453923847e-01 2.47020143276587e-03
6.88761538461538e-01 1.30034320823410e-01 2.41166578454739e-03
6.92284615384615e-01 1.26627827880764e-01 2.35448643556398e-03
6.95807692307692e-01 1.23310574410104e-01 2.29863301234033e-03
6.99330769230769e-01 1.20080222616092e-01 2.24407578406279e-03
7.02853846153846e-01 1.16934495946320e-01 2.19078565039761e-03
7.06376923076923e-01 1.13871177486942e-01 2.13873412948249e-03
7.09900000000000e-01 1.10888108400327e-01 2.08789334567342e-03
7.13423076923077e-01 1.07983186406891e-01 2.03823601915956e-03
7.16946153846154e-01 1.05154364293614e-01 1.98973545362767e-03
7.20469230769231e-01 1.02399648481411e-01 1.94236552399956e-03
7.23992307692308e-01 9.97170976167377e-02 1.89610066670399e-03
7.27515384615385e-01 9.71048212034465e-02 1.85091586822459e-03
7.31038461538462e-01 9.45609782704827e-02 1.80678665430007e-03
7.34561538461538e-01 9.20837760744802e-02 1.76368907929544e-03
7.38084615384615e-01 8.96714688363462e-02 1.72159971574243e-03
7.41607692307692e-01 8.73223565109470e-02 1.68049564404931e-03
7.45130769230769e-01 8.50347835890189e-02 1.64035444237890e-03
7.48653846153846e-01 8.28071379304685e-02 1.60115417669278e-03
7.52176923076923e-01 8.06378496282354e-02 1.56287339096134e-03
7.55700000000000e-01 7.85253899019188e-02 1.52549109725099e-03
7.59223076923077e-01 7.64682700225463e-02 1.48898676713775e-03
7.62746153846154e-01 7.44650402568103e-02 1.45334032182482e-03
7.66269230769231e-01 7.25142888521120e-02 1.41853212235124e-03
7.69792307692308e-01 7.06146410393595e-02 1.38454296158034e-03
7.73315384615385e-01 6.87647580641152e-02 1.35135405504364e-03
7.76838461538461e-01 6.69633362431251e-02 1.31894703227012e-03
7.80361538461538e-01 6.52091060455627e-02 1.28730392826915e-03
7.83884615384615e-01 6.35008311983414e-02 1.25640717516507e-03
7.87407692307692e-01 6.18373078148679e-02 1.22623959398218e-03
7.90930769230769e-01 6.02173635466157e-02 1.19678438657840e-03
7.94453846153846e-01 5.86398567569266e-02 1.16802512772518e-03
7.97976923076923e-01 5.71036757164558e-02 1.13994575733239e-03
8.01500000000000e-01 5.56077378196937e-02 1.11253057261908e-03
8.05023076923077e-01 5.41509888234538e-02 1.08576422122506e-03
8.08546153846154e-01 5.27324020995007e-02 1.05963169346000e-03
8.12069230769231e-01 5.13509779155373e-02 1.03411831464224e-03
8.15592307692308e-01 5.00057427291286e-02 1.00920973868816e-03
8.19115384615385e-01 4.86957485016098e-02 9.84891940940438e-04
8.22638461538462e-01 4.74200720299665e-02 9.61151211354874e-04
8.26161538461539e-01 4.61778142962190e-02 9.37974147817305e-04
8.29684615384615e-01 4.49680998338489e-02 9.15347649588310e-04
8.33207692307692e-01 4.37900761108257e-02 8.93258910874204e-04
8.36730769230769e-01 4.26429129287945e-02 8.71695414522355e-04
8.40253846153846e-01 4.15258018380029e-02 8.50644925838674e-04
8.43776923076923e-01 4.04379555675563e-02 8.30095486525634e-04
8.47300000000000e-01 3.93786074705975e-02 8.10035408603072e-04
8.50823076923077e-01 3.83470109849874e-02 7.90453268996529e-04
8.54346153846154e-01 3.73424391042220e-02 7.71337903550472e-04
8.57869230769231e-01 3.63641838680914e-02 7.52678401121670e-04
8.61392307692308e-01 3.54115558627311e-02 7.34464098551656e-04
8.64915384615385e-01 3.44838837347660e-02 7.16684575132316e-04
8.68438461538461e-01 3.35805137181815e-02 6.99329647335273e-04
8.71961538461538e-01 3.27008091735898e-02 6.82389363647097e-04
8.75484615384615e-01 3.18441501395657e-02 6.65853999508378e-04
8.79007692307692e-01 3.10099328957365e-02 6.49714052355126e-04
8.82530769230769e-01 3.01975695373169e-02 6.33960236760744e-04
8.86053846153846e-01 2.94064875607900e-02 6.18583479676548e-04
8.89576923076923e-01 2.86361294604423e-02 6.03574915769419e-04
8.93100000000000e-01 2.78859523354681e-02 5.88925882761102e-04
8.96623076923077e-01 2.71554275080153e-02 5.74627917241012e-04
9.00146153846154e-01 2.64440401486226e-02 5.60672750095177e-04
9.03669230769231e-01 2.57512889154209e-02 5.47052302002778e-04
9.07192307692308e-01 2.50766856001312e-02 5.33758679551108e-04
9.10715384615385e-01 2.44197547840065e-02 5.20784171012553e-04
9.14238461538462e-01 2.37800335027851e-02 5.08121242314881e-04
9.17761538461538e-01 2.31570709204224e-02 4.95762533095526e-04
9.21284615384615e-01 2.25504280113696e-02 4.83700852838209e-04
9.24807692307692e-01 2.19596772511756e-02 4.71929177090497e-04
9.28330769230769e-01 2.13844023151939e-02 4.60440643760810e-04
9.31853846153846e-01 2.08241977851831e-02 4.49228549493250e-04
9.35376923076923e-01 2.02786688635932e-02 4.38286346118903e-04
9.38900000000000e-01 1.97474310953361e-02 4.27607637117387e-04
9.42423076923077e-01 1.92301100972831e-02 4.17186174414389e-04
9.45946153846154e-01 1.87263412930865e-02 4.07015854922726e-04
9.49469230769231e-01 1.82357696576101e-02 3.97090717138408e-04
9.52992307692308e-01 1.77580494662673e-02 3.87404938172033e-04
9.56515384615385e-01 1.72928440513749e-02 3.77952830554622e-04
9.60038461538462e-01 1.68398255648917e-02 3.68728839184692e-04
9.63561538461538e-01 1.63986747473702e-02 3.59727538340800e-04
9.67084615384615e-01 1.59690807029632e-02 3.50943628758189e-04
9.70607692307692e-01 1.55507406803233e-02 3.42371934768418e-04
9.74130769230769e-01 1.51433598592423e-02 3.34007401500705e-04
9.77653846153846e-01 1.47466511428805e-02 3.25845092143650e-04
9.81176923076923e-01 1.43603349554383e-02 3.17880185266268e-04
9.84700000000000e-01 1.39841390451284e-02 3.10107972152332e-04
9.88223076923077e-01 1.36177982926051e-02 3.02523854373082e-04
9.91746153846154e-01 1.32610545232219e-02 2.95123341188467e-04
9.95269230769231e-01 1.29136563260056e-02 2.87902046992115e-04
9.98792307692308e-01 1.25753588761650e-02 2.80855689223036e-04
1.00231538461538e+00 1.22459237615042e-02 2.73980085205440e-04
1.00583846153846e+00 1.19251188193893e-02 2.67271151120324e-04
1.00936153846154e+00 1.16127179636950e-02 2.60724899337975e-04
1.01288461538462e+00 1.13085010336556e-02 2.54337434704044e-04
1.01640769230769e+00 1.10122536383529e-02 2.48104954842757e-04
1.01993076923077e+00 1.07237669985309e-02 2.42023746889947e-04
1.02345384615385e+00 1.04428378066819e-02 2.36090184299950e-04
1.02697692307692e+00 1.01692680834403e-02 2.30300727044995e-04
1.03050000000000e+00 9.90286503157978e-03 2.24651918579283e-04
1.03402307692308e+00 9.64344090673723e-03 2.19140383174036e-04
1.03754615384615e+00 9.39081288286394e-03 2.13762824854649e-04
1.04106923076923e+00 9.14480292526605e-03 2.08516026082801e-04
1.04459230769231e+00 8.90523765938021e-03 2.03396845368737e-04
1.04811538461538e+00 8.67194825444996e-03 1.98402214580540e-04
1.05163846153846e+00 8.44477030427911e-03 1.93529139041447e-04
1.05516153846154e+00 8.22354370610815e-03 1.88774694971803e-04
1.05868461538462e+00 8.00811255313646e-03 1.84136026989272e-04
1.06220769230769e+00 7.79832502440883e-03 1.79610348170580e-04
1.06573076923077e+00 7.59403327301346e-03 1.75194937675679e-04
1.06925384615385e+00 7.39509332678095e-03 1.70887138426016e-04
1.07277692307692e+00 7.20136498660064e-03 1.66684357135904e-04
1.07630000000000e+00 7.01271172322440e-03 1.62584062105571e-04
1.07982307692308e+00 6.82900058552061e-03 1.58583781273917e-04
1.08334615384615e+00 6.65010210526090e-03 1.54681101384064e-04
1.08686923076923e+00 6.47589020715743e-03 1.50873666974965e-04
1.09039230769231e+00 6.30624211610887e-03 1.47159178634259e-04
1.09391538461538e+00 6.14103827465020e-03 1.43535391043561e-04
1.09743846153846e+00 5.98016225851680e-03 1.40000112958479e-04
1.10096153846154e+00 5.82350069102671e-03 1.36551205350674e-04
1.10448461538462e+00 5.67094316681166e-03 1.33186579592501e-04
1.10800769230769e+00 5.52238217384765e-03 1.29904197419595e-04
1.11153076923077e+00 5.37771301442363e-03 1.26702069205833e-04
