Energy (eV)          EEDF (eV^-(3/2))     First Anisotropy
3.43421052631579e-02 5.39641026530699e-02 3.27734094660904e-05
1.03026315789474e-01 5.34764730214904e-02 5.40554268700571e-05
1.71710526315789e-01 5.29932497016502e-02 7.11931482823861e-05
2.40394736842105e-01 5.25143928758304e-02 8.41121351229107e-05
3.09078947368421e-01 5.20398630904872e-02 9.48037366481316e-05
3.77763157894737e-01 5.15696212434767e-02 1.04023271872912e-04
4.46447368421053e-01 5.11036285896849e-02 1.12162809957004e-04
5.15131578947368e-01 5.06418467313709e-02 1.19459813173762e-04
5.83815789473684e-01 5.01842376199983e-02 1.26072231834726e-04
6.52500000000000e-01 4.97307635489875e-02 1.32112025728819e-04
7.21184210526316e-01 4.92813871540841e-02 1.37662311610063e-04
7.89868421052632e-01 4.88360714072679e-02 1.42787009170042e-04
8.58552631578947e-01 4.83947796163518e-02 1.47536663306297e-04
9.27236842105263e-01 4.79574754195951e-02 1.51952155628835e-04
9.95921052631579e-01 4.75241227848352e-02 1.56067175950146e-04
1.06460526315789e+00 4.70946860037146e-02 1.59909927662718e-04
1.13328947368421e+00 4.66691296932076e-02 1.63504340625302e-04
1.20197368421053e+00 4.62474187886242e-02 1.66870955933863e-04
1.27065789473684e+00 4.58295185421327e-02 1.70027584851452e-04
1.33934210526316e+00 4.54153945198939e-02 1.72989809795580e-04
1.40802631578947e+00 4.50050125992120e-02 1.75771371228759e-04
1.47671052631579e+00 4.45983389657475e-02 1.78384470964384e-04
1.54539473684211e+00 4.41953401107155e-02 1.80840013100840e-04
1.61407894736842e+00 4.37959828281249e-02 1.83147797682904e-04
1.68276315789474e+00 4.34002342120413e-02 1.85316678042945e-04
1.75144736842105e+00 4.30080616538759e-02 1.87354689879364e-04
1.82013157894737e+00 4.26194328396983e-02 1.89269158090773e-04
1.88881578947368e+00 4.22343157475735e-02 1.91066785919300e-04
1.95750000000000e+00 4.18526786449236e-02 1.92753730127168e-04
2.02618421052632e+00 4.14744900840303e-02 1.94335663706587e-04
2.09486842105263e+00 4.10997189051923e-02 1.95817830405755e-04
2.16355263157895e+00 4.07283342283013e-02 1.97205091522307e-04
2.23223684210526e+00 4.03603054522882e-02 1.98501965056865e-04
2.30092105263158e+00 3.99956022526022e-02 1.99712660521121e-04
2.36960526315789e+00 3.96341945787112e-02 2.00841109011318e-04
2.43828947368421e+00 3.92760526516262e-02 2.01890989498731e-04
2.50697368421053e+00 3.89211469614472e-02 2.02865751910669e-04
2.57565789473684e+00 3.85694482649317e-02 2.03768637474858e-04
2.64434210526316e+00 3.82209275830852e-02 2.04602696719681e-04
2.71302631578947e+00 3.78755561987704e-02 2.05370805455668e-04
2.78171052631579e+00 3.75333056543469e-02 2.06075679014218e-04
2.85039473684211e+00 3.71941477493231e-02 2.06719884974268e-04
2.91907894736842e+00 3.68580545380323e-02 2.07305854570136e-04
2.98776315789474e+00 3.65249983273307e-02 2.07835892948094e-04
3.05644736842105e+00 3.61949516743149e-02 2.08312188412791e-04
3.12513157894737e+00 3.58678873840609e-02 2.08736820784842e-04
3.19381578947368e+00 3.55437785073832e-02 2.09111768973800e-04
3.26250000000000e+00 3.52225983386145e-02 2.09438918012160e-04
3.33118421052632e+00 3.49043204124478e-02 2.09720064845551e-04
3.39986842105263e+00 3.45889185046656e-02 2.09956924363350e-04
3.46855263157895e+00 3.42763666270291e-02 2.10151134941204e-04
3.53723684210526e+00 3.39666390261347e-02 2.10304262740312e-04
3.60592105263158e+00 3.36597101812913e-02 2.10417806262005e-04
3.67460526315789e+00 3.33555548024176e-02 2.10493200385441e-04
3.74328947368421e+00 3.30541478279586e-02 2.10531820086869e-04
3.81197368421053e+00 3.27554644228200e-02 2.10534983871452e-04
3.88065789473684e+00 3.24594799763224e-02 2.10503956944972e-04
3.94934210526316e+00 3.21661701001732e-02 2.10439954149951e-04
4.01802631578947e+00 3.18755106264558e-02 2.10344142687172e-04
4.08671052631579e+00 3.15874776056409e-02 2.10217644642819e-04
4.15539473684211e+00 3.13020473046115e-02 2.10061539338387e-04
4.22407894736842e+00 3.10191962047075e-02 2.09876865518017e-04
4.29276315789474e+00 3.07389009997881e-02 2.09664623387827e-04
4.36144736842105e+00 3.04611385943110e-02 2.09425776519476e-04
4.43013157894737e+00 3.01858861014295e-02 2.09161253629225e-04
4.49881578947368e+00 2.99131208411069e-02 2.08871950242629e-04
4.56750000000000e+00 2.96428203382477e-02 2.08558730364861e-04
4.63618421052632e+00 2.93749623202681e-02 2.08222427607681e-04
4.70486842105263e+00 2.91095247170125e-02 2.07863846788159e-04
4.77355263157895e+00 2.88464856571632e-02 2.07483765446986e-04
4.84223684210526e+00 2.85858234670360e-02 2.07082934717764e-04
4.91092105263158e+00 2.83275166687942e-02 2.06662080586270e-04
4.97960526315789e+00 2.80715439786788e-02 2.06221904968185e-04
5.04828947368421e+00 2.78178843052548e-02 2.05763086725887e-04
5.11697368421053e+00 2.75665167476737e-02 2.05286282628694e-04
5.18565789473684e+00 2.73174205939505e-02 2.04792128260478e-04
5.25434210526316e+00 2.70705753192581e-02 2.04281238878295e-04
5.32302631578947e+00 2.68259605842346e-02 2.03754210225049e-04
5.39171052631579e+00 2.65835562333095e-02 2.03211619299736e-04
5.46039473684211e+00 2.63433422930412e-02 2.02654025087995e-04
5.52907894736842e+00 2.61052989704724e-02 2.02081969255123e-04
5.59776315789474e+00 2.58694066514982e-02 2.01495976804313e-04
5.66644736842105e+00 2.56356458992508e-02 2.00896556702263e-04
5.73513157894737e+00 2.54039974524974e-02 2.00284202474111e-04
5.80381578947368e+00 2.51744422240533e-02 1.99659392769640e-04
5.87250000000000e+00 2.49469612992092e-02 1.99022591984902e-04
5.94118421052632e+00 2.47215359337941e-02 1.98374250526941e-04
6.00986842105263e+00 2.44981475537780e-02 1.97714805471089e-04
6.07855263157895e+00 2.42767777525825e-02 1.97044681197766e-04
6.14723684210526e+00 2.40574082899543e-02 1.96364289582991e-04
6.21592105263158e+00 2.38400210904628e-02 1.95674030510737e-04
6.28460526315789e+00 2.36245982420099e-02 1.94974292280473e-04
6.35328947368421e+00 2.34111219943551e-02 1.94265451996893e-04
6.42197368421053e+00 2.31995747576519e-02 1.93547875942843e-04
6.49065789473684e+00 2.29899391009993e-02 1.92821919936347e-04
6.55934210526316e+00 2.27821977510050e-02 1.92087929672655e-04
6.62802631578947e+00 2.25763335903621e-02 1.91346241051849e-04
6.69671052631579e+00 2.23723296564391e-02 1.90597180493094e-04
6.76539473684211e+00 2.21701691398820e-02 1.89841065236193e-04
6.83407894736842e+00 2.19698353832294e-02 1.89078203630828e-04
6.90276315789474e+00 2.17713118795398e-02 1.88308895414345e-04
6.97144736842105e+00 2.15745822710312e-02 1.87533431978571e-04
7.04013157894737e+00 2.13796303477340e-02 1.86752096626245e-04
7.10881578947368e+00 2.11864400461546e-02 1.85965164817568e-04
7.17750000000000e+00 2.09949954479523e-02 1.85172904470034e-04
7.24618421052632e+00 2.08052807783665e-02 1.84375575996948e-04
7.31486842105263e+00 2.06172804057071e-02 1.83573432654347e-04
7.38355263157895e+00 2.04309788392687e-02 1.82766720881398e-04
7.45223684210526e+00 2.02463607283232e-02 1.81955680309476e-04
7.52092105263158e+00 2.00634108608541e-02 1.81140544023916e-04
7.58960526315790e+00 1.98821141623038e-02 1.80321538753312e-04
7.65828947368421e+00 1.97024556943310e-02 1.79498885052082e-04
7.72697368421053e+00 1.95244206535803e-02 1.78672797476544e-04
7.79565789473684e+00 1.93479943704620e-02 1.77843484754890e-04
7.86434210526316e+00 1.91731623079435e-02 1.77011149951306e-04
7.93302631578947e+00 1.89999100603515e-02 1.76175990624307e-04
8.00171052631579e+00 1.88282233521853e-02 1.75338198979819e-04
8.07039473684211e+00 1.86580880369399e-02 1.74497962019138e-04
8.13907894736842e+00 1.84894900959412e-02 1.73655461681837e-04
8.20776315789474e+00 1.83224156371902e-02 1.72810874984014e-04
8.27644736842105e+00 1.81568508942186e-02 1.71964374151934e-04
8.34513157894737e+00 1.79927822249546e-02 1.71116126751370e-04
8.41381578947368e+00 1.78301961105986e-02 1.70266295812759e-04
8.48250000000000e+00 1.76690791545093e-02 1.69415040000930e-04
8.55118421052632e+00 1.75094180809142e-02 1.68562513585513e-04
8.61986842105263e+00 1.73511997343781e-02 1.67708866653049e-04
8.68855263157895e+00 1.71944110781517e-02 1.66854245316899e-04
8.75723684210526e+00 1.70390391932881e-02 1.65998791673143e-04
8.82592105263158e+00 1.68850712775782e-02 1.65142643954561e-04
8.89460526315790e+00 1.67324946444965e-02 1.64285936630826e-04
8.96328947368421e+00 1.65812967221547e-02 1.63428800505631e-04
9.03197368421053e+00 1.64314650522671e-02 1.62571362810921e-04
9.10065789473684e+00 1.62829872891228e-02 1.61713747298312e-04
9.16934210526316e+00 1.61358511985693e-02 1.60856074327787e-04
9.23802631578947e+00 1.59900446570042e-02 1.59998460953743e-04
9.30671052631579e+00 1.58455556503761e-02 1.59141021008561e-04
9.37539473684211e+00 1.57023722731950e-02 1.58283865183766e-04
9.44407894736842e+00 1.55604827275508e-02 1.57427101108812e-04
9.51276315789474e+00 1.54198753221420e-02 1.56570833427618e-04
9.58144736842105e+00 1.52805384713114e-02 1.55715163872909e-04
9.65013157894737e+00 1.51424606940922e-02 1.54860191338473e-04
9.71881578947368e+00 1.50056306132617e-02 1.54006011949389e-04
9.78750000000000e+00 1.48700369544039e-02 1.53152719168365e-04
9.85618421052632e+00 1.47356685448449e-02 1.52300403747017e-04
9.92486842105263e+00 1.46025143131427e-02 1.51449153867558e-04
9.99355263157895e+00 1.44705632877609e-02 1.50599055137742e-04
1.00622368421053e+01 1.43398045968191e-02 1.49750190939212e-04
1.01309210526316e+01 1.42102274657656e-02 1.48902642661454e-04
1.01996052631579e+01 1.40818212165498e-02 1.48056488378385e-04
1.02682894736842e+01 1.39545752701359e-02 1.47211804007308e-04
1.03369736842105e+01 1.38284791418083e-02 1.46368663984241e-04
1.04056578947368e+01 1.37035224415938e-02 1.45527140208614e-04
1.04743421052632e+01 1.35796948734046e-02 1.44687302467868e-04
1.05430263157895e+01 1.34569862341895e-02 1.43849218487289e-04
1.06117105263158e+01 1.33353864130951e-02 1.43012953979248e-04
1.06803947368421e+01 1.32148853906318e-02 1.42178572691868e-04
1.07490789473684e+01 1.30954732378480e-02 1.41346136775360e-04
1.08177631578947e+01 1.29771401144236e-02 1.40515705860410e-04
1.08864473684211e+01 1.28598762711522e-02 1.39687337751019e-04
1.09551315789474e+01 1.27436720458165e-02 1.38861089125405e-04
1.10238157894737e+01 1.26285178635090e-02 1.38037014585839e-04
1.10925000000000e+01 1.25144042358429e-02 1.37215167033120e-04
1.11611842105263e+01 1.24013217601698e-02 1.36395597706469e-04
1.12298684210526e+01 1.22892611188055e-02 1.35578356222298e-04
1.12985526315789e+01 1.21782130782628e-02 1.34763490612575e-04
1.13672368421053e+01 1.20681684884898e-02 1.33951047362121e-04
1.14359210526316e+01 1.19591182821166e-02 1.33141071727890e-04
1.15046052631579e+01 1.18510534727736e-02 1.32333606918415e-04
1.15732894736842e+01 1.17439651571766e-02 1.31528694702090e-04
1.16419736842105e+01 1.16378445115442e-02 1.30726376022905e-04
1.17106578947368e+01 1.15326827918284e-02 1.29926690155163e-04
1.17793421052632e+01 1.14284713329939e-02 1.29129675030635e-04
1.18480263157895e+01 1.13252015483038e-02 1.28335367269352e-04
1.19167105263158e+01 1.12228649286134e-02 1.27543802210121e-04
1.19853947368421e+01 1.11214530416682e-02 1.26755013940842e-04
1.20540789473684e+01 1.10209575314091e-02 1.25969035581683e-04
1.21227631578947e+01 1.09213701164671e-02 1.25185898544843e-04
1.21914473684211e+01 1.08226825919519e-02 1.24405633077531e-04
1.22601315789474e+01 1.07248868262843e-02 1.23628268811834e-04
1.23288157894737e+01 1.06279747613636e-02 1.22853834002639e-04
1.23975000000000e+01 1.05319384119036e-02 1.22082355818360e-04
1.24661842105263e+01 1.04367698647744e-02 1.21313860366065e-04
1.25348684210526e+01 1.03424612783507e-02 1.20548372715913e-04
1.26035526315789e+01 1.02490048818659e-02 1.19785916925472e-04
1.26722368421053e+01 1.01563929747716e-02 1.19026516063348e-04
1.27409210526316e+01 1.00646179261031e-02 1.18270192457941e-04
1.28096052631579e+01 9.97367217314468e-03 1.17516967037418e-04
1.28782894736842e+01 9.88354822294100e-03 1.16766859809095e-04
1.29469736842105e+01 9.79423864952798e-03 1.16019890345127e-04
1.30156578947368e+01 9.70573609404386e-03 1.15276077103371e-04
1.30843421052632e+01 9.61803326412304e-03 1.14535437683131e-04
1.31530263157895e+01 9.53112293329455e-03 1.13797988844860e-04
1.32217105263158e+01 9.44499794038779e-03 1.13063746529745e-04
1.32903947368421e+01 9.35965118894185e-03 1.12332725879217e-04
1.33590789473684e+01 9.27507564662082e-03 1.11604941456868e-04
1.34277631578947e+01 9.19126434401362e-03 1.10880406652276e-04
1.34964473684211e+01 9.10821037593674e-03 1.10159134110695e-04
1.35651315789474e+01 9.02590689897312e-03 1.09441136168566e-04
1.36338157894737e+01 8.94434713154416e-03 1.08726424240311e-04
1.37025000000000e+01 8.86352435335087e-03 1.08015009046787e-04
1.37711842105263e+01 8.78343190481997e-03 1.07306900631587e-04
1.38398684210526e+01 8.70406318655536e-03 1.06602108376886e-04
1.39085526315789e+01 8.62541165879457e-03 1.05900641019271e-04
1.39772368421053e+01 8.54747084086970e-03 1.05202506665135e-04
1.40459210526316e+01 8.47023431067339e-03 1.04507712986669e-04
1.41146052631579e+01 8.39369570359067e-03 1.03816266689434e-04
1.41832894736842e+01 8.31784871360430e-03 1.03128173893277e-04
1.42519736842105e+01 8.24268709113244e-03 1.02443440518543e-04
1.43206578947368e+01 8.16820464306564e-03 1.01762071738662e-04
1.43893421052632e+01 8.09439523225661e-03 1.01084072182095e-04
1.44580263157895e+01 8.02125277701407e-03 1.00409445945225e-04
1.45267105263158e+01 7.94877125060249e-03 9.97381966052106e-05
1.45953947368421e+01 7.87694468074506e-03 9.90703272328368e-05
1.46640789473684e+01 7.80576714913160e-03 9.84058405680766e-05
1.47327631578947e+01 7.73523279045493e-03 9.77447385385367e-05
1.48014473684211e+01 7.66533579336671e-03 9.70870226019680e-05
1.48701315789474e+01 7.59607039854813e-03 9.64326940936061e-05
1.49388157894737e+01 7.52743089872266e-03 9.57817537312051e-05
1.50075000000000e+01 7.45941163818582e-03 9.51342017961070e-05
1.50761842105263e+01 7.39200701233900e-03 9.44900381439990e-05
1.51448684210526e+01 7.32521146722781e-03 9.38492622154008e-05
1.52135526315789e+01 7.25901949908462e-03 9.32118730461299e-05
1.52822368421053e+01 7.19342565387487e-03 9.25778692775083e-05
1.53509210526316e+01 7.12842452684774e-03 9.19472493120272e-05
1.54196052631579e+01 7.06401076167557e-03 9.13200108826337e-05
1.54882894736842e+01 7.00017905126769e-03 9.06961513573044e-05
1.55569736842105e+01 6.93692413606818e-03 9.00756680480066e-05
1.56256578947368e+01 6.87424080404749e-03 8.94585577681139e-05
1.56943421052632e+01 6.81212389027294e-03 8.88448169930525e-05
1.57630263157895e+01 6.75056827648291e-03 8.82344418688541e-05
1.58317105263158e+01 6.68956889066565e-03 8.76274282207158e-05
1.59003947368421e+01 6.62912070664104e-03 8.70237715615605e-05
1.59690789473684e+01 6.56921874364652e-03 8.64234672319112e-05
1.60377631578947e+01 6.50985806555869e-03 8.58265100098354e-05
1.61064473684211e+01 6.45103378159888e-03 8.52328943854815e-05
1.61751315789474e+01 6.39274104480931e-03 8.46426148396121e-05
1.62438157894737e+01 6.33497505203022e-03 8.40556654428707e-05
1.63125000000000e+01 6.27773104350411e-03 8.34720400002473e-05
1.63811842105263e+01 6.22100430248344e-03 8.28917320582561e-05
1.64498684210526e+01 6.16479015484210e-03 8.23147349119204e-05
1.65185526315789e+01 6.10908396869041e-03 8.17410416117748e-05
1.65872368421053e+01 6.05388115399328e-03 8.11706449706903e-05
1.66559210526316e+01 5.99917716219209e-03 8.06035376882580e-05
1.67246052631579e+01 5.94496748550777e-03 8.00397120014261e-05
1.67932894736842e+01 5.89124765754294e-03 7.94791599292354e-05
1.68619736842105e+01 5.83801325193291e-03 7.89218735211649e-05
1.69306578947368e+01 5.78525988231044e-03 7.83678444982806e-05
1.69993421052632e+01 5.73298320194433e-03 7.78170643817848e-05
1.70680263157895e+01 5.68117890338110e-03 7.72695244987080e-05
1.71367105263158e+01 5.62984271809040e-03 7.67252159876362e-05
1.72053947368421e+01 5.57897041611317e-03 7.61841298044608e-05
1.72740789473684e+01 5.52855780571302e-03 7.56462568344174e-05
1.73427631578947e+01 5.47860073274461e-03 7.51115875753343e-05
1.74114473684211e+01 5.42909508117672e-03 7.45801123586459e-05
1.74801315789474e+01 5.38003677188111e-03 7.40518215737262e-05
1.75488157894737e+01 5.33142176258935e-03 7.35267053425823e-05
1.76175000000000e+01 5.28324604755968e-03 7.30047536356995e-05
1.76861842105263e+01 5.23550565724692e-03 7.24859562768464e-05
1.77548684210526e+01 5.18819665797543e-03 7.19703029477326e-05
1.78235526315789e+01 5.14131515161512e-03 7.14577831926992e-05
1.78922368421053e+01 5.09485727526013e-03 7.09483864232882e-05
1.79609210526316e+01 5.04881920091054e-03 7.04421020181259e-05
1.80296052631579e+01 5.00319713490557e-03 6.99389190388459e-05
1.80982894736842e+01 4.95798731837084e-03 6.94388264275119e-05
1.81669736842105e+01 4.91318602614306e-03 6.89418132070232e-05
1.82356578947368e+01 4.86878956672021e-03 6.84478681894279e-05
1.83043421052632e+01 4.82479428195737e-03 6.79569800792408e-05
1.83730263157895e+01 4.78119654676520e-03 6.74691374772320e-05
1.84417105263158e+01 4.73799276881148e-03 6.69843288842481e-05
1.85103947368421e+01 4.69517938822496e-03 6.65025427050620e-05
1.85790789473684e+01 4.65275287730210e-03 6.60237673385153e-05
1.86477631578947e+01 4.61070973999228e-03 6.55479909196972e-05
1.87164473684211e+01 4.56904651228692e-03 6.50752014985123e-05
1.87851315789474e+01 4.52775976125184e-03 6.46053872209954e-05
1.88538157894737e+01 4.48684608497348e-03 6.41385360646080e-05
1.89225000000000e+01 4.44630211227862e-03 6.36746359315077e-05
1.89911842105263e+01 4.40612450245652e-03 6.32136746517540e-05
1.90598684210526e+01 4.36630994498377e-03 6.27556399863986e-05
1.91285526315789e+01 4.32685515925150e-03 6.23005196306102e-05
1.91972368421053e+01 4.28775689429508e-03 6.18483012167083e-05
1.92659210526316e+01 4.24901192852616e-03 6.13989723946791e-05
1.93346052631579e+01 4.21061706927004e-03 6.09525206006983e-05
1.94032894736842e+01 4.17256915309875e-03 6.05089332168877e-05
1.94719736842105e+01 4.13486504496975e-03 6.00681977335640e-05
1.95406578947368e+01 4.09750163816933e-03 5.96303015116178e-05
1.96093421052632e+01 4.06047585405665e-03 5.91952318658461e-05
1.96780263157895e+01 4.02378464180993e-03 5.87629760674566e-05
1.97467105263158e+01 3.98742497817532e-03 5.83335213465909e-05
1.98153947368421e+01 3.95139386721763e-03 5.79068548948797e-05
1.98840789473684e+01 3.91568834007352e-03 5.74829639382220e-05
1.99527631578947e+01 3.88030545453066e-03 5.70618355264903e-05
2.00214473684211e+01 3.84524229531780e-03 5.66434566782442e-05
2.00901315789474e+01 3.81049597332809e-03 5.62278145276987e-05
2.01588157894737e+01 3.77606362556122e-03 5.58148961088798e-05
2.02275000000000e+01 3.74194241488747e-03 5.54046884309900e-05
2.02961842105263e+01 3.70812952981393e-03 5.49971784804938e-05
2.03648684210526e+01 3.67462218425285e-03 5.45923532231439e-05
2.04335526315789e+01 3.64141761729217e-03 5.41901996060385e-05
2.05022368421053e+01 3.60851309296792e-03 5.37907045596100e-05
2.05709210526316e+01 3.57590590003883e-03 5.33938550627294e-05
2.06396052631579e+01 3.54359335160741e-03 5.29996379537056e-05
2.07082894736842e+01 3.51157278536850e-03 5.26080400599442e-05
2.07769736842105e+01 3.47984156291648e-03 5.22190483296425e-05
2.08456578947368e+01 3.44839706968689e-03 5.18326496378210e-05
2.09143421052632e+01 3.41723671474093e-03 5.14488308537604e-05
2.09830263157895e+01 3.38635793055195e-03 5.10675788426105e-05
2.10517105263158e+01 3.35575817279406e-03 5.06888804670314e-05
2.11203947368421e+01 3.32543492013233e-03 5.03127225888532e-05
2.11890789473684e+01 3.29538567401512e-03 4.99390921280048e-05
2.12577631578947e+01 3.26560795832898e-03 4.95679758906676e-05
2.13264473684211e+01 3.23609931961522e-03 4.91993606868559e-05
2.13951315789474e+01 3.20685732644410e-03 4.88332334498516e-05
2.14638157894737e+01 3.17787956935671e-03 4.84695810598521e-05
2.15325000000000e+01 3.14916366066648e-03 4.81083904050304e-05
2.16011842105263e+01 3.12070723426241e-03 4.77496483828785e-05
2.16698684210526e+01 3.09250794541410e-03 4.73933419014936e-05
