Energy (eV)          EEDF (eV^-(3/2))     First Anisotropy
2.38235294117647e-02 1.10838362629369e-01 7.11663973730346e-05
7.14705882352941e-02 1.09715909049248e-01 1.17315302208125e-04
1.19117647058824e-01 1.08604822490650e-01 1.54338852972468e-04
1.66764705882353e-01 1.07504987842785e-01 1.82145075861193e-04
2.14411764705882e-01 1.06416291154252e-01 2.05071798895919e-04
2.62058823529412e-01 1.05338619632118e-01 2.24767080001830e-04
3.09705882352941e-01 1.04271861625410e-01 2.42087732669401e-04
3.57352941176471e-01 1.03215906613726e-01 2.57553491224955e-04
4.05000000000000e-01 1.02170645195942e-01 2.71510580911434e-04
4.52647058823529e-01 1.01135969081211e-01 2.84204779592870e-04
5.00294117647059e-01 1.00111771070207e-01 2.95818813925477e-04
5.47941176470588e-01 9.90979450518713e-02 3.06493408147088e-04
5.95588235294118e-01 9.80943859896807e-02 3.16339997401116e-04
6.43235294117647e-01 9.71009899108203e-02 3.25448836256971e-04
6.90882352941177e-01 9.61176538954028e-02 3.33894401281344e-04
7.38529411764706e-01 9.51442760671659e-02 3.41739122136107e-04
7.86176470588235e-01 9.41807555787128e-02 3.49036035668793e-04
8.33823529411765e-01 9.32269926053746e-02 3.55830722678981e-04
8.81470588235294e-01 9.22828883333797e-02 3.62162753004834e-04
9.29117647058823e-01 9.13483449496534e-02 3.68066783510149e-04
9.76764705882353e-01 9.04232656326285e-02 3.73573407693126e-04
1.02441176470588e+00 8.95075545345913e-02 3.78709819120256e-04
1.07205882352941e+00 8.86011167968215e-02 3.83500343996132e-04
1.11970588235294e+00 8.77038584996184e-02 3.87966866316698e-04
1.16735294117647e+00 8.68156866834342e-02 3.92129170724610e-04
1.21500000000000e+00 8.59365093301046e-02 3.96005229820324e-04
1.26264705882353e+00 8.50662353532930e-02 3.99611438521133e-04
1.31029411764706e+00 8.42047745890854e-02 4.02962810529906e-04
1.35794117647059e+00 8.33520377866691e-02 4.06073143620804e-04
1.40558823529412e+00 8.25079365990610e-02 4.08955158940473e-04
1.45323529411765e+00 8.16723835797521e-02 4.11620622473587e-04
1.50088235294118e+00 8.08452921559880e-02 4.14080445953853e-04
1.54852941176471e+00 8.00265766377464e-02 4.16344773667088e-04
1.59617647058824e+00 7.92161522027778e-02 4.18423061127207e-04
1.64382352941176e+00 7.84139348878174e-02 4.20324140954500e-04
1.69147058823529e+00 7.76198415798640e-02 4.22056281145896e-04
1.73911764705882e+00 7.68337900076194e-02 4.23627236276255e-04
1.78676470588235e+00 7.60556987329386e-02 4.25044292669515e-04
1.83441176470588e+00 7.52854871423926e-02 4.26314307823817e-04
1.88205882352941e+00 7.45230754429916e-02 4.27443747647421e-04
1.92970588235294e+00 7.37683846415271e-02 4.28438716997610e-04
1.97735294117647e+00 7.30213365489530e-02 4.29304986862049e-04
2.02500000000000e+00 7.22818537680371e-02 4.30048021537335e-04
2.07264705882353e+00 7.15498596853344e-02 4.30673000914381e-04
2.12029411764706e+00 7.08252784632591e-02 4.31184841116240e-04
2.16794117647059e+00 7.01080350322339e-02 4.31588213171271e-04
2.21558823529412e+00 6.93980550829048e-02 4.31887559475557e-04
2.26323529411765e+00 6.86952650615513e-02 4.32087110606670e-04
2.31088235294118e+00 6.79995921530232e-02 4.32190898389529e-04
2.35852941176471e+00 6.73109642827603e-02 4.32202767730634e-04
2.40617647058824e+00 6.66293101060959e-02 4.32126389799676e-04
2.45382352941176e+00 6.59545590008649e-02 4.31965272278292e-04
2.50147058823529e+00 6.52866410600787e-02 4.31722769223131e-04
2.54911764705882e+00 6.46254870847012e-02 4.31402090145356e-04
2.59676470588235e+00 6.39710285764700e-02 4.31006308383924e-04
2.64441176470588e+00 6.33231977307992e-02 4.30538368439885e-04
2.69205882352941e+00 6.26819274321394e-02 4.30001094317240e-04
2.73970588235294e+00 6.20471512397885e-02 4.29397195346593e-04
2.78735294117647e+00 6.14188033883294e-02 4.28729271519174e-04
2.83500000000000e+00 6.07968187783465e-02 4.27999820424349e-04
2.88264705882353e+00 6.01811329696784e-02 4.27211242150253e-04
2.93029411764706e+00 5.95716821747447e-02 4.26365844233931e-04
2.97794117647059e+00 5.89684032519410e-02 4.25465846281865e-04
3.02558823529412e+00 5.83712336990933e-02 4.24513383947019e-04
3.07323529411765e+00 5.77801116489026e-02 4.23510513989763e-04
3.12088235294118e+00 5.71949758567126e-02 4.22459217369555e-04
3.16852941176471e+00 5.66157657000523e-02 4.21361402089869e-04
3.21617647058824e+00 5.60424211703702e-02 4.20218907579264e-04
3.26382352941176e+00 5.54748828668172e-02 4.19033507462281e-04
3.31147058823529e+00 5.49130919900884e-02 4.17806912496912e-04
3.35911764705882e+00 5.43569903363403e-02 4.16540773341820e-04
3.40676470588235e+00 5.38065202911555e-02 4.15236683165799e-04
3.45441176470588e+00 5.32616248235742e-02 4.13896179817062e-04
3.50205882352941e+00 5.27222474817227e-02 4.12520749022504e-04
3.54970588235294e+00 5.21883323823043e-02 4.11111825994506e-04
3.59735294117647e+00 5.16598242095196e-02 4.09670796909442e-04
3.64500000000000e+00 5.11366682077487e-02 4.08199001775362e-04
3.69264705882353e+00 5.06188101758768e-02 4.06697735990367e-04
3.74029411764706e+00 5.01061964616802e-02 4.05168252107369e-04
3.78794117647059e+00 4.95987739562695e-02 4.03611761509894e-04
3.83558823529412e+00 4.90964900885857e-02 4.02029435749831e-04
3.88323529411765e+00 4.85992928212288e-02 4.00422408824692e-04
3.93088235294118e+00 4.81071306412018e-02 3.98791778101401e-04
3.97852941176471e+00 4.76199525584780e-02 3.97138605161956e-04
4.02617647058824e+00 4.71377080994037e-02 3.95463917894205e-04
4.07382352941176e+00 4.66603473014685e-02 3.93768711468711e-04
4.12147058823529e+00 4.61878207081268e-02 3.92053949521232e-04
4.16911764705882e+00 4.57200793636788e-02 3.90320565281783e-04
4.21676470588235e+00 4.52570748081961e-02 3.88569462653594e-04
4.26441176470588e+00 4.47987590725006e-02 3.86801517022697e-04
4.31205882352941e+00 4.43450846742437e-02 3.85017576905477e-04
4.35970588235294e+00 4.38960046098106e-02 3.83218464444717e-04
4.40735294117647e+00 4.34514723526581e-02 3.81404975857352e-04
4.45500000000000e+00 4.30114418474141e-02 3.79577882979232e-04
4.50264705882353e+00 4.25758675051059e-02 3.77737933860893e-04
4.55029411764706e+00 4.21447041984373e-02 3.75885853558165e-04
4.59794117647059e+00 4.17179072571141e-02 3.74022344890885e-04
4.64558823529412e+00 4.12954324632159e-02 3.72148088976753e-04
4.69323529411765e+00 4.08772360475004e-02 3.70263746514632e-04
4.74088235294118e+00 4.04632746821847e-02 3.68369958062082e-04
4.78852941176471e+00 4.00535054791666e-02 3.66467344279621e-04
4.83617647058824e+00 3.96478859846692e-02 3.64556507151502e-04
4.88382352941176e+00 3.92463741748423e-02 3.62638030378081e-04
4.93147058823529e+00 3.88489284514072e-02 3.60712479946822e-04
4.97911764705882e+00 3.84555076373498e-02 3.58780404682282e-04
5.02676470588235e+00 3.80660709726532e-02 3.56842336776093e-04
5.07441176470588e+00 3.76805781100746e-02 3.54898792127000e-04
5.12205882352941e+00 3.72989891117067e-02 3.52950271343315e-04
5.16970588235294e+00 3.69212644425948e-02 3.50997259872904e-04
5.21735294117647e+00 3.65473649689072e-02 3.49040228110015e-04
5.26500000000000e+00 3.61772519531180e-02 3.47079632361173e-04
5.31264705882353e+00 3.58108870499933e-02 3.45115915092097e-04
5.36029411764706e+00 3.54482323026193e-02 3.43149505336413e-04
5.40794117647059e+00 3.50892501384696e-02 3.41180819090531e-04
5.45558823529412e+00 3.47339033655130e-02 3.39210259544489e-04
5.50323529411765e+00 3.43821551689948e-02 3.37238217904291e-04
5.55088235294118e+00 3.40339691056994e-02 3.35265073442734e-04
5.59852941176471e+00 3.36893091021160e-02 3.33291193532847e-04
5.64617647058824e+00 3.33481394500479e-02 3.31316934447340e-04
5.69382352941176e+00 3.30104248029132e-02 3.29342641522717e-04
5.74147058823529e+00 3.26761301720818e-02 3.27368649469231e-04
5.78911764705882e+00 3.23452209232524e-02 3.25395282671126e-04
5.83676470588235e+00 3.20176627728628e-02 3.23422855477602e-04
5.88441176470588e+00 3.16934217845386e-02 3.21451672351542e-04
5.93205882352941e+00 3.13724643661149e-02 3.19482028541324e-04
5.97970588235294e+00 3.10547572645277e-02 3.17514210076596e-04
6.02735294117647e+00 3.07402675640117e-02 3.15548493750926e-04
6.07500000000000e+00 3.04289626821378e-02 3.13585147780224e-04
6.12264705882353e+00 3.01208103664366e-02 3.11624431904168e-04
6.17029411764706e+00 2.98157786910577e-02 3.09666597618284e-04
6.21794117647059e+00 2.95138360534620e-02 3.07711888399230e-04
6.26558823529412e+00 2.92149511711477e-02 3.05760539805147e-04
6.31323529411765e+00 2.89190930788743e-02 3.03812780044003e-04
6.36088235294118e+00 2.86262311240458e-02 3.01868829939906e-04
6.40852941176471e+00 2.83363349649564e-02 2.99928902888891e-04
6.45617647058824e+00 2.80493745671689e-02 2.97993205419193e-04
6.50382352941176e+00 2.77653202004031e-02 2.96061937255743e-04
6.55147058823529e+00 2.74841424354550e-02 2.94135291501960e-04
6.59911764705882e+00 2.72058121411489e-02 2.92213454816593e-04
6.64676470588235e+00 2.69303004813187e-02 2.90296607585725e-04
6.69441176470588e+00 2.66575789118205e-02 2.88384923985108e-04
6.74205882352941e+00 2.63876191779731e-02 2.86478572457309e-04
6.78970588235294e+00 2.61203933104266e-02 2.84577715657966e-04
6.83735294117647e+00 2.58558736234793e-02 2.82682510393698e-04
6.88500000000000e+00 2.55940327118010e-02 2.80793108094928e-04
6.93264705882353e+00 2.53348434475934e-02 2.78909654851407e-04
6.98029411764706e+00 2.50782789777797e-02 2.77032291552544e-04
7.02794117647059e+00 2.48243127212229e-02 2.75161154024054e-04
7.07558823529412e+00 2.45729183659715e-02 2.73296373067409e-04
7.12323529411765e+00 2.43240698668807e-02 2.71438074871326e-04
7.17088235294118e+00 2.40777414418637e-02 2.69586380948172e-04
7.21852941176471e+00 2.38339075702799e-02 2.67741408063514e-04
7.26617647058823e+00 2.35925429899349e-02 2.65903268645467e-04
7.31382352941176e+00 2.33536226944626e-02 2.64072070802895e-04
7.36147058823529e+00 2.31171219307350e-02 2.62247918437825e-04
7.40911764705882e+00 2.28830161962974e-02 2.60430911355066e-04
7.45676470588235e+00 2.26512812368304e-02 2.58621145369060e-04
7.50441176470588e+00 2.24218930436364e-02 2.56818712324810e-04
7.55205882352941e+00 2.21948278514512e-02 2.55023700449356e-04
7.59970588235294e+00 2.19700621350781e-02 2.53236194282553e-04
7.64735294117647e+00 2.17475726078618e-02 2.51456274602140e-04
7.69500000000000e+00 2.15273362189699e-02 2.49684018774615e-04
7.74264705882353e+00 2.13093301510038e-02 2.47919500759700e-04
7.79029411764706e+00 2.10935318176357e-02 2.46162791198908e-04
7.83794117647059e+00 2.08799188612682e-02 2.44413957501901e-04
7.88558823529412e+00 2.06684691507179e-02 2.42673063856252e-04
7.93323529411765e+00 2.04591607791845e-02 2.40940171534385e-04
7.98088235294118e+00 2.02519720611889e-02 2.39215338822741e-04
8.02852941176470e+00 2.00468815311253e-02 2.37498620946076e-04
8.07617647058824e+00 1.98438679407689e-02 2.35790070374737e-04
8.12382352941176e+00 1.96429102570744e-02 2.34089736821008e-04
8.17147058823529e+00 1.94439876599965e-02 2.32397667311057e-04
8.21911764705882e+00 1.92470795403338e-02 2.30713906255235e-04
8.26676470588235e+00 1.90521654975927e-02 2.29038495516762e-04
8.31441176470588e+00 1.88592253378745e-02 2.27371474412286e-04
8.36205882352941e+00 1.86682390720093e-02 2.25712879977093e-04
8.40970588235294e+00 1.84791869127999e-02 2.24062746894707e-04
8.45735294117647e+00 1.82920492736625e-02 2.22421107422341e-04
8.50500000000000e+00 1.81068067663660e-02 2.20787991657097e-04
8.55264705882353e+00 1.79234401990222e-02 2.19163427525816e-04
8.60029411764706e+00 1.77419305740982e-02 2.17547440842527e-04
8.64794117647059e+00 1.75622590864483e-02 2.15940055364627e-04
8.69558823529412e+00 1.73844071213649e-02 2.14341292788014e-04
8.74323529411765e+00 1.72083562528507e-02 2.12751172980688e-04
8.79088235294118e+00 1.70340882411045e-02 2.11169713914160e-04
8.83852941176471e+00 1.68615850312415e-02 2.09596931591300e-04
8.88617647058824e+00 1.66908287512175e-02 2.08032840281293e-04
8.93382352941176e+00 1.65218017099775e-02 2.06477452505848e-04
8.98147058823529e+00 1.63544863956224e-02 2.04930779086344e-04
9.02911764705882e+00 1.61888654735955e-02 2.03392829189938e-04
9.07676470588235e+00 1.60249217848859e-02 2.01863610374664e-04
9.12441176470588e+00 1.58626383442511e-02 2.00343128580164e-04
9.17205882352941e+00 1.57019983386310e-02 1.98831388331154e-04
9.21970588235294e+00 1.55429851248800e-02 1.97328392671734e-04
9.26735294117647e+00 1.53855822285732e-02 1.95834143096611e-04
9.31500000000000e+00 1.52297733421211e-02 1.94348639756140e-04
9.36264705882353e+00 1.50755423230803e-02 1.92871881439781e-04
9.41029411764706e+00 1.49228731924807e-02 1.91403865614030e-04
9.45794117647059e+00 1.47717501331705e-02 1.89944588459569e-04
9.50558823529412e+00 1.46221574881772e-02 1.88494044859530e-04
9.55323529411765e+00 1.44740797592395e-02 1.87052228579810e-04
9.60088235294118e+00 1.43275016047359e-02 1.85619132206527e-04
9.64852941176471e+00 1.41824078385651e-02 1.84194747080748e-04
9.69617647058823e+00 1.40387834284141e-02 1.82779063480486e-04
9.74382352941176e+00 1.38966134942015e-02 1.81372070602837e-04
9.79147058823529e+00 1.37558833065353e-02 1.79973756595253e-04
9.83911764705882e+00 1.36165782851875e-02 1.78584108586188e-04
9.88676470588235e+00 1.34786839975831e-02 1.77203112715099e-04
9.93441176470588e+00 1.33421861573049e-02 1.75830754118754e-04
9.98205882352941e+00 1.32070706227477e-02 1.74467017301340e-04
1.00297058823529e+01 1.30733233945836e-02 1.73111885183513e-04
1.00773529411765e+01 1.29409306175114e-02 1.71765340394745e-04
1.01250000000000e+01 1.28098785737754e-02 1.70427364618343e-04
1.01726470588235e+01 1.26801536871292e-02 1.69097938629254e-04
1.02202941176471e+01 1.25517425162637e-02 1.67777042444069e-04
1.02679411764706e+01 1.24246317584970e-02 1.66464655266429e-04
1.03155882352941e+01 1.22988082433945e-02 1.65160755975827e-04
1.03632352941176e+01 1.21742589351373e-02 1.63865321523625e-04
1.04108823529412e+01 1.20509709310979e-02 1.62578329345356e-04
1.04585294117647e+01 1.19289314569451e-02 1.61299755824052e-04
1.05061764705882e+01 1.18081278700433e-02 1.60029576647385e-04
1.05538235294118e+01 1.16885476534940e-02 1.58767767266289e-04
1.06014705882353e+01 1.15701784183082e-02 1.57514301385262e-04
1.06491176470588e+01 1.14530079020557e-02 1.56269153229213e-04
1.06967647058824e+01 1.13370239642852e-02 1.55032296097675e-04
1.07444117647059e+01 1.12222145896585e-02 1.53803702699513e-04
1.07920588235294e+01 1.11085678823827e-02 1.52583345582813e-04
1.08397058823529e+01 1.09960720682042e-02 1.51371195714387e-04
1.08873529411765e+01 1.08847154931252e-02 1.50167224610464e-04
1.09350000000000e+01 1.07744866191197e-02 1.48971402975457e-04
1.09826470588235e+01 1.06653740270229e-02 1.47783701016332e-04
1.10302941176471e+01 1.05573664113263e-02 1.46604088523909e-04
1.10779411764706e+01 1.04504525829659e-02 1.45432534825891e-04
1.11255882352941e+01 1.03446214642645e-02 1.44269009178705e-04
1.11732352941176e+01 1.02398620906942e-02 1.43113479465455e-04
1.12208823529412e+01 1.01361636096836e-02 1.41965914146279e-04
1.12685294117647e+01 1.00335152767174e-02 1.40826281010329e-04
1.13161764705882e+01 9.93190645790799e-03 1.39694547462402e-04
1.13638235294118e+01 9.83132662526604e-03 1.38570680891003e-04
1.14114705882353e+01 9.73176535831723e-03 1.37454647442068e-04
1.14591176470588e+01 9.63321234297133e-03 1.36346413853296e-04
1.15067647058824e+01 9.53565736786790e-03 1.35245946279120e-04
1.15544117647059e+01 9.43909032675047e-03 1.34153210559689e-04
1.16020588235294e+01 9.34350121403994e-03 1.33068172566275e-04
1.16497058823529e+01 9.24888012632068e-03 1.31990797046664e-04
1.16973529411765e+01 9.15521726126568e-03 1.30921049350728e-04
1.17450000000000e+01 9.06250291421314e-03 1.29858894323467e-04
1.17926470588235e+01 8.97072748035817e-03 1.28804296557863e-04
1.18402941176471e+01 8.87988145060887e-03 1.27757220457895e-04
1.18879411764706e+01 8.78995541370217e-03 1.26717630198436e-04
1.19355882352941e+01 8.70094005217451e-03 1.25685490040606e-04
1.19832352941176e+01 8.61282614367697e-03 1.24660763272369e-04
1.20308823529412e+01 8.52560455997581e-03 1.23643413789990e-04
1.20785294117647e+01 8.43926626382960e-03 1.22633405082106e-04
1.21261764705882e+01 8.35380231094352e-03 1.21630700460661e-04
1.21738235294118e+01 8.26920384619565e-03 1.20635263357405e-04
1.22214705882353e+01 8.18546210484485e-03 1.19647056325553e-04
1.22691176470588e+01 8.10256841158256e-03 1.18666042528245e-04
1.23167647058824e+01 8.02051417760357e-03 1.17692184781483e-04
1.23644117647059e+01 7.93929090241182e-03 1.16725445771045e-04
1.24120588235294e+01 7.85889017028445e-03 1.15765788330999e-04
1.24597058823529e+01 7.77930365138231e-03 1.14813174503165e-04
1.25073529411765e+01 7.70052310084901e-03 1.13867566938312e-04
1.25550000000000e+01 7.62254035606332e-03 1.12928927994019e-04
1.26026470588235e+01 7.54534733830790e-03 1.11997219938772e-04
1.26502941176471e+01 7.46893604945515e-03 1.11072405001075e-04
1.26979411764706e+01 7.39329857357888e-03 1.10154445335405e-04
1.27455882352941e+01 7.31842707372993e-03 1.09243303276883e-04
1.27932352941176e+01 7.24431379291963e-03 1.08338940477466e-04
1.28408823529412e+01 7.17095105328192e-03 1.07441319191468e-04
1.28885294117647e+01 7.09833125356262e-03 1.06550401446885e-04
1.29361764705882e+01 7.02644687060960e-03 1.05666149232034e-04
1.29838235294118e+01 6.95529045634932e-03 1.04788524735168e-04
1.30314705882353e+01 6.88485463869060e-03 1.03917489530049e-04
1.30791176470588e+01 6.81513212072946e-03 1.03053005786633e-04
1.31267647058824e+01 6.74611567839164e-03 1.02195035490007e-04
1.31744117647059e+01 6.67779816181068e-03 1.01343540615825e-04
1.32220588235294e+01 6.61017249249180e-03 1.00498483355570e-04
1.32697058823529e+01 6.54323166414327e-03 9.96598253488936e-05
1.33173529411765e+01 6.47696874192071e-03 9.88275288240010e-05
1.33650000000000e+01 6.41137686021349e-03 9.80015558610522e-05
1.34126470588235e+01 6.34644922391933e-03 9.71818685573588e-05
1.34602941176471e+01 6.28217910578320e-03 9.63684290658482e-05
1.35079411764706e+01 6.21855984762889e-03 9.55611995662716e-05
1.35555882352941e+01 6.15558485776861e-03 9.47601424714162e-05
1.36032352941176e+01 6.09324761173958e-03 9.39652197214948e-05
1.36508823529412e+01 6.03154165160114e-03 9.31763938313498e-05
1.36985294117647e+01 5.97046058390900e-03 9.23936272132996e-05
1.37461764705882e+01 5.90999808085468e-03 9.16168823283679e-05
1.37938235294118e+01 5.85014787783417e-03 9.08461218804335e-05
1.38414705882353e+01 5.79090377412496e-03 9.00813081506545e-05
1.38891176470588e+01 5.73225963221889e-03 8.93224039842535e-05
1.39367647058824e+01 5.67420937591821e-03 8.85693721519639e-05
1.39844117647059e+01 5.61674699139014e-03 8.78221754922770e-05
1.40320588235294e+01 5.55986652488397e-03 8.70807770940974e-05
1.40797058823529e+01 5.50356208335390e-03 8.63451396690857e-05
1.41273529411765e+01 5.44782783382502e-03 8.56152264816306e-05
1.41750000000000e+01 5.39265800160399e-03 8.48910007463972e-05
1.42226470588235e+01 5.33804687125491e-03 8.41724257623387e-05
1.42702941176471e+01 5.28398878445548e-03 8.34594649429508e-05
1.43179411764706e+01 5.23047814094028e-03 8.27520817919851e-05
1.43655882352941e+01 5.17750939641277e-03 8.20502400708103e-05
1.44132352941176e+01 5.12507706309719e-03 8.13539032210659e-05
1.44608823529412e+01 5.07317570914881e-03 8.06630352193510e-05
1.45085294117647e+01 5.02179995701417e-03 7.99776000229692e-05
1.45561764705882e+01 4.97094448430450e-03 7.92975616927478e-05
1.46038235294118e+01 4.92060402183412e-03 7.86228845507210e-05
1.46514705882353e+01 4.87077335412771e-03 7.79535326353054e-05
1.46991176470588e+01 4.82144731886049e-03 7.72894705070601e-05
1.47467647058824e+01 4.77262080531581e-03 7.66306627258169e-05
1.47944117647059e+01 4.72428875519389e-03 7.59770739662719e-05
1.48420588235294e+01 4.67644616076850e-03 7.53286691664113e-05
1.48897058823529e+01 4.62908806535356e-03 7.46854130135087e-05
1.49373529411765e+01 4.58220956277113e-03 7.40472707038586e-05
1.49850000000000e+01 4.53580579590063e-03 7.34142074492732e-05
1.50326470588235e+01 4.48987195742773e-03 7.27861885860272e-05
