Energy (eV)          EEDF (eV^-(3/2))     First Anisotropy
3.30000000000000e-02 4.19680893235313e-01 4.88440795398517e-04
9.90000000000000e-02 4.05432893375168e-01 7.95537921331668e-04
1.65000000000000e-01 3.91668607458887e-01 1.02141391474778e-03
2.31000000000000e-01 3.78371613589909e-01 1.17642492006156e-03
2.97000000000000e-01 3.65526047388571e-01 1.29262633685182e-03
3.63000000000000e-01 3.53116583064613e-01 1.38267478040008e-03
4.29000000000000e-01 3.41128415132275e-01 1.45338408289167e-03
4.95000000000000e-01 3.29547240746167e-01 1.50902118439506e-03
5.61000000000000e-01 3.18359242636828e-01 1.55251188447852e-03
6.27000000000000e-01 3.07551072625613e-01 1.58598775837630e-03
6.93000000000000e-01 2.97109835699248e-01 1.61107041933390e-03
7.59000000000000e-01 2.87023074625046e-01 1.62903400300608e-03
8.25000000000000e-01 2.77278755088428e-01 1.64090484205936e-03
8.91000000000000e-01 2.67865251335021e-01 1.64752605515728e-03
9.57000000000000e-01 2.58771332300203e-01 1.64960127837540e-03
1.02300000000000e+00 2.49986148209538e-01 1.64772536037845e-03
1.08900000000000e+00 2.41499217634134e-01 1.64240656640134e-03
1.15500000000000e+00 2.33300414985446e-01 1.63408305632607e-03
1.22100000000000e+00 2.25379958434650e-01 1.62313538566857e-03
1.28700000000000e+00 2.17728398242126e-01 1.60989617264237e-03
1.35300000000000e+00 2.10336605483169e-01 1.59465770027557e-03
1.41900000000000e+00 2.03195761156444e-01 1.57767798397699e-03
1.48500000000000e+00 1.96297345662216e-01 1.55918567857625e-03
1.55100000000000e+00 1.89633128637779e-01 1.53938409384305e-03
1.61700000000000e+00 1.83195159137979e-01 1.51845451540728e-03
1.68300000000000e+00 1.76975756149094e-01 1.49655897755037e-03
1.74900000000000e+00 1.70967499424773e-01 1.47384259839950e-03
1.81500000000000e+00 1.65163220633085e-01 1.45043556204304e-03
1.88100000000000e+00 1.59555994804123e-01 1.42645481297830e-03
1.94700000000000e+00 1.54139132067964e-01 1.40200551408120e-03
2.01300000000000e+00 1.48906169673114e-01 1.37718230856968e-03
2.07900000000000e+00 1.43850864275930e-01 1.35207041826365e-03
2.14500000000000e+00 1.38967184491807e-01 1.32674660415251e-03
2.21100000000000e+00 1.34249303699257e-01 1.30128001038694e-03
2.27700000000000e+00 1.29691593088280e-01 1.27573290897007e-03
2.34300000000000e+00 1.25288614944742e-01 1.25016135938182e-03
2.40900000000000e+00 1.21035116162748e-01 1.22461579494325e-03
2.47500000000000e+00 1.16926021977265e-01 1.19914154577636e-03
2.54100000000000e+00 1.12956429909518e-01 1.17377930663504e-03
2.60700000000000e+00 1.09121603917943e-01 1.14856555659470e-03
2.67300000000000e+00 1.05416968747709e-01 1.12353293653222e-03
2.73900000000000e+00 1.01838104472072e-01 1.09871058945614e-03
2.80500000000000e+00 9.83807412190455e-02 1.07412446802376e-03
2.87100000000000e+00 9.50407540771060e-02 1.04979761297875e-03
2.93700000000000e+00 9.18141581738387e-02 1.02575040573709e-03
3.00300000000000e+00 8.86971039216670e-02 1.00200079792289e-03
3.06900000000000e+00 8.56858724249857e-02 9.78564520295315e-04
3.13500000000000e+00 8.27768710432202e-02 9.55455273200898e-04
3.20100000000000e+00 7.99666291045183e-02 9.32684900424325e-04
3.26700000000000e+00 7.72517937649607e-02 9.10263548086066e-04
3.33300000000000e+00 7.46291260083491e-02 8.88199810042680e-04
3.39900000000000e+00 7.20954967818007e-02 8.66500861078832e-04
3.46500000000000e+00 6.96478832625366e-02 8.45172579035833e-04
3.53100000000000e+00 6.72833652514124e-02 8.24219656896038e-04
3.59700000000000e+00 6.49991216888864e-02 8.03645705732942e-04
3.66300000000000e+00 6.27924272892693e-02 7.83453349341300e-04
3.72900000000000e+00 6.06606492892401e-02 7.63644311277437e-04
3.79500000000000e+00 5.86012443067480e-02 7.44219494966061e-04
3.86100000000000e+00 5.66117553065542e-02 7.25179057464816e-04
3.92700000000000e+00 5.46898086687918e-02 7.06522477420026e-04
3.99300000000000e+00 5.28331113570466e-02 6.88248617696054e-04
4.05900000000000e+00 5.10394481825813e-02 6.70355783115197e-04
4.12500000000000e+00 4.93066791614376e-02 6.52841773704620e-04
4.19100000000000e+00 4.76327369612638e-02 6.35703933810622e-04
4.25700000000000e+00 4.60156244348213e-02 6.18939197408198e-04
4.32300000000000e+00 4.44534122372284e-02 6.02544129904915e-04
4.38900000000000e+00 4.29442365240967e-02 5.86514966712036e-04
4.45500000000000e+00 4.14862967278155e-02 5.70847648832310e-04
4.52100000000000e+00 4.00778534093302e-02 5.55537855692853e-04
4.58700000000000e+00 3.87172261828524e-02 5.40581035432357e-04
4.65300000000000e+00 3.74027917110245e-02 5.25972432834543e-04
4.71900000000000e+00 3.61329817681485e-02 5.11707115084197e-04
4.78500000000000e+00 3.49062813691665e-02 4.97779995507929e-04
4.85100000000000e+00 3.37212269621626e-02 4.84185855448778e-04
4.91700000000000e+00 3.25764046822280e-02 4.70919364412140e-04
4.98300000000000e+00 3.14704486646066e-02 4.57975098609709e-04
5.04900000000000e+00 3.04020394151090e-02 4.45347558018329e-04
5.11500000000000e+00 2.93699022358504e-02 4.33031182061756e-04
5.18100000000000e+00 2.83728057044332e-02 4.21020364015179e-04
5.24700000000000e+00 2.74095602047621e-02 4.09309464224714e-04
5.31300000000000e+00 2.64790165077362e-02 3.97892822227363e-04
5.37900000000000e+00 2.55800644001267e-02 3.86764767850609e-04
5.44500000000000e+00 2.47116313600038e-02 3.75919631364853e-04
5.51100000000000e+00 2.38726812771314e-02 3.65351752756757e-04
5.57700000000000e+00 2.30622132168054e-02 3.55055490186601e-04
5.64300000000000e+00 2.22792602256575e-02 3.45025227688121e-04
5.70900000000000e+00 2.15228881780030e-02 3.35255382165243e-04
5.77500000000000e+00 2.07921946613535e-02 3.25740409736256e-04
5.84100000000000e+00 2.00863078997666e-02 3.16474811472311e-04
5.90700000000000e+00 1.94043857137477e-02 3.07453138573958e-04
5.97300000000000e+00 1.87456145154615e-02 2.98669997026291e-04
6.03900000000000e+00 1.81092083380574e-02 2.90120051770517e-04
6.10500000000000e+00 1.74944078979474e-02 2.81798030427106e-04
6.17100000000000e+00 1.69004796889203e-02 2.73698726603234e-04
6.23700000000000e+00 1.63267151070097e-02 2.65817002815046e-04
6.30300000000000e+00 1.57724296050728e-02 2.58147793053134e-04
6.36900000000000e+00 1.52369618760709e-02 2.50686105017664e-04
6.43500000000000e+00 1.47196730640768e-02 2.43427022047836e-04
6.50100000000000e+00 1.42199460020687e-02 2.36365704768629e-04
6.56700000000000e+00 1.37371844756005e-02 2.29497392476247e-04
6.63300000000000e+00 1.32708125114699e-02 2.22817404282255e-04
6.69900000000000e+00 1.28202736905363e-02 2.16321140034994e-04
6.76500000000000e+00 1.23850304838685e-02 2.10004081035610e-04
6.83100000000000e+00 1.19645636114290e-02 2.03861790564897e-04
6.89700000000000e+00 1.15583714225319e-02 1.97889914236031e-04
6.96300000000000e+00 1.11659692973327e-02 1.92084180187234e-04
7.02900000000000e+00 1.07868890686389e-02 1.86440399127499e-04
7.09500000000000e+00 1.04206784633482e-02 1.80954464247570e-04
7.16100000000000e+00 1.00669005628506e-02 1.75622351007592e-04
7.22700000000000e+00 9.72513328174991e-03 1.70440116812010e-04
7.29300000000000e+00 9.39496886428155e-03 1.65403900581637e-04
7.35900000000000e+00 9.07601339782744e-03 1.60509922232093e-04
7.42500000000000e+00 8.76788634294665e-03 1.55754482067185e-04
7.49100000000000e+00 8.47022007936133e-03 1.51133960095242e-04
7.55700000000000e+00 8.18265946735623e-03 1.46644815275828e-04
7.62300000000000e+00 7.90486142406858e-03 1.42283584703770e-04
7.68900000000000e+00 7.63649451416274e-03 1.38046882736938e-04
7.75500000000000e+00 7.37723855440120e-03 1.33931400073762e-04
7.82100000000000e+00 7.12678423164042e-03 1.29933902786063e-04
7.88700000000000e+00 6.88483273379535e-03 1.26051231312387e-04
7.95300000000000e+00 6.65109539333273e-03 1.22280299416626e-04
8.01900000000000e+00 6.42529334286756e-03 1.18618093116399e-04
8.08500000000000e+00 6.20715718245193e-03 1.15061669585333e-04
8.15100000000000e+00 5.99642665815930e-03 1.11608156033083e-04
8.21700000000000e+00 5.79285035158074e-03 1.08254748566647e-04
8.28300000000000e+00 5.59618537986254e-03 1.04998711036261e-04
8.34900000000000e+00 5.40619710592757e-03 1.01837373868926e-04
8.41500000000000e+00 5.22265885853436e-03 9.87681328923699e-05
8.48100000000000e+00 5.04535166184022e-03 9.57884481520642e-05
8.54700000000000e+00 4.87406397414544e-03 9.28958427236624e-05
8.61300000000000e+00 4.70859143550711e-03 9.00879015230848e-05
8.67900000000000e+00 4.54873662392134e-03 8.73622701162750e-05
8.74500000000000e+00 4.39430881978293e-03 8.47166535304931e-05
8.81100000000000e+00 4.24512377834167e-03 8.21488150688562e-05
8.87700000000000e+00 4.10100350988350e-03 7.96565751296900e-05
8.94300000000000e+00 3.96177606737458e-03 7.72378100321272e-05
9.00900000000000e+00 3.82727534131466e-03 7.48904508492567e-05
9.07500000000000e+00 3.69734086155514e-03 7.26124822500139e-05
9.14100000000000e+00 3.57181760584531e-03 7.04019413508861e-05
9.20700000000000e+00 3.45055581487837e-03 6.82569165784139e-05
9.27300000000000e+00 3.33341081361661e-03 6.61755465433700e-05
9.33900000000000e+00 3.22024283868245e-03 6.41560189274046e-05
9.40500000000000e+00 3.11091687160954e-03 6.21965693828709e-05
9.47100000000000e+00 3.00530247775491e-03 6.02954804464587e-05
9.53700000000000e+00 2.90327365068000e-03 5.84510804671983e-05
9.60300000000000e+00 2.80470866181483e-03 5.66617425493281e-05
9.66900000000000e+00 2.70948991522610e-03 5.49258835104569e-05
9.73500000000000e+00 2.61750380731581e-03 5.32419628553923e-05
9.80100000000000e+00 2.52864059128303e-03 5.16084817659592e-05
9.86700000000000e+00 2.44279424618723e-03 5.00239821070722e-05
9.93300000000000e+00 2.35986235045671e-03 4.84870454492900e-05
9.99900000000000e+00 2.27974595969154e-03 4.69962921080274e-05
1.00650000000000e+01 2.20234948861491e-03 4.55503801995724e-05
1.01310000000000e+01 2.12758059703223e-03 4.41480047140062e-05
1.01970000000000e+01 2.05535007966191e-03 4.27878966050990e-05
1.02630000000000e+01 1.98557175970628e-03 4.14688218972210e-05
1.03290000000000e+01 1.91816238603576e-03 4.01895808092766e-05
1.03950000000000e+01 1.85304153386362e-03 3.89490068956478e-05
1.04610000000000e+01 1.79013150879272e-03 3.77459662041028e-05
1.05270000000000e+01 1.72935725411989e-03 3.65793564506095e-05
1.05930000000000e+01 1.67064626128726e-03 3.54481062109672e-05
1.06590000000000e+01 1.61392848337375e-03 3.43511741291578e-05
1.07250000000000e+01 1.55913625152345e-03 3.32875481422922e-05
1.07910000000000e+01 1.50620419421128e-03 3.22562447220189e-05
1.08570000000000e+01 1.45506915924951e-03 3.12563081322467e-05
1.09230000000000e+01 1.40567013844212e-03 3.02868097030164e-05
1.09890000000000e+01 1.35794819479716e-03 2.93468471203512e-05
1.10550000000000e+01 1.31184639221017e-03 2.84355437318987e-05
1.11210000000000e+01 1.26730972753485e-03 2.75520478681737e-05
1.11870000000000e+01 1.22428506495992e-03 2.66955321791989e-05
1.12530000000000e+01 1.18272107261379e-03 2.58651929863344e-05
1.13190000000000e+01 1.14256816132157e-03 2.50602496490835e-05
1.13850000000000e+01 1.10377842544118e-03 2.42799439466512e-05
1.14510000000000e+01 1.06630558570809e-03 2.35235394740310e-05
1.15170000000000e+01 1.03010493402045e-03 2.27903210523915e-05
1.15830000000000e+01 9.95133280098707e-04 2.20795941535292e-05
1.16490000000000e+01 9.61348899956201e-04 2.13906843381503e-05
1.17150000000000e+01 9.28711486119053e-04 2.07229367077465e-05
1.17810000000000e+01 8.97182099536138e-04 2.00757153698226e-05
1.18470000000000e+01 8.66723123121669e-04 1.94484029162363e-05
1.19130000000000e+01 8.37298216875002e-04 1.88403999144086e-05
1.19790000000000e+01 8.08872274524103e-04 1.82511244111631e-05
1.20450000000000e+01 7.81411381640946e-04 1.76800114489517e-05
1.21110000000000e+01 7.54882775178886e-04 1.71265125942253e-05
1.21770000000000e+01 7.29254804383714e-04 1.65900954777095e-05
1.22430000000000e+01 7.04496893031775e-04 1.60702433463451e-05
1.23090000000000e+01 6.80579502950078e-04 1.55664546266556e-05
1.23750000000000e+01 6.57474098774888e-04 1.50782424993044e-05
1.24410000000000e+01 6.35153113906752e-04 1.46051344846063e-05
1.25070000000000e+01 6.13589917621332e-04 1.41466720387616e-05
1.25730000000000e+01 5.92758783296821e-04 1.37024101605813e-05
1.26390000000000e+01 5.72634857720016e-04 1.32719170084751e-05
1.27050000000000e+01 5.53194131434445e-04 1.28547735274752e-05
1.27710000000000e+01 5.34413410095158e-04 1.24505730860749e-05
1.28370000000000e+01 5.16270286796020e-04 1.20589211226601e-05
1.29030000000000e+01 4.98743115336467e-04 1.16794348013151e-05
1.29690000000000e+01 4.81810984395863e-04 1.13117426767911e-05
1.30350000000000e+01 4.65453692584610e-04 1.09554843684225e-05
1.31010000000000e+01 4.49651724342274e-04 1.06103102427848e-05
1.31670000000000e+01 4.34386226653960e-04 1.02758811048885e-05
1.32330000000000e+01 4.19638986557146e-04 9.95186789770683e-06
1.32990000000000e+01 4.05392409412167e-04 9.63795140983773e-06
1.33650000000000e+01 3.91629497910395e-04 9.33382199110698e-06
1.34310000000000e+01 3.78333831795087e-04 9.03917927591891e-06
1.34970000000000e+01 3.65489548270705e-04 8.75373191416663e-06
1.35630000000000e+01 3.53081323077327e-04 8.47719730951690e-06
1.36290000000000e+01 3.41094352207576e-04 8.20930136488763e-06
1.36950000000000e+01 3.29514334244254e-04 7.94977823493952e-06
1.37610000000000e+01 3.18327453297605e-04 7.69837008540781e-06
1.38270000000000e+01 3.07520362521850e-04 7.45482685910203e-06
1.38930000000000e+01 2.97080168191329e-04 7.21890604840589e-06
1.39590000000000e+01 2.86994414317255e-04 6.99037247411242e-06
1.40250000000000e+01 2.77251067786720e-04 6.76899807043391e-06
1.40910000000000e+01 2.67838504006226e-04 6.55456167602731e-06
1.41570000000000e+01 2.58745493032611e-04 6.34684883088127e-06
1.42230000000000e+01 2.49961186174834e-04 6.14565157891402e-06
1.42890000000000e+01 2.41475103050607e-04 5.95076827613270e-06
1.43550000000000e+01 2.33277119082466e-04 5.76200340421011e-06
1.44210000000000e+01 2.25357453418337e-04 5.57916738933697e-06
1.44870000000000e+01 2.17706657262191e-04 5.40207642621101e-06
1.45530000000000e+01 2.10315602600879e-04 5.23055230702767e-06
1.46190000000000e+01 2.03175471313678e-04 5.06442225533988e-06
1.46850000000000e+01 1.96277744651564e-04 4.90351876465761e-06
1.47510000000000e+01 1.89614193073664e-04 4.74767944166085e-06
1.48170000000000e+01 1.83176866428755e-04 4.59674685390222e-06
1.48830000000000e+01 1.76958084470093e-04 4.45056838187946e-06
1.49490000000000e+01 1.70950427692265e-04 4.30899607535935e-06
1.50150000000000e+01 1.65146728479124e-04 4.17188651383834e-06
1.50810000000000e+01 1.59540062552248e-04 4.03910067102803e-06
1.51470000000000e+01 1.54123740709721e-04 3.91050378325582e-06
1.52130000000000e+01 1.48891300845379e-04 3.78596522167388e-06
1.52790000000000e+01 1.43836500238998e-04 3.66535836817245e-06
1.53450000000000e+01 1.38953308108232e-04 3.54856049489566e-06
1.54110000000000e+01 1.34235898413400e-04 3.43545264726101e-06
1.54770000000000e+01 1.29678642906561e-04 3.32591953038571e-06
1.55430000000000e+01 1.25276104416556e-04 3.21984939882553e-06
1.56090000000000e+01 1.21023030362032e-04 3.11713394953459e-06
1.56750000000000e+01 1.16914346484689e-04 3.01766821795641e-06
1.57410000000000e+01 1.12945150795284e-04 2.92135047715895e-06
1.58070000000000e+01 1.09110707725164e-04 2.82808213992870e-06
1.58730000000000e+01 1.05406442476353e-04 2.73776766374081e-06
1.59390000000000e+01 1.01827935563453e-04 2.65031445852465e-06
1.60050000000000e+01 9.83709175408408e-05 2.56563279714637e-06
1.60710000000000e+01 9.50312639088799e-05 2.48363572853134e-06
1.61370000000000e+01 9.18049901930597e-05 2.40423899335247e-06
1.62030000000000e+01 8.86882471901991e-05 2.32736094221152e-06
1.62690000000000e+01 8.56773163760382e-05 2.25292245624258e-06
1.63350000000000e+01 8.27686054687408e-05 2.18084687006904e-06
1.64010000000000e+01 7.99586441430139e-05 2.11105989704696e-06
1.64670000000000e+01 7.72440798897322e-05 2.04348955672968e-06
1.65330000000000e+01 7.46216740161251e-05 1.97806610448999e-06
1.65990000000000e+01 7.20882977817569e-05 1.91472196323818e-06
1.66650000000000e+01 6.96409286656889e-05 1.85339165717585e-06
1.67310000000000e+01 6.72766467603693e-05 1.79401174752692e-06
1.67970000000000e+01 6.49926312879494e-05 1.73652077018889e-06
1.68630000000000e+01 6.27861572348698e-05 1.68085917524906e-06
1.69290000000000e+01 6.06545921007005e-05 1.62696926831162e-06
1.69950000000000e+01 5.85953927573568e-05 1.57479515358349e-06
1.70610000000000e+01 5.66061024149440e-05 1.52428267866761e-06
1.71270000000000e+01 5.46843476906096e-05 1.47537938101437e-06
1.71930000000000e+01 5.28278357769077e-05 1.42803443598291e-06
1.72590000000000e+01 5.10343517062957e-05 1.38219860646522e-06
1.73250000000000e+01 4.93017557085005e-05 1.33782419402772e-06
1.73910000000000e+01 4.76279806576011e-05 1.29486499152586e-06
1.74570000000000e+01 4.60110296057815e-05 1.25327623714860e-06
1.75230000000000e+01 4.44489734008120e-05 1.21301456985106e-06
1.75890000000000e+01 4.29399483844161e-05 1.17403798613449e-06
1.76550000000000e+01 4.14821541687762e-05 1.13630579813392e-06
1.77210000000000e+01 4.00738514885272e-05 1.09977859297530e-06
1.77870000000000e+01 3.87133601256734e-05 1.06441819336437e-06
1.78530000000000e+01 3.73990569049534e-05 1.03018761937132e-06
1.79190000000000e+01 3.61293737572620e-05 9.97051051375643e-07
1.79850000000000e+01 3.49027958488185e-05 9.64973794136950e-07
1.80510000000000e+01 3.37178597738480e-05 9.33922241958572e-07
1.81170000000000e+01 3.25731518086211e-05 9.03863844911368e-07
1.81830000000000e+01 3.14673062247684e-05 8.74767076086373e-07
1.82490000000000e+01 3.03990036598570e-05 8.46601399845721e-07
1.83150000000000e+01 2.93669695432850e-05 8.19337241042142e-07
1.83810000000000e+01 2.83699725756172e-05 7.92945955178188e-07
1.84470000000000e+01 2.74068232595457e-05 7.67399799477202e-07
1.85130000000000e+01 2.64763724807243e-05 7.42671904838840e-07
1.85790000000000e+01 2.55775101367832e-05 7.18736248652665e-07
1.86450000000000e+01 2.47091638128876e-05 6.95567628444165e-07
1.87110000000000e+01 2.38702975022611e-05 6.73141636328320e-07
1.87770000000000e+01 2.30599103701464e-05 6.51434634246540e-07
1.88430000000000e+01 2.22770355597292e-05 6.30423729963374e-07
1.89090000000000e+01 2.15207390386006e-05 6.10086753800262e-07
1.89750000000000e+01 2.07901184843813e-05 5.90402236084165e-07
1.90410000000000e+01 2.00843022081792e-05 5.71349385289562e-07
1.91070000000000e+01 1.94024481145941e-05 5.52908066852906e-07
1.91730000000000e+01 1.87437426970307e-05 5.35058782639321e-07
1.92390000000000e+01 1.81074000671199e-05 5.17782651041837e-07
1.93050000000000e+01 1.74926610170910e-05 5.01061387694061e-07
1.93710000000000e+01 1.68987921139760e-05 4.84877286777772e-07
1.94370000000000e+01 1.63250848245654e-05 4.69213202907385e-07
1.95030000000000e+01 1.57708546700709e-05 4.54052533573868e-07
1.95690000000000e+01 1.52354404094876e-05 4.39379202131182e-07
1.96350000000000e+01 1.47182032506805e-05 4.25177641308721e-07
1.97010000000000e+01 1.42185260882542e-05 4.11432777233837e-07
1.97670000000000e+01 1.37358127672968e-05 3.98130013948949e-07
1.98330000000000e+01 1.32694873721190e-05 3.85255218408168e-07
1.98990000000000e+01 1.28189935391407e-05 3.72794705938905e-07
1.99650000000000e+01 1.23837937931050e-05 3.60735226154255e-07
2.00310000000000e+01 1.19633689058264e-05 3.49063949302444e-07
2.00970000000000e+01 1.15572172767106e-05 3.37768453039991e-07
2.01630000000000e+01 1.11648543343043e-05 3.26836709615675e-07
2.02290000000000e+01 1.07858119581631e-05 3.16257073452759e-07
2.02950000000000e+01 1.04196379203457e-05 3.06018269117263e-07
2.03610000000000e+01 1.00658953458704e-05 2.96109379660527e-07
2.04270000000000e+01 9.72416219148744e-06 2.86519835324595e-07
2.04930000000000e+01 9.39403074214831e-06 2.77239402599262e-07
2.05590000000000e+01 9.07510712456852e-06 2.68258173620059e-07
2.06250000000000e+01 8.76701083730541e-06 2.59566555896703e-07
2.06910000000000e+01 8.46937429678934e-06 2.51155262361854e-07
2.07570000000000e+01 8.18184239876709e-06 2.43015301730370e-07
2.08230000000000e+01 7.90407209463397e-06 2.35137969159463e-07
