Energy (eV)          EEDF (eV^-(3/2))     First Anisotropy
4.03125000000000e-03 4.91661613153112e+00 4.42994580011264e-03
1.20937500000000e-02 4.81123082418227e+00 7.26111225160847e-03
2.01562500000000e-02 4.70810440032339e+00 9.44352518090047e-03
2.82187500000000e-02 4.60718844187074e+00 1.10175922751016e-02
3.62812500000000e-02 4.50843556855907e+00 1.22626854841306e-02
4.43437500000000e-02 4.41179941569641e+00 1.32868716264127e-02
5.24062500000000e-02 4.31723461239572e+00 1.41472883482303e-02
6.04687500000000e-02 4.22469676027317e+00 1.48791544081571e-02
6.85312500000000e-02 4.13414241260295e+00 1.55062919186668e-02
7.65937500000000e-02 4.04552905391899e+00 1.60458586222370e-02
8.46562500000000e-02 3.95881508005383e+00 1.65107865336726e-02
9.27187500000000e-02 3.87395977860538e+00 1.69111638167948e-02
1.00781250000000e-01 3.79092330982233e+00 1.72550750216728e-02
1.08843750000000e-01 3.70966668789935e+00 1.75491406673805e-02
1.16906250000000e-01 3.63015176267311e+00 1.77988792323283e-02
1.24968750000000e-01 3.55234120171075e+00 1.80089588665510e-02
1.33031250000000e-01 3.47619847278216e+00 1.81833777487445e-02
1.41093750000000e-01 3.40168782670810e+00 1.83255966509400e-02
1.49156250000000e-01 3.32877428057577e+00 1.84386385369367e-02
1.57218750000000e-01 3.25742360131438e+00 1.85251648363176e-02
1.65281250000000e-01 3.18760228962253e+00 1.85875348459994e-02
1.73343750000000e-01 3.11927756424031e+00 1.86278526858757e-02
1.81406250000000e-01 3.05241734655836e+00 1.86480049131794e-02
1.89468750000000e-01 2.98699024555693e+00 1.86496910161302e-02
1.97531250000000e-01 2.92296554306770e+00 1.86344484032298e-02
2.05593750000000e-01 2.86031317935158e+00 1.86036730835266e-02
2.13656250000000e-01 2.79900373898551e+00 1.85586369345664e-02
2.21718750000000e-01 2.73900843705195e+00 1.85005022395763e-02
2.29781250000000e-01 2.68029910562425e+00 1.84303340181078e-02
2.37843750000000e-01 2.62284818054172e+00 1.83491105578097e-02
2.45906250000000e-01 2.56662868846827e+00 1.82577324675773e-02
2.53968750000000e-01 2.51161423422828e+00 1.81570305060192e-02
2.62031250000000e-01 2.45777898841409e+00 1.80477723883513e-02
2.70093750000000e-01 2.40509767525897e+00 1.79306687354941e-02
2.78156250000000e-01 2.35354556077014e+00 1.78063782984356e-02
2.86218750000000e-01 2.30309844111607e+00 1.76755125667233e-02
2.94281250000000e-01 2.25373263126277e+00 1.75386398507478e-02
3.02343750000000e-01 2.20542495385355e+00 1.73962889121258e-02
3.10406250000000e-01 2.15815272832726e+00 1.72489522041237e-02
3.18468750000000e-01 2.11189376026971e+00 1.70970887740424e-02
3.26531250000000e-01 2.06662633099329e+00 1.69411268713090e-02
3.34593750000000e-01 2.02232918734006e+00 1.67814662983200e-02
3.42656250000000e-01 1.97898153170331e+00 1.66184805355464e-02
3.50718750000000e-01 1.93656301226307e+00 1.64525186678287e-02
3.58781250000000e-01 1.89505371343085e+00 1.62839071349708e-02
3.66843750000000e-01 1.85443414649923e+00 1.61129513265379e-02
3.74906250000000e-01 1.81468524049189e+00 1.59399370380772e-02
3.82968750000000e-01 1.77578833320976e+00 1.57651318037084e-02
3.91031250000000e-01 1.73772516246901e+00 1.55887861181013e-02
3.99093750000000e-01 1.70047785752699e+00 1.54111345592189e-02
4.07156250000000e-01 1.66402893069182e+00 1.52323968217999e-02
4.15218750000000e-01 1.62836126911191e+00 1.50527786703588e-02
4.23281250000000e-01 1.59345812674145e+00 1.48724728194380e-02
4.31343750000000e-01 1.55930311647805e+00 1.46916597479569e-02
4.39406250000000e-01 1.52588020246903e+00 1.45105084537303e-02
4.47468750000000e-01 1.49317369258251e+00 1.43291771535541e-02
4.55531250000000e-01 1.46116823103989e+00 1.41478139336697e-02
4.63593750000000e-01 1.42984879120637e+00 1.39665573549094e-02
4.71656250000000e-01 1.39920066853582e+00 1.37855370163713e-02
4.79718750000000e-01 1.36920947366702e+00 1.36048740810842e-02
4.87781250000000e-01 1.33986112566777e+00 1.34246817667700e-02
4.95843750000000e-01 1.31114184542393e+00 1.32450658045099e-02
5.03906250000000e-01 1.28303814917005e+00 1.30661248678464e-02
5.11968750000000e-01 1.25553684215872e+00 1.28879509746096e-02
5.20031250000000e-01 1.22862501246559e+00 1.27106298635524e-02
5.28093750000000e-01 1.20229002492723e+00 1.25342413476764e-02
5.36156250000000e-01 1.17651951520889e+00 1.23588596459679e-02
5.44218750000000e-01 1.15130138399937e+00 1.21845536951133e-02
5.52281250000000e-01 1.12662379133042e+00 1.20113874426156e-02
5.60343750000000e-01 1.10247515101781e+00 1.18394201226249e-02
5.68406250000000e-01 1.07884412522164e+00 1.16687065156778e-02
5.76468750000000e-01 1.05571961912313e+00 1.14992971934428e-02
5.84531250000000e-01 1.03309077571565e+00 1.13312387494794e-02
5.92593750000000e-01 1.01094697070726e+00 1.11645740169387e-02
6.00656250000000e-01 9.89277807532664e-01 1.09993422740600e-02
6.08718750000000e-01 9.68073112471914e-01 1.08355794382482e-02
6.16781250000000e-01 9.47322929873887e-01 1.06733182494605e-02
6.24843750000000e-01 9.27017517482061e-01 1.05125884435749e-02
6.32906250000000e-01 9.07147341860506e-01 1.03534169163607e-02
6.40968750000000e-01 8.87703073917917e-01 1.01958278786285e-02
6.49031250000000e-01 8.68675584527584e-01 1.00398430030926e-02
6.57093750000000e-01 8.50055940241247e-01 9.88548156344367e-03
6.65156250000000e-01 8.31835399094821e-01 9.73276056609199e-03
6.73218750000000e-01 8.14005406504029e-01 9.58169487501129e-03
6.81281250000000e-01 7.96557591248000e-01 9.43229733008121e-03
6.89343750000000e-01 7.79483761538967e-01 9.28457885930331e-03
6.97406250000000e-01 7.62775901176200e-01 9.13854858523651e-03
7.05468750000000e-01 7.46426165782388e-01 8.99421392597828e-03
7.13531250000000e-01 7.30426879120681e-01 8.85158069099374e-03
7.21593750000000e-01 7.14770529490684e-01 8.71065317207771e-03
7.29656250000000e-01 6.99449766201693e-01 8.57143422971552e-03
7.37718750000000e-01 6.84457396121533e-01 8.43392537509139e-03
7.45781250000000e-01 6.69786380299365e-01 8.29812684797814e-03
7.53843750000000e-01 6.55429830660883e-01 8.16403769072793e-03
7.61906250000000e-01 6.41381006774350e-01 8.03165581857011e-03
7.69968750000000e-01 6.27633312685946e-01 7.90097808640878e-03
7.78031250000000e-01 6.14180293822957e-01 7.77200035230317e-03
7.86093750000000e-01 6.01015633963338e-01 7.64471753780191e-03
7.94156250000000e-01 5.88133152270232e-01 7.51912368529203e-03
8.02218750000000e-01 5.75526800390054e-01 7.39521201251530e-03
8.10281250000000e-01 5.63190659612776e-01 7.27297496439484e-03
8.18343750000000e-01 5.51118938093079e-01 7.15240426230729e-03
8.26406250000000e-01 5.39305968131067e-01 7.03349095092839e-03
8.34468750000000e-01 5.27746203511275e-01 6.91622544277213e-03
8.42531250000000e-01 5.16434216898702e-01 6.80059756053767e-03
8.50593750000000e-01 5.05364697290670e-01 6.68659657737129e-03
8.58656250000000e-01 4.94532447523293e-01 6.57421125514577e-03
8.66718750000000e-01 4.83932381831401e-01 6.46342988085333e-03
8.74781250000000e-01 4.73559523460757e-01 6.35424030120271e-03
8.82843750000000e-01 4.63409002331466e-01 6.24662995550814e-03
8.90906250000000e-01 4.53476052751456e-01 6.14058590695112e-03
8.98968750000000e-01 4.43756011178978e-01 6.03609487229270e-03
9.07031250000000e-01 4.34244314033063e-01 5.93314325011056e-03
9.15093750000000e-01 4.24936495550911e-01 5.83171714763004e-03
9.23156250000000e-01 4.15828185691202e-01 5.73180240621557e-03
9.31218750000000e-01 4.06915108082357e-01 5.63338462558594e-03
9.39281250000000e-01 3.98193078014767e-01 5.53644918681279e-03
9.47343750000000e-01 3.89658000476069e-01 5.44098127415954e-03
9.55406250000000e-01 3.81305868228522e-01 5.34696589581399e-03
9.63468750000000e-01 3.73132759927603e-01 5.25438790356682e-03
9.71531250000000e-01 3.65134838280928e-01 5.16323201148448e-03
9.79593750000000e-01 3.57308348246633e-01 5.07348281362314e-03
9.87656250000000e-01 3.49649615270376e-01 4.98512480082771e-03
9.95718750000000e-01 3.42155043560122e-01 4.89814237665824e-03
1.00378125000000e+00 3.34821114397914e-01 4.81251987248359e-03
1.01184375000000e+00 3.27644384487824e-01 4.72824156178084e-03
1.01990625000000e+00 3.20621484339322e-01 4.64529167367662e-03
1.02796875000000e+00 3.13749116685289e-01 4.56365440576542e-03
1.03603125000000e+00 3.07024054933945e-01 4.48331393623764e-03
1.04409375000000e+00 3.00443141653957e-01 4.40425443534852e-03
1.05215625000000e+00 2.94003287092017e-01 4.32646007625925e-03
1.06021875000000e+00 2.87701467722195e-01 4.24991504527760e-03
1.06828125000000e+00 2.81534724826391e-01 4.17460355152619e-03
1.07634375000000e+00 2.75500163105205e-01 4.10050983606446e-03
1.08440625000000e+00 2.69594949318592e-01 4.02761818048902e-03
1.09246875000000e+00 2.63816310955646e-01 3.95591291503635e-03
1.10053125000000e+00 2.58161534932904e-01 3.88537842621061e-03
1.10859375000000e+00 2.52627966320544e-01 3.81599916395810e-03
1.11665625000000e+00 2.47213007095890e-01 3.74775964840929e-03
1.12471875000000e+00 2.41914114923637e-01 3.68064447620815e-03
1.13278125000000e+00 2.36728801962214e-01 3.61463832644758e-03
1.14084375000000e+00 2.31654633695744e-01 3.54972596622905e-03
1.14890625000000e+00 2.26689227791028e-01 3.48589225586396e-03
1.15696875000000e+00 2.21830252979034e-01 3.42312215373298e-03
1.16503125000000e+00 2.17075427960367e-01 3.36140072081937e-03
1.17309375000000e+00 2.12422520334185e-01 3.30071312493092e-03
1.18115625000000e+00 2.07869345550090e-01 3.24104464462548e-03
1.18921875000000e+00 2.03413765882473e-01 3.18238067285370e-03
1.19728125000000e+00 1.99053689426848e-01 3.12470672033211e-03
1.20534375000000e+00 1.94787069117694e-01 3.06800841865903e-03
1.21340625000000e+00 1.90611901767363e-01 3.01227152318564e-03
1.22146875000000e+00 1.86526227125568e-01 2.95748191565372e-03
1.22953125000000e+00 1.82528126959050e-01 2.90362560661092e-03
1.23759375000000e+00 1.78615724150955e-01 2.85068873761425e-03
1.24565625000000e+00 1.74787181819532e-01 2.79865758323200e-03
1.25371875000000e+00 1.71040702455708e-01 2.74751855285353e-03
1.26178125000000e+00 1.67374527079151e-01 2.69725819231638e-03
1.26984375000000e+00 1.63786934412434e-01 2.64786318535953e-03
1.27790625000000e+00 1.60276240072880e-01 2.59932035491116e-03
1.28596875000000e+00 1.56840795781751e-01 2.55161666421918e-03
1.29403125000000e+00 1.53478988590370e-01 2.50473921783220e-03
1.30209375000000e+00 1.50189240122841e-01 2.45867526243824e-03
1.31015625000000e+00 1.46970005834998e-01 2.41341218756877e-03
1.31821875000000e+00 1.43819774289240e-01 2.36893752617428e-03
1.32628125000000e+00 1.40737066444904e-01 2.32523895507817e-03
1.33434375000000e+00 1.37720434963852e-01 2.28230429531528e-03
1.34240625000000e+00 1.34768463530948e-01 2.24012151236090e-03
1.35046875000000e+00 1.31879766189089e-01 2.19867871625595e-03
1.35853125000000e+00 1.29052986688498e-01 2.15796416163379e-03
1.36659375000000e+00 1.26286797849962e-01 2.11796624765399e-03
1.37465625000000e+00 1.23579900941716e-01 2.07867351784800e-03
1.38271875000000e+00 1.20931025069687e-01 2.04007465988147e-03
1.39078125000000e+00 1.18338926580808e-01 2.00215850523767e-03
1.39884375000000e+00 1.15802388479119e-01 1.96491402882672e-03
1.40690625000000e+00 1.13320219854382e-01 1.92833034852464e-03
1.41496875000000e+00 1.10891255322950e-01 1.89239672464599e-03
1.42303125000000e+00 1.08514354480616e-01 1.85710255935444e-03
1.43109375000000e+00 1.06188401367188e-01 1.82243739601448e-03
1.43915625000000e+00 1.03912303942547e-01 1.78839091848794e-03
1.44721875000000e+00 1.01684993573929e-01 1.75495295037879e-03
1.45528125000000e+00 9.95054245341993e-02 1.72211345422920e-03
1.46334375000000e+00 9.73725735108852e-02 1.68986253067010e-03
1.47140625000000e+00 9.52854391257236e-02 1.65819041752898e-03
1.47946875000000e+00 9.32430414645147e-02 1.62708748889802e-03
1.48753125000000e+00 9.12444216170493e-02 1.59654425416503e-03
1.49559375000000e+00 8.92886412268983e-02 1.56655135700963e-03
1.50365625000000e+00 8.73747820508524e-02 1.53709957436731e-03
1.51171875000000e+00 8.55019455278047e-02 1.50817981536376e-03
1.51978125000000e+00 8.36692523568745e-02 1.47978312022144e-03
1.52784375000000e+00 8.18758420845736e-02 1.45190065914073e-03
1.53590625000000e+00 8.01208727008214e-02 1.42452373115764e-03
1.54396875000000e+00 7.84035202436190e-02 1.39764376297983e-03
1.55203125000000e+00 7.67229784121980e-02 1.37125230780317e-03
1.56009375000000e+00 7.50784581884596e-02 1.34534104411022e-03
1.56815625000000e+00 7.34691874665295e-02 1.31990177445248e-03
1.57621875000000e+00 7.18944106902525e-02 1.29492642421810e-03
1.58428125000000e+00 7.03533884984566e-02 1.27040704038637e-03
1.59234375000000e+00 6.88453973778220e-02 1.24633579027054e-03
1.60040625000000e+00 6.73697293231895e-02 1.22270496025046e-03
1.60846875000000e+00 6.59256915051510e-02 1.19950695449619e-03
1.61653125000000e+00 6.45126059447640e-02 1.17673429368395e-03
1.62459375000000e+00 6.31298091952393e-02 1.15437961370545e-03
1.63265625000000e+00 6.17766520304516e-02 1.13243566437198e-03
1.64071875000000e+00 6.04524991401256e-02 1.11089530811419e-03
1.64878125000000e+00 5.91567288315570e-02 1.08975151867855e-03
1.65684375000000e+00 5.78887327377265e-02 1.06899737982149e-03
1.66490625000000e+00 5.66479155316697e-02 1.04862608400230e-03
1.67296875000000e+00 5.54336946469699e-02 1.02863093107541e-03
1.68103125000000e+00 5.42455000042422e-02 1.00900532698305e-03
1.68909375000000e+00 5.30827737434797e-02 9.89742782449123e-04
1.69715625000000e+00 5.19449699621368e-02 9.70836911674841e-04
1.70521875000000e+00 5.08315544588272e-02 9.52281431037025e-04
1.71328125000000e+00 4.97420044825151e-02 9.34070157789660e-04
1.72134375000000e+00 4.86758084870819e-02 9.16197008769284e-04
1.72940625000000e+00 4.76324658911550e-02 8.98655999104917e-04
1.73746875000000e+00 4.66114868430829e-02 8.81441240933032e-04
1.74553125000000e+00 4.56123919909495e-02 8.64546942118113e-04
1.75359375000000e+00 4.46347122575167e-02 8.47967404979277e-04
1.76165625000000e+00 4.36779886199921e-02 8.31697025023447e-04
1.76971875000000e+00 4.27417718945166e-02 8.15730289685587e-04
1.77778125000000e+00 4.18256225252713e-02 8.00061777076265e-04
1.78584375000000e+00 4.09291103781057e-02 7.84686154737074e-04
1.79390625000000e+00 4.00518145385881e-02 7.69598178404217e-04
1.80196875000000e+00 3.91933231143857e-02 7.54792690780590e-04
1.81003125000000e+00 3.83532330418804e-02 7.40264620316708e-04
1.81809375000000e+00 3.75311498969291e-02 7.26008980000709e-04
1.82615625000000e+00 3.67266877096811e-02 7.12020866157864e-04
1.83421875000000e+00 3.59394687833640e-02 6.98295457259644e-04
1.84228125000000e+00 3.51691235169546e-02 6.84828012742741e-04
1.85034375000000e+00 3.44152902316504e-02 6.71613871838184e-04
1.85840625000000e+00 3.36776150010603e-02 6.58648452410752e-04
1.86646875000000e+00 3.29557514850355e-02 6.45927249808932e-04
1.87453125000000e+00 3.22493607670622e-02 6.33445835725531e-04
1.88259375000000e+00 3.15581111951394e-02 6.21199857069091e-04
1.89065625000000e+00 3.08816782260676e-02 6.09185034846285e-04
1.89871875000000e+00 3.02197442730749e-02 5.97397163055441e-04
1.90678125000000e+00 2.95719985567097e-02 5.85832107591189e-04
1.91484375000000e+00 2.89381369589287e-02 5.74485805160493e-04
1.92290625000000e+00 2.83178618803128e-02 5.63354262210018e-04
1.93096875000000e+00 2.77108821003437e-02 5.52433553864978e-04
1.93903125000000e+00 2.71169126406752e-02 5.41719822879553e-04
1.94709375000000e+00 2.65356746313352e-02 5.31209278598859e-04
1.95515625000000e+00 2.59668951797956e-02 5.20898195932555e-04
1.96321875000000e+00 2.54103072428486e-02 5.10782914340140e-04
1.97128125000000e+00 2.48656495012296e-02 5.00859836827941e-04
1.97934375000000e+00 2.43326662369268e-02 4.91125428957825e-04
1.98740625000000e+00 2.38111072131214e-02 4.81576217867637e-04
1.99546875000000e+00 2.33007275567008e-02 4.72208791303361e-04
2.00353125000000e+00 2.28012876432899e-02 4.63019796663029e-04
2.01159375000000e+00 2.23125529847471e-02 4.54005940052327e-04
2.01965625000000e+00 2.18342941190718e-02 4.45163985351926e-04
2.02771875000000e+00 2.13662865026709e-02 4.36490753296477e-04
2.03578125000000e+00 2.09083104049358e-02 4.27983120565245e-04
2.04384375000000e+00 2.04601508050779e-02 4.19638018884370e-04
2.05190625000000e+00 2.00215972911760e-02 4.11452434140713e-04
2.05996875000000e+00 1.95924439613875e-02 4.03423405507183e-04
2.06803125000000e+00 1.91724893272769e-02 3.95548024579587e-04
2.07609375000000e+00 1.87615362192169e-02 3.87823434524879e-04
2.08415625000000e+00 1.83593916938161e-02 3.80246829240785e-04
2.09221875000000e+00 1.79658669433326e-02 3.72815452526741e-04
2.10028125000000e+00 1.75807772070273e-02 3.65526597266037e-04
2.10834375000000e+00 1.72039416844194e-02 3.58377604619163e-04
2.11640625000000e+00 1.68351834503993e-02 3.51365863228208e-04
2.12446875000000e+00 1.64743293721623e-02 3.44488808432316e-04
2.13253125000000e+00 1.61212100279224e-02 3.37743921494074e-04
2.14059375000000e+00 1.57756596273681e-02 3.31128728836737e-04
2.14865625000000e+00 1.54375159338238e-02 3.24640801292266e-04
2.15671875000000e+00 1.51066201880791e-02 3.18277753360034e-04
2.16478125000000e+00 1.47828170338511e-02 3.12037242476115e-04
2.17284375000000e+00 1.44659544448444e-02 3.05916968293116e-04
2.18090625000000e+00 1.41558836533741e-02 2.99914671970436e-04
2.18896875000000e+00 1.38524590805194e-02 2.94028135474812e-04
2.19703125000000e+00 1.35555382677736e-02 2.88255180891132e-04
2.20509375000000e+00 1.32649818101599e-02 2.82593669743370e-04
2.21315625000000e+00 1.29806532907804e-02 2.77041502325560e-04
2.22121875000000e+00 1.27024192167675e-02 2.71596617042723e-04
2.22928125000000e+00 1.24301489566096e-02 2.66256989761608e-04
2.23734375000000e+00 1.21637146788186e-02 2.61020633171187e-04
2.24540625000000e+00 1.19029912919132e-02 2.55885596152799e-04
2.25346875000000e+00 1.16478563856877e-02 2.50849963159814e-04
2.26153125000000e+00 1.13981901737407e-02 2.45911853606727e-04
2.26959375000000e+00 1.11538754372347e-02 2.41069421267610e-04
2.27765625000000e+00 1.09147974698616e-02 2.36320853683762e-04
2.28571875000000e+00 1.06808440239883e-02 2.31664371580483e-04
2.29378125000000e+00 1.04519052579556e-02 2.27098228292880e-04
2.30184375000000e+00 1.02278736845075e-02 2.22620709200580e-04
2.30990625000000e+00 1.00086441203260e-02 2.18230131171264e-04
2.31796875000000e+00 9.79411363664677e-03 2.13924842012885e-04
2.32603125000000e+00 9.58418151093437e-03 2.09703219934501e-04
2.33409375000000e+00 9.37874917959246e-03 2.05563673015594e-04
2.34215625000000e+00 9.17772019168811e-03 2.01504638683785e-04
2.35021875000000e+00 8.98100016366786e-03 1.97524583200846e-04
2.35828125000000e+00 8.78849673504440e-03 1.93622001156884e-04
2.36634375000000e+00 8.60011952503318e-03 1.89795414972596e-04
2.37440625000000e+00 8.41578009011836e-03 1.86043374409522e-04
2.38246875000000e+00 8.23539188252844e-03 1.82364456088159e-04
2.39053125000000e+00 8.05887020960186e-03 1.78757263013845e-04
2.39859375000000e+00 7.88613219402362e-03 1.75220424110313e-04
2.40665625000000e+00 7.71709673491420e-03 1.71752593760815e-04
2.41471875000000e+00 7.55168446975250e-03 1.68352451356712e-04
2.42278125000000e+00 7.38981773711498e-03 1.65018700853424e-04
2.43084375000000e+00 7.23142054021346e-03 1.61750070333657e-04
2.43890625000000e+00 7.07641851121442e-03 1.58545311577788e-04
2.44696875000000e+00 6.92473887632319e-03 1.55403199641328e-04
2.45503125000000e+00 6.77631042161643e-03 1.52322532439333e-04
2.46309375000000e+00 6.63106345960710e-03 1.49302130337707e-04
2.47115625000000e+00 6.48892979652600e-03 1.46340835751297e-04
2.47921875000000e+00 6.34984270030463e-03 1.43437512748635e-04
2.48728125000000e+00 6.21373686924438e-03 1.40591046663285e-04
2.49534375000000e+00 6.08054840135719e-03 1.37800343711686e-04
2.50340625000000e+00 5.95021476436346e-03 1.35064330617377e-04
2.51146875000000e+00 5.82267476633298e-03 1.32381954241554e-04
2.51953125000000e+00 5.69786852695523e-03 1.29752181219822e-04
2.52759375000000e+00 5.57573744942538e-03 1.27173997605070e-04
2.53565625000000e+00 5.45622419293299e-03 1.24646408516393e-04
2.54371875000000e+00 5.33927264574040e-03 1.22168437793954e-04
