Energy (eV)          EEDF (eV^-(3/2))     First Anisotropy
1.51515151515152e-03 6.15226750846844e-01 4.61994798798041e-08
4.54545454545455e-03 6.15226713741941e-01 1.38388680942629e-07
7.57575757575758e-03 6.15226622341800e-01 3.32837537652424e-07
1.06060606060606e-02 6.15226474076094e-01 5.78426214317764e-07
1.36363636363636e-02 6.15226269958940e-01 8.62657828044169e-07
1.66666666666667e-02 6.15226010095806e-01 1.16605622736594e-06
1.96969696969697e-02 6.15225702054657e-01 1.47044401283269e-06
2.27272727272727e-02 6.15225350636264e-01 1.77926317539737e-06
2.57575757575758e-02 6.15224958406718e-01 2.09852813607329e-06
2.87878787878788e-02 6.15224525870855e-01 2.42988236791158e-06
3.18181818181818e-02 6.15224054081302e-01 2.76313965262256e-06
3.48484848484849e-02 6.15223546664988e-01 3.10175919723379e-06
3.78787878787879e-02 6.15223002658769e-01 3.45724151227467e-06
4.09090909090909e-02 6.15222421405469e-01 3.83271535664459e-06
4.39393939393939e-02 6.15221800972672e-01 4.23141126811074e-06
4.69696969696970e-02 6.15221139837548e-01 4.65153302401275e-06
5.00000000000000e-02 6.15220436798522e-01 5.08375610259255e-06
5.30303030303030e-02 6.15219693143597e-01 5.51866539386547e-06
5.60606060606061e-02 6.15218910204585e-01 5.96392675270182e-06
5.90909090909091e-02 6.15218086862674e-01 6.42805914413388e-06
6.21212121212121e-02 6.15217222060394e-01 6.91130039119364e-06
6.51515151515152e-02 6.15216314686669e-01 7.41453617166656e-06
6.81818181818182e-02 6.15215363524564e-01 7.93826607934892e-06
7.12121212121212e-02 6.15214367408180e-01 8.45991141834791e-06
7.42424242424242e-02 6.15213330755509e-01 8.97520594455943e-06
7.72727272727273e-02 6.15212253190420e-01 9.50562929266026e-06
8.03030303030303e-02 6.15211133753133e-01 1.00537290993083e-05
8.33333333333333e-02 6.15209971493512e-01 1.06198266255057e-05
8.63636363636364e-02 6.15208765428175e-01 1.12042232757971e-05
8.93939393939394e-02 6.15207514586891e-01 1.18068617202698e-05
9.24242424242424e-02 6.15206218043371e-01 1.24276918342258e-05
9.54545454545455e-02 6.15204874878285e-01 1.30669114768227e-05
9.84848484848485e-02 6.15203484159396e-01 1.37246952263980e-05
1.01515151515152e-01 6.15202044965003e-01 1.43683389883793e-05
1.04545454545455e-01 6.15200563277927e-01 1.49940901383857e-05
1.07575757575758e-01 6.15199038718718e-01 1.56317377212530e-05
1.10606060606061e-01 6.15197470903004e-01 1.62813340856036e-05
1.13636363636364e-01 6.15195859440133e-01 1.69429395896230e-05
1.16666666666667e-01 6.15194203933653e-01 1.76166133764647e-05
1.19696969696970e-01 6.15192503981736e-01 1.83024135861800e-05
1.22727272727273e-01 6.15190759177534e-01 1.90003975338688e-05
1.25757575757576e-01 6.15188969109491e-01 1.97106218659397e-05
1.28787878787879e-01 6.15187133361614e-01 2.04331426899665e-05
1.31818181818182e-01 6.15185251513708e-01 2.11680156846904e-05
1.34848484848485e-01 6.15183323141576e-01 2.19152962048642e-05
1.37878787878788e-01 6.15181347817198e-01 2.26750393588717e-05
1.40909090909091e-01 6.15179325108887e-01 2.34473000862878e-05
1.43939393939394e-01 6.15177254581420e-01 2.42321332141332e-05
1.46969696969697e-01 6.15175135796159e-01 2.50295935083260e-05
1.50000000000000e-01 6.15172968311150e-01 2.58397357327541e-05
1.53030303030303e-01 6.15170751681216e-01 2.66626146748495e-05
1.56060606060606e-01 6.15168485458031e-01 2.74982851810973e-05
1.59090909090909e-01 6.15166169190194e-01 2.83468021889498e-05
1.62121212121212e-01 6.15163802423282e-01 2.92082207455430e-05
1.65151515151515e-01 6.15161384699906e-01 3.00825960277597e-05
1.68181818181818e-01 6.15158915559759e-01 3.09699833537065e-05
1.71212121212121e-01 6.15156394539652e-01 3.18704374534959e-05
1.74242424242424e-01 6.15153821173669e-01 3.27840082972291e-05
1.77272727272727e-01 6.15151194993860e-01 3.37107316988562e-05
1.80303030303030e-01 6.15148515531846e-01 3.46506023110935e-05
1.83333333333333e-01 6.15145782323654e-01 3.56035346946345e-05
1.86363636363636e-01 6.15142994917144e-01 3.65693089240458e-05
1.89393939393939e-01 6.15140152884805e-01 3.75475558643356e-05
1.92424242424242e-01 6.15137255832693e-01 3.85378252541498e-05
1.95454545454545e-01 6.15134303402082e-01 3.95397048476132e-05
1.98484848484848e-01 6.15131295260004e-01 4.05529432983982e-05
2.01515151515152e-01 6.15128231082803e-01 4.15112139633662e-05
2.04545454545455e-01 6.15125121049562e-01 4.24116064341891e-05
2.07575757575758e-01 6.15121965114410e-01 4.33181164097733e-05
2.10606060606061e-01 6.15118763230674e-01 4.42306998039696e-05
2.13636363636364e-01 6.15115515351211e-01 4.51493118416914e-05
2.16666666666667e-01 6.15112221428347e-01 4.60739095622925e-05
2.19696969696970e-01 6.15108881413835e-01 4.70044517217339e-05
2.22727272727273e-01 6.15105495258807e-01 4.79408987223314e-05
2.25757575757576e-01 6.15102062913737e-01 4.88832125611539e-05
2.28787878787879e-01 6.15098584328402e-01 4.98313567686540e-05
2.31818181818182e-01 6.15095059451852e-01 5.07852963466532e-05
2.34848484848485e-01 6.15091488232371e-01 5.17449977120638e-05
2.37878787878788e-01 6.15087870617458e-01 5.27104286562354e-05
2.40909090909091e-01 6.15084206553791e-01 5.36815582898297e-05
2.43939393939394e-01 6.15080495987212e-01 5.46583569986383e-05
2.46969696969697e-01 6.15076738862696e-01 5.56407964001431e-05
2.50000000000000e-01 6.15072935124335e-01 5.66288493000061e-05
2.53030303030303e-01 6.15069084715320e-01 5.76224896550757e-05
2.56060606060606e-01 6.15065187577920e-01 5.86216925348316e-05
2.59090909090909e-01 6.15061243653466e-01 5.96264340770153e-05
2.62121212121212e-01 6.15057252882342e-01 6.06366914623746e-05
2.65151515151515e-01 6.15053215203963e-01 6.16524428788484e-05
2.68181818181818e-01 6.15049130556769e-01 6.26736674809998e-05
2.71212121212121e-01 6.15044998878212e-01 6.37003451220050e-05
2.74242424242424e-01 6.15040820104779e-01 6.47324549706472e-05
2.77272727272727e-01 6.15036594172154e-01 6.57699724482015e-05
2.80303030303030e-01 6.15032321015639e-01 6.68128604428177e-05
2.83333333333333e-01 6.15028000571437e-01 6.78610566020314e-05
2.86363636363636e-01 6.15023632778665e-01 6.89144550204463e-05
2.89393939393939e-01 6.15019217582908e-01 6.99729018495841e-05
2.92424242424242e-01 6.15014754938646e-01 7.10362189324788e-05
2.95454545454545e-01 6.15010244809652e-01 7.21042434130091e-05
2.98484848484848e-01 6.15005687166331e-01 7.31768683242389e-05
3.01515151515152e-01 6.15001081981084e-01 7.42420779318146e-05
3.04545454545455e-01 6.14996431290815e-01 7.53733369894688e-05
3.07575757575758e-01 6.14991725949706e-01 7.66530320190881e-05
3.10606060606061e-01 6.14986957341628e-01 7.80745654023272e-05
3.13636363636364e-01 6.14982117354281e-01 7.96315825950532e-05
3.16666666666667e-01 6.14977198354858e-01 8.13179607592910e-05
3.19696969696970e-01 6.14972193166974e-01 8.31277992608768e-05
3.22727272727273e-01 6.14967095048795e-01 8.50554106165348e-05
3.25757575757576e-01 6.14961897672291e-01 8.70953118826926e-05
3.28787878787879e-01 6.14956595103548e-01 8.92422164368397e-05
3.31818181818182e-01 6.14951181784083e-01 9.14910261356012e-05
3.34848484848485e-01 6.14945652513105e-01 9.38368238406371e-05
3.37878787878788e-01 6.14940002430660e-01 9.62748662687744e-05
3.40909090909091e-01 6.14934227001624e-01 9.88005771659815e-05
3.43939393939394e-01 6.14928322000491e-01 1.01409540782791e-04
3.46969696969697e-01 6.14922283496907e-01 1.04097495626999e-04
3.50000000000000e-01 6.14916107841924e-01 1.06860328501066e-04
3.53030303030303e-01 6.14909791654922e-01 1.09694068792009e-04
3.56060606060606e-01 6.14903331811163e-01 1.12594882999083e-04
3.59090909090909e-01 6.14896725429958e-01 1.15559069501900e-04
3.62121212121212e-01 6.14889969863398e-01 1.18583053547162e-04
3.65151515151515e-01 6.14883062685630e-01 1.21663382434203e-04
3.68181818181818e-01 6.14876001682642e-01 1.24796720905197e-04
3.71212121212121e-01 6.14868784842540e-01 1.27979846615192e-04
3.74242424242424e-01 6.14861410346295e-01 1.31209645238280e-04
3.77272727272727e-01 6.14853876558998e-01 1.34483104869241e-04
3.80303030303030e-01 6.14846182021631e-01 1.37797307621937e-04
3.83333333333333e-01 6.14838325443641e-01 1.41149419567987e-04
3.86363636363636e-01 6.14830305696194e-01 1.44536678764148e-04
3.89393939393939e-01 6.14822121806400e-01 1.47956389796327e-04
3.92424242424242e-01 6.14813772951434e-01 1.51405931934531e-04
3.95454545454545e-01 6.14805258452074e-01 1.54882777360946e-04
3.98484848484848e-01 6.14796577765004e-01 1.58384508378668e-04
4.01515151515151e-01 6.14787730474728e-01 1.61844616387534e-04
4.04545454545455e-01 6.14778724736529e-01 1.65344808255596e-04
4.07575757575758e-01 6.14769551163212e-01 1.69028071788910e-04
4.10606060606061e-01 6.14760200914010e-01 1.72886128704887e-04
4.13636363636364e-01 6.14750665669996e-01 1.76911002728830e-04
4.16666666666667e-01 6.14740937610560e-01 1.81095009211052e-04
4.19696969696970e-01 6.14731009390900e-01 1.85430745182772e-04
4.22727272727273e-01 6.14720874120486e-01 1.89911079776299e-04
4.25757575757576e-01 6.14710525342435e-01 1.94529145004019e-04
4.28787878787879e-01 6.14699957013780e-01 1.99278326920265e-04
4.31818181818182e-01 6.14689163486566e-01 2.04152257095020e-04
4.34848484848485e-01 6.14678139489747e-01 2.09144804389010e-04
4.37878787878788e-01 6.14666880111857e-01 2.14250067058150e-04
4.40909090909091e-01 6.14655380784399e-01 2.19462365124804e-04
4.43939393939394e-01 6.14643637265940e-01 2.24776233031851e-04
4.46969696969697e-01 6.14631645626863e-01 2.30186412562313e-04
4.50000000000000e-01 6.14619402234770e-01 2.35687846006098e-04
4.53030303030303e-01 6.14606903740473e-01 2.41275669582804e-04
4.56060606060606e-01 6.14594147064588e-01 2.46945207099237e-04
4.59090909090909e-01 6.14581129384669e-01 2.52691963819103e-04
4.62121212121212e-01 6.14567848122880e-01 2.58511620558609e-04
4.65151515151515e-01 6.14554300934176e-01 2.64400028003180e-04
4.68181818181818e-01 6.14540485694969e-01 2.70353201205676e-04
4.71212121212121e-01 6.14526400492258e-01 2.76367314195711e-04
4.74242424242424e-01 6.14512043613219e-01 2.82438694473189e-04
4.77272727272727e-01 6.14497413535244e-01 2.88563817169206e-04
4.80303030303030e-01 6.14482508916460e-01 2.94739297677066e-04
4.83333333333333e-01 6.14467328586840e-01 3.00961883305548e-04
4.86363636363636e-01 6.14451871539866e-01 3.07228443272983e-04
4.89393939393939e-01 6.14436136924940e-01 3.13535964018084e-04
4.92424242424242e-01 6.14420124039756e-01 3.19881553591600e-04
4.95454545454545e-01 6.14403832322468e-01 3.26262450219658e-04
4.98484848484848e-01 6.14387261343391e-01 3.32676029372762e-04
5.01515151515151e-01 6.14370410796692e-01 3.39047565136333e-04
5.04545454545455e-01 6.14353288789970e-01 3.45387826299671e-04
5.07575757575758e-01 6.14335893933593e-01 3.51778915460651e-04
5.10606060606061e-01 6.14318225054440e-01 3.58216642222398e-04
5.13636363636364e-01 6.14300281186328e-01 3.64696962766616e-04
5.16666666666667e-01 6.14282061560677e-01 3.71215976622277e-04
5.19696969696970e-01 6.14263565597541e-01 3.77769922570358e-04
5.22727272727273e-01 6.14244792896951e-01 3.84355174675379e-04
5.25757575757576e-01 6.14225743230588e-01 3.90968238423307e-04
5.28787878787879e-01 6.14206416533759e-01 3.97605746995753e-04
5.31818181818182e-01 6.14186812897666e-01 4.04264457660752e-04
5.34848484848485e-01 6.14166932561958e-01 4.10941248248368e-04
5.37878787878788e-01 6.14146775907560e-01 4.17633113751647e-04
5.40909090909091e-01 6.14126343449761e-01 4.24337163018453e-04
5.43939393939394e-01 6.14105635831557e-01 4.31050615533307e-04
5.46969696969697e-01 6.14084653817232e-01 4.37770798306522e-04
5.50000000000000e-01 6.14063398286186e-01 4.44495142844311e-04
5.53030303030303e-01 6.14041870226973e-01 4.51221182212121e-04
5.56060606060606e-01 6.14020070731571e-01 4.57946548165349e-04
5.59090909090909e-01 6.13998000989856e-01 4.64668968383622e-04
5.62121212121212e-01 6.13975662284274e-01 4.71386263774386e-04
5.65151515151515e-01 6.13953055984717e-01 4.78096345846923e-04
5.68181818181818e-01 6.13930183543582e-01 4.84797214174497e-04
5.71212121212121e-01 6.13907046491007e-01 4.91486953867383e-04
5.74242424242424e-01 6.13883646430300e-01 4.98163732893675e-04
5.77272727272727e-01 6.13859985033541e-01 5.04825799086736e-04
5.80303030303030e-01 6.13836064037403e-01 5.11471476062247e-04
5.83333333333333e-01 6.13811885239254e-01 5.18099158364725e-04
5.86363636363636e-01 6.13787450493537e-01 5.24707306486599e-04
5.89393939393939e-01 6.13762761708434e-01 5.31294444844086e-04
5.92424242424242e-01 6.13737820842507e-01 5.37859163919517e-04
5.95454545454545e-01 6.13712629901216e-01 5.44400128168280e-04
5.98484848484849e-01 6.13687190932840e-01 5.50916081503070e-04
6.01515151515152e-01 6.13661506024574e-01 5.57639184323733e-04
6.04545454545454e-01 6.13635555693005e-01 5.65022043145504e-04
6.07575757575758e-01 6.13609300311427e-01 5.73265950540076e-04
6.10606060606061e-01 6.13582702210726e-01 5.82334445512703e-04
6.13636363636364e-01 6.13555725605503e-01 5.92192256098677e-04
6.16666666666667e-01 6.13528336522976e-01 6.02805260571773e-04
6.19696969696970e-01 6.13500502734493e-01 6.14140450796926e-04
6.22727272727273e-01 6.13472193689538e-01 6.26165896853875e-04
6.25757575757576e-01 6.13443380452155e-01 6.38850712783628e-04
6.28787878787879e-01 6.13414035639678e-01 6.52165023454833e-04
6.31818181818182e-01 6.13384133363703e-01 6.66079932504240e-04
6.34848484848485e-01 6.13353649173201e-01 6.80567491275206e-04
6.37878787878788e-01 6.13322559999707e-01 6.95600668721344e-04
6.40909090909091e-01 6.13290844104502e-01 7.11153322282654e-04
6.43939393939394e-01 6.13258481027717e-01 7.27200169655415e-04
6.46969696969697e-01 6.13225451539291e-01 7.43716761442869e-04
6.50000000000000e-01 6.13191737591715e-01 7.60679454683765e-04
6.53030303030303e-01 6.13157322274491e-01 7.78065387182842e-04
6.56060606060606e-01 6.13122189770256e-01 7.95852452649906e-04
6.59090909090909e-01 6.13086325312499e-01 8.14019276612303e-04
6.62121212121212e-01 6.13049715144824e-01 8.32545193083009e-04
6.65151515151515e-01 6.13012346481691e-01 8.51410221946743e-04
6.68181818181818e-01 6.12974207470594e-01 8.70595047031944e-04
6.71212121212121e-01 6.12935287155618e-01 8.90080994828705e-04
6.74242424242424e-01 6.12895575442332e-01 9.09850013702790e-04
6.77272727272727e-01 6.12855063063978e-01 9.29884653476002e-04
6.80303030303030e-01 6.12813741548929e-01 9.50168044806401e-04
6.83333333333333e-01 6.12771603189426e-01 9.70683878586702e-04
6.86363636363636e-01 6.12728641011555e-01 9.91416384777836e-04
6.89393939393939e-01 6.12684848746517e-01 1.01235031515790e-03
6.92424242424242e-01 6.12640220802729e-01 1.03347093373851e-03
6.95454545454545e-01 6.12594752238468e-01 1.05476400428639e-03
6.98484848484848e-01 6.12548438735662e-01 1.07621577745574e-03
7.01515151515152e-01 6.12501276574210e-01 1.09766260941950e-03
7.04545454545455e-01 6.12453276652364e-01 1.11941376695826e-03
7.07575757575758e-01 6.12404408489246e-01 1.14238523637733e-03
7.10606060606061e-01 6.12354602967046e-01 1.16699309038240e-03
7.13636363636364e-01 6.12303794258167e-01 1.19317039625101e-03
7.16666666666667e-01 6.12251919720585e-01 1.22085202824776e-03
7.19696969696970e-01 6.12198919796355e-01 1.24997462131905e-03
7.22727272727273e-01 6.12144737913164e-01 1.28047652603301e-03
7.25757575757576e-01 6.12089320388839e-01 1.31229776474283e-03
7.28787878787879e-01 6.12032616338716e-01 1.34537998888042e-03
7.31818181818182e-01 6.11974577585783e-01 1.37966643731067e-03
7.34848484848485e-01 6.11915158573517e-01 1.41510189568801e-03
7.37878787878788e-01 6.11854316281339e-01 1.45163265677732e-03
7.40909090909091e-01 6.11792010142603e-01 1.48920648174551e-03
7.43939393939394e-01 6.11728201965053e-01 1.52777256233009e-03
7.46969696969697e-01 6.11662855853676e-01 1.56728148390922e-03
7.50000000000000e-01 6.11595938135878e-01 1.60768518946109e-03
7.53030303030303e-01 6.11527417288917e-01 1.64893694434495e-03
7.56060606060606e-01 6.11457263869536e-01 1.69099130193786e-03
7.59090909090909e-01 6.11385450445717e-01 1.73380407003642e-03
7.62121212121212e-01 6.11311951530512e-01 1.77733227809132e-03
7.65151515151515e-01 6.11236743517880e-01 1.82153414519950e-03
7.68181818181818e-01 6.11159804620478e-01 1.86636904880129e-03
7.71212121212121e-01 6.11081114809348e-01 1.91179749409385e-03
7.74242424242424e-01 6.11000655755455e-01 1.95778108399394e-03
7.77272727272727e-01 6.10918410773023e-01 2.00428248954135e-03
7.80303030303030e-01 6.10834364764647e-01 2.05126541983179e-03
7.83333333333333e-01 6.10748504168202e-01 2.09869459200380e-03
7.86363636363636e-01 6.10660816905487e-01 2.14653570200337e-03
7.89393939393939e-01 6.10571292332548e-01 2.19475539844918e-03
7.92424242424242e-01 6.10479921191423e-01 2.24332126157803e-03
7.95454545454545e-01 6.10386695563067e-01 2.29220178960669e-03
7.98484848484848e-01 6.10291608820981e-01 2.34136638060332e-03
8.01515151515152e-01 6.10194655586467e-01 2.39072218408478e-03
8.04545454545455e-01 6.10095836855167e-01 2.43998290846628e-03
8.07575757575758e-01 6.09995170636073e-01 2.48880371657278e-03
8.10606060606061e-01 6.09892685941146e-01 2.53704962466553e-03
8.13636363636364e-01 6.09788411516473e-01 2.58472332292008e-03
8.16666666666667e-01 6.09682375842290e-01 2.63182756342300e-03
8.19696969696970e-01 6.09574607132904e-01 2.67836516201111e-03
8.22727272727273e-01 6.09465133336520e-01 2.72433899987198e-03
8.25757575757576e-01 6.09353982135008e-01 2.76975202490782e-03
8.28787878787879e-01 6.09241180943592e-01 2.81460725289816e-03
8.31818181818182e-01 6.09126756910480e-01 2.85890776847673e-03
8.34848484848485e-01 6.09010736916455e-01 2.90265672599859e-03
8.37878787878788e-01 6.08893147574408e-01 2.94585735024072e-03
8.40909090909091e-01 6.08774015228841e-01 2.98851293696308e-03
8.43939393939394e-01 6.08653365955330e-01 3.03062685336568e-03
8.46969696969697e-01 6.08531225559969e-01 3.07220253844584e-03
8.50000000000000e-01 6.08407619578785e-01 3.11324350321546e-03
8.53030303030303e-01 6.08282573277131e-01 3.15375333082800e-03
8.56060606060606e-01 6.08156111649075e-01 3.19373567665878e-03
8.59090909090909e-01 6.08028259416771e-01 3.23319426821910e-03
8.62121212121212e-01 6.07899041029820e-01 3.27213290503385e-03
8.65151515151515e-01 6.07768480664637e-01 3.31055545846657e-03
8.68181818181818e-01 6.07636602223812e-01 3.34846587144162e-03
8.71212121212121e-01 6.07503429335469e-01 3.38586815805107e-03
8.74242424242424e-01 6.07368985352641e-01 3.42276640299843e-03
8.77272727272727e-01 6.07233293352658e-01 3.45916476065312e-03
8.80303030303030e-01 6.07096376136583e-01 3.49506745341399e-03
8.83333333333333e-01 6.06958256228718e-01 3.53047876906709e-03
8.86363636363636e-01 6.06818955876246e-01 3.56540305970615e-03
8.89393939393939e-01 6.06678497048798e-01 3.59984474365728e-03
8.92424242424242e-01 6.06536901437887e-01 3.63380830518523e-03
8.95454545454546e-01 6.06394190456491e-01 3.66729830694179e-03
8.98484848484848e-01 6.06250385237321e-01 3.70031938410257e-03
9.01515151515151e-01 6.06105506632949e-01 3.73307146087731e-03
9.04545454545455e-01 6.05959560006687e-01 3.76592193216184e-03
9.07575757575758e-01 6.05812537502678e-01 3.79901349930620e-03
9.10606060606061e-01 6.05664433392891e-01 3.83231403872789e-03
9.13636363636364e-01 6.05515242355610e-01 3.86581357578614e-03
9.16666666666667e-01 6.05364959466779e-01 3.89950229940035e-03
9.19696969696970e-01 6.05213580191415e-01 3.93337056212856e-03
9.22727272727273e-01 6.05061100375084e-01 3.96740888017870e-03
9.25757575757576e-01 6.04907516235464e-01 4.00160793338995e-03
9.28787878787879e-01 6.04752824353959e-01 4.03595856517153e-03
9.31818181818182e-01 6.04597021667405e-01 4.07045178231821e-03
9.34848484848485e-01 6.04440105459838e-01 4.10507875475523e-03
9.37878787878788e-01 6.04282073354346e-01 4.13983081523885e-03
9.40909090909091e-01 6.04122923305001e-01 4.17469945896158e-03
9.43939393939394e-01 6.03962653588864e-01 4.20967634307221e-03
9.46969696969697e-01 6.03801262798086e-01 4.24475328616245e-03
9.50000000000000e-01 6.03638749832076e-01 4.27992226764923e-03
9.53030303030303e-01 6.03475113889769e-01 4.31517542711047e-03
9.56060606060606e-01 6.03310354461973e-01 4.35050506358322e-03
