Energy (eV)          EEDF (eV^-(3/2))     First Anisotropy
3.94827586206897e-04 2.32665325071283e+01 1.02989895538116e-02
1.18448275862069e-03 2.31285154843378e+01 1.70133130180614e-02
1.97413793103448e-03 2.29913171784905e+01 2.24774006981855e-02
2.76379310344828e-03 2.28549327323000e+01 2.66394248905244e-02
3.55344827586207e-03 2.27193573185236e+01 3.01196513781582e-02
4.34310344827586e-03 2.25845861378877e+01 3.31522717257794e-02
5.13275862068966e-03 2.24506144196592e+01 3.58583220126208e-02
5.92241379310345e-03 2.23174374212295e+01 3.83107991628754e-02
6.71206896551724e-03 2.21850504285343e+01 4.05580549730671e-02
7.50172413793103e-03 2.20534487552432e+01 4.26342206338606e-02
8.29137931034483e-03 2.19226277428341e+01 4.45645302127827e-02
9.08103448275862e-03 2.17925827603048e+01 4.63683102753012e-02
9.87068965517241e-03 2.16633092043759e+01 4.80607814618744e-02
1.06603448275862e-02 2.15348024993193e+01 4.96542051755628e-02
1.14500000000000e-02 2.14070580954999e+01 5.11586457063760e-02
1.22396551724138e-02 2.12800714709736e+01 5.25824953847733e-02
1.30293103448276e-02 2.11538381306185e+01 5.39328474756238e-02
1.38189655172414e-02 2.10283536067491e+01 5.52157677918734e-02
1.46086206896552e-02 2.09036134566163e+01 5.64364965865257e-02
1.53982758620690e-02 2.07796132646064e+01 5.75996015909184e-02
1.61879310344828e-02 2.06563486419378e+01 5.87090965347815e-02
1.69775862068966e-02 2.05338152245832e+01 5.97685334441992e-02
1.77672413793103e-02 2.04120086750485e+01 6.07810758652088e-02
1.85568965517241e-02 2.02909246815635e+01 6.17495578282438e-02
1.93465517241379e-02 2.01705589584561e+01 6.26765316712658e-02
2.01362068965517e-02 2.00509072444308e+01 6.35643070237106e-02
2.09258620689655e-02 1.99319653039946e+01 6.44149829991707e-02
2.17155172413793e-02 1.98137289267806e+01 6.52304752001381e-02
2.25051724137931e-02 1.96961939278320e+01 6.60125383772149e-02
2.32948275862069e-02 1.95793561461397e+01 6.67627854071866e-02
2.40844827586207e-02 1.94632114458157e+01 6.74827033751985e-02
2.48741379310345e-02 1.93477557158912e+01 6.81736677115220e-02
2.56637931034483e-02 1.92329848690138e+01 6.88369539892302e-02
2.64534482758621e-02 1.91188948424644e+01 6.94737481517984e-02
2.72431034482759e-02 1.90054815976224e+01 7.00851555594751e-02
2.80327586206897e-02 1.88927411201567e+01 7.06722088796765e-02
2.88224137931034e-02 1.87806694188813e+01 7.12358748563796e-02
2.96120689655172e-02 1.86692625266202e+01 7.17770602557693e-02
3.04017241379310e-02 1.85585164997327e+01 7.22966172680169e-02
3.11913793103448e-02 1.84484274182618e+01 7.27953482908493e-02
3.19810344827586e-02 1.83389913849170e+01 7.32740100470710e-02
3.27706896551724e-02 1.82302045258205e+01 7.37333172156960e-02
3.35603448275862e-02 1.81220629903391e+01 7.41739459885642e-02
3.43500000000000e-02 1.80145629501508e+01 7.45965369654080e-02
3.51396551724138e-02 1.79077005999098e+01 7.50016977843786e-02
3.59293103448276e-02 1.78014721568433e+01 7.53900056281016e-02
3.67189655172414e-02 1.76958738608539e+01 7.57620094862588e-02
3.75086206896552e-02 1.75909019736746e+01 7.61182320865705e-02
3.82982758620690e-02 1.74865527794513e+01 7.64591716126999e-02
3.90879310344828e-02 1.73828225845891e+01 7.67853035414345e-02
3.98775862068965e-02 1.72797077169690e+01 7.70970820548341e-02
4.06672413793103e-02 1.71772045264735e+01 7.73949413552486e-02
4.14568965517241e-02 1.70753093846369e+01 7.76792969882627e-02
4.22465517241379e-02 1.69740186847136e+01 7.79505470531320e-02
4.30362068965517e-02 1.68733288409596e+01 7.82090732081754e-02
4.38258620689655e-02 1.67732362890991e+01 7.84552415913739e-02
4.46155172413793e-02 1.66737374859997e+01 7.86894037818432e-02
4.54051724137931e-02 1.65748289097249e+01 7.89118976844173e-02
4.61948275862069e-02 1.64765070588722e+01 7.91230482462502e-02
4.69844827586207e-02 1.63787684529886e+01 7.93231680907924e-02
4.77741379310345e-02 1.62816096324331e+01 7.95125583379394e-02
4.85637931034483e-02 1.61850271577550e+01 7.96915091406281e-02
4.93534482758621e-02 1.60890176100733e+01 7.98603002051857e-02
5.01431034482759e-02 1.59935775907874e+01 8.00192013775006e-02
5.09327586206897e-02 1.58987037216093e+01 8.01684731863450e-02
5.17224137931034e-02 1.58043926439858e+01 8.03083672585832e-02
5.25120689655172e-02 1.57106410194397e+01 8.04391267034981e-02
5.33017241379310e-02 1.56174455292979e+01 8.05609865691069e-02
5.40913793103448e-02 1.55248028747132e+01 8.06741742663719e-02
5.48810344827586e-02 1.54327097761264e+01 8.07789098791821e-02
5.56706896551724e-02 1.53411629735731e+01 8.08754064302203e-02
5.64603448275862e-02 1.52501592265586e+01 8.09638703309645e-02
5.72500000000000e-02 1.51596953135474e+01 8.10445016096883e-02
5.80396551724138e-02 1.50697680322465e+01 8.11174941449633e-02
5.88293103448276e-02 1.49803741993585e+01 8.11830359737383e-02
5.96189655172414e-02 1.48915106505910e+01 8.12413095788176e-02
6.04086206896552e-02 1.48031742401782e+01 8.12924920801342e-02
6.11982758620690e-02 1.47153618411372e+01 8.13367553925724e-02
6.19879310344828e-02 1.46280703451485e+01 8.13742665581786e-02
6.27775862068966e-02 1.45412966621022e+01 8.14051878816853e-02
6.35672413793103e-02 1.44550377203340e+01 8.14296770764636e-02
6.43568965517241e-02 1.43692904664003e+01 8.14478874833377e-02
6.51465517241379e-02 1.42840518650771e+01 8.14599682752152e-02
6.59362068965517e-02 1.41993188989316e+01 8.14660645778793e-02
6.67258620689655e-02 1.41150885685380e+01 8.14663175821666e-02
6.75155172413793e-02 1.40313578922627e+01 8.14608647277324e-02
6.83051724137931e-02 1.39481239062583e+01 8.14498398749753e-02
6.90948275862069e-02 1.38653836640600e+01 8.14333733982822e-02
6.98844827586207e-02 1.37831342367811e+01 8.14115922549896e-02
7.06741379310345e-02 1.37013727130029e+01 8.13846202118521e-02
7.14637931034483e-02 1.36200961983890e+01 8.13525779035288e-02
7.22534482758621e-02 1.35393018158667e+01 8.13155829039642e-02
7.30431034482759e-02 1.34589867054302e+01 8.12737498655740e-02
7.38327586206897e-02 1.33791480241266e+01 8.12271906494879e-02
7.46224137931034e-02 1.32997829456917e+01 8.11760143851505e-02
7.54120689655172e-02 1.32208886607146e+01 8.11203275252845e-02
7.62017241379310e-02 1.31424623764502e+01 8.10602339665752e-02
7.69913793103448e-02 1.30645013168020e+01 8.09958351625726e-02
7.77810344827586e-02 1.29870027219762e+01 8.09272301695441e-02
7.85706896551724e-02 1.29099638486330e+01 8.08545156730846e-02
7.93603448275862e-02 1.28333819697839e+01 8.07777861558218e-02
8.01500000000000e-02 1.27572543744605e+01 8.06971339186766e-02
8.09396551724138e-02 1.26815783678544e+01 8.06126491152454e-02
8.17293103448276e-02 1.26063512711426e+01 8.05244198478345e-02
8.25189655172414e-02 1.25315704214666e+01 8.04325322571706e-02
8.33086206896552e-02 1.24572331716163e+01 8.03370705510054e-02
8.40982758620690e-02 1.23833368901589e+01 8.02381170156180e-02
8.48879310344828e-02 1.23098789613411e+01 8.01357521585677e-02
8.56775862068966e-02 1.22368567847860e+01 8.00300547165933e-02
8.64672413793103e-02 1.21642677756125e+01 7.99211016763492e-02
8.72568965517241e-02 1.20921093642731e+01 7.98089683527005e-02
8.80465517241379e-02 1.20203789965285e+01 7.96937284618283e-02
8.88362068965517e-02 1.19490741331592e+01 7.95754541382263e-02
8.96258620689655e-02 1.18781922500743e+01 7.94542159495391e-02
9.04155172413793e-02 1.18077308381562e+01 7.93300829670786e-02
9.12051724137931e-02 1.17376874032333e+01 7.92031228315568e-02
9.19948275862069e-02 1.16680594658048e+01 7.90734017650802e-02
9.27844827586207e-02 1.15988445611405e+01 7.89409845685242e-02
9.35741379310345e-02 1.15300402391908e+01 7.88059347366207e-02
9.43637931034483e-02 1.14616440643204e+01 7.86683144534334e-02
9.51534482758621e-02 1.13936536154020e+01 7.85281845997268e-02
9.59431034482759e-02 1.13260664856705e+01 7.83856048123192e-02
9.67327586206897e-02 1.12588802826938e+01 7.82406335393586e-02
9.75224137931034e-02 1.11920926281190e+01 7.80933280459067e-02
9.83120689655172e-02 1.11257011577580e+01 7.79437444180551e-02
9.91017241379310e-02 1.10597035214473e+01 7.77919376172295e-02
9.98913793103448e-02 1.09940973830176e+01 7.76379615424268e-02
1.00681034482759e-01 1.09288804199986e+01 7.74818689743861e-02
1.01470689655172e-01 1.08640503239591e+01 7.73237116479152e-02
1.02260344827586e-01 1.07996048000020e+01 7.71635403365536e-02
1.03050000000000e-01 1.07355415668440e+01 7.70014048928681e-02
1.03839655172414e-01 1.06718583562411e+01 7.68373539699554e-02
1.04629310344828e-01 1.06085529143991e+01 7.66714352710284e-02
1.05418965517241e-01 1.05456230003924e+01 7.65036958006230e-02
1.06208620689655e-01 1.04830663865878e+01 7.63341815400073e-02
1.06998275862069e-01 1.04208808585667e+01 7.61629375837747e-02
1.07787931034483e-01 1.03590642150469e+01 7.59900082659051e-02
1.08577586206897e-01 1.02976142673489e+01 7.58154368601052e-02
1.09367241379310e-01 1.02365288406939e+01 7.56392658127114e-02
1.10156896551724e-01 1.01758057727419e+01 7.54615369773701e-02
1.10946551724138e-01 1.01154429139790e+01 7.52822913065259e-02
1.11736206896552e-01 1.00554381276431e+01 7.51015689781552e-02
1.12525862068966e-01 9.99578928964732e+00 7.49194095127439e-02
1.13315517241379e-01 9.93649428808406e+00 7.47358514882711e-02
1.14105172413793e-01 9.87755102442159e+00 7.45509327581079e-02
1.14894827586207e-01 9.81895741214953e+00 7.43646906708260e-02
1.15684482758621e-01 9.76071137713400e+00 7.41771617770526e-02
1.16474137931034e-01 9.70281085754567e+00 7.39883820428067e-02
1.17263793103448e-01 9.64525380339071e+00 7.37983865762439e-02
1.18053448275862e-01 9.58803817763216e+00 7.36072098342980e-02
1.18843103448276e-01 9.53116195491575e+00 7.34148858313321e-02
1.19632758620690e-01 9.47462312190151e+00 7.32214478582099e-02
1.20422413793103e-01 9.41841967719224e+00 7.30269285935573e-02
1.21212068965517e-01 9.36254963126363e+00 7.28313602065052e-02
1.22001724137931e-01 9.30701100602674e+00 7.26347740968647e-02
1.22791379310345e-01 9.25180183586482e+00 7.24372010892351e-02
1.23581034482759e-01 9.19692016644944e+00 7.22386716291562e-02
1.24370689655172e-01 9.14236405504510e+00 7.20392155161736e-02
1.25160344827586e-01 9.08813157044050e+00 7.18388620079633e-02
1.25950000000000e-01 9.03422079288068e+00 7.16376399165018e-02
1.26739655172414e-01 8.98062981365842e+00 7.14355773610524e-02
1.27529310344828e-01 8.92735673607420e+00 7.12327019507837e-02
1.28318965517241e-01 8.87439967433471e+00 7.10290409694615e-02
1.29108620689655e-01 8.82175675383290e+00 7.08246211217995e-02
1.29898275862069e-01 8.76942611108203e+00 7.06194686311362e-02
1.30687931034483e-01 8.71740589364980e+00 7.04136093296435e-02
1.31477586206897e-01 8.66569425977621e+00 7.02070684234532e-02
1.32267241379310e-01 8.61428937926357e+00 6.99998706647481e-02
1.33056896551724e-01 8.56318943245026e+00 6.97920405258996e-02
1.33846551724138e-01 8.51239261046856e+00 6.95836019584223e-02
1.34636206896552e-01 8.46189711518127e+00 6.93745784847413e-02
1.35425862068966e-01 8.41170115911785e+00 6.91649932829932e-02
1.36215517241379e-01 8.36180296511650e+00 6.89548689636651e-02
1.37005172413793e-01 8.31220076715057e+00 6.87442277319716e-02
1.37794827586207e-01 8.26289280937098e+00 6.85330915522597e-02
1.38584482758621e-01 8.21387734634397e+00 6.83214819188686e-02
1.39374137931034e-01 8.16515264299013e+00 6.81094200158820e-02
1.40163793103448e-01 8.11671697424441e+00 6.78969265029150e-02
1.40953448275862e-01 8.06856862583481e+00 6.76840216700505e-02
1.41743103448276e-01 8.02070589337656e+00 6.74707255948144e-02
1.42532758620690e-01 7.97312708259525e+00 6.72570579224224e-02
1.43322413793103e-01 7.92583050926673e+00 6.70430379479156e-02
1.44112068965517e-01 7.87881449915796e+00 6.68286846920798e-02
1.44901724137931e-01 7.83207738770795e+00 6.66140166976579e-02
1.45691379310345e-01 7.78561752075228e+00 6.63990521758293e-02
1.46481034482759e-01 7.73943325367616e+00 6.61838091546946e-02
1.47270689655172e-01 7.69352295162052e+00 6.59683052702865e-02
1.48060344827586e-01 7.64788498942425e+00 6.57525578440897e-02
1.48850000000000e-01 7.60251775156692e+00 6.55365839546812e-02
1.49639655172414e-01 7.55741963186894e+00 6.53204002438334e-02
1.50429310344828e-01 7.51258903416650e+00 6.51040230551370e-02
1.51218965517241e-01 7.46802437151873e+00 6.48874685745684e-02
1.52008620689655e-01 7.42372406639831e+00 6.46707526316957e-02
1.52798275862069e-01 7.37968655063593e+00 6.44538907729010e-02
1.53587931034483e-01 7.33591026536478e+00 6.42368983290979e-02
1.54377586206897e-01 7.29239366073859e+00 6.40197902311745e-02
1.55167241379310e-01 7.24913519656093e+00 6.38025811412795e-02
1.55956896551724e-01 7.20613334154233e+00 6.35852855860511e-02
1.56746551724138e-01 7.16338657347672e+00 6.33679177674302e-02
1.57536206896552e-01 7.12089337918793e+00 6.31504916319001e-02
1.58325862068966e-01 7.07865225447603e+00 6.29330209345558e-02
1.59115517241379e-01 7.03666170385187e+00 6.27155190634175e-02
1.59905172413793e-01 6.99492024112443e+00 6.24979991638636e-02
1.60694827586207e-01 6.95342638870401e+00 6.22804742649482e-02
1.61484482758621e-01 6.91217867776575e+00 6.20629570993411e-02
1.62274137931034e-01 6.87117564819812e+00 6.18454602260999e-02
1.63063793103448e-01 6.83041584834985e+00 6.16279958620206e-02
1.63853448275862e-01 6.78989783558556e+00 6.14105760007776e-02
1.64643103448276e-01 6.74962017562403e+00 6.11932125339009e-02
1.65432758620690e-01 6.70958144269212e+00 6.09759170779209e-02
1.66222413793103e-01 6.66978021947429e+00 6.07587010369771e-02
1.67012068965517e-01 6.63021509706270e+00 6.05415756607454e-02
1.67801724137931e-01 6.59088467471861e+00 6.03245518837859e-02
1.68591379310345e-01 6.55178756039181e+00 6.01076404386125e-02
1.69381034482759e-01 6.51292237009892e+00 5.98908519705584e-02
1.70170689655172e-01 6.47428772806629e+00 5.96741968731537e-02
1.70960344827586e-01 6.43588226668131e+00 5.94576853474854e-02
1.71750000000000e-01 6.39770462644421e+00 5.92413274571219e-02
1.72539655172414e-01 6.35975345574288e+00 5.90251329750600e-02
1.73329310344828e-01 6.32202741133883e+00 5.88091114911101e-02
1.74118965517241e-01 6.28452515778267e+00 5.85932725209870e-02
1.74908620689655e-01 6.24724536754681e+00 5.83776253494923e-02
1.75698275862069e-01 6.21018672097860e+00 5.81621790868512e-02
1.76487931034483e-01 6.17334790625365e+00 5.79469427208284e-02
1.77277586206897e-01 6.13672761916326e+00 5.77319249708570e-02
1.78067241379310e-01 6.10032456356935e+00 5.75171343900711e-02
1.78856896551724e-01 6.06413745085454e+00 5.73025794690142e-02
1.79646551724138e-01 6.02816500004538e+00 5.70882684861966e-02
1.80436206896552e-01 5.99240593776728e+00 5.68742095615666e-02
1.81225862068966e-01 5.95685899819936e+00 5.66604107060117e-02
1.82015517241379e-01 5.92152292287355e+00 5.64468796823216e-02
1.82805172413793e-01 5.88639646110086e+00 5.62336241021646e-02
1.83594827586207e-01 5.85147836945360e+00 5.60206515247082e-02
1.84384482758621e-01 5.81676741187988e+00 5.58079693141937e-02
1.85174137931034e-01 5.78226235966029e+00 5.55955847357962e-02
1.85963793103448e-01 5.74796199121578e+00 5.53835048220167e-02
1.86753448275862e-01 5.71386509251217e+00 5.51717364657381e-02
1.87543103448276e-01 5.67997045656684e+00 5.49602865148660e-02
1.88332758620690e-01 5.64627688355699e+00 5.47491616354550e-02
1.89122413793103e-01 5.61278318077707e+00 5.45383683603546e-02
1.89912068965517e-01 5.57948816259679e+00 5.43279131342402e-02
1.90701724137931e-01 5.54639065027946e+00 5.41178021861864e-02
1.91491379310345e-01 5.51348947236136e+00 5.39080416182123e-02
1.92281034482759e-01 5.48078346418676e+00 5.36986374953507e-02
1.93070689655172e-01 5.44827146800859e+00 5.34895957151224e-02
1.93860344827586e-01 5.41595233294755e+00 5.32809220537839e-02
1.94650000000000e-01 5.38382491495143e+00 5.30726222091759e-02
1.95439655172414e-01 5.35188807662316e+00 5.28647016791677e-02
1.96229310344828e-01 5.32014068757693e+00 5.26571658459176e-02
1.97018965517241e-01 5.28858162399953e+00 5.24500200616422e-02
1.97808620689655e-01 5.25720976874416e+00 5.22432695241178e-02
1.98598275862069e-01 5.22602401129094e+00 5.20369193206765e-02
1.99387931034483e-01 5.19502324770766e+00 5.18309744689676e-02
2.00177586206897e-01 5.16420638048691e+00 5.16254398009849e-02
2.00967241379310e-01 5.13357231888052e+00 5.14203200433104e-02
2.01756896551724e-01 5.10311997848554e+00 5.12156198987943e-02
2.02546551724138e-01 5.07284828133161e+00 5.10113439277734e-02
2.03336206896552e-01 5.04275615584296e+00 5.08074965899507e-02
2.04125862068966e-01 5.01284253680046e+00 5.06040822832007e-02
2.04915517241379e-01 4.98310636518721e+00 5.04011052328801e-02
2.05705172413793e-01 4.95354658850292e+00 5.01985695682742e-02
2.06494827586207e-01 4.92416216037284e+00 4.99964794004199e-02
2.07284482758621e-01 4.89495204062922e+00 4.97948387087573e-02
2.08074137931034e-01 4.86591519527469e+00 4.95936514167886e-02
2.08863793103448e-01 4.83705059633440e+00 4.93929212856124e-02
2.09653448275862e-01 4.80835722215496e+00 4.91926519873845e-02
2.10443103448276e-01 4.77983405703105e+00 4.89928471801229e-02
2.11232758620690e-01 4.75148009128252e+00 4.87935103986646e-02
2.12022413793103e-01 4.72329432121860e+00 4.85946450929253e-02
2.12812068965517e-01 4.69527574910246e+00 4.83962546633562e-02
2.13601724137931e-01 4.66742338301103e+00 4.81983423593002e-02
2.14391379310345e-01 4.63973623711612e+00 4.80009113490020e-02
2.15181034482759e-01 4.61221333133154e+00 4.78039647909247e-02
2.15970689655172e-01 4.58485369138489e+00 4.76075057296534e-02
2.16760344827586e-01 4.55765634878317e+00 4.74115371323501e-02
2.17550000000000e-01 4.53062034077854e+00 4.72160619225394e-02
2.18339655172414e-01 4.50374471023521e+00 4.70210828830462e-02
2.19129310344828e-01 4.47702850589410e+00 4.68266027227605e-02
2.19918965517241e-01 4.45047078203896e+00 4.66326241446299e-02
2.20708620689655e-01 4.42407059856351e+00 4.64391497462632e-02
2.21498275862069e-01 4.39782702093819e+00 4.62461820546851e-02
2.22287931034483e-01 4.37173912017711e+00 4.60537235585425e-02
2.23077586206897e-01 4.34580597271170e+00 4.58617766153979e-02
2.23867241379310e-01 4.32002666063983e+00 4.56703435154043e-02
2.24656896551724e-01 4.29440027140995e+00 4.54794265461591e-02
2.25446551724138e-01 4.26892589788372e+00 4.52890278977853e-02
2.26236206896552e-01 4.24360263830399e+00 4.50991496960611e-02
2.27025862068966e-01 4.21842959626284e+00 4.49097940331278e-02
2.27815517241379e-01 4.19340588058161e+00 4.47209628789411e-02
2.28605172413793e-01 4.16853060554551e+00 4.45326581420037e-02
2.29394827586207e-01 4.14380289060467e+00 4.43448817312527e-02
2.30184482758621e-01 4.11922186043254e+00 4.41576354653854e-02
2.30974137931034e-01 4.09478664489511e+00 4.39709211330416e-02
2.31763793103448e-01 4.07049637893571e+00 4.37847404075538e-02
2.32553448275862e-01 4.04635020279862e+00 4.35990949053780e-02
2.33343103448276e-01 4.02234726174304e+00 4.34139862456432e-02
2.34132758620690e-01 3.99848670609847e+00 4.32294159628579e-02
2.34922413793103e-01 3.97476769123463e+00 4.30453855372687e-02
2.35712068965517e-01 3.95118937753164e+00 4.28618964230085e-02
2.36501724137931e-01 3.92775093027058e+00 4.26789499666230e-02
2.37291379310345e-01 3.90445151984424e+00 4.24965474628448e-02
2.38081034482759e-01 3.88129032148614e+00 4.23146902114432e-02
2.38870689655172e-01 3.85826651532230e+00 4.21333794338025e-02
2.39660344827586e-01 3.83537928634221e+00 4.19526163018900e-02
2.40450000000000e-01 3.81262782437008e+00 4.17724019651218e-02
2.41239655172414e-01 3.79001132396068e+00 4.15927374724980e-02
2.42029310344828e-01 3.76752898459819e+00 4.14136238258405e-02
2.42818965517241e-01 3.74518001043931e+00 4.12350620340791e-02
2.43608620689655e-01 3.72296361036166e+00 4.10570530335185e-02
2.44398275862069e-01 3.70087899793581e+00 4.08795977154875e-02
2.45187931034483e-01 3.67892539139744e+00 4.07026969519900e-02
2.45977586206897e-01 3.65710201354838e+00 4.05263515212651e-02
2.46767241379310e-01 3.63540809194411e+00 4.03505621586256e-02
2.47556896551724e-01 3.61384285865022e+00 4.01753296082984e-02
2.48346551724138e-01 3.59240555028765e+00 4.00006545472165e-02
2.49136206896552e-01 3.57109540800575e+00 3.98265376114112e-02
