Energy (eV)          EEDF (eV^-(3/2))     First Anisotropy
7.16666666666667e-03 1.72632554420584e+00 1.49153933943272e-03
2.15000000000000e-02 1.69357230479035e+00 2.44781989671604e-03
3.58333333333333e-02 1.66144048612622e+00 3.19154966763199e-03
5.01666666666667e-02 1.62991829827967e+00 3.73289106046799e-03
6.45000000000000e-02 1.59899417479893e+00 4.16519524239872e-03
7.88333333333333e-02 1.56865676867993e+00 4.52442785990162e-03
9.31666666666667e-02 1.53889494829444e+00 4.82953467702989e-03
1.07500000000000e-01 1.50969779323403e+00 5.09215352885421e-03
1.21833333333333e-01 1.48105458995737e+00 5.32013128161304e-03
1.36166666666667e-01 1.45295482870460e+00 5.51910312789325e-03
1.50500000000000e-01 1.42538819882479e+00 5.69330519682330e-03
1.64833333333333e-01 1.39834458514705e+00 5.84603423601332e-03
1.79166666666667e-01 1.37181406476098e+00 5.97992674838808e-03
1.93500000000000e-01 1.34578690283055e+00 6.09713796581836e-03
2.07833333333333e-01 1.32025354910640e+00 6.19946165985770e-03
2.22166666666667e-01 1.29520463478914e+00 6.28841337512058e-03
2.36500000000000e-01 1.27063096869369e+00 6.36528996878527e-03
2.50833333333333e-01 1.24652353392953e+00 6.43121324284914e-03
2.65166666666667e-01 1.22287348487873e+00 6.48716272067019e-03
2.79500000000000e-01 1.19967214364407e+00 6.53400070385957e-03
2.93833333333333e-01 1.17691099690069e+00 6.57249170284900e-03
3.08166666666667e-01 1.15458169300269e+00 6.60331781416112e-03
3.22500000000000e-01 1.13267603867469e+00 6.62709101612456e-03
3.36833333333333e-01 1.11118599603133e+00 6.64436307550101e-03
3.51166666666667e-01 1.09010367981716e+00 6.65563369149407e-03
3.65500000000000e-01 1.06942135431417e+00 6.66135722289786e-03
3.79833333333333e-01 1.04913143052264e+00 6.66194825646312e-03
3.94166666666667e-01 1.02922646353466e+00 6.65778632243484e-03
4.08500000000000e-01 1.00969914963678e+00 6.64921988687665e-03
4.22833333333333e-01 9.90542323644901e-01 6.63656972098057e-03
4.37166666666667e-01 9.71748956409187e-01 6.62013182493907e-03
4.51500000000000e-01 9.53312152095033e-01 6.60017995166069e-03
4.65833333333333e-01 9.35225145664639e-01 6.57696776637936e-03
4.80166666666667e-01 9.17481300509315e-01 6.55073076057924e-03
4.94500000000000e-01 9.00074105895066e-01 6.52168792981259e-03
5.08833333333333e-01 8.82997174583151e-01 6.49004322335492e-03
5.23166666666667e-01 8.66244240585361e-01 6.45598685326732e-03
5.37500000000000e-01 8.49809156762139e-01 6.41969645663471e-03
5.51833333333333e-01 8.33685892574827e-01 6.38133810607511e-03
5.66166666666667e-01 8.17868531958935e-01 6.34106723809927e-03
5.80500000000000e-01 8.02351271064224e-01 6.29902948608375e-03
5.94833333333333e-01 7.87128416131585e-01 6.25536140705371e-03
6.09166666666667e-01 7.72194381479137e-01 6.21019116027682e-03
6.23500000000000e-01 7.57543687374804e-01 6.16363912154925e-03
6.37833333333333e-01 7.43170958031078e-01 6.11581841981995e-03
6.52166666666667e-01 7.29070919698739e-01 6.06683544605416e-03
6.66500000000000e-01 7.15238398663349e-01 6.01679031734196e-03
6.80833333333333e-01 7.01668319351475e-01 5.96577728202603e-03
6.95166666666667e-01 6.88355702526869e-01 5.91388510968497e-03
7.09500000000000e-01 6.75295663403047e-01 5.86119744910088e-03
7.23833333333333e-01 6.62483409854858e-01 5.80779313997046e-03
7.38166666666667e-01 6.49914240712081e-01 5.75374651741369e-03
7.52500000000000e-01 6.37583543980891e-01 5.69912769302232e-03
7.66833333333333e-01 6.25486795154964e-01 5.64400279863241e-03
7.81166666666667e-01 6.13619555601601e-01 5.58843422795233e-03
7.95500000000000e-01 6.01977470885419e-01 5.53248086063299e-03
8.09833333333333e-01 5.90556269173510e-01 5.47619825560533e-03
8.24166666666667e-01 5.79351759709347e-01 5.41963884550681e-03
8.38500000000000e-01 5.68359831232540e-01 5.36285211772001e-03
8.52833333333333e-01 5.57576450472840e-01 5.30588476958512e-03
8.67166666666667e-01 5.46997660707285e-01 5.24878086675667e-03
8.81500000000000e-01 5.36619580270277e-01 5.19158199118138e-03
8.95833333333333e-01 5.26438401131513e-01 5.13432736702522e-03
9.10166666666667e-01 5.16450387532010e-01 5.07705399102583e-03
9.24500000000000e-01 5.06651874579157e-01 5.01979675467913e-03
9.38833333333333e-01 4.97039266903910e-01 4.96258854734876e-03
9.53166666666667e-01 4.87609037371542e-01 4.90546036456629e-03
9.67500000000000e-01 4.78357725756659e-01 4.84844140982098e-03
9.81833333333333e-01 4.69281937475266e-01 4.79155917966311e-03
9.96166666666667e-01 4.60378342366267e-01 4.73483955127395e-03
1.01050000000000e+00 4.51643673466481e-01 4.67830688369412e-03
1.02483333333333e+00 4.43074725689690e-01 4.62198406020019e-03
1.03916666666667e+00 4.34668354922906e-01 4.56589257723354e-03
1.05350000000000e+00 4.26421476621817e-01 4.51005264824242e-03
1.06783333333333e+00 4.18331064692529e-01 4.45448320677815e-03
1.08216666666667e+00 4.10394150602936e-01 4.39920199947959e-03
1.09650000000000e+00 4.02607822066320e-01 4.34422567342952e-03
1.11083333333333e+00 3.94969221984810e-01 4.28956977402293e-03
1.12516666666667e+00 3.87475547602223e-01 4.23524882633337e-03
1.13950000000000e+00 3.80124049269626e-01 4.18127641164762e-03
1.15383333333333e+00 3.72912029447180e-01 4.12766516144572e-03
1.16816666666667e+00 3.65836841897163e-01 4.07442682895080e-03
1.18250000000000e+00 3.58895890525846e-01 4.02157235650152e-03
1.19683333333333e+00 3.52086628440547e-01 3.96911186666738e-03
1.21116666666667e+00 3.45406557181482e-01 3.91705472544001e-03
1.22550000000000e+00 3.38853225634765e-01 3.86540960178968e-03
1.23983333333333e+00 3.32424229141670e-01 3.81418445670173e-03
1.25416666666667e+00 3.26117208767901e-01 3.76338659920127e-03
1.26850000000000e+00 3.19929850282954e-01 3.71302273919683e-03
1.28283333333333e+00 3.13859883318732e-01 3.66309897504390e-03
1.29716666666667e+00 3.07905080674800e-01 3.61362084338591e-03
1.31150000000000e+00 3.02063257359724e-01 3.56459336619711e-03
1.32583333333333e+00 2.96332269796341e-01 3.51602103734255e-03
1.34016666666667e+00 2.90710015161543e-01 3.46790786705290e-03
1.35450000000000e+00 2.85194430485560e-01 3.42025742392733e-03
1.36883333333333e+00 2.79783491901310e-01 3.37307282085270e-03
1.38316666666667e+00 2.74475214017287e-01 3.32635675479818e-03
1.39750000000000e+00 2.69267649071034e-01 3.28011154441734e-03
1.41183333333333e+00 2.64158886220153e-01 3.23433911560781e-03
1.42616666666667e+00 2.59147050946881e-01 3.18904103720508e-03
1.44050000000000e+00 2.54230304262271e-01 3.14421855472406e-03
1.45483333333333e+00 2.49406842036581e-01 3.09987257577727e-03
1.46916666666667e+00 2.44674894434134e-01 3.05600370216017e-03
1.48350000000000e+00 2.40032725164997e-01 3.01261226019319e-03
1.49783333333333e+00 2.35478630852567e-01 2.96969828616567e-03
1.51216666666667e+00 2.31010940497357e-01 2.92726155523427e-03
1.52650000000000e+00 2.26628014773178e-01 2.88530160875980e-03
1.54083333333333e+00 2.22328245429879e-01 2.84381773990570e-03
1.55516666666667e+00 2.18110054784717e-01 2.80280901971213e-03
1.56950000000000e+00 2.13971895060272e-01 2.76227432176745e-03
1.58383333333333e+00 2.09912247820385e-01 2.72221230805865e-03
1.59816666666667e+00 2.05929623487840e-01 2.68262145253474e-03
1.61250000000000e+00 2.02022560721410e-01 2.64350006340720e-03
1.62683333333333e+00 1.98189625883160e-01 2.60484626932558e-03
1.64116666666667e+00 1.94429412581192e-01 2.56665804070253e-03
1.65550000000000e+00 1.90740541083408e-01 2.52893320989917e-03
1.66983333333333e+00 1.87121657814447e-01 2.49166945777980e-03
1.68416666666667e+00 1.83571434922281e-01 2.45486433303614e-03
1.69850000000000e+00 1.80088569726449e-01 2.41851527048126e-03
1.71283333333333e+00 1.76671784242983e-01 2.38261957802194e-03
1.72716666666667e+00 1.73319824773699e-01 2.34717445419041e-03
1.74150000000000e+00 1.70031461386795e-01 2.31217700474288e-03
1.75583333333333e+00 1.66805487468214e-01 2.27762423007590e-03
1.77016666666667e+00 1.63640719332525e-01 2.24351304114867e-03
1.78450000000000e+00 1.60535995733907e-01 2.20984027455897e-03
1.79883333333333e+00 1.57490177442491e-01 2.17660268041993e-03
1.81316666666667e+00 1.54502146875756e-01 2.14379693683455e-03
1.82750000000000e+00 1.51570807638071e-01 2.11141966360164e-03
1.84183333333333e+00 1.48695084120622e-01 2.07946741056187e-03
1.85616666666667e+00 1.45873921152297e-01 2.04793667076787e-03
1.87050000000000e+00 1.43106283566072e-01 2.01682389295461e-03
1.88483333333333e+00 1.40391155821211e-01 1.98612547035816e-03
1.89916666666667e+00 1.37727541672664e-01 1.95583775270827e-03
1.91350000000000e+00 1.35114463762678e-01 1.92595705758324e-03
1.92783333333333e+00 1.32550963264039e-01 1.89647965969944e-03
1.94216666666667e+00 1.30036099567046e-01 1.86740180183945e-03
1.95650000000000e+00 1.27568949894838e-01 1.83871970519853e-03
1.97083333333333e+00 1.25148608966507e-01 1.81042955913921e-03
1.98516666666667e+00 1.22774188700756e-01 1.78252753115588e-03
1.99950000000000e+00 1.20444817853523e-01 1.75500977630829e-03
2.01383333333333e+00 1.18159641699872e-01 1.72787242743304e-03
2.02816666666667e+00 1.15917821753466e-01 1.70111160423478e-03
2.04250000000000e+00 1.13718535425177e-01 1.67472342189194e-03
2.05683333333333e+00 1.11560975722700e-01 1.64870398171486e-03
2.07116666666667e+00 1.09444350985034e-01 1.62304937944436e-03
2.08550000000000e+00 1.07367884560834e-01 1.59775571310639e-03
2.09983333333333e+00 1.05330814524757e-01 1.57281907410445e-03
2.11416666666667e+00 1.03332393426184e-01 1.54823555479847e-03
2.12850000000000e+00 1.01371887986139e-01 1.52400125567699e-03
2.14283333333333e+00 9.94485788294449e-02 1.50011227687068e-03
2.15716666666667e+00 9.75617602469388e-02 1.47656472507668e-03
2.17150000000000e+00 9.57107399098674e-02 1.45335472011034e-03
2.18583333333333e+00 9.38948386169732e-02 1.43047838682574e-03
2.20016666666667e+00 9.21133900695008e-02 1.40793186144445e-03
2.21450000000000e+00 9.03657406020402e-02 1.38571129754247e-03
2.22883333333333e+00 8.86512489437120e-02 1.36381285836327e-03
2.24316666666667e+00 8.69692860052950e-02 1.34223272260405e-03
2.25750000000000e+00 8.53192346255547e-02 1.32096708988817e-03
2.27183333333333e+00 8.37004893457408e-02 1.30001217345590e-03
2.28616666666667e+00 8.21124562082010e-02 1.27936420545615e-03
2.30050000000000e+00 8.05545525172874e-02 1.25901944195010e-03
2.31483333333333e+00 7.90262066264258e-02 1.23897415596435e-03
2.32916666666667e+00 7.75268577476105e-02 1.21922464233181e-03
2.34350000000000e+00 7.60559557260371e-02 1.19976722226750e-03
2.35783333333333e+00 7.46129608390438e-02 1.18059823676943e-03
2.37216666666667e+00 7.31973436159124e-02 1.16171405104770e-03
2.38650000000000e+00 7.18085846254270e-02 1.14311105871018e-03
2.40083333333333e+00 7.04461742860261e-02 1.12478567549595e-03
2.41516666666667e+00 6.91096126953644e-02 1.10673434332862e-03
2.42950000000000e+00 6.77984094300447e-02 1.08895353414548e-03
2.44383333333333e+00 6.65120833663566e-02 1.07143974394914e-03
2.45816666666667e+00 6.52501625190807e-02 1.05418949651731e-03
2.47250000000000e+00 6.40121838526868e-02 1.03719934690645e-03
2.48683333333333e+00 6.27976931120688e-02 1.02046587580714e-03
2.50116666666667e+00 6.16062446700998e-02 1.00398569293991e-03
2.51550000000000e+00 6.04374013496314e-02 9.87755440261215e-04
2.52983333333333e+00 5.92907342636678e-02 9.71771786608788e-04
2.54416666666667e+00 5.81658226712057e-02 9.56031430810247e-04
2.55850000000000e+00 5.70622538094077e-02 9.40531104616921e-04
2.57283333333333e+00 5.59796227426908e-02 9.25267567625547e-04
2.58716666666667e+00 5.49175322264076e-02 9.10237610124274e-04
2.60150000000000e+00 5.38755925486060e-02 8.95438055777361e-04
2.61583333333333e+00 5.28534213875349e-02 8.80865756810245e-04
2.63016666666667e+00 5.18506436827468e-02 8.66517596615068e-04
2.64450000000000e+00 5.08668914858901e-02 8.52390492207504e-04
2.65883333333333e+00 4.99018038261625e-02 8.38481389662502e-04
2.67316666666667e+00 4.89550265884379e-02 8.24787266499670e-04
2.68750000000000e+00 4.80262123725692e-02 8.11305133931545e-04
2.70183333333333e+00 4.71150203663468e-02 7.98032032537752e-04
2.71616666666667e+00 4.62211162302723e-02 7.84965034448802e-04
2.73050000000000e+00 4.53441719648813e-02 7.72101245403383e-04
2.74483333333333e+00 4.44838657907887e-02 7.59437800649251e-04
2.75916666666667e+00 4.36398820397518e-02 7.46971866942379e-04
2.77350000000000e+00 4.28119110295509e-02 7.34700644429318e-04
2.78783333333333e+00 4.19996489507267e-02 7.22621362763609e-04
2.80216666666667e+00 4.12027977635935e-02 7.10731282935715e-04
2.81650000000000e+00 4.04210650802432e-02 6.99027698995102e-04
2.83083333333333e+00 3.96541640576020e-02 6.87507934371415e-04
2.84516666666667e+00 3.89018133000719e-02 6.76169343549376e-04
2.85950000000000e+00 3.81637367482500e-02 6.65009313643987e-04
2.87383333333333e+00 3.74396635779502e-02 6.54025260916161e-04
2.88816666666667e+00 3.67293281081714e-02 6.43214632305467e-04
2.90250000000000e+00 3.60324696961443e-02 6.32574906870803e-04
2.91683333333333e+00 3.53488326419876e-02 6.22103592490599e-04
2.93116666666667e+00 3.46781661017128e-02 6.11798227265224e-04
2.94550000000000e+00 3.40202239882369e-02 6.01656380834364e-04
2.95983333333333e+00 3.33747648813586e-02 5.91675651252391e-04
2.97416666666667e+00 3.27415519455266e-02 5.81853666271292e-04
2.98850000000000e+00 3.21203528364771e-02 5.72188084544976e-04
3.00283333333333e+00 3.15109396162321e-02 5.62676592670885e-04
3.01716666666667e+00 3.09130886753746e-02 5.53316906363332e-04
3.03150000000000e+00 3.03265806449871e-02 5.44106771554169e-04
3.04583333333333e+00 2.97512003163933e-02 5.35043961592060e-04
3.06016666666667e+00 2.91867365676946e-02 5.26126278315333e-04
3.07450000000000e+00 2.86329822807073e-02 5.17351553057636e-04
3.08883333333333e+00 2.80897342651822e-02 5.08717643996710e-04
3.10316666666667e+00 2.75567931893716e-02 5.00222437135065e-04
3.11750000000000e+00 2.70339635016789e-02 4.91863847218567e-04
3.13183333333333e+00 2.65210533591071e-02 4.83639815226918e-04
3.14616666666667e+00 2.60178745616361e-02 4.75548309269815e-04
3.16050000000000e+00 2.55242424783165e-02 4.67587325425688e-04
3.17483333333333e+00 2.50399759797102e-02 4.59754885366489e-04
3.18916666666667e+00 2.45648973758716e-02 4.52049037176392e-04
3.20350000000000e+00 2.40988323466311e-02 4.44467856117270e-04
3.21783333333333e+00 2.36416098778052e-02 4.37009442380784e-04
3.23216666666667e+00 2.31930622025860e-02 4.29671921836019e-04
3.24650000000000e+00 2.27530247357742e-02 4.22453446727856e-04
3.26083333333333e+00 2.23213360135502e-02 4.15352193549668e-04
3.27516666666667e+00 2.18978376380837e-02 4.08366363725750e-04
3.28950000000000e+00 2.14823742154932e-02 4.01494184248178e-04
3.30383333333333e+00 2.10747932989777e-02 3.94733905663775e-04
3.31816666666667e+00 2.06749453364726e-02 3.88083802696739e-04
3.33250000000000e+00 2.02826836121218e-02 3.81542174829111e-04
3.34683333333333e+00 1.98978641925831e-02 3.75107344396003e-04
3.36116666666667e+00 1.95203458775639e-02 3.68777657153399e-04
3.37550000000000e+00 1.91499901446061e-02 3.62551482806919e-04
3.38983333333333e+00 1.87866610983884e-02 3.56427213209559e-04
3.40416666666667e+00 1.84302254239835e-02 3.50403262879239e-04
3.41850000000000e+00 1.80805523347683e-02 3.44478069480190e-04
3.43283333333333e+00 1.77375135245550e-02 3.38650092117780e-04
3.44716666666667e+00 1.74009831234220e-02 3.32917811809981e-04
3.46150000000000e+00 1.70708376485706e-02 3.27279731925337e-04
3.47583333333333e+00 1.67469559591278e-02 3.21734376569727e-04
3.49016666666667e+00 1.64292192144099e-02 3.16280291015595e-04
3.50450000000000e+00 1.61175108275579e-02 3.10916042100134e-04
3.51883333333333e+00 1.58117164228634e-02 3.05640216699106e-04
3.53316666666667e+00 1.55117237963308e-02 3.00451422117343e-04
3.54750000000000e+00 1.52174228719351e-02 2.95348286450507e-04
3.56183333333333e+00 1.49287056613283e-02 2.90329457141304e-04
3.57616666666667e+00 1.46454662265761e-02 2.85393601334518e-04
3.59050000000000e+00 1.43676006388873e-02 2.80539406205408e-04
3.60483333333333e+00 1.40950069405695e-02 2.75765577593919e-04
3.61916666666667e+00 1.38275851098199e-02 2.71070840327217e-04
3.63350000000000e+00 1.35652370217866e-02 2.66453938517551e-04
3.64783333333333e+00 1.33078664126482e-02 2.61913634270285e-04
3.66216666666667e+00 1.30553788463457e-02 2.57448707976664e-04
3.67650000000000e+00 1.28076816778436e-02 2.53057958583730e-04
3.69083333333333e+00 1.25646840192144e-02 2.48740202372223e-04
3.70516666666667e+00 1.23262967082059e-02 2.44494273222093e-04
3.71950000000000e+00 1.20924322735768e-02 2.40319022856829e-04
3.73383333333333e+00 1.18630049030743e-02 2.36213319687507e-04
3.74816666666667e+00 1.16379304137357e-02 2.32176049053338e-04
3.76250000000000e+00 1.14171262191818e-02 2.28206113442587e-04
3.77683333333333e+00 1.12005112993811e-02 2.24302431399222e-04
3.79116666666667e+00 1.09880061725910e-02 2.20463937740619e-04
3.80550000000000e+00 1.07795328644973e-02 2.16689583757090e-04
3.81983333333333e+00 1.05750148796661e-02 2.12978336177744e-04
3.83416666666667e+00 1.03743771750344e-02 2.09329177367313e-04
3.84850000000000e+00 1.01775461307903e-02 2.05741105506107e-04
3.86283333333333e+00 9.98444952341954e-03 2.02213133611916e-04
3.87716666666667e+00 9.79501650065919e-03 1.98744289717741e-04
3.89150000000000e+00 9.60917755402155e-03 1.95333617033862e-04
3.90583333333333e+00 9.42686449334434e-03 1.91980173022780e-04
3.92016666666667e+00 9.24801042312867e-03 1.88683029559468e-04
3.93450000000000e+00 9.07254971661247e-03 1.85441273077118e-04
3.94883333333333e+00 8.90041799174131e-03 1.82254003692254e-04
3.96316666666667e+00 8.73155208881382e-03 1.79120335349025e-04
3.97750000000000e+00 8.56589004601722e-03 1.76039395950051e-04
3.99183333333333e+00 8.40337107673950e-03 1.73010326528992e-04
4.00616666666667e+00 8.24393554845024e-03 1.70032281380268e-04
4.02050000000000e+00 8.08752495961563e-03 1.67104428176310e-04
4.03483333333333e+00 7.93408191827699e-03 1.64225947185038e-04
4.04916666666667e+00 7.78355012209912e-03 1.61396031386261e-04
4.06350000000000e+00 7.63587433658667e-03 1.58613886576535e-04
4.07783333333333e+00 7.49100037485841e-03 1.55878730629123e-04
4.09216666666667e+00 7.34887507879877e-03 1.53189793598253e-04
4.10650000000000e+00 7.20944629850196e-03 1.50546317812669e-04
4.12083333333333e+00 7.07266287317527e-03 1.47947557175786e-04
4.13516666666667e+00 6.93847461333300e-03 1.45392777258868e-04
4.14950000000000e+00 6.80683228139894e-03 1.42881255384286e-04
4.16383333333333e+00 6.67768757367568e-03 1.40412279963693e-04
4.17816666666667e+00 6.55099310352350e-03 1.37985150581110e-04
4.19250000000000e+00 6.42670238305571e-03 1.35599178066810e-04
4.20683333333333e+00 6.30476980611451e-03 1.33253683871457e-04
4.22116666666667e+00 6.18515063238048e-03 1.30948000140000e-04
4.23550000000000e+00 6.06780097009907e-03 1.28681469777038e-04
4.24983333333333e+00 5.95267776000684e-03 1.26453445854968e-04
4.26416666666667e+00 5.83973876032022e-03 1.24263291679513e-04
4.27850000000000e+00 5.72894253043493e-03 1.22110380847347e-04
4.29283333333333e+00 5.62024841574945e-03 1.19994096686419e-04
4.30716666666667e+00 5.51361653348470e-03 1.17913832313875e-04
4.32150000000000e+00 5.40900775730130e-03 1.15868990686638e-04
4.33583333333333e+00 5.30638370297032e-03 1.13858984072172e-04
4.35016666666667e+00 5.20570671497792e-03 1.11883234099489e-04
4.36450000000000e+00 5.10693985200871e-03 1.09941171803354e-04
4.37883333333333e+00 5.01004687341641e-03 1.08032237123833e-04
4.39316666666667e+00 4.91499222657021e-03 1.06155878951011e-04
4.40750000000000e+00 4.82174103315526e-03 1.04311555163427e-04
4.42183333333333e+00 4.73025907639871e-03 1.02498732154834e-04
4.43616666666667e+00 4.64051278911666e-03 1.00716884873237e-04
4.45050000000000e+00 4.55246924078587e-03 9.89654968540860e-05
4.46483333333333e+00 4.46609612548281e-03 9.72440597727861e-05
4.47916666666667e+00 4.38136175059272e-03 9.55520734785737e-05
4.49350000000000e+00 4.29823502460884e-03 9.38890460229747e-05
4.50783333333333e+00 4.21668544574478e-03 9.22544932366681e-05
4.52216666666667e+00 4.13668309126910e-03 9.06479387586910e-05
