Energy (eV)          EEDF (eV^-(3/2))     First Anisotropy
1.35303030303030e-04 2.70031940362927e+02 0.00000000000000e+00
4.05909090909091e-04 2.67220093946376e+02 0.00000000000000e+00
6.76515151515151e-04 2.64437527326557e+02 0.00000000000000e+00
9.47121212121212e-04 2.61683935612379e+02 0.00000000000000e+00
1.21772727272727e-03 2.58959017087708e+02 0.00000000000000e+00
1.48833333333333e-03 2.56262473178206e+02 0.00000000000000e+00
1.75893939393939e-03 2.53594008418599e+02 0.00000000000000e+00
2.02954545454545e-03 2.50953330420301e+02 0.00000000000000e+00
2.30015151515152e-03 2.48340149839370e+02 0.00000000000000e+00
2.57075757575758e-03 2.45754180344810e+02 0.00000000000000e+00
2.84136363636364e-03 2.43195138587192e+02 0.00000000000000e+00
3.11196969696970e-03 2.40662744167611e+02 0.00000000000000e+00
3.38257575757576e-03 2.38156719606958e+02 0.00000000000000e+00
3.65318181818182e-03 2.35676790315519e+02 0.00000000000000e+00
3.92378787878788e-03 2.33222684562886e+02 0.00000000000000e+00
4.19439393939394e-03 2.30794133448184e+02 0.00000000000000e+00
4.46500000000000e-03 2.28390870870606e+02 0.00000000000000e+00
4.73560606060606e-03 2.26012633500258e+02 0.00000000000000e+00
5.00621212121212e-03 2.23659160749302e+02 0.00000000000000e+00
5.27681818181818e-03 2.21330194743406e+02 0.00000000000000e+00
5.54742424242424e-03 2.19025480293488e+02 0.00000000000000e+00
5.81803030303030e-03 2.16744764867750e+02 0.00000000000000e+00
6.08863636363636e-03 2.14487798564016e+02 0.00000000000000e+00
6.35924242424242e-03 2.12254334082340e+02 0.00000000000000e+00
6.62984848484848e-03 2.10044126697919e+02 0.00000000000000e+00
6.90045454545454e-03 2.07856934234268e+02 0.00000000000000e+00
7.17106060606061e-03 2.05692517036693e+02 0.00000000000000e+00
7.44166666666667e-03 2.03550637946025e+02 0.00000000000000e+00
7.71227272727273e-03 2.01431062272638e+02 0.00000000000000e+00
7.98287878787879e-03 1.99333557770732e+02 0.00000000000000e+00
8.25348484848485e-03 1.97257894612887e+02 0.00000000000000e+00
8.52409090909091e-03 1.95203845364877e+02 0.00000000000000e+00
8.79469696969697e-03 1.93171184960754e+02 0.00000000000000e+00
9.06530303030303e-03 1.91159690678183e+02 0.00000000000000e+00
9.33590909090909e-03 1.89169142114041e+02 0.00000000000000e+00
9.60651515151515e-03 1.87199321160266e+02 0.00000000000000e+00
9.87712121212121e-03 1.85250011979958e+02 0.00000000000000e+00
1.01477272727273e-02 1.83321000983729e+02 0.00000000000000e+00
1.04183333333333e-02 1.81412076806302e+02 0.00000000000000e+00
1.06889393939394e-02 1.79523030283347e+02 0.00000000000000e+00
1.09595454545455e-02 1.77653654428568e+02 0.00000000000000e+00
1.12301515151515e-02 1.75803744411018e+02 0.00000000000000e+00
1.15007575757576e-02 1.73973097532660e+02 0.00000000000000e+00
1.17713636363636e-02 1.72161513206151e+02 0.00000000000000e+00
1.20419696969697e-02 1.70368792932870e+02 0.00000000000000e+00
1.23125757575758e-02 1.68594740281164e+02 0.00000000000000e+00
1.25831818181818e-02 1.66839160864824e+02 0.00000000000000e+00
1.28537878787879e-02 1.65101862321790e+02 0.00000000000000e+00
1.31243939393939e-02 1.63382654293070e+02 0.00000000000000e+00
1.33950000000000e-02 1.61681348401881e+02 0.00000000000000e+00
1.36656060606061e-02 1.59997758233012e+02 0.00000000000000e+00
1.39362121212121e-02 1.58331699312397e+02 0.00000000000000e+00
1.42068181818182e-02 1.56682989086898e+02 0.00000000000000e+00
1.44774242424242e-02 1.55051446904308e+02 0.00000000000000e+00
1.47480303030303e-02 1.53436893993554e+02 0.00000000000000e+00
1.50186363636364e-02 1.51839153445107e+02 0.00000000000000e+00
1.52892424242424e-02 1.50258050191601e+02 0.00000000000000e+00
1.55598484848485e-02 1.48693410988647e+02 0.00000000000000e+00
1.58304545454545e-02 1.47145064395856e+02 0.00000000000000e+00
1.61010606060606e-02 1.45612840758046e+02 0.00000000000000e+00
1.63716666666667e-02 1.44096572186659e+02 0.00000000000000e+00
1.66422727272727e-02 1.42596092541362e+02 0.00000000000000e+00
1.69128787878788e-02 1.41111237411846e+02 0.00000000000000e+00
1.71834848484848e-02 1.39641844099805e+02 0.00000000000000e+00
1.74540909090909e-02 1.38187751601116e+02 0.00000000000000e+00
1.77246969696970e-02 1.36748800588193e+02 0.00000000000000e+00
1.79953030303030e-02 1.35324833392530e+02 0.00000000000000e+00
1.82659090909091e-02 1.33915693987426e+02 0.00000000000000e+00
1.85365151515152e-02 1.32521227970889e+02 0.00000000000000e+00
1.88071212121212e-02 1.31141282548714e+02 0.00000000000000e+00
1.90777272727273e-02 1.29775706517748e+02 0.00000000000000e+00
1.93483333333333e-02 1.28424350249317e+02 0.00000000000000e+00
1.96189393939394e-02 1.27087065672833e+02 0.00000000000000e+00
1.98895454545455e-02 1.25763706259567e+02 0.00000000000000e+00
2.01601515151515e-02 1.24454127006598e+02 0.00000000000000e+00
2.04307575757576e-02 1.23158184420923e+02 0.00000000000000e+00
2.07013636363636e-02 1.21875736503731e+02 0.00000000000000e+00
2.09719696969697e-02 1.20606642734849e+02 0.00000000000000e+00
2.12425757575758e-02 1.19350764057341e+02 0.00000000000000e+00
2.15131818181818e-02 1.18107962862274e+02 0.00000000000000e+00
2.17837878787879e-02 1.16878102973639e+02 0.00000000000000e+00
2.20543939393939e-02 1.15661049633427e+02 0.00000000000000e+00
2.23250000000000e-02 1.14456669486870e+02 0.00000000000000e+00
2.25956060606061e-02 1.13264830567822e+02 0.00000000000000e+00
2.28662121212121e-02 1.12085402284304e+02 0.00000000000000e+00
2.31368181818182e-02 1.10918255404192e+02 0.00000000000000e+00
2.34074242424242e-02 1.09763262041059e+02 0.00000000000000e+00
2.36780303030303e-02 1.08620295640161e+02 0.00000000000000e+00
2.39486363636364e-02 1.07489230964570e+02 0.00000000000000e+00
2.42192424242424e-02 1.06369944081451e+02 0.00000000000000e+00
2.44898484848485e-02 1.05262312348485e+02 0.00000000000000e+00
2.47604545454545e-02 1.04166214400429e+02 0.00000000000000e+00
2.50310606060606e-02 1.03081530135817e+02 0.00000000000000e+00
2.53016666666667e-02 1.02008140703801e+02 0.00000000000000e+00
2.55722727272727e-02 1.00945928491131e+02 0.00000000000000e+00
2.58428787878788e-02 9.98947771092631e+01 0.00000000000000e+00
2.61134848484848e-02 9.88545713816091e+01 0.00000000000000e+00
2.63840909090909e-02 9.78251973309173e+01 0.00000000000000e+00
2.66546969696970e-02 9.68065421667819e+01 0.00000000000000e+00
2.69253030303030e-02 9.57984942732858e+01 0.00000000000000e+00
2.71959090909091e-02 9.48009431967695e+01 0.00000000000000e+00
2.74665151515152e-02 9.38137796337293e+01 0.00000000000000e+00
2.77371212121212e-02 9.28368954188405e+01 0.00000000000000e+00
2.80077272727273e-02 9.18701835131053e+01 0.00000000000000e+00
2.82783333333333e-02 9.09135379921244e+01 0.00000000000000e+00
2.85489393939394e-02 8.99668540344911e+01 0.00000000000000e+00
2.88195454545455e-02 8.90300279103052e+01 0.00000000000000e+00
2.90901515151515e-02 8.81029569698075e+01 0.00000000000000e+00
2.93607575757576e-02 8.71855396321323e+01 0.00000000000000e+00
2.96313636363636e-02 8.62776753741766e+01 0.00000000000000e+00
2.99019696969697e-02 8.53792647195863e+01 0.00000000000000e+00
3.01725757575758e-02 8.44902092278556e+01 0.00000000000000e+00
3.04431818181818e-02 8.36104114835415e+01 0.00000000000000e+00
3.07137878787879e-02 8.27397750855889e+01 0.00000000000000e+00
3.09843939393939e-02 8.18782046367686e+01 0.00000000000000e+00
3.12550000000000e-02 8.10256057332240e+01 0.00000000000000e+00
3.15256060606061e-02 8.01818849541271e+01 0.00000000000000e+00
3.17962121212121e-02 7.93469498514426e+01 0.00000000000000e+00
3.20668181818182e-02 7.85207089397975e+01 0.00000000000000e+00
3.23374242424242e-02 7.77030716864576e+01 0.00000000000000e+00
3.26080303030303e-02 7.68939485014071e+01 0.00000000000000e+00
3.28786363636364e-02 7.60932507275326e+01 0.00000000000000e+00
3.31492424242424e-02 7.53008906309080e+01 0.00000000000000e+00
3.34198484848485e-02 7.45167813911824e+01 0.00000000000000e+00
3.36904545454545e-02 7.37408370920660e+01 0.00000000000000e+00
3.39610606060606e-02 7.29729727119167e+01 0.00000000000000e+00
3.42316666666667e-02 7.22131041144240e+01 0.00000000000000e+00
3.45022727272727e-02 7.14611480393900e+01 0.00000000000000e+00
3.47728787878788e-02 7.07170220936062e+01 0.00000000000000e+00
3.50434848484848e-02 6.99806447418260e+01 0.00000000000000e+00
3.53140909090909e-02 6.92519352978305e+01 0.00000000000000e+00
3.55846969696970e-02 6.85308139155872e+01 0.00000000000000e+00
3.58553030303030e-02 6.78172015805019e+01 0.00000000000000e+00
3.61259090909091e-02 6.71110201007601e+01 0.00000000000000e+00
3.63965151515152e-02 6.64121920987602e+01 0.00000000000000e+00
3.66671212121212e-02 6.57206410026342e+01 0.00000000000000e+00
3.69377272727273e-02 6.50362910378583e+01 0.00000000000000e+00
3.72083333333333e-02 6.43590672189499e+01 0.00000000000000e+00
3.74789393939394e-02 6.36888953412512e+01 0.00000000000000e+00
3.77495454545455e-02 6.30257019727987e+01 0.00000000000000e+00
3.80201515151515e-02 6.23694144462767e+01 0.00000000000000e+00
3.82907575757576e-02 6.17199608510556e+01 0.00000000000000e+00
3.85613636363636e-02 6.10772700253119e+01 0.00000000000000e+00
3.88319696969697e-02 6.04412715482315e+01 0.00000000000000e+00
3.91025757575758e-02 5.98118957322929e+01 0.00000000000000e+00
3.93731818181818e-02 5.91890736156320e+01 0.00000000000000e+00
3.96437878787879e-02 5.85727369544855e+01 0.00000000000000e+00
3.99143939393939e-02 5.79628182157133e+01 0.00000000000000e+00
4.01850000000000e-02 5.73592505693990e+01 0.00000000000000e+00
4.04556060606061e-02 5.67619678815267e+01 0.00000000000000e+00
4.07262121212121e-02 5.61709047067355e+01 0.00000000000000e+00
4.09968181818182e-02 5.55859962811476e+01 0.00000000000000e+00
4.12674242424242e-02 5.50071785152723e+01 0.00000000000000e+00
4.15380303030303e-02 5.44343879869840e+01 0.00000000000000e+00
4.18086363636364e-02 5.38675619345724e+01 0.00000000000000e+00
4.20792424242424e-02 5.33066382498656e+01 0.00000000000000e+00
4.23498484848485e-02 5.27515554714254e+01 0.00000000000000e+00
4.26204545454545e-02 5.22022527778121e+01 0.00000000000000e+00
4.28910606060606e-02 5.16586699809206e+01 0.00000000000000e+00
4.31616666666667e-02 5.11207475193854e+01 0.00000000000000e+00
4.34322727272727e-02 5.05884264520543e+01 0.00000000000000e+00
4.37028787878788e-02 5.00616484515302e+01 0.00000000000000e+00
4.39734848484848e-02 4.95403557977801e+01 0.00000000000000e+00
4.42440909090909e-02 4.90244913718103e+01 0.00000000000000e+00
4.45146969696970e-02 4.85139986494081e+01 0.00000000000000e+00
4.47853030303030e-02 4.80088216949483e+01 0.00000000000000e+00
4.50559090909091e-02 4.75089051552641e+01 0.00000000000000e+00
4.53265151515152e-02 4.70141942535819e+01 0.00000000000000e+00
4.55971212121212e-02 4.65246347835196e+01 0.00000000000000e+00
4.58677272727273e-02 4.60401731031469e+01 0.00000000000000e+00
4.61383333333333e-02 4.55607561291075e+01 0.00000000000000e+00
4.64089393939394e-02 4.50863313308030e+01 0.00000000000000e+00
4.66795454545455e-02 4.46168467246369e+01 0.00000000000000e+00
4.69501515151515e-02 4.41522508683185e+01 0.00000000000000e+00
4.72207575757576e-02 4.36924928552264e+01 0.00000000000000e+00
4.74913636363636e-02 4.32375223088307e+01 0.00000000000000e+00
4.77619696969697e-02 4.27872893771730e+01 0.00000000000000e+00
4.80325757575758e-02 4.23417447274039e+01 0.00000000000000e+00
4.83031818181818e-02 4.19008395403777e+01 0.00000000000000e+00
4.85737878787879e-02 4.14645255053034e+01 0.00000000000000e+00
4.88443939393939e-02 4.10327548144505e+01 0.00000000000000e+00
4.91150000000000e-02 4.06054801579115e+01 0.00000000000000e+00
4.93856060606061e-02 4.01826547184175e+01 0.00000000000000e+00
4.96562121212121e-02 3.97642321662083e+01 0.00000000000000e+00
4.99268181818182e-02 3.93501666539563e+01 0.00000000000000e+00
5.01974242424242e-02 3.89404128117429e+01 0.00000000000000e+00
5.04680303030303e-02 3.85349257420870e+01 0.00000000000000e+00
5.07386363636364e-02 3.81336610150254e+01 0.00000000000000e+00
5.10092424242424e-02 3.77365746632450e+01 0.00000000000000e+00
5.12798484848485e-02 3.73436231772649e+01 0.00000000000000e+00
5.15504545454545e-02 3.69547635006690e+01 0.00000000000000e+00
5.18210606060606e-02 3.65699530253882e+01 0.00000000000000e+00
5.20916666666667e-02 3.61891495870320e+01 0.00000000000000e+00
5.23622727272727e-02 3.58123114602682e+01 0.00000000000000e+00
5.26328787878788e-02 3.54393973542511e+01 0.00000000000000e+00
5.29034848484848e-02 3.50703664080970e+01 0.00000000000000e+00
5.31740909090909e-02 3.47051781864074e+01 0.00000000000000e+00
5.34446969696970e-02 3.43437926748380e+01 0.00000000000000e+00
5.37153030303030e-02 3.39861702757146e+01 0.00000000000000e+00
5.39859090909091e-02 3.36322718036939e+01 0.00000000000000e+00
5.42565151515151e-02 3.32820584814705e+01 0.00000000000000e+00
5.45271212121212e-02 3.29354919355273e+01 0.00000000000000e+00
5.47977272727273e-02 3.25925341919312e+01 0.00000000000000e+00
5.50683333333333e-02 3.22531476721725e+01 0.00000000000000e+00
5.53389393939394e-02 3.19172951890466e+01 0.00000000000000e+00
5.56095454545455e-02 3.15849399425802e+01 0.00000000000000e+00
5.58801515151515e-02 3.12560455159984e+01 0.00000000000000e+00
5.61507575757576e-02 3.09305758717348e+01 0.00000000000000e+00
5.64213636363636e-02 3.06084953474826e+01 0.00000000000000e+00
5.66919696969697e-02 3.02897686522873e+01 0.00000000000000e+00
5.69625757575758e-02 2.99743608626793e+01 0.00000000000000e+00
5.72331818181818e-02 2.96622374188479e+01 0.00000000000000e+00
5.75037878787879e-02 2.93533641208540e+01 0.00000000000000e+00
5.77743939393939e-02 2.90477071248829e+01 0.00000000000000e+00
5.80450000000000e-02 2.87452329395363e+01 0.00000000000000e+00
5.83156060606061e-02 2.84459084221620e+01 0.00000000000000e+00
5.85862121212121e-02 2.81497007752229e+01 0.00000000000000e+00
5.88568181818182e-02 2.78565775427030e+01 0.00000000000000e+00
5.91274242424242e-02 2.75665066065514e+01 0.00000000000000e+00
5.93980303030303e-02 2.72794561831627e+01 0.00000000000000e+00
5.96686363636364e-02 2.69953948198948e+01 0.00000000000000e+00
5.99392424242424e-02 2.67142913916224e+01 0.00000000000000e+00
6.02098484848485e-02 2.64361150973265e+01 0.00000000000000e+00
6.04804545454545e-02 2.61608354567195e+01 0.00000000000000e+00
6.07510606060606e-02 2.58884223069057e+01 0.00000000000000e+00
6.10216666666667e-02 2.56188457990759e+01 0.00000000000000e+00
6.12922727272727e-02 2.53520763952368e+01 0.00000000000000e+00
6.15628787878788e-02 2.50880848649750e+01 0.00000000000000e+00
6.18334848484848e-02 2.48268422822536e+01 0.00000000000000e+00
6.21040909090909e-02 2.45683200222429e+01 0.00000000000000e+00
6.23746969696970e-02 2.43124897581840e+01 0.00000000000000e+00
6.26453030303030e-02 2.40593234582851e+01 0.00000000000000e+00
6.29159090909091e-02 2.38087933826496e+01 0.00000000000000e+00
6.31865151515151e-02 2.35608720802369e+01 0.00000000000000e+00
6.34571212121212e-02 2.33155323858546e+01 0.00000000000000e+00
6.37277272727273e-02 2.30727474171817e+01 0.00000000000000e+00
6.39983333333333e-02 2.28324905718233e+01 0.00000000000000e+00
6.42689393939394e-02 2.25947355243954e+01 0.00000000000000e+00
6.45395454545454e-02 2.23594562236409e+01 0.00000000000000e+00
6.48101515151515e-02 2.21266268895746e+01 0.00000000000000e+00
6.50807575757576e-02 2.18962220106587e+01 0.00000000000000e+00
6.53513636363636e-02 2.16682163410075e+01 0.00000000000000e+00
6.56219696969697e-02 2.14425848976208e+01 0.00000000000000e+00
6.58925757575758e-02 2.12193029576470e+01 0.00000000000000e+00
6.61631818181818e-02 2.09983460556738e+01 0.00000000000000e+00
6.64337878787879e-02 2.07796899810477e+01 0.00000000000000e+00
6.67043939393939e-02 2.05633107752208e+01 0.00000000000000e+00
6.69750000000000e-02 2.03491847291262e+01 0.00000000000000e+00
6.72456060606061e-02 2.01372883805797e+01 0.00000000000000e+00
6.75162121212121e-02 1.99275985117092e+01 0.00000000000000e+00
6.77868181818182e-02 1.97200921464105e+01 0.00000000000000e+00
6.80574242424242e-02 1.95147465478301e+01 0.00000000000000e+00
6.83280303030303e-02 1.93115392158736e+01 0.00000000000000e+00
6.85986363636364e-02 1.91104478847404e+01 0.00000000000000e+00
6.88692424242424e-02 1.89114505204839e+01 0.00000000000000e+00
6.91398484848485e-02 1.87145253185974e+01 0.00000000000000e+00
6.94104545454545e-02 1.85196507016249e+01 0.00000000000000e+00
6.96810606060606e-02 1.83268053167966e+01 0.00000000000000e+00
6.99516666666667e-02 1.81359680336894e+01 0.00000000000000e+00
7.02222727272727e-02 1.79471179419118e+01 0.00000000000000e+00
7.04928787878788e-02 1.77602343488123e+01 0.00000000000000e+00
7.07634848484848e-02 1.75752967772124e+01 0.00000000000000e+00
7.10340909090909e-02 1.73922849631626e+01 0.00000000000000e+00
7.13046969696970e-02 1.72111788537223e+01 0.00000000000000e+00
7.15753030303030e-02 1.70319586047624e+01 0.00000000000000e+00
7.18459090909091e-02 1.68546045787911e+01 0.00000000000000e+00
7.21165151515152e-02 1.66790973428020e+01 0.00000000000000e+00
7.23871212121212e-02 1.65054176661448e+01 0.00000000000000e+00
7.26577272727273e-02 1.63335465184185e+01 0.00000000000000e+00
7.29283333333333e-02 1.61634650673855e+01 0.00000000000000e+00
7.31989393939394e-02 1.59951546769090e+01 0.00000000000000e+00
7.34695454545455e-02 1.58285969049103e+01 0.00000000000000e+00
7.37401515151515e-02 1.56637735013484e+01 0.00000000000000e+00
7.40107575757576e-02 1.55006664062202e+01 0.00000000000000e+00
7.42813636363636e-02 1.53392577475817e+01 0.00000000000000e+00
7.45519696969697e-02 1.51795298395896e+01 0.00000000000000e+00
7.48225757575758e-02 1.50214651805639e+01 0.00000000000000e+00
7.50931818181818e-02 1.48650464510693e+01 0.00000000000000e+00
7.53637878787879e-02 1.47102565120185e+01 0.00000000000000e+00
7.56343939393939e-02 1.45570784027934e+01 0.00000000000000e+00
7.59050000000000e-02 1.44054953393874e+01 0.00000000000000e+00
7.61756060606061e-02 1.42554907125656e+01 0.00000000000000e+00
7.64462121212121e-02 1.41070480860457e+01 0.00000000000000e+00
7.67168181818182e-02 1.39601511946963e+01 0.00000000000000e+00
7.69874242424242e-02 1.38147839427553e+01 0.00000000000000e+00
7.72580303030303e-02 1.36709304020658e+01 0.00000000000000e+00
7.75286363636364e-02 1.35285748103312e+01 0.00000000000000e+00
7.77992424242424e-02 1.33877015693879e+01 0.00000000000000e+00
7.80698484848485e-02 1.32482952434959e+01 0.00000000000000e+00
7.83404545454545e-02 1.31103405576483e+01 0.00000000000000e+00
7.86110606060606e-02 1.29738223958965e+01 0.00000000000000e+00
7.88816666666667e-02 1.28387257996950e+01 0.00000000000000e+00
7.91522727272727e-02 1.27050359662614e+01 0.00000000000000e+00
7.94228787878788e-02 1.25727382469553e+01 0.00000000000000e+00
7.96934848484848e-02 1.24418181456724e+01 0.00000000000000e+00
7.99640909090909e-02 1.23122613172569e+01 0.00000000000000e+00
8.02346969696970e-02 1.21840535659290e+01 0.00000000000000e+00
8.05053030303030e-02 1.20571808437299e+01 0.00000000000000e+00
8.07759090909091e-02 1.19316292489825e+01 0.00000000000000e+00
8.10465151515151e-02 1.18073850247679e+01 0.00000000000000e+00
8.13171212121212e-02 1.16844345574182e+01 0.00000000000000e+00
8.15877272727273e-02 1.15627643750249e+01 0.00000000000000e+00
8.18583333333333e-02 1.14423611459627e+01 0.00000000000000e+00
8.21289393939394e-02 1.13232116774284e+01 0.00000000000000e+00
8.23995454545454e-02 1.12053029139962e+01 0.00000000000000e+00
8.26701515151515e-02 1.10886219361860e+01 0.00000000000000e+00
8.29407575757576e-02 1.09731559590490e+01 0.00000000000000e+00
8.32113636363636e-02 1.08588923307659e+01 0.00000000000000e+00
8.34819696969697e-02 1.07458185312610e+01 0.00000000000000e+00
8.37525757575757e-02 1.06339221708305e+01 0.00000000000000e+00
8.40231818181818e-02 1.05231909887845e+01 0.00000000000000e+00
8.42937878787879e-02 1.04136128521042e+01 0.00000000000000e+00
8.45643939393939e-02 1.03051757541118e+01 0.00000000000000e+00
8.48350000000000e-02 1.01978678131553e+01 0.00000000000000e+00
8.51056060606061e-02 1.00916772713065e+01 0.00000000000000e+00
8.53762121212121e-02 9.98659249307267e+00 0.00000000000000e+00
