Energy (eV)          EEDF (eV^-(3/2))     First Anisotropy
6.52380952380952e-02 5.01096387151812e-02 4.08256019394814e-05
1.95714285714286e-01 4.92918914988588e-02 6.70901412529762e-05
3.26190476190476e-01 4.84874892283286e-02 8.77109912645193e-05
4.56666666666667e-01 4.76962141281848e-02 1.02865772980463e-04
5.87142857142857e-01 4.69178519722413e-02 1.15089077197126e-04
7.17619047619048e-01 4.61521920335155e-02 1.25353244200680e-04
8.48095238095238e-01 4.53990270213910e-02 1.34168438526805e-04
9.78571428571429e-01 4.46581530300981e-02 1.41846861559292e-04
1.10904761904762e+00 4.39293694822667e-02 1.48598271175843e-04
1.23952380952381e+00 4.32124790698328e-02 1.54572803339944e-04
1.37000000000000e+00 4.25072877068112e-02 1.59882969622177e-04
1.50047619047619e+00 4.18136044697510e-02 1.64616082302890e-04
1.63095238095238e+00 4.11312415609858e-02 1.68841786118079e-04
1.76142857142857e+00 4.04600142421812e-02 1.72616879671729e-04
1.89190476190476e+00 3.97997407897965e-02 1.75988538107838e-04
2.02238095238095e+00 3.91502424458804e-02 1.78996547482883e-04
2.15285714285714e+00 3.85113433696712e-02 1.81674900081624e-04
2.28333333333333e+00 3.78828705899889e-02 1.84052962935585e-04
2.41380952380952e+00 3.72646539584034e-02 1.86156352657619e-04
2.54428571428571e+00 3.66565261031690e-02 1.88007602998139e-04
2.67476190476190e+00 3.60583223839097e-02 1.89626682833948e-04
2.80523809523809e+00 3.54698808470452e-02 1.91031404109644e-04
2.93571428571429e+00 3.48910421819375e-02 1.92237747394010e-04
3.06619047619048e+00 3.43216496777741e-02 1.93260124803128e-04
3.19666666666667e+00 3.37615491811327e-02 1.94111594637411e-04
3.32714285714286e+00 3.32105890542467e-02 1.94804038318667e-04
3.45761904761905e+00 3.26686201339511e-02 1.95348307557713e-04
3.58809523809524e+00 3.21354956912996e-02 1.95754347765248e-04
3.71857142857143e+00 3.16110713918398e-02 1.96031302321872e-04
3.84904761904762e+00 3.10952052565367e-02 1.96187601289339e-04
3.97952380952381e+00 3.05877576233346e-02 1.96231037371027e-04
4.11000000000000e+00 3.00885911093458e-02 1.96168831457161e-04
4.24047619047619e+00 2.95975705724942e-02 1.96007688953555e-04
4.37095238095238e+00 2.91145630784892e-02 1.95753849363567e-04
4.50142857142857e+00 2.86394378611950e-02 1.95413129700846e-04
4.63190476190476e+00 2.81720662884696e-02 1.94990962069812e-04
4.76238095238095e+00 2.77123218273402e-02 1.94492427281625e-04
4.89285714285714e+00 2.72600800097464e-02 1.93922284534763e-04
5.02333333333333e+00 2.68152183988424e-02 1.93284997817260e-04
5.15380952380952e+00 2.63776165558492e-02 1.92584759476548e-04
5.28428571428571e+00 2.59471560074480e-02 1.91825511331689e-04
5.41476190476190e+00 2.55237202137054e-02 1.91010963644592e-04
5.54523809523810e+00 2.51071945365220e-02 1.90144612218935e-04
5.67571428571429e+00 2.46974662085950e-02 1.89229753855214e-04
5.80619047619048e+00 2.42944243028909e-02 1.88269500358577e-04
5.93666666666667e+00 2.38979597026123e-02 1.87266791267738e-04
6.06714285714286e+00 2.35079650716567e-02 1.86224405449529e-04
6.19761904761905e+00 2.31243348255565e-02 1.85144971685325e-04
6.32809523809524e+00 2.27469651028943e-02 1.84030978358465e-04
6.45857142857143e+00 2.23757537371839e-02 1.82884782337786e-04
6.58904761904762e+00 2.20106002292104e-02 1.81708617140474e-04
6.71952380952381e+00 2.16514057198219e-02 1.80504600447211e-04
6.85000000000000e+00 2.12980729631648e-02 1.79274741096336e-04
6.98047619047619e+00 2.09505062998597e-02 1.78020945298108e-04
7.11095238095238e+00 2.06086116326192e-02 1.76745022690998e-04
7.24142857142857e+00 2.02722963992292e-02 1.75448691968340e-04
7.37190476190476e+00 1.99414695480134e-02 1.74133585780772e-04
7.50238095238095e+00 1.96160415131827e-02 1.72801255547952e-04
7.63285714285714e+00 1.92959241905863e-02 1.71453175876132e-04
7.76333333333333e+00 1.89810309138593e-02 1.70090748677216e-04
7.89380952380952e+00 1.86712764309594e-02 1.68715307014473e-04
8.02428571428571e+00 1.83665768810858e-02 1.67328118697551e-04
8.15476190476191e+00 1.80668497719758e-02 1.65930389647153e-04
8.28523809523809e+00 1.77720139575711e-02 1.64523267047828e-04
8.41571428571429e+00 1.74819896160489e-02 1.63107842305276e-04
8.54619047619047e+00 1.71966982282116e-02 1.61685153823497e-04
8.67666666666667e+00 1.69160625562292e-02 1.60256189615407e-04
8.80714285714286e+00 1.66400066227283e-02 1.58821889759085e-04
8.93761904761905e+00 1.63684556902225e-02 1.57383148711143e-04
9.06809523809524e+00 1.61013362408783e-02 1.55940817487471e-04
9.19857142857143e+00 1.58385759566116e-02 1.54495705720734e-04
9.32904761904762e+00 1.55801036995089e-02 1.53048583603243e-04
9.45952380952381e+00 1.53258494925675e-02 1.51600183723047e-04
9.59000000000000e+00 1.50757445007508e-02 1.50151202837941e-04
9.72047619047619e+00 1.48297210121004e-02 1.48702303405139e-04
9.85095238095238e+00 1.45877124201714e-02 1.47254115214808e-04
9.98142857142857e+00 1.43496532052206e-02 1.45807237050339e-04
1.01119047619048e+01 1.41154789160337e-02 1.44362237680858e-04
1.02423809523810e+01 1.38851261543768e-02 1.42919657041085e-04
1.03728571428571e+01 1.36585325583164e-02 1.41480008732063e-04
1.05033333333333e+01 1.34356367792053e-02 1.40043780273131e-04
1.06338095238095e+01 1.32163784717888e-02 1.38611433614859e-04
1.07642857142857e+01 1.30006982755956e-02 1.37183407286061e-04
1.08947619047619e+01 1.27885377988667e-02 1.35760117066768e-04
1.10252380952381e+01 1.25798396027472e-02 1.34341956971307e-04
1.11557142857143e+01 1.23745471857324e-02 1.32929300183427e-04
1.12861904761905e+01 1.21726049683775e-02 1.31522499948694e-04
1.14166666666667e+01 1.19739582782472e-02 1.30121890426557e-04
1.15471428571429e+01 1.17785533351138e-02 1.28727787501728e-04
1.16776190476190e+01 1.15863372363974e-02 1.27340489297546e-04
1.18080952380952e+01 1.13972579444372e-02 1.25960277710412e-04
1.19385714285714e+01 1.12112642675545e-02 1.24587418582813e-04
1.20690476190476e+01 1.10283058511112e-02 1.23222161829157e-04
1.21995238095238e+01 1.08483331622142e-02 1.21864742912861e-04
1.23300000000000e+01 1.06712974763052e-02 1.20515383183516e-04
1.24604761904762e+01 1.04971508639686e-02 1.19174290467457e-04
1.25909523809524e+01 1.03258461779561e-02 1.17841659632782e-04
1.27214285714286e+01 1.01573370404239e-02 1.16517673130915e-04
1.28519047619048e+01 9.99157783037509e-03 1.15202501514970e-04
1.29823809523810e+01 9.82852367130906e-03 1.13896303725559e-04
1.31128571428571e+01 9.66813042028739e-03 1.12599228205001e-04
1.32433333333333e+01 9.51035465228548e-03 1.11311412923984e-04
1.33738095238095e+01 9.35515365218503e-03 1.10032985376432e-04
1.35042857142857e+01 9.20248540194234e-03 1.08764063666619e-04
1.36347619047619e+01 9.05230856921264e-03 1.07504756685395e-04
1.37652380952381e+01 8.90458249616004e-03 1.06255164495807e-04
1.38957142857143e+01 8.75926718844877e-03 1.05015378702326e-04
1.40261904761905e+01 8.61632330441829e-03 1.03785482805721e-04
1.41566666666667e+01 8.47571214443071e-03 1.02565552544219e-04
1.42871428571429e+01 8.33739564039350e-03 1.01355656220241e-04
1.44176190476190e+01 8.20133634545323e-03 1.00155854847720e-04
1.45480952380952e+01 8.06749742477201e-03 9.89662029597847e-05
1.46785714285714e+01 7.93584264277450e-03 9.77867485585267e-05
1.48090476190476e+01 7.80633635615627e-03 9.66175330430596e-05
1.49395238095238e+01 7.67894350328148e-03 9.54585920064036e-05
1.50700000000000e+01 7.55362959469058e-03 9.43099553139299e-05
1.52004761904762e+01 7.43036070376235e-03 9.31716473502766e-05
1.53309523809524e+01 7.30910345752945e-03 9.20436872566243e-05
1.54614285714286e+01 7.18982502764366e-03 9.09260891591851e-05
1.55919047619048e+01 7.07249312148771e-03 8.98188623887724e-05
1.57223809523810e+01 6.95707597343253e-03 8.87220115564301e-05
1.58528571428571e+01 6.84354233694852e-03 8.76355371672726e-05
1.59833333333333e+01 6.73186147398416e-03 8.65594355397912e-05
1.61138095238095e+01 6.62200314883511e-03 8.54936987092520e-05
1.62442857142857e+01 6.51393761921821e-03 8.44383150381134e-05
1.63747619047619e+01 6.40763562821922e-03 8.33932692447898e-05
1.65052380952381e+01 6.30306839637207e-03 8.23585425709712e-05
1.66357142857143e+01 6.20020761386659e-03 8.13341129421943e-05
1.67661904761905e+01 6.09902543288556e-03 8.03199551226250e-05
1.68966666666667e+01 5.99949446006463e-03 7.93160408642766e-05
1.70271428571429e+01 5.90158774907604e-03 7.83223390501660e-05
1.71576190476190e+01 5.80527879333336e-03 7.73388157240434e-05
1.72880952380952e+01 5.71054151935955e-03 7.63654345514937e-05
1.74185714285714e+01 5.61735027807387e-03 7.54021567271719e-05
1.75490476190476e+01 5.52567983952385e-03 7.44489408704042e-05
1.76795238095238e+01 5.43550538548853e-03 7.35057434869662e-05
1.78100000000000e+01 5.34680250275941e-03 7.25725189671014e-05
1.79404761904762e+01 5.25954717653069e-03 7.16492196950319e-05
1.80709523809524e+01 5.17371578389797e-03 7.07357961543041e-05
1.82014285714286e+01 5.08928508746300e-03 6.98321970293765e-05
1.83319047619048e+01 5.00623222904225e-03 6.89383693033280e-05
1.84623809523810e+01 4.92453472347848e-03 6.80542582633518e-05
1.85928571428571e+01 4.84417045298221e-03 6.71798078595926e-05
1.87233333333333e+01 4.76511765984019e-03 6.63149606119826e-05
1.88538095238095e+01 4.68735494184545e-03 6.54596575081616e-05
1.89842857142857e+01 4.61086124605695e-03 6.46138383647701e-05
1.91147619047619e+01 4.53561586309993e-03 6.37774418102622e-05
1.92452380952381e+01 4.46159842155913e-03 6.29504053595477e-05
1.93757142857143e+01 4.38878888246330e-03 6.21326654855713e-05
1.95061904761905e+01 4.31716753386063e-03 6.13241576883138e-05
1.96366666666667e+01 4.24671498548181e-03 6.05248165613190e-05
1.97671428571429e+01 4.17741216349032e-03 5.97345758554328e-05
1.98976190476190e+01 4.10924030531863e-03 5.89533684690517e-05
2.00280952380952e+01 4.04218095492079e-03 5.81811267229859e-05
2.01585714285714e+01 3.97621595676608e-03 5.74177822723004e-05
2.02890476190476e+01 3.91132745194649e-03 5.66632660114113e-05
2.04195238095238e+01 3.84749787299631e-03 5.59175083522419e-05
2.05500000000000e+01 3.78470993913608e-03 5.51804391984718e-05
2.06804761904762e+01 3.72294665159399e-03 5.44519879939042e-05
2.08109523809524e+01 3.66219128900383e-03 5.37320837688971e-05
2.09414285714286e+01 3.60242740287815e-03 5.30206551850864e-05
2.10719047619048e+01 3.54363881315497e-03 5.23176305782984e-05
2.12023809523810e+01 3.48580960381728e-03 5.16229379412751e-05
2.13328571428571e+01 3.42892411884853e-03 5.09365051405018e-05
2.14633333333333e+01 3.37296695719054e-03 5.02582598351388e-05
2.15938095238095e+01 3.31792296938771e-03 4.95881293906686e-05
2.17242857142857e+01 3.26377725321079e-03 4.89260410992335e-05
2.18547619047619e+01 3.21051514962235e-03 4.82719221505779e-05
2.19852380952381e+01 3.15812223880812e-03 4.76256996642023e-05
2.21157142857143e+01 3.10658433627284e-03 4.69873007200447e-05
2.22461904761905e+01 3.05588748900047e-03 4.63566523879709e-05
2.23766666666667e+01 3.00601797167646e-03 4.57336817561179e-05
2.25071428571429e+01 2.95696228297180e-03 4.51183159578950e-05
2.26376190476190e+01 2.90870714188781e-03 4.45104821506777e-05
2.27680952380952e+01 2.86123948436737e-03 4.39101076838272e-05
2.28985714285714e+01 2.81454645912972e-03 4.33171200262613e-05
2.30290476190476e+01 2.76861542482748e-03 4.27314466899328e-05
2.31595238095238e+01 2.72343394640941e-03 4.21530154012862e-05
2.32900000000000e+01 2.67898979175384e-03 4.15817540714449e-05
2.34204761904762e+01 2.63527092835695e-03 4.10175908159449e-05
2.35509523809524e+01 2.59226552007524e-03 4.04604539735557e-05
2.36814285714286e+01 2.54996192392121e-03 3.99102721243045e-05
2.38119047619048e+01 2.50834868691108e-03 3.93669741066363e-05
2.39423809523810e+01 2.46741454296414e-03 3.88304889948097e-05
2.40728571428571e+01 2.42714841001847e-03 3.83007462325563e-05
2.42033333333333e+01 2.38753938652691e-03 3.77776755686211e-05
2.43338095238095e+01 2.34857674901577e-03 3.72612069890497e-05
2.44642857142857e+01 2.31024994900941e-03 3.67512708540629e-05
2.45947619047619e+01 2.27254861017443e-03 3.62477978690913e-05
2.47252380952381e+01 2.23546252551046e-03 3.57507190968342e-05
2.48557142857143e+01 2.19898165458666e-03 3.52599659686090e-05
2.49861904761905e+01 2.16309612082370e-03 3.47754702951512e-05
2.51166666666667e+01 2.12779620881969e-03 3.42971642768766e-05
2.52471428571429e+01 2.09307236171993e-03 3.38249805134959e-05
2.53776190476190e+01 2.05891517862956e-03 3.33588519815530e-05
2.55080952380952e+01 2.02531541219901e-03 3.28987121387617e-05
2.56385714285714e+01 1.99226396572374e-03 3.24444948678085e-05
2.57690476190476e+01 1.95975189108312e-03 3.19961344176116e-05
2.58995238095238e+01 1.92777038618236e-03 3.15535655105647e-05
2.60300000000000e+01 1.89631079256941e-03 3.11167233154213e-05
2.61604761904762e+01 1.86536459309086e-03 3.06855434534937e-05
2.62909523809524e+01 1.83492340958603e-03 3.02599620044193e-05
2.64214285714286e+01 1.80497900061887e-03 2.98399155115623e-05
2.65519047619048e+01 1.77552325924659e-03 2.94253409870131e-05
2.66823809523809e+01 1.74654821082488e-03 2.90161758900888e-05
2.68128571428571e+01 1.71804601095431e-03 2.86123582107784e-05
2.69433333333333e+01 1.69000894303654e-03 2.82138264204991e-05
2.70738095238095e+01 1.66242941650918e-03 2.78205194208152e-05
2.72042857142857e+01 1.63529996468144e-03 2.74323766294884e-05
2.73347619047619e+01 1.60861324271264e-03 2.70493379554696e-05
2.74652380952381e+01 1.58236202562371e-03 2.66713438015385e-05
2.75957142857143e+01 1.55653920634110e-03 2.62983350666068e-05
2.77261904761905e+01 1.53113779377278e-03 2.59302531477727e-05
2.78566666666667e+01 1.50615091091546e-03 2.55670399421431e-05
2.79871428571429e+01 1.48157179299276e-03 2.52086378483484e-05
2.81176190476190e+01 1.45739378562376e-03 2.48549897466035e-05
2.82480952380952e+01 1.43361034310489e-03 2.45060390641521e-05
2.83785714285714e+01 1.41021502638434e-03 2.41617297328785e-05
2.85090476190476e+01 1.38720150157540e-03 2.38220061453111e-05
2.86395238095238e+01 1.36456353815506e-03 2.34868132223486e-05
2.87700000000000e+01 1.34229500727719e-03 2.31560963907443e-05
2.89004761904762e+01 1.32038988011327e-03 2.28298015830932e-05
2.90309523809524e+01 1.29884222622016e-03 2.25078752376255e-05
2.91614285714286e+01 1.27764621193462e-03 2.21902642978511e-05
2.92919047619048e+01 1.25679609879386e-03 2.18769162120234e-05
2.94223809523810e+01 1.23628624198198e-03 2.15677789148318e-05
2.95528571428571e+01 1.21611108886938e-03 2.12628008799269e-05
2.96833333333333e+01 1.19626517730404e-03 2.09619310830915e-05
2.98138095238095e+01 1.17674313434071e-03 2.06651189641115e-05
2.99442857142857e+01 1.15753967471608e-03 2.03723144813045e-05
3.00747619047619e+01 1.13864959941788e-03 2.00834680912702e-05
3.02052380952381e+01 1.12006779427737e-03 1.97985307473491e-05
3.03357142857143e+01 1.10178922858467e-03 1.95174538979311e-05
3.04661904761905e+01 1.08380895372691e-03 1.92401894846720e-05
3.05966666666667e+01 1.06612210184844e-03 1.89666899406188e-05
3.07271428571429e+01 1.04872388453287e-03 1.86969081882008e-05
3.08576190476190e+01 1.03160959150677e-03 1.84307976227901e-05
3.09880952380952e+01 1.01477458941826e-03 1.81683121540240e-05
3.11185714285714e+01 9.98214320419076e-04 1.79094061743303e-05
3.12490476190476e+01 9.81924301096164e-04 1.76540345264246e-05
3.13795238095238e+01 9.65900121201988e-04 1.74021525463591e-05
3.15100000000000e+01 9.50137442460544e-04 1.71537160456565e-05
3.16404761904762e+01 9.34631997392828e-04 1.69086813087086e-05
3.17709523809524e+01 9.19379588161504e-04 1.66670050900998e-05
3.19014285714286e+01 9.04376085434423e-04 1.64286446118814e-05
3.20319047619048e+01 8.89617427266666e-04 1.61935575607821e-05
3.21623809523809e+01 8.75099618000835e-04 1.59617020734360e-05
3.22928571428571e+01 8.60818727229114e-04 1.57330367696185e-05
3.24233333333333e+01 8.46770888596144e-04 1.55075207250400e-05
3.25538095238095e+01 8.32952298886930e-04 1.52851134433048e-05
3.26842857142857e+01 8.19359216951744e-04 1.50657748906473e-05
3.28147619047619e+01 8.05987962693276e-04 1.48494654800917e-05
3.29452380952381e+01 7.92834916070308e-04 1.46361460683217e-05
3.30757142857143e+01 7.79896516117625e-04 1.44257779524928e-05
3.32061904761905e+01 7.67169259981995e-04 1.42183228670251e-05
3.33366666666667e+01 7.54649701973803e-04 1.40137429803761e-05
3.34671428571429e+01 7.42334452634188e-04 1.38120008917628e-05
3.35976190476190e+01 7.30220177817410e-04 1.36130596181372e-05
3.37280952380952e+01 7.18303597823192e-04 1.34168826203823e-05
3.38585714285714e+01 7.06581486402499e-04 1.32234337801658e-05
3.39890476190476e+01 6.95050669991676e-04 1.30326773761316e-05
3.41195238095238e+01 6.83708026816960e-04 1.28445781113790e-05
3.42500000000000e+01 6.72550486049308e-04 1.26591010996574e-05
3.43804761904762e+01 6.61575026973016e-04 1.24762118619482e-05
3.45109523809524e+01 6.50778678167918e-04 1.22958763230311e-05
3.46414285714286e+01 6.40158516704938e-04 1.21180608080517e-05
3.47719047619048e+01 6.29711667354741e-04 1.19427320390739e-05
3.49023809523810e+01 6.19435301809318e-04 1.17698571235257e-05
3.50328571428571e+01 6.09326637944850e-04 1.15994035752968e-05
3.51633333333333e+01 5.99382938981718e-04 1.14313392947965e-05
3.52938095238095e+01 5.89601512831393e-04 1.12656325484706e-05
3.54242857142857e+01 5.79979711337966e-04 1.11022519910076e-05
3.55547619047619e+01 5.70514929561207e-04 1.09411666532056e-05
3.56852380952381e+01 5.61204605071318e-04 1.07823459385023e-05
3.58157142857143e+01 5.52046217255187e-04 1.06257596194954e-05
3.59461904761905e+01 5.43037286634004e-04 1.04713778344746e-05
3.60766666666667e+01 5.34175374191964e-04 1.03191710839638e-05
3.62071428571429e+01 5.25458080715951e-04 1.01691102272582e-05
3.63376190476190e+01 5.16883046145990e-04 1.00211664723487e-05
3.64680952380952e+01 5.08447948959213e-04 9.87531139256684e-06
3.65985714285714e+01 5.00150505471781e-04 9.73151690966968e-06
3.67290476190476e+01 4.91988469291020e-04 9.58975527649717e-06
3.68595238095238e+01 4.83959630683497e-04 9.44999909455763e-06
3.69900000000000e+01 4.76061815976767e-04 9.31222130353754e-06
3.71204761904762e+01 4.68292886970889e-04 9.17639517790374e-06
3.72509523809524e+01 4.60650740359547e-04 9.04249432351569e-06
3.73814285714286e+01 4.53133307160619e-04 8.91049267425722e-06
3.75119047619048e+01 4.45738552156032e-04 8.78036448868042e-06
3.76423809523809e+01 4.38464473340760e-04 8.65208434114283e-06
3.77728571428571e+01 4.31309101399578e-04 8.52562713521994e-06
3.79033333333333e+01 4.24270499116945e-04 8.40096808916314e-06
3.80338095238095e+01 4.17346760910176e-04 8.27808272100878e-06
3.81642857142857e+01 4.10536012294095e-04 8.15694686280125e-06
3.82947619047619e+01 4.03836409373547e-04 8.03753665142800e-06
3.84252380952381e+01 3.97246138344197e-04 7.91982852537717e-06
3.85557142857143e+01 3.90763415001459e-04 7.80379922150639e-06
3.86861904761905e+01 3.84386484257478e-04 7.68942577183421e-06
3.88166666666667e+01 3.78113619665954e-04 7.57668550035652e-06
3.89471428571429e+01 3.71943122954742e-04 7.46555601987471e-06
3.90776190476190e+01 3.65873323566067e-04 7.35601522432519e-06
3.92080952380952e+01 3.59902578219339e-04 7.24804129936397e-06
3.93385714285714e+01 3.54029270420466e-04 7.14161271005919e-06
3.94690476190476e+01 3.48251810070560e-04 7.03670818830439e-06
3.95995238095238e+01 3.42568633019810e-04 6.93330674408902e-06
3.97300000000000e+01 3.36978200644013e-04 6.83138765761915e-06
3.98604761904762e+01 3.31478999428017e-04 6.73093047629166e-06
3.99909523809524e+01 3.26069540555965e-04 6.63191501168979e-06
4.01214285714286e+01 3.20748359508226e-04 6.53432133660548e-06
4.02519047619048e+01 3.15514015664897e-04 6.43812978208180e-06
4.03823809523809e+01 3.10365091915782e-04 6.34332093070500e-06
4.05128571428571e+01 3.05300194289111e-04 6.24987562513256e-06
4.06433333333333e+01 3.00317951536564e-04 6.15777495752905e-06
4.07738095238095e+01 2.95417014800063e-04 6.06700025877474e-06
4.09042857142857e+01 2.90596057233759e-04 5.97753310758242e-06
4.10347619047619e+01 2.85853773644810e-04 5.88935532364219e-06
4.11652380952381e+01 2.81188880140026e-04 5.80244896482550e-06
