Energy (eV)          EEDF (eV^-(3/2))     First Anisotropy
3.04000000000000e-02 1.21269776121949e-01 9.05106181345609e-05
9.12000000000000e-02 1.19606782277990e-01 1.48934668409266e-04
1.52000000000000e-01 1.17966593362076e-01 1.95227114131841e-04
2.12800000000000e-01 1.16348896646244e-01 2.29565186498876e-04
2.73600000000000e-01 1.14753383690994e-01 2.57524326940557e-04
3.34400000000000e-01 1.13179750286504e-01 2.81234599693051e-04
3.95200000000000e-01 1.11627696394633e-01 3.01809256871873e-04
4.56000000000000e-01 1.10096926091718e-01 3.19927034946798e-04
5.16800000000000e-01 1.08587147512146e-01 3.36042328774739e-04
5.77600000000000e-01 1.07098072792711e-01 3.50479266392506e-04
6.38400000000000e-01 1.05629418017724e-01 3.63479960290827e-04
6.99200000000000e-01 1.04180903164884e-01 3.75231721364685e-04
7.60000000000000e-01 1.02752252051883e-01 3.85883528203932e-04
8.20800000000000e-01 1.01343192283750e-01 3.95556553011482e-04
8.81600000000000e-01 9.99534552009168e-02 4.04351189065664e-04
9.42400000000000e-01 9.85827758279884e-02 4.12351913348305e-04
1.00320000000000e+00 9.72308928232254e-02 4.19630753329294e-04
1.06400000000000e+00 9.58975484287135e-02 4.26249822146690e-04
1.12480000000000e+00 9.45824884212185e-02 4.32263213480075e-04
1.18560000000000e+00 9.32854620637139e-02 4.37718445030197e-04
1.24640000000000e+00 9.20062220575744e-02 4.42657576666221e-04
1.30720000000000e+00 9.07445244954247e-02 4.47118089486745e-04
1.36800000000000e+00 8.95001288146340e-02 4.51133586113504e-04
1.42880000000000e+00 8.82727977514494e-02 4.54734355237698e-04
1.48960000000000e+00 8.70622972957578e-02 4.57947831643508e-04
1.55040000000000e+00 8.58683966464681e-02 4.60798974732621e-04
1.61120000000000e+00 8.46908681675052e-02 4.63310582771276e-04
1.67200000000000e+00 8.35294873444079e-02 4.65503555909988e-04
1.73280000000000e+00 8.23840327415210e-02 4.67397117983630e-04
1.79360000000000e+00 8.12542859597760e-02 4.69009004850629e-04
1.85440000000000e+00 8.01400315950490e-02 4.70355625347425e-04
1.91520000000000e+00 7.90410571970911e-02 4.71452199661090e-04
1.97600000000000e+00 7.79571532290211e-02 4.72312878949459e-04
2.03680000000000e+00 7.68881130273739e-02 4.72950849286496e-04
2.09760000000000e+00 7.58337327626972e-02 4.73378422425379e-04
2.15840000000000e+00 7.47938114006879e-02 4.73607115411577e-04
2.21920000000000e+00 7.37681506638617e-02 4.73647720714100e-04
2.28000000000000e+00 7.27565549937484e-02 4.73510368252865e-04
2.34080000000000e+00 7.17588315136057e-02 4.73204580466577e-04
2.40160000000000e+00 7.07747899916442e-02 4.72739321377094e-04
2.46240000000000e+00 6.98042428047564e-02 4.72123040452961e-04
2.52320000000000e+00 6.88470049027437e-02 4.71363711949067e-04
2.58400000000000e+00 6.79028937730335e-02 4.70468870296410e-04
2.64480000000000e+00 6.69717294058805e-02 4.69445642030566e-04
2.70560000000000e+00 6.60533342600444e-02 4.68300774676441e-04
2.76640000000000e+00 6.51475332289397e-02 4.67040662947798e-04
2.82720000000000e+00 6.42541536072482e-02 4.65671372570352e-04
2.88800000000000e+00 6.33730250579903e-02 4.64198661995353e-04
2.94880000000000e+00 6.25039795800472e-02 4.62628002235380e-04
3.00960000000000e+00 6.16468514761295e-02 4.60964595023980e-04
3.07040000000000e+00 6.08014773211837e-02 4.59213389475093e-04
3.13120000000000e+00 5.99676959312331e-02 4.57379097396525e-04
3.19200000000000e+00 5.91453483326449e-02 4.55466207392880e-04
3.25280000000000e+00 5.83342777318204e-02 4.53478997877288e-04
3.31360000000000e+00 5.75343294852987e-02 4.51421549097178e-04
3.37440000000000e+00 5.67453510702723e-02 4.49297754267405e-04
3.43520000000000e+00 5.59671920555056e-02 4.47111329893572e-04
3.49600000000000e+00 5.51997040726533e-02 4.44865825359088e-04
3.55680000000000e+00 5.44427407879713e-02 4.42564631841750e-04
3.61760000000000e+00 5.36961578744159e-02 4.40210990618471e-04
3.67840000000000e+00 5.29598129841258e-02 4.37808000810706e-04
3.73920000000000e+00 5.22335657212810e-02 4.35358626617852e-04
3.80000000000000e+00 5.15172776153339e-02 4.32865704080918e-04
3.86080000000000e+00 5.08108120946084e-02 4.30331947414740e-04
3.92160000000000e+00 5.01140344602597e-02 4.27759954943259e-04
3.98240000000000e+00 4.94268118605918e-02 4.25152214668963e-04
4.04320000000000e+00 4.87490132657277e-02 4.22511109504849e-04
4.10400000000000e+00 4.80805094426264e-02 4.19838922194470e-04
4.16480000000000e+00 4.74211729304419e-02 4.17137839943390e-04
4.22560000000000e+00 4.67708780162218e-02 4.14409958783242e-04
4.28640000000000e+00 4.61295007109373e-02 4.11657287687726e-04
4.34720000000000e+00 4.54969187258430e-02 4.08881752458192e-04
4.40800000000000e+00 4.48730114491610e-02 4.06085199394912e-04
4.46880000000000e+00 4.42576599230835e-02 4.03269398768890e-04
4.52960000000000e+00 4.36507468210926e-02 4.00436048107710e-04
4.59040000000000e+00 4.30521564255893e-02 3.97586775307837e-04
4.65120000000000e+00 4.24617746058305e-02 3.94723141584852e-04
4.71200000000000e+00 4.18794887961683e-02 3.91846644272107e-04
4.77280000000000e+00 4.13051879745873e-02 3.88958719477519e-04
4.83360000000000e+00 4.07387626415366e-02 3.86060744607491e-04
4.89440000000000e+00 4.01801047990520e-02 3.83154040766076e-04
4.95520000000000e+00 3.96291079301643e-02 3.80239875037195e-04
5.01600000000000e+00 3.90856669785905e-02 3.77319462656935e-04
5.07680000000000e+00 3.85496783287028e-02 3.74393969082424e-04
5.13760000000000e+00 3.80210397857729e-02 3.71464511963446e-04
5.19840000000000e+00 3.74996505564867e-02 3.68532163022358e-04
5.25920000000000e+00 3.69854112297268e-02 3.65597949847689e-04
5.32000000000000e+00 3.64782237576179e-02 3.62662857606211e-04
5.38080000000000e+00 3.59779914368325e-02 3.59727830678047e-04
5.44160000000000e+00 3.54846188901529e-02 3.56793774219039e-04
5.50240000000000e+00 3.49980120482860e-02 3.53861555654453e-04
5.56320000000000e+00 3.45180781319277e-02 3.50932006107581e-04
5.62400000000000e+00 3.40447256340726e-02 3.48005921766764e-04
5.68480000000000e+00 3.35778643025672e-02 3.45084065194084e-04
5.74560000000000e+00 3.31174051229016e-02 3.42167166578690e-04
5.80640000000000e+00 3.26632603012377e-02 3.39255924937703e-04
5.86720000000000e+00 3.22153432476697e-02 3.36351009267231e-04
5.92800000000000e+00 3.17735685597145e-02 3.33453059646113e-04
5.98880000000000e+00 3.13378520060284e-02 3.30562688294656e-04
6.04960000000000e+00 3.09081105103469e-02 3.27680480590604e-04
6.11040000000000e+00 3.04842621356449e-02 3.24806996044433e-04
6.17120000000000e+00 3.00662260685143e-02 3.21942769235871e-04
6.23200000000000e+00 2.96539226037556e-02 3.19088310713559e-04
6.29280000000000e+00 2.92472731291805e-02 3.16244107859485e-04
6.35360000000000e+00 2.88462001106238e-02 3.13410625719935e-04
6.41440000000000e+00 2.84506270771599e-02 3.10588307804456e-04
6.47520000000000e+00 2.80604786065224e-02 3.07777576854242e-04
6.53600000000000e+00 2.76756803107239e-02 3.04978835581431e-04
6.59680000000000e+00 2.72961588218724e-02 3.02192467380502e-04
6.65760000000000e+00 2.69218417781830e-02 2.99418837013068e-04
6.71840000000000e+00 2.65526578101806e-02 2.96658291267266e-04
6.77920000000000e+00 2.61885365270922e-02 2.93911159592743e-04
6.84000000000000e+00 2.58294085034262e-02 2.91177754712378e-04
6.90080000000000e+00 2.54752052657347e-02 2.88458373211720e-04
6.96160000000000e+00 2.51258592795585e-02 2.85753296107018e-04
7.02240000000000e+00 2.47813039365502e-02 2.83062789392836e-04
7.08320000000000e+00 2.44414735417744e-02 2.80387104570057e-04
7.14400000000000e+00 2.41063033011823e-02 2.77726479155060e-04
7.20480000000000e+00 2.37757293092568e-02 2.75081137170848e-04
7.26560000000000e+00 2.34496885368288e-02 2.72451289620916e-04
7.32640000000000e+00 2.31281188190593e-02 2.69837134946513e-04
7.38720000000000e+00 2.28109588435864e-02 2.67238859467904e-04
7.44800000000000e+00 2.24981481388359e-02 2.64656637810366e-04
7.50880000000000e+00 2.21896270624907e-02 2.62090633315454e-04
7.56960000000000e+00 2.18853367901192e-02 2.59540998438134e-04
7.63040000000000e+00 2.15852193039600e-02 2.57007875130302e-04
7.69120000000000e+00 2.12892173818591e-02 2.54491395211268e-04
7.75200000000000e+00 2.09972745863602e-02 2.51991680725647e-04
7.81280000000000e+00 2.07093352539439e-02 2.49508844289130e-04
7.87360000000000e+00 2.04253444844142e-02 2.47042989422659e-04
7.93440000000000e+00 2.01452481304313e-02 2.44594210875375e-04
7.99520000000000e+00 1.98689927871876e-02 2.42162594936762e-04
8.05600000000000e+00 1.95965257822247e-02 2.39748219738407e-04
8.11680000000000e+00 1.93277951653913e-02 2.37351155545741e-04
8.17760000000000e+00 1.90627496989374e-02 2.34971465040136e-04
8.23840000000000e+00 1.88013388477454e-02 2.32609203591701e-04
8.29920000000000e+00 1.85435127696947e-02 2.30264419523098e-04
8.36000000000000e+00 1.82892223061586e-02 2.27937154364731e-04
8.42080000000000e+00 1.80384189726312e-02 2.25627443101589e-04
8.48160000000000e+00 1.77910549494832e-02 2.23335314411999e-04
8.54240000000000e+00 1.75470830728443e-02 2.21060790898687e-04
8.60320000000000e+00 1.73064568256107e-02 2.18803889312297e-04
8.66400000000000e+00 1.70691303285759e-02 2.16564620767678e-04
8.72480000000000e+00 1.68350583316830e-02 2.14342990953215e-04
8.78560000000000e+00 1.66041962053971e-02 2.12139000333378e-04
8.84640000000000e+00 1.63764999321961e-02 2.09952644344790e-04
8.90720000000000e+00 1.61519260981778e-02 2.07783913585980e-04
8.96800000000000e+00 1.59304318847827e-02 2.05632794001040e-04
9.02880000000000e+00 1.57119750606295e-02 2.03499267057457e-04
9.08960000000000e+00 1.54965139734635e-02 2.01383309918219e-04
9.15040000000000e+00 1.52840075422146e-02 1.99284895608441e-04
9.21120000000000e+00 1.50744152491648e-02 1.97203993176693e-04
9.27200000000000e+00 1.48676971322225e-02 1.95140567851171e-04
9.33280000000000e+00 1.46638137773036e-02 1.93094581190937e-04
9.39360000000000e+00 1.44627263108161e-02 1.91065991232328e-04
9.45440000000000e+00 1.42643963922483e-02 1.89054752630721e-04
9.51520000000000e+00 1.40687862068591e-02 1.87060816797812e-04
9.57600000000000e+00 1.38758584584673e-02 1.85084132034547e-04
9.63680000000000e+00 1.36855763623409e-02 1.83124643659826e-04
9.69760000000000e+00 1.34979036381834e-02 1.81182294135146e-04
9.75840000000000e+00 1.33128045032164e-02 1.79257023185294e-04
9.81920000000000e+00 1.31302436653572e-02 1.77348767915211e-04
9.88000000000000e+00 1.29501863164896e-02 1.75457462923170e-04
9.94080000000000e+00 1.27725981258270e-02 1.73583040410364e-04
1.00016000000000e+01 1.25974452333672e-02 1.71725430287026e-04
1.00624000000000e+01 1.24246942434362e-02 1.69884560275202e-04
1.01232000000000e+01 1.22543122183207e-02 1.68060356008232e-04
1.01840000000000e+01 1.20862666719879e-02 1.66252741127107e-04
1.02448000000000e+01 1.19205255638919e-02 1.64461637373773e-04
1.03056000000000e+01 1.17570572928646e-02 1.62686964681447e-04
1.03664000000000e+01 1.15958306910899e-02 1.60928641262097e-04
1.04272000000000e+01 1.14368150181619e-02 1.59186583691106e-04
1.04880000000000e+01 1.12799799552229e-02 1.57460706989252e-04
1.05488000000000e+01 1.11252955991833e-02 1.55750924702100e-04
1.06096000000000e+01 1.09727324570199e-02 1.54057148976823e-04
1.06704000000000e+01 1.08222614401523e-02 1.52379290636583e-04
1.07312000000000e+01 1.06738538588971e-02 1.50717259252533e-04
1.07920000000000e+01 1.05274814169976e-02 1.49070963213491e-04
1.08528000000000e+01 1.03831162062285e-02 1.47440309793405e-04
1.09136000000000e+01 1.02407307010751e-02 1.45825205216623e-04
1.09744000000000e+01 1.01002977534849e-02 1.44225554721060e-04
1.10352000000000e+01 9.96179058769144e-03 1.42641262619332e-04
1.10960000000000e+01 9.82518279510893e-03 1.41072232357889e-04
1.11568000000000e+01 9.69044832929735e-03 1.39518366574245e-04
1.12176000000000e+01 9.55756150099605e-03 1.37979567152335e-04
1.12784000000000e+01 9.42649697322573e-03 1.36455735276061e-04
1.13392000000000e+01 9.29722975645758e-03 1.34946771481080e-04
1.14000000000000e+01 9.16973520384860e-03 1.33452575704891e-04
1.14608000000000e+01 9.04398900654231e-03 1.31973047335286e-04
1.15216000000000e+01 8.91996718903385e-03 1.30508085257170e-04
1.15824000000000e+01 8.79764610459870e-03 1.29057587897842e-04
1.16432000000000e+01 8.67700243078405e-03 1.27621453270754e-04
1.17040000000000e+01 8.55801316496199e-03 1.26199579017824e-04
1.17648000000000e+01 8.44065561994373e-03 1.24791862450307e-04
1.18256000000000e+01 8.32490741965388e-03 1.23398200588304e-04
1.18864000000000e+01 8.21074649486414e-03 1.22018490198914e-04
1.19472000000000e+01 8.09815107898541e-03 1.20652627833093e-04
1.20080000000000e+01 7.98709970391770e-03 1.19300509861260e-04
1.20688000000000e+01 7.87757119595682e-03 1.17962032507664e-04
1.21296000000000e+01 7.76954467175736e-03 1.16637091883568e-04
1.21904000000000e+01 7.66299953435091e-03 1.15325584019290e-04
1.22512000000000e+01 7.55791546921891e-03 1.14027404895110e-04
1.23120000000000e+01 7.45427244041937e-03 1.12742450471089e-04
1.23728000000000e+01 7.35205068676672e-03 1.11470616715846e-04
1.24336000000000e+01 7.25123071806403e-03 1.10211799634303e-04
1.24944000000000e+01 7.15179331138686e-03 1.08965895294432e-04
1.25552000000000e+01 7.05371950741812e-03 1.07732799853044e-04
1.26160000000000e+01 6.95699060683321e-03 1.06512409580642e-04
1.26768000000000e+01 6.86158816673464e-03 1.05304620885359e-04
1.27376000000000e+01 6.76749399713565e-03 1.04109330336012e-04
1.27984000000000e+01 6.67469015749196e-03 1.02926434684309e-04
1.28592000000000e+01 6.58315895328116e-03 1.01755830886220e-04
1.29200000000000e+01 6.49288293262894e-03 1.00597416122539e-04
1.29808000000000e+01 6.40384488298162e-03 9.94510878186602e-05
1.30416000000000e+01 6.31602782782430e-03 9.83167436635943e-05
1.31024000000000e+01 6.22941502344404e-03 9.71942816282574e-05
1.31632000000000e+01 6.14398995573739e-03 9.60835999830339e-05
1.32240000000000e+01 6.05973633706169e-03 9.49845973146396e-05
1.32848000000000e+01 5.97663810312965e-03 9.38971725423209e-05
1.33456000000000e+01 5.89467940994633e-03 9.28212249333962e-05
1.34064000000000e+01 5.81384463078832e-03 9.17566541181582e-05
1.34672000000000e+01 5.73411835322423e-03 9.07033601041592e-05
1.35280000000000e+01 5.65548537617604e-03 8.96612432898956e-05
1.35888000000000e+01 5.57793070702081e-03 8.86302044779263e-05
1.36496000000000e+01 5.50143955873209e-03 8.76101448874129e-05
1.37104000000000e+01 5.42599734706051e-03 8.66009661661136e-05
1.37712000000000e+01 5.35158968775312e-03 8.56025704018510e-05
1.38320000000000e+01 5.27820239381074e-03 8.46148601334664e-05
1.38928000000000e+01 5.20582147278304e-03 8.36377383612725e-05
1.39536000000000e+01 5.13443312410060e-03 8.26711085570192e-05
1.40144000000000e+01 5.06402373644367e-03 8.17148746733965e-05
1.40752000000000e+01 4.99457988514691e-03 8.07689411530689e-05
1.41360000000000e+01 4.92608832963981e-03 7.98332129372800e-05
1.41968000000000e+01 4.85853601092212e-03 7.89075954740283e-05
1.42576000000000e+01 4.79191004907398e-03 7.79919947258166e-05
1.43184000000000e+01 4.72619774080012e-03 7.70863171770061e-05
1.43792000000000e+01 4.66138655700784e-03 7.61904698407765e-05
1.44400000000000e+01 4.59746414041805e-03 7.53043602657087e-05
1.45008000000000e+01 4.53441830320924e-03 7.44278965420005e-05
1.45616000000000e+01 4.47223702469366e-03 7.35609873073249e-05
1.46224000000000e+01 4.41090844902534e-03 7.27035417523409e-05
1.46832000000000e+01 4.35042088293963e-03 7.18554696258724e-05
1.47440000000000e+01 4.29076279352370e-03 7.10166812397625e-05
1.48048000000000e+01 4.23192280601757e-03 7.01870874734151e-05
1.48656000000000e+01 4.17388970164535e-03 6.93665997780252e-05
1.49264000000000e+01 4.11665241547621e-03 6.85551301805202e-05
1.49872000000000e+01 4.06020003431468e-03 6.77525912872185e-05
1.50480000000000e+01 4.00452179461985e-03 6.69588962871985e-05
1.51088000000000e+01 3.94960708045315e-03 6.61739589554133e-05
1.51696000000000e+01 3.89544542145425e-03 6.53976936555385e-05
1.52304000000000e+01 3.84202649084472e-03 6.46300153425705e-05
1.52912000000000e+01 3.78934010345906e-03 6.38708395651839e-05
1.53520000000000e+01 3.73737621380276e-03 6.31200824678437e-05
1.54128000000000e+01 3.68612491413693e-03 6.23776607927015e-05
1.54736000000000e+01 3.63557643258926e-03 6.16434918812684e-05
1.55344000000000e+01 3.58572113129084e-03 6.09174936758702e-05
1.55952000000000e+01 3.53654950453858e-03 6.01995847208945e-05
1.56560000000000e+01 3.48805217698275e-03 5.94896841638483e-05
1.57168000000000e+01 3.44021990183946e-03 5.87877117562155e-05
1.57776000000000e+01 3.39304355912760e-03 5.80935878541264e-05
1.58384000000000e+01 3.34651415392995e-03 5.74072334188511e-05
1.58992000000000e+01 3.30062281467821e-03 5.67285700171154e-05
1.59600000000000e+01 3.25536079146143e-03 5.60575198212513e-05
1.60208000000000e+01 3.21071945435776e-03 5.53940056091835e-05
1.60816000000000e+01 3.16669029178898e-03 5.47379507642612e-05
1.61424000000000e+01 3.12326490889765e-03 5.40892792749327e-05
1.62032000000000e+01 3.08043502594646e-03 5.34479157342752e-05
1.62640000000000e+01 3.03819247673966e-03 5.28137853393894e-05
1.63248000000000e+01 2.99652920706592e-03 5.21868138906535e-05
1.63856000000000e+01 2.95543727316278e-03 5.15669277908433e-05
1.64464000000000e+01 2.91490884020196e-03 5.09540540441282e-05
1.65072000000000e+01 2.87493618079560e-03 5.03481202549482e-05
1.65680000000000e+01 2.83551167352284e-03 4.97490546267696e-05
1.66288000000000e+01 2.79662780147672e-03 4.91567859607252e-05
1.66896000000000e+01 2.75827715083097e-03 4.85712436541521e-05
1.67504000000000e+01 2.72045240942641e-03 4.79923576990196e-05
1.68112000000000e+01 2.68314636537678e-03 4.74200586802542e-05
1.68720000000000e+01 2.64635190569371e-03 4.68542777739739e-05
1.69328000000000e+01 2.61006201493049e-03 4.62949467456241e-05
1.69936000000000e+01 2.57426977384446e-03 4.57419979480269e-05
1.70544000000000e+01 2.53896835807777e-03 4.51953643193419e-05
1.71152000000000e+01 2.50415103685618e-03 4.46549793809419e-05
1.71760000000000e+01 2.46981117170575e-03 4.41207772352149e-05
1.72368000000000e+01 2.43594221518710e-03 4.35926925632879e-05
1.72976000000000e+01 2.40253770964706e-03 4.30706606226755e-05
1.73584000000000e+01 2.36959128598737e-03 4.25546172448589e-05
1.74192000000000e+01 2.33709666245036e-03 4.20444988328017e-05
1.74800000000000e+01 2.30504764342121e-03 4.15402423583975e-05
1.75408000000000e+01 2.27343811824665e-03 4.10417853598584e-05
1.76016000000000e+01 2.24226206006988e-03 4.05490659390442e-05
1.76624000000000e+01 2.21151352468146e-03 4.00620227587332e-05
1.77232000000000e+01 2.18118664938593e-03 3.95805950398459e-05
1.77840000000000e+01 2.15127565188401e-03 3.91047225586152e-05
1.78448000000000e+01 2.12177482917011e-03 3.86343456437039e-05
1.79056000000000e+01 2.09267855644499e-03 3.81694051732821e-05
1.79664000000000e+01 2.06398128604322e-03 3.77098425720584e-05
1.80272000000000e+01 2.03567754637554e-03 3.72555998082697e-05
1.80880000000000e+01 2.00776194088552e-03 3.68066193906320e-05
1.81488000000000e+01 1.98022914702068e-03 3.63628443652536e-05
1.82096000000000e+01 1.95307391521765e-03 3.59242183125135e-05
1.82704000000000e+01 1.92629106790122e-03 3.54906853439066e-05
1.83312000000000e+01 1.89987549849720e-03 3.50621900988591e-05
1.83920000000000e+01 1.87382217045876e-03 3.46386777415115e-05
1.84528000000000e+01 1.84812611630612e-03 3.42200939574753e-05
1.85136000000000e+01 1.82278243667943e-03 3.38063849505636e-05
1.85744000000000e+01 1.79778629940460e-03 3.33974974395006e-05
1.86352000000000e+01 1.77313293857204e-03 3.29933786546047e-05
1.86960000000000e+01 1.74881765362788e-03 3.25939763344497e-05
1.87568000000000e+01 1.72483580847781e-03 3.21992387225110e-05
1.88176000000000e+01 1.70118283060307e-03 3.18091145637928e-05
1.88784000000000e+01 1.67785421018867e-03 3.14235531014367e-05
1.89392000000000e+01 1.65484549926350e-03 3.10425040733168e-05
1.90000000000000e+01 1.63215231085229e-03 3.06659177086204e-05
1.90608000000000e+01 1.60977031813910e-03 3.02937447244167e-05
1.91216000000000e+01 1.58769525364241e-03 2.99259363222148e-05
1.91824000000000e+01 1.56592290840140e-03 2.95624441845132e-05
