Energy (eV)          EEDF (eV^-(3/2))     First Anisotropy
3.43461538461538e-04 2.67826692182615e+02 0.00000000000000e+00
1.03038461538462e-03 2.60803475648198e+02 0.00000000000000e+00
1.71730769230769e-03 2.53964428847160e+02 0.00000000000000e+00
2.40423076923077e-03 2.47304722298513e+02 0.00000000000000e+00
3.09115384615385e-03 2.40819653164703e+02 0.00000000000000e+00
3.77807692307692e-03 2.34504641930634e+02 0.00000000000000e+00
4.46500000000000e-03 2.28355229169790e+02 0.00000000000000e+00
5.15192307692308e-03 2.22367072395147e+02 0.00000000000000e+00
5.83884615384615e-03 2.16535942992674e+02 0.00000000000000e+00
6.52576923076923e-03 2.10857723235240e+02 0.00000000000000e+00
7.21269230769231e-03 2.05328403374830e+02 0.00000000000000e+00
7.89961538461539e-03 1.99944078811011e+02 0.00000000000000e+00
8.58653846153846e-03 1.94700947333642e+02 0.00000000000000e+00
9.27346153846154e-03 1.89595306437902e+02 0.00000000000000e+00
9.96038461538462e-03 1.84623550709714e+02 0.00000000000000e+00
1.06473076923077e-02 1.79782169279737e+02 0.00000000000000e+00
1.13342307692308e-02 1.75067743344117e+02 0.00000000000000e+00
1.20211538461538e-02 1.70476943750261e+02 0.00000000000000e+00
1.27080769230769e-02 1.66006528645909e+02 0.00000000000000e+00
1.33950000000000e-02 1.61653341189857e+02 0.00000000000000e+00
1.40819230769231e-02 1.57414307322715e+02 0.00000000000000e+00
1.47688461538462e-02 1.53286433596121e+02 0.00000000000000e+00
1.54557692307692e-02 1.49266805058879e+02 0.00000000000000e+00
1.61426923076923e-02 1.45352583198525e+02 0.00000000000000e+00
1.68296153846154e-02 1.41541003936879e+02 0.00000000000000e+00
1.75165384615385e-02 1.37829375678153e+02 0.00000000000000e+00
1.82034615384615e-02 1.34215077408249e+02 0.00000000000000e+00
1.88903846153846e-02 1.30695556843893e+02 0.00000000000000e+00
1.95773076923077e-02 1.27268328630308e+02 0.00000000000000e+00
2.02642307692308e-02 1.23930972586149e+02 0.00000000000000e+00
2.09511538461538e-02 1.20681131994463e+02 0.00000000000000e+00
2.16380769230769e-02 1.17516511938459e+02 0.00000000000000e+00
2.23250000000000e-02 1.14434877680925e+02 0.00000000000000e+00
2.30119230769231e-02 1.11434053086140e+02 0.00000000000000e+00
2.36988461538462e-02 1.08511919083168e+02 0.00000000000000e+00
2.43857692307692e-02 1.05666412169445e+02 0.00000000000000e+00
2.50726923076923e-02 1.02895522953616e+02 0.00000000000000e+00
2.57596153846154e-02 1.00197294736574e+02 0.00000000000000e+00
2.64465384615385e-02 9.75698221297107e+01 0.00000000000000e+00
2.71334615384615e-02 9.50112497094038e+01 0.00000000000000e+00
2.78203846153846e-02 9.25197707067856e+01 0.00000000000000e+00
2.85073076923077e-02 9.00936257318690e+01 0.00000000000000e+00
2.91942307692308e-02 8.77311015311323e+01 0.00000000000000e+00
2.98811538461538e-02 8.54305297776829e+01 0.00000000000000e+00
3.05680769230769e-02 8.31902858931465e+01 0.00000000000000e+00
3.12550000000000e-02 8.10087879004507e+01 0.00000000000000e+00
3.19419230769231e-02 7.88844953066911e+01 0.00000000000000e+00
3.26288461538462e-02 7.68159080152926e+01 0.00000000000000e+00
3.33157692307692e-02 7.48015652666968e+01 0.00000000000000e+00
3.40026923076923e-02 7.28400446068279e+01 0.00000000000000e+00
3.46896153846154e-02 7.09299608826083e+01 0.00000000000000e+00
3.53765384615385e-02 6.90699652638151e+01 0.00000000000000e+00
3.60634615384615e-02 6.72587442905861e+01 0.00000000000000e+00
3.67503846153846e-02 6.54950189459032e+01 0.00000000000000e+00
3.74373076923077e-02 6.37775437523982e+01 0.00000000000000e+00
3.81242307692308e-02 6.21051058928429e+01 0.00000000000000e+00
3.88111538461538e-02 6.04765243537024e+01 0.00000000000000e+00
3.94980769230769e-02 5.88906490911473e+01 0.00000000000000e+00
4.01850000000000e-02 5.73463602189356e+01 0.00000000000000e+00
4.08719230769231e-02 5.58425672175904e+01 0.00000000000000e+00
4.15588461538462e-02 5.43782081643154e+01 0.00000000000000e+00
4.22457692307692e-02 5.29522489831050e+01 0.00000000000000e+00
4.29326923076923e-02 5.15636827145175e+01 0.00000000000000e+00
4.36196153846154e-02 5.02115288045982e+01 0.00000000000000e+00
4.43065384615385e-02 4.88948324124483e+01 0.00000000000000e+00
4.49934615384615e-02 4.76126637359521e+01 0.00000000000000e+00
4.56803846153846e-02 4.63641173551849e+01 0.00000000000000e+00
4.63673076923077e-02 4.51483115930390e+01 0.00000000000000e+00
4.70542307692308e-02 4.39643878926165e+01 0.00000000000000e+00
4.77411538461538e-02 4.28115102109478e+01 0.00000000000000e+00
4.84280769230769e-02 4.16888644286095e+01 0.00000000000000e+00
4.91150000000000e-02 4.05956577748231e+01 0.00000000000000e+00
4.98019230769231e-02 3.95311182676300e+01 0.00000000000000e+00
5.04888461538462e-02 3.84944941687464e+01 0.00000000000000e+00
5.11757692307692e-02 3.74850534527135e+01 0.00000000000000e+00
5.18626923076923e-02 3.65020832899684e+01 0.00000000000000e+00
5.25496153846154e-02 3.55448895434707e+01 0.00000000000000e+00
5.32365384615385e-02 3.46127962785277e+01 0.00000000000000e+00
5.39234615384615e-02 3.37051452854757e+01 0.00000000000000e+00
5.46103846153846e-02 3.28212956148756e+01 0.00000000000000e+00
5.52973076923077e-02 3.19606231248989e+01 0.00000000000000e+00
5.59842307692308e-02 3.11225200405817e+01 0.00000000000000e+00
5.66711538461539e-02 3.03063945246366e+01 0.00000000000000e+00
5.73580769230769e-02 2.95116702595191e+01 0.00000000000000e+00
5.80450000000000e-02 2.87377860404537e+01 0.00000000000000e+00
5.87319230769231e-02 2.79841953791319e+01 0.00000000000000e+00
5.94188461538462e-02 2.72503661178020e+01 0.00000000000000e+00
6.01057692307692e-02 2.65357800534800e+01 0.00000000000000e+00
6.07926923076923e-02 2.58399325720128e+01 0.00000000000000e+00
6.14796153846154e-02 2.51623322917391e+01 0.00000000000000e+00
6.21665384615385e-02 2.45025007164939e+01 0.00000000000000e+00
6.28534615384615e-02 2.38599718977119e+01 0.00000000000000e+00
6.35403846153846e-02 2.32342921053922e+01 0.00000000000000e+00
6.42273076923077e-02 2.26250195076911e+01 0.00000000000000e+00
6.49142307692308e-02 2.20317238589163e+01 0.00000000000000e+00
6.56011538461539e-02 2.14539861957042e+01 0.00000000000000e+00
6.62880769230769e-02 2.08913985411628e+01 0.00000000000000e+00
6.69750000000000e-02 2.03435636167740e+01 0.00000000000000e+00
6.76619230769231e-02 1.98100945618500e+01 0.00000000000000e+00
6.83488461538461e-02 1.92906146603469e+01 0.00000000000000e+00
6.90357692307692e-02 1.87847570748414e+01 0.00000000000000e+00
6.97226923076923e-02 1.82921645874844e+01 0.00000000000000e+00
7.04096153846154e-02 1.78124893477466e+01 0.00000000000000e+00
7.10965384615385e-02 1.73453926267792e+01 0.00000000000000e+00
7.17834615384615e-02 1.68905445782169e+01 0.00000000000000e+00
7.24703846153846e-02 1.64476240052518e+01 0.00000000000000e+00
7.31573076923077e-02 1.60163181338168e+01 0.00000000000000e+00
7.38442307692308e-02 1.55963223917157e+01 0.00000000000000e+00
7.45311538461538e-02 1.51873401935457e+01 0.00000000000000e+00
7.52180769230769e-02 1.47890827312602e+01 0.00000000000000e+00
7.59050000000000e-02 1.44012687702228e+01 0.00000000000000e+00
7.65919230769231e-02 1.40236244506100e+01 0.00000000000000e+00
7.72788461538462e-02 1.36558830940215e+01 0.00000000000000e+00
7.79657692307692e-02 1.32977850151622e+01 0.00000000000000e+00
7.86526923076923e-02 1.29490773384613e+01 0.00000000000000e+00
7.93396153846154e-02 1.26095138195019e+01 0.00000000000000e+00
8.00265384615385e-02 1.22788546711315e+01 0.00000000000000e+00
8.07134615384615e-02 1.19568663941338e+01 0.00000000000000e+00
8.14003846153846e-02 1.16433216123400e+01 0.00000000000000e+00
8.20873076923077e-02 1.13379989120639e+01 0.00000000000000e+00
8.27742307692308e-02 1.10406826857484e+01 0.00000000000000e+00
8.34611538461539e-02 1.07511629797110e+01 0.00000000000000e+00
8.41480769230769e-02 1.04692353458823e+01 0.00000000000000e+00
8.48350000000000e-02 1.01947006974327e+01 0.00000000000000e+00
8.55219230769231e-02 9.92736516818407e+00 0.00000000000000e+00
8.62088461538461e-02 9.66703997570944e+00 0.00000000000000e+00
8.68957692307692e-02 9.41354128802121e+00 0.00000000000000e+00
8.75826923076923e-02 9.16669009375611e+00 0.00000000000000e+00
8.82696153846154e-02 8.92631207576397e+00 0.00000000000000e+00
8.89565384615385e-02 8.69223748801141e+00 0.00000000000000e+00
8.96434615384615e-02 8.46430103571349e+00 0.00000000000000e+00
9.03303846153846e-02 8.24234175860871e+00 0.00000000000000e+00
9.10173076923077e-02 8.02620291729479e+00 0.00000000000000e+00
9.17042307692308e-02 7.81573188254516e+00 0.00000000000000e+00
9.23911538461538e-02 7.61078002752784e+00 0.00000000000000e+00
9.30780769230769e-02 7.41120262285072e+00 0.00000000000000e+00
9.37650000000000e-02 7.21685873435901e+00 0.00000000000000e+00
9.44519230769231e-02 7.02761112361278e+00 0.00000000000000e+00
9.51388461538462e-02 6.84332615097427e+00 0.00000000000000e+00
9.58257692307692e-02 6.66387368123654e+00 0.00000000000000e+00
9.65126923076923e-02 6.48912699172680e+00 0.00000000000000e+00
9.71996153846154e-02 6.31896268281959e+00 0.00000000000000e+00
9.78865384615385e-02 6.15326059079653e+00 0.00000000000000e+00
9.85734615384615e-02 5.99190370299116e+00 0.00000000000000e+00
9.92603846153846e-02 5.83477807515894e+00 0.00000000000000e+00
9.99473076923077e-02 5.68177275101407e+00 0.00000000000000e+00
1.00634230769231e-01 5.53277968387626e+00 0.00000000000000e+00
1.01321153846154e-01 5.38769366037218e+00 0.00000000000000e+00
1.02008076923077e-01 5.24641222613767e+00 0.00000000000000e+00
1.02695000000000e-01 5.10883561346832e+00 0.00000000000000e+00
1.03381923076923e-01 4.97486667086714e+00 0.00000000000000e+00
1.04068846153846e-01 4.84441079443986e+00 0.00000000000000e+00
1.04755769230769e-01 4.71737586108913e+00 0.00000000000000e+00
1.05442692307692e-01 4.59367216346059e+00 0.00000000000000e+00
1.06129615384615e-01 4.47321234659491e+00 0.00000000000000e+00
1.06816538461538e-01 4.35591134624093e+00 0.00000000000000e+00
1.07503461538462e-01 4.24168632878648e+00 0.00000000000000e+00
1.08190384615385e-01 4.13045663276430e+00 0.00000000000000e+00
1.08877307692308e-01 4.02214371189196e+00 0.00000000000000e+00
1.09564230769231e-01 3.91667107960534e+00 0.00000000000000e+00
1.10251153846154e-01 3.81396425504672e+00 0.00000000000000e+00
1.10938076923077e-01 3.71395071046911e+00 0.00000000000000e+00
1.11625000000000e-01 3.61655982001988e+00 0.00000000000000e+00
1.12311923076923e-01 3.52172280986738e+00 0.00000000000000e+00
1.12998846153846e-01 3.42937270963543e+00 0.00000000000000e+00
1.13685769230769e-01 3.33944430511132e+00 0.00000000000000e+00
1.14372692307692e-01 3.25187409219395e+00 0.00000000000000e+00
1.15059615384615e-01 3.16660023204961e+00 0.00000000000000e+00
1.15746538461538e-01 3.08356250744364e+00 0.00000000000000e+00
1.16433461538462e-01 3.00270228021735e+00 0.00000000000000e+00
1.17120384615385e-01 2.92396244987982e+00 0.00000000000000e+00
1.17807307692308e-01 2.84728741328572e+00 0.00000000000000e+00
1.18494230769231e-01 2.77262302537042e+00 0.00000000000000e+00
1.19181153846154e-01 2.69991656091474e+00 0.00000000000000e+00
1.19868076923077e-01 2.62911667731239e+00 0.00000000000000e+00
1.20555000000000e-01 2.56017337831367e+00 0.00000000000000e+00
1.21241923076923e-01 2.49303797872004e+00 0.00000000000000e+00
1.21928846153846e-01 2.42766307000441e+00 0.00000000000000e+00
1.22615769230769e-01 2.36400248683297e+00 0.00000000000000e+00
1.23302692307692e-01 2.30201127446501e+00 0.00000000000000e+00
1.23989615384615e-01 2.24164565700747e+00 0.00000000000000e+00
1.24676538461538e-01 2.18286300650212e+00 0.00000000000000e+00
1.25363461538462e-01 2.12562181282320e+00 0.00000000000000e+00
1.26050384615385e-01 2.06988165436455e+00 0.00000000000000e+00
1.26737307692308e-01 2.01560316949537e+00 0.00000000000000e+00
1.27424230769231e-01 1.96274802876448e+00 0.00000000000000e+00
1.28111153846154e-01 1.91127890783349e+00 0.00000000000000e+00
1.28798076923077e-01 1.86115946111977e+00 0.00000000000000e+00
1.29485000000000e-01 1.81235429613050e+00 0.00000000000000e+00
1.30171923076923e-01 1.76482894846983e+00 0.00000000000000e+00
1.30858846153846e-01 1.71854985750140e+00 0.00000000000000e+00
1.31545769230769e-01 1.67348434264907e+00 0.00000000000000e+00
1.32232692307692e-01 1.62960058031910e+00 0.00000000000000e+00
1.32919615384615e-01 1.58686758142752e+00 0.00000000000000e+00
1.33606538461538e-01 1.54525516951678e+00 0.00000000000000e+00
1.34293461538462e-01 1.50473395944625e+00 0.00000000000000e+00
1.34980384615385e-01 1.46527533664154e+00 0.00000000000000e+00
1.35667307692308e-01 1.42685143688796e+00 0.00000000000000e+00
1.36354230769231e-01 1.38943512665380e+00 0.00000000000000e+00
1.37041153846154e-01 1.35299998392969e+00 0.00000000000000e+00
1.37728076923077e-01 1.31752027957032e+00 0.00000000000000e+00
1.38415000000000e-01 1.28297095912550e+00 0.00000000000000e+00
1.39101923076923e-01 1.24932762514761e+00 0.00000000000000e+00
1.39788846153846e-01 1.21656651996305e+00 0.00000000000000e+00
1.40475769230769e-01 1.18466450889544e+00 0.00000000000000e+00
1.41162692307692e-01 1.15359906392879e+00 0.00000000000000e+00
1.41849615384615e-01 1.12334824779902e+00 0.00000000000000e+00
1.42536538461538e-01 1.09389069850271e+00 0.00000000000000e+00
1.43223461538462e-01 1.06520561421201e+00 0.00000000000000e+00
1.43910384615385e-01 1.03727273858520e+00 0.00000000000000e+00
1.44597307692308e-01 1.01007234646240e+00 0.00000000000000e+00
1.45284230769231e-01 9.83585229936368e-01 0.00000000000000e+00
1.45971153846154e-01 9.57792684788638e-01 0.00000000000000e+00
1.46658076923077e-01 9.32676497281254e-01 0.00000000000000e+00
1.47345000000000e-01 9.08218931294919e-01 0.00000000000000e+00
1.48031923076923e-01 8.84402715804410e-01 0.00000000000000e+00
1.48718846153846e-01 8.61211032682414e-01 0.00000000000000e+00
1.49405769230769e-01 8.38627504823195e-01 0.00000000000000e+00
1.50092692307692e-01 8.16636184577689e-01 0.00000000000000e+00
1.50779615384615e-01 7.95221542491866e-01 0.00000000000000e+00
1.51466538461538e-01 7.74368456340404e-01 0.00000000000000e+00
1.52153461538462e-01 7.54062200447939e-01 0.00000000000000e+00
1.52840384615385e-01 7.34288435290336e-01 0.00000000000000e+00
1.53527307692308e-01 7.15033197368649e-01 0.00000000000000e+00
1.54214230769231e-01 6.96282889348622e-01 0.00000000000000e+00
1.54901153846154e-01 6.78024270458750e-01 0.00000000000000e+00
1.55588076923077e-01 6.60244447140139e-01 0.00000000000000e+00
1.56275000000000e-01 6.42930863941558e-01 0.00000000000000e+00
1.56961923076923e-01 6.26071294653237e-01 0.00000000000000e+00
1.57648846153846e-01 6.09653833673180e-01 0.00000000000000e+00
1.58335769230769e-01 5.93666887599865e-01 0.00000000000000e+00
1.59022692307692e-01 5.78099167045418e-01 0.00000000000000e+00
1.59709615384615e-01 5.62939678663462e-01 0.00000000000000e+00
1.60396538461538e-01 5.48177717386029e-01 0.00000000000000e+00
1.61083461538462e-01 5.33802858864036e-01 0.00000000000000e+00
1.61770384615385e-01 5.19804952105993e-01 0.00000000000000e+00
1.62457307692308e-01 5.06174112309757e-01 0.00000000000000e+00
1.63144230769231e-01 4.92900713882245e-01 0.00000000000000e+00
1.63831153846154e-01 4.79975383642203e-01 0.00000000000000e+00
1.64518076923077e-01 4.67388994201208e-01 0.00000000000000e+00
1.65205000000000e-01 4.55132657518249e-01 0.00000000000000e+00
1.65891923076923e-01 4.43197718623320e-01 0.00000000000000e+00
1.66578846153846e-01 4.31575749505603e-01 0.00000000000000e+00
1.67265769230769e-01 4.20258543161921e-01 0.00000000000000e+00
1.67952692307692e-01 4.09238107801252e-01 0.00000000000000e+00
1.68639615384615e-01 3.98506661201227e-01 0.00000000000000e+00
1.69326538461538e-01 3.88056625212614e-01 0.00000000000000e+00
1.70013461538462e-01 3.77880620407907e-01 0.00000000000000e+00
1.70700384615385e-01 3.67971460870250e-01 0.00000000000000e+00
1.71387307692308e-01 3.58322149119010e-01 0.00000000000000e+00
1.72074230769231e-01 3.48925871168414e-01 0.00000000000000e+00
1.72761153846154e-01 3.39775991715767e-01 0.00000000000000e+00
1.73448076923077e-01 3.30866049455847e-01 0.00000000000000e+00
1.74135000000000e-01 3.22189752518171e-01 0.00000000000000e+00
1.74821923076923e-01 3.13740974023909e-01 0.00000000000000e+00
1.75508846153846e-01 3.05513747759310e-01 0.00000000000000e+00
1.76195769230769e-01 2.97502263962585e-01 0.00000000000000e+00
1.76882692307692e-01 2.89700865221265e-01 0.00000000000000e+00
1.77569615384615e-01 2.82104042477151e-01 0.00000000000000e+00
1.78256538461538e-01 2.74706431136018e-01 0.00000000000000e+00
1.78943461538462e-01 2.67502807279339e-01 0.00000000000000e+00
1.79630384615385e-01 2.60488083975348e-01 0.00000000000000e+00
1.80317307692308e-01 2.53657307686836e-01 0.00000000000000e+00
1.81004230769231e-01 2.47005654773151e-01 0.00000000000000e+00
1.81691153846154e-01 2.40528428083917e-01 0.00000000000000e+00
1.82378076923077e-01 2.34221053642083e-01 0.00000000000000e+00
1.83065000000000e-01 2.28079077413950e-01 0.00000000000000e+00
1.83751923076923e-01 2.22098162163899e-01 0.00000000000000e+00
1.84438846153846e-01 2.16274084391594e-01 0.00000000000000e+00
1.85125769230769e-01 2.10602731349505e-01 0.00000000000000e+00
1.85812692307692e-01 2.05080098138636e-01 0.00000000000000e+00
1.86499615384615e-01 1.99702284880416e-01 0.00000000000000e+00
1.87186538461538e-01 1.94465493962749e-01 0.00000000000000e+00
1.87873461538462e-01 1.89366027358280e-01 0.00000000000000e+00
1.88560384615385e-01 1.84400284012988e-01 0.00000000000000e+00
1.89247307692308e-01 1.79564757303252e-01 0.00000000000000e+00
1.89934230769231e-01 1.74856032559607e-01 0.00000000000000e+00
1.90621153846154e-01 1.70270784655429e-01 0.00000000000000e+00
1.91308076923077e-01 1.65805775658854e-01 0.00000000000000e+00
1.91995000000000e-01 1.61457852546272e-01 0.00000000000000e+00
1.92681923076923e-01 1.57223944975777e-01 0.00000000000000e+00
1.93368846153846e-01 1.53101063119007e-01 0.00000000000000e+00
1.94055769230769e-01 1.49086295549838e-01 0.00000000000000e+00
1.94742692307692e-01 1.45176807188443e-01 0.00000000000000e+00
1.95429615384615e-01 1.41369837299262e-01 0.00000000000000e+00
1.96116538461538e-01 1.37662697541476e-01 0.00000000000000e+00
1.96803461538462e-01 1.34052770070598e-01 0.00000000000000e+00
1.97490384615385e-01 1.30537505689851e-01 0.00000000000000e+00
1.98177307692308e-01 1.27114422050017e-01 0.00000000000000e+00
1.98864230769231e-01 1.23781101896496e-01 0.00000000000000e+00
1.99551153846154e-01 1.20535191362330e-01 0.00000000000000e+00
2.00238076923077e-01 1.17374398305989e-01 0.00000000000000e+00
2.00925000000000e-01 1.14296490692745e-01 0.00000000000000e+00
2.01611923076923e-01 1.11299295018497e-01 0.00000000000000e+00
2.02298846153846e-01 1.08380694774916e-01 0.00000000000000e+00
2.02985769230769e-01 1.05538628954850e-01 0.00000000000000e+00
2.03672692307692e-01 1.02771090596915e-01 0.00000000000000e+00
2.04359615384615e-01 1.00076125368255e-01 0.00000000000000e+00
2.05046538461538e-01 9.74518301844632e-02 0.00000000000000e+00
2.05733461538462e-01 9.48963518656965e-02 0.00000000000000e+00
2.06420384615385e-01 9.24078858280263e-02 0.00000000000000e+00
2.07107307692308e-01 8.99846748091096e-02 0.00000000000000e+00
2.07794230769231e-01 8.76250076272755e-02 0.00000000000000e+00
2.08481153846154e-01 8.53272179731519e-02 0.00000000000000e+00
2.09168076923077e-01 8.30896832329799e-02 0.00000000000000e+00
2.09855000000000e-01 8.09108233427843e-02 0.00000000000000e+00
2.10541923076923e-01 7.87890996725909e-02 0.00000000000000e+00
2.11228846153846e-01 7.67230139399029e-02 0.00000000000000e+00
2.11915769230769e-01 7.47111071516698e-02 0.00000000000000e+00
2.12602692307692e-01 7.27519585740007e-02 0.00000000000000e+00
2.13289615384615e-01 7.08441847288942e-02 0.00000000000000e+00
2.13976538461538e-01 6.89864384172784e-02 0.00000000000000e+00
2.14663461538462e-01 6.71774077676684e-02 0.00000000000000e+00
2.15350384615385e-01 6.54158153097712e-02 0.00000000000000e+00
2.16037307692308e-01 6.37004170723841e-02 0.00000000000000e+00
2.16724230769231e-01 6.20300017049482e-02 0.00000000000000e+00
