Energy (eV)          EEDF (eV^-(3/2))     First Anisotropy
2.25555555555556e-02 7.88705472533698e-02 4.40522220519496e-05
6.76666666666667e-02 7.82675752372524e-02 7.27091111722806e-05
1.12777777777778e-01 7.76692129931295e-02 9.58952203182403e-05
1.57888888888889e-01 7.70754252800764e-02 1.13455785953347e-04
2.03000000000000e-01 7.64861771244323e-02 1.28056809098521e-04
2.48111111111111e-01 7.59014338182909e-02 1.40707406902859e-04
2.93222222222222e-01 7.53211609248016e-02 1.51930357380842e-04
3.38333333333333e-01 7.47453242671067e-02 1.62041680444843e-04
3.83444444444444e-01 7.41738899297062e-02 1.71251181708539e-04
4.28555555555556e-01 7.36068242564237e-02 1.79707298834206e-04
4.73666666666667e-01 7.30440938483876e-02 1.87520024549911e-04
5.18777777777778e-01 7.24856655621044e-02 1.94773791745100e-04
5.63888888888889e-01 7.19315065074711e-02 2.01535245150520e-04
6.09000000000000e-01 7.13815840458360e-02 2.07858191884479e-04
6.54111111111111e-01 7.08358657872212e-02 2.13786895233939e-04
6.99222222222222e-01 7.02943195910559e-02 2.19358346443789e-04
7.44333333333333e-01 6.97569135615515e-02 2.24603878923035e-04
7.89444444444444e-01 6.92236160467691e-02 2.29550344251230e-04
8.34555555555555e-01 6.86943956367535e-02 2.34220988399102e-04
8.79666666666667e-01 6.81692211616781e-02 2.38636116807960e-04
9.24777777777778e-01 6.76480616900204e-02 2.42813607745047e-04
9.69888888888889e-01 6.71308865267329e-02 2.46769314440660e-04
1.01500000000000e+00 6.66176652114352e-02 2.50517384582083e-04
1.06011111111111e+00 6.61083675141208e-02 2.54070515689627e-04
1.10522222222222e+00 6.56029634414989e-02 2.57440163989689e-04
1.15033333333333e+00 6.51014232264177e-02 2.60636715633736e-04
1.19544444444444e+00 6.46037173293055e-02 2.63669626699744e-04
1.24055555555556e+00 6.41098164364289e-02 2.66547541207733e-04
1.28566666666667e+00 6.36196914581430e-02 2.69278389912057e-04
1.33077777777778e+00 6.31333135272269e-02 2.71869473860698e-04
1.37588888888889e+00 6.26506539971550e-02 2.74327535522559e-04
1.42100000000000e+00 6.21716844404102e-02 2.76658820146723e-04
1.46611111111111e+00 6.16963766435494e-02 2.78869126756903e-04
1.51122222222222e+00 6.12247026154829e-02 2.80963854482644e-04
1.55633333333333e+00 6.07566345757101e-02 2.82948042964586e-04
1.60144444444444e+00 6.02921449561174e-02 2.84826405337153e-04
1.64655555555556e+00 5.98312063993540e-02 2.86603358943433e-04
1.69166666666667e+00 5.93737917572086e-02 2.88283051941440e-04
1.73677777777778e+00 5.89198740890355e-02 2.89869386826065e-04
1.78188888888889e+00 5.84694266601544e-02 2.91366041298816e-04
1.82700000000000e+00 5.80224229402751e-02 2.92776487225491e-04
1.87211111111111e+00 5.75788365995601e-02 2.94104006042672e-04
1.91722222222222e+00 5.71386415143000e-02 2.95351704404082e-04
1.96233333333333e+00 5.67018117580415e-02 2.96522528313592e-04
2.00744444444444e+00 5.62683216025425e-02 2.97619273931918e-04
2.05255555555556e+00 5.58381455162570e-02 2.98644598832844e-04
2.09766666666667e+00 5.54112581628231e-02 2.99601031820667e-04
2.14277777777778e+00 5.49876343995869e-02 3.00490981840761e-04
2.18788888888889e+00 5.45672492761130e-02 3.01316746085704e-04
2.23300000000000e+00 5.41500780327148e-02 3.02080517707445e-04
2.27811111111111e+00 5.37360960971786e-02 3.02784391569215e-04
2.32322222222222e+00 5.33252790888386e-02 3.03430371088172e-04
2.36833333333333e+00 5.29176028115466e-02 3.04020374566099e-04
2.41344444444444e+00 5.25130432541366e-02 3.04556239369733e-04
2.45855555555556e+00 5.21115765890106e-02 3.05039727058237e-04
2.50366666666667e+00 5.17131791707304e-02 3.05472527790787e-04
2.54877777777778e+00 5.13178275346352e-02 3.05856264397683e-04
2.59388888888889e+00 5.09254983954536e-02 3.06192496146770e-04
2.63900000000000e+00 5.05361686459330e-02 3.06482722510691e-04
2.68411111111111e+00 5.01498153540397e-02 3.06728385547384e-04
2.72922222222222e+00 4.97664157659728e-02 3.06930873477813e-04
2.77433333333333e+00 4.93859473004078e-02 3.07091524055786e-04
2.81944444444444e+00 4.90083875486573e-02 3.07211626295205e-04
2.86455555555556e+00 4.86337142733502e-02 3.07292423190306e-04
2.90966666666667e+00 4.82619054071194e-02 3.07335113978761e-04
2.95477777777778e+00 4.78929390513082e-02 3.07340856258431e-04
2.99988888888889e+00 4.75267934746777e-02 3.07310767969711e-04
3.04500000000000e+00 4.71634471121263e-02 3.07245929495642e-04
3.09011111111111e+00 4.68028785622550e-02 3.07147384661115e-04
3.13522222222222e+00 4.64450665896383e-02 3.07016142865749e-04
3.18033333333333e+00 4.60899901200034e-02 3.06853181121094e-04
3.22544444444444e+00 4.57376282401927e-02 3.06659444736404e-04
3.27055555555556e+00 4.53879601969314e-02 3.06435848934886e-04
3.31566666666667e+00 4.50409653956032e-02 3.06183280134951e-04
3.36077777777778e+00 4.46966233990423e-02 3.05902597160123e-04
3.40588888888889e+00 4.43549139263269e-02 3.05594632382505e-04
3.45100000000000e+00 4.40158168515846e-02 3.05260193016665e-04
3.49611111111111e+00 4.36793122018476e-02 3.04900061490812e-04
3.54122222222222e+00 4.33453801587843e-02 3.04514996850365e-04
3.58633333333333e+00 4.30140010545944e-02 3.04105736113499e-04
3.63144444444444e+00 4.26851553718395e-02 3.03672994473961e-04
3.67655555555556e+00 4.23588237422937e-02 3.03217466348801e-04
3.72166666666667e+00 4.20349869458016e-02 3.02739826159702e-04
3.76677777777778e+00 4.17136259091494e-02 3.02240729076134e-04
3.81188888888889e+00 4.13947217049397e-02 3.01720811722821e-04
3.85700000000000e+00 4.10782555504769e-02 3.01180693041475e-04
3.90211111111111e+00 4.07642088058587e-02 3.00620974357096e-04
3.94722222222222e+00 4.04525629753075e-02 3.00042240373368e-04
3.99233333333333e+00 4.01432997036284e-02 2.99445060142474e-04
4.03744444444444e+00 3.98364007759535e-02 2.98829987032467e-04
4.08255555555556e+00 3.95318481166692e-02 2.98197559454220e-04
4.12766666666667e+00 3.92296237883505e-02 2.97548301366295e-04
4.17277777777778e+00 3.89297099907069e-02 2.96882722758057e-04
4.21788888888889e+00 3.86320890595327e-02 2.96201320112199e-04
4.26300000000000e+00 3.83367434656668e-02 2.95504577014826e-04
4.30811111111111e+00 3.80436558132823e-02 2.94792964068901e-04
4.35322222222222e+00 3.77528088409137e-02 2.94066939641337e-04
4.39833333333333e+00 3.74641854183698e-02 2.93326950596022e-04
4.44344444444444e+00 3.71777685464209e-02 2.92573432144483e-04
4.48855555555556e+00 3.68935413557982e-02 2.91806808377970e-04
4.53366666666667e+00 3.66114871061989e-02 2.91027492609245e-04
4.57877777777778e+00 3.63315891853023e-02 2.90235887701177e-04
4.62388888888889e+00 3.60538311077905e-02 2.89432386382842e-04
4.66900000000000e+00 3.57781965143773e-02 2.88617371702853e-04
4.71411111111111e+00 3.55046691702669e-02 2.87791216866494e-04
4.75922222222222e+00 3.52332329659463e-02 2.86954285820925e-04
4.80433333333333e+00 3.49638719144725e-02 2.86106933832607e-04
4.84944444444444e+00 3.46965701511238e-02 2.85249507282080e-04
4.89455555555555e+00 3.44313119324659e-02 2.84382344070062e-04
4.93966666666667e+00 3.41680816354236e-02 2.83505773857722e-04
4.98477777777778e+00 3.39068637563625e-02 2.82620118298674e-04
5.02988888888889e+00 3.36476429101746e-02 2.81725691262925e-04
5.07500000000000e+00 3.33904038293726e-02 2.80822799186880e-04
5.12011111111111e+00 3.31351313626942e-02 2.79911740874565e-04
5.16522222222222e+00 3.28818104757112e-02 2.78992807971205e-04
5.21033333333333e+00 3.26304262484295e-02 2.78066285432481e-04
5.25544444444444e+00 3.23809638749199e-02 2.77132451295555e-04
5.30055555555556e+00 3.21334086624457e-02 2.76191576999660e-04
5.34566666666667e+00 3.18877460305968e-02 2.75243927560305e-04
5.39077777777778e+00 3.16439615104324e-02 2.74289761738050e-04
5.43588888888889e+00 3.14020407436280e-02 2.73329332202058e-04
5.48100000000000e+00 3.11619694816297e-02 2.72362885808640e-04
5.52611111111111e+00 3.09237335843860e-02 2.71390663388665e-04
5.57122222222222e+00 3.06873190208128e-02 2.70412900140362e-04
5.61633333333333e+00 3.04527118666583e-02 2.69429826019858e-04
5.66144444444444e+00 3.02198983041230e-02 2.68441665506120e-04
5.70655555555556e+00 2.99888646210453e-02 2.67448637860663e-04
5.75166666666667e+00 2.97595972100942e-02 2.66450957257225e-04
5.79677777777778e+00 2.95320825679682e-02 2.65448832907739e-04
5.84188888888889e+00 2.93063072945998e-02 2.64442469184744e-04
5.88700000000000e+00 2.90822580923663e-02 2.63432065848524e-04
5.93211111111111e+00 2.88599217649334e-02 2.62417817833010e-04
5.97722222222222e+00 2.86392852176060e-02 2.61399915577734e-04
6.02233333333333e+00 2.84203354554198e-02 2.60378545358842e-04
6.06744444444444e+00 2.82030595827582e-02 2.59353889057626e-04
6.11255555555555e+00 2.79874448025928e-02 2.58326124375386e-04
6.15766666666667e+00 2.77734784157292e-02 2.57295424932087e-04
6.20277777777778e+00 2.75611478200596e-02 2.56261960362368e-04
6.24788888888889e+00 2.73504405098208e-02 2.55225896409117e-04
6.29300000000000e+00 2.71413440748570e-02 2.54187395112324e-04
6.33811111111111e+00 2.69338461995635e-02 2.53146614600252e-04
6.38322222222222e+00 2.67279346631460e-02 2.52103709374146e-04
6.42833333333333e+00 2.65235973379082e-02 2.51058830592759e-04
6.47344444444444e+00 2.63208221888714e-02 2.50012125849730e-04
6.51855555555556e+00 2.61195972730650e-02 2.48963739354349e-04
6.56366666666667e+00 2.59199107388232e-02 2.47913812007937e-04
6.60877777777778e+00 2.57217508250878e-02 2.46862481478434e-04
6.65388888888889e+00 2.55251058607146e-02 2.45809882273184e-04
6.69900000000000e+00 2.53299642637864e-02 2.44756145898383e-04
6.74411111111111e+00 2.51363145406454e-02 2.43701400659235e-04
6.78922222222222e+00 2.49441452860791e-02 2.42645771906977e-04
6.83433333333333e+00 2.47534451817788e-02 2.41589382286177e-04
6.87944444444444e+00 2.45642029959655e-02 2.40532351523602e-04
6.92455555555556e+00 2.43764075827278e-02 2.39474796582374e-04
6.96966666666667e+00 2.41900478813657e-02 2.38416831722084e-04
7.01477777777778e+00 2.40051129157394e-02 2.37358568557559e-04
7.05988888888889e+00 2.38215917936228e-02 2.36300116116348e-04
7.10500000000000e+00 2.36394737060615e-02 2.35241580975066e-04
7.15011111111111e+00 2.34587479264855e-02 2.34183067070431e-04
7.19522222222222e+00 2.32794038108365e-02 2.33124675915531e-04
7.24033333333333e+00 2.31014307961760e-02 2.32066506816594e-04
7.28544444444444e+00 2.29248184003200e-02 2.31008656674663e-04
7.33055555555555e+00 2.27495562212217e-02 2.29951220118459e-04
7.37566666666667e+00 2.25756339363585e-02 2.28894289552323e-04
7.42077777777778e+00 2.24030413021249e-02 2.27837955203145e-04
7.46588888888889e+00 2.22317681532283e-02 2.26782305166324e-04
7.51100000000000e+00 2.20618044020909e-02 2.25727425523577e-04
7.55611111111111e+00 2.18931400380334e-02 2.24673400165650e-04
7.60122222222222e+00 2.17257651273558e-02 2.23620310983001e-04
7.64633333333333e+00 2.15596698120773e-02 2.22568238057172e-04
7.69144444444444e+00 2.13948443095818e-02 2.21517259475632e-04
7.73655555555556e+00 2.12312789120423e-02 2.20467451447294e-04
7.78166666666667e+00 2.10689639858490e-02 2.19418888341166e-04
7.82677777777778e+00 2.09078899710418e-02 2.18371642724261e-04
7.87188888888889e+00 2.07480473807473e-02 2.17325785398753e-04
7.91700000000000e+00 2.05894268006203e-02 2.16281385504623e-04
7.96211111111111e+00 2.04320188880924e-02 2.15238510354150e-04
8.00722222222222e+00 2.02758143724159e-02 2.14197225601074e-04
8.05233333333333e+00 2.01208040535191e-02 2.13157595410546e-04
8.09744444444444e+00 1.99669788016661e-02 2.12119682286867e-04
8.14255555555556e+00 1.98143295569182e-02 2.11083547174736e-04
8.18766666666667e+00 1.96628473286007e-02 2.10049249490685e-04
8.23277777777778e+00 1.95125231947738e-02 2.09016847153995e-04
8.27788888888889e+00 1.93633483017063e-02 2.07986396617031e-04
8.32300000000000e+00 1.92153138633547e-02 2.06957952955270e-04
8.36811111111111e+00 1.90684111606711e-02 2.05931569713382e-04
8.41322222222222e+00 1.89226315416169e-02 2.04907299056008e-04
8.45833333333333e+00 1.87779664201220e-02 2.03885191919385e-04
8.50344444444444e+00 1.86344072757577e-02 2.02865297851571e-04
8.54855555555556e+00 1.84919456532346e-02 2.01847665101660e-04
8.59366666666667e+00 1.83505731619047e-02 2.00832340645638e-04
8.63877777777778e+00 1.82102814752671e-02 1.99819370211762e-04
8.68388888888889e+00 1.80710623304781e-02 1.98808798305478e-04
8.72900000000000e+00 1.79329075278638e-02 1.97800668288922e-04
8.77411111111111e+00 1.77958089302823e-02 1.96795022238110e-04
8.81922222222222e+00 1.76597584631138e-02 1.95791901077847e-04
8.86433333333333e+00 1.75247481133120e-02 1.94791344717562e-04
8.90944444444444e+00 1.73907699290910e-02 1.93793391903349e-04
8.95455555555555e+00 1.72578160194570e-02 1.92798080297045e-04
8.99966666666667e+00 1.71258785537435e-02 1.91805446497603e-04
9.04477777777778e+00 1.69949497611503e-02 1.90815526062037e-04
9.08988888888889e+00 1.68650219302854e-02 1.89828353526150e-04
9.13500000000000e+00 1.67360874087113e-02 1.88843962474990e-04
9.18011111111111e+00 1.66081386023553e-02 1.87862385410560e-04
9.22522222222222e+00 1.64811679754810e-02 1.86883653872999e-04
9.27033333333333e+00 1.63551680498232e-02 1.85907798562606e-04
9.31544444444444e+00 1.62301314042883e-02 1.84934849203084e-04
9.36055555555556e+00 1.61060506745177e-02 1.83964834611864e-04
9.40566666666667e+00 1.59829185524541e-02 1.82997782717871e-04
9.45077777777778e+00 1.58607277859107e-02 1.82033720579043e-04
9.49588888888889e+00 1.57394711781445e-02 1.81072674399509e-04
9.54100000000000e+00 1.56191415874322e-02 1.80114669592348e-04
9.58611111111111e+00 1.54997319265257e-02 1.79159730657242e-04
9.63122222222222e+00 1.53812351626088e-02 1.78207881289583e-04
9.67633333333333e+00 1.52636443165062e-02 1.77259144490425e-04
9.72144444444444e+00 1.51469524623992e-02 1.76313542440147e-04
9.76655555555556e+00 1.50311527274176e-02 1.75371096561299e-04
9.81166666666667e+00 1.49162382912345e-02 1.74431827533426e-04
9.85677777777778e+00 1.48022023856654e-02 1.73495755307701e-04
9.90188888888889e+00 1.46890382942689e-02 1.72562899121349e-04
9.94700000000000e+00 1.45767393519515e-02 1.71633277553701e-04
9.99211111111111e+00 1.44652989444641e-02 1.70706908538452e-04
1.00372222222222e+01 1.43547105080175e-02 1.69783809042583e-04
1.00823333333333e+01 1.42449675296628e-02 1.68863995502690e-04
1.01274444444444e+01 1.41360635457983e-02 1.67947483964372e-04
1.01725555555556e+01 1.40279921422370e-02 1.67034289667264e-04
1.02176666666667e+01 1.39207469538284e-02 1.66124427229686e-04
1.02627777777778e+01 1.38143216640849e-02 1.65217910660919e-04
1.03078888888889e+01 1.37087100048089e-02 1.64314753373908e-04
1.03530000000000e+01 1.36039057557241e-02 1.63414968581326e-04
1.03981111111111e+01 1.34999027431145e-02 1.62518568146445e-04
1.04432222222222e+01 1.33966948424634e-02 1.61625563371807e-04
1.04883333333333e+01 1.32942759750696e-02 1.60735965797528e-04
1.05334444444444e+01 1.31926401087046e-02 1.59849786026242e-04
1.05785555555556e+01 1.30917812572565e-02 1.58967034131888e-04
1.06236666666667e+01 1.29916934803772e-02 1.58087719669752e-04
1.06687777777778e+01 1.28923708831339e-02 1.57211851686818e-04
1.07138888888889e+01 1.27938076156610e-02 1.56339438732479e-04
1.07590000000000e+01 1.26959978728158e-02 1.55470489220351e-04
1.08041111111111e+01 1.25989358929436e-02 1.54605010375395e-04
1.08492222222222e+01 1.25026159602347e-02 1.53743008955061e-04
1.08943333333333e+01 1.24070324016732e-02 1.52884491979393e-04
1.09394444444444e+01 1.23121795876141e-02 1.52029465654526e-04
1.09845555555556e+01 1.22180519314515e-02 1.51177935746151e-04
1.10296666666667e+01 1.21246438892889e-02 1.50329907587965e-04
1.10747777777778e+01 1.20319499596142e-02 1.49485386090431e-04
1.11198888888889e+01 1.19399646829748e-02 1.48644375749868e-04
1.11650000000000e+01 1.18486826416560e-02 1.47806880979222e-04
1.12101111111111e+01 1.17580984585595e-02 1.46972905142800e-04
1.12552222222222e+01 1.16682067993106e-02 1.46142451216245e-04
1.13003333333333e+01 1.15790023695037e-02 1.45315522454784e-04
1.13454444444444e+01 1.14904799152094e-02 1.44492121406381e-04
1.13905555555556e+01 1.14026342226652e-02 1.43672250253216e-04
1.14356666666667e+01 1.13154601179676e-02 1.42855910818846e-04
1.14807777777778e+01 1.12289524667687e-02 1.42043104575631e-04
1.15258888888889e+01 1.11431061739731e-02 1.41233832652444e-04
1.15710000000000e+01 1.10579161834380e-02 1.40428096137357e-04
1.16161111111111e+01 1.09733774769521e-02 1.39625895192155e-04
1.16612222222222e+01 1.08894850761236e-02 1.38827229656777e-04
1.17063333333333e+01 1.08062340398892e-02 1.38032099661399e-04
1.17514444444444e+01 1.07236194649603e-02 1.37240504721248e-04
1.17965555555556e+01 1.06416364855346e-02 1.36452444049108e-04
1.18416666666667e+01 1.05602802730087e-02 1.35667916561367e-04
1.18867777777778e+01 1.04795460356948e-02 1.34886920884338e-04
1.19318888888889e+01 1.03994290185381e-02 1.34109455360803e-04
1.19770000000000e+01 1.03199245028364e-02 1.33335518327228e-04
1.20221111111111e+01 1.02410278053107e-02 1.32565107301008e-04
1.20672222222222e+01 1.01627342797977e-02 1.31798219534415e-04
1.21123333333333e+01 1.00850393149945e-02 1.31034852575646e-04
1.21574444444444e+01 1.00079383348522e-02 1.30275003438050e-04
1.22025555555556e+01 9.93142679830610e-03 1.29518668886336e-04
1.22476666666667e+01 9.85550019900799e-03 1.28765845441701e-04
1.22927777777778e+01 9.78015406506152e-03 1.28016529387203e-04
1.23378888888889e+01 9.70538395875838e-03 1.27270716773347e-04
1.23830000000000e+01 9.63118547631695e-03 1.26528403672120e-04
1.24281111111111e+01 9.55755424703441e-03 1.25789585430598e-04
1.24732222222222e+01 9.48448593480634e-03 1.25054257178970e-04
1.25183333333333e+01 9.41197623608266e-03 1.24322414345136e-04
1.25634444444444e+01 9.34002088021434e-03 1.23594051891808e-04
1.26085555555556e+01 9.26861562920183e-03 1.22869164578814e-04
1.26536666666667e+01 9.19775627744515e-03 1.22147746967464e-04
1.26987777777778e+01 9.12743865149688e-03 1.21429793425104e-04
1.27438888888889e+01 9.05765860981594e-03 1.20715298129905e-04
1.27890000000000e+01 8.98841204252374e-03 1.20004255303783e-04
1.28341111111111e+01 8.91969487063026e-03 1.19296658526643e-04
1.28792222222222e+01 8.85150304739958e-03 1.18592501202569e-04
1.29243333333333e+01 8.78383255649532e-03 1.17891777032051e-04
1.29694444444444e+01 8.71667941228637e-03 1.17194479311099e-04
1.30145555555556e+01 8.65003965961211e-03 1.16500601171781e-04
1.30596666666667e+01 8.58390937354921e-03 1.15810135585940e-04
1.31047777777778e+01 8.51828465918102e-03 1.15123075369077e-04
1.31498888888889e+01 8.45316165136789e-03 1.14439413184415e-04
1.31950000000000e+01 8.38853651451950e-03 1.13759141756646e-04
1.32401111111111e+01 8.32440544188791e-03 1.13082253241564e-04
1.32852222222222e+01 8.26076465679582e-03 1.12408739654068e-04
1.33303333333333e+01 8.19761041095225e-03 1.11738593301800e-04
1.33754444444444e+01 8.13493898472223e-03 1.11071806140889e-04
1.34205555555556e+01 8.07274668690777e-03 1.10408369996695e-04
1.34656666666667e+01 8.01102985453014e-03 1.09748276566956e-04
1.35107777777778e+01 7.94978485261468e-03 1.09091517425071e-04
1.35558888888889e+01 7.88900807397646e-03 1.08438084023603e-04
1.36010000000000e+01 7.82869593900776e-03 1.07787967890504e-04
1.36461111111111e+01 7.76884489503174e-03 1.07141160049390e-04
1.36912222222222e+01 7.70945141740823e-03 1.06497651412737e-04
1.37363333333333e+01 7.65051200800264e-03 1.05857433180245e-04
1.37814444444444e+01 7.59202319542391e-03 1.05220496246417e-04
1.38265555555556e+01 7.53398153482009e-03 1.04586831403215e-04
1.38716666666667e+01 7.47638360767519e-03 1.03956429342698e-04
1.39167777777778e+01 7.41922602160834e-03 1.03329280659858e-04
1.39618888888889e+01 7.36250541017369e-03 1.02705375855595e-04
1.40070000000000e+01 7.30621843266222e-03 1.02084705516953e-04
1.40521111111111e+01 7.25036177351013e-03 1.01467259783779e-04
1.40972222222222e+01 7.19493214329542e-03 1.00853028710079e-04
1.41423333333333e+01 7.13992627734472e-03 1.00242002630188e-04
1.41874444444444e+01 7.08534093594337e-03 9.96341716137378e-05
1.42325555555556e+01 7.03117290414464e-03 9.90295256518115e-05
