Energy (eV)          EEDF (eV^-(3/2))     First Anisotropy
1.00384615384615e-01 5.34866683879674e-02 5.50586051299695e-05
3.01153846153846e-01 5.20860694545657e-02 9.00296894231940e-05
5.01923076923077e-01 5.07221465272027e-02 1.16520647916155e-04
7.02692307692308e-01 4.93939392130338e-02 1.35282491073163e-04
9.03461538461538e-01 4.81005122614672e-02 1.49839609171815e-04
1.10423076923077e+00 4.68409549203233e-02 1.61565983245485e-04
1.30500000000000e+00 4.56143802778087e-02 1.71193212731172e-04
1.50576923076923e+00 4.44199246423861e-02 1.79175132964828e-04
1.70653846153846e+00 4.32567469572611e-02 1.85820484192381e-04
1.90730769230769e+00 4.21240281794164e-02 1.91352764150740e-04
2.10807692307692e+00 4.10209707133632e-02 1.95941166088491e-04
2.30884615384615e+00 3.99467978494730e-02 1.99718166061988e-04
2.50961538461538e+00 3.89007532170372e-02 2.02790250590037e-04
2.71038461538462e+00 3.78821002516584e-02 2.05244828103165e-04
2.91115384615385e+00 3.68901216765658e-02 2.07154880996776e-04
3.11192307692308e+00 3.59241189976107e-02 2.08582211414048e-04
3.31269230769231e+00 3.49834120113819e-02 2.09579774946383e-04
3.51346153846154e+00 3.40673383262435e-02 2.10193401957266e-04
3.71423076923077e+00 3.31752528959154e-02 2.10463095467641e-04
3.91500000000000e+00 3.23065275652676e-02 2.10424028819390e-04
4.11576923076923e+00 3.14605506259395e-02 2.10107325006695e-04
4.31653846153846e+00 3.06367263920338e-02 2.09540675559032e-04
4.51730769230769e+00 2.98344747740057e-02 2.08748838194390e-04
4.71807692307692e+00 2.90532308725075e-02 2.07754041116576e-04
4.91884615384615e+00 2.82924445806178e-02 2.06576316039275e-04
5.11961538461538e+00 2.75515801964878e-02 2.05233774672128e-04
5.32038461538462e+00 2.68301160461297e-02 2.03742840418603e-04
5.52115384615385e+00 2.61275441160788e-02 2.02118444123707e-04
5.72192307692308e+00 2.54433696956907e-02 2.00374190687520e-04
5.92269230769231e+00 2.47771110287881e-02 1.98522501854897e-04
6.12346153846154e+00 2.41282989744353e-02 1.96574739360095e-04
6.32423076923077e+00 2.34964766765962e-02 1.94541311750954e-04
6.52500000000000e+00 2.28811992424421e-02 1.92431767624870e-04
6.72576923076923e+00 2.22820334281960e-02 1.90254877080705e-04
6.92653846153846e+00 2.16985573368072e-02 1.88018703775357e-04
7.12730769230769e+00 2.11303601180545e-02 1.85730668673018e-04
7.32807692307692e+00 2.05770416802190e-02 1.83397606292399e-04
7.52884615384615e+00 2.00382124083618e-02 1.81025815121892e-04
7.72961538461538e+00 1.95134928899801e-02 1.78621102642939e-04
7.93038461538461e+00 1.90025136478464e-02 1.76188825732710e-04
8.13115384615385e+00 1.85049148798421e-02 1.73733927030879e-04
8.33192307692308e+00 1.80203462056096e-02 1.71260967768337e-04
8.53269230769231e+00 1.75484664198321e-02 1.68774157481835e-04
8.73346153846154e+00 1.70889432519768e-02 1.66277380976980e-04
8.93423076923077e+00 1.66414531323290e-02 1.63774222852940e-04
9.13500000000000e+00 1.62056809641528e-02 1.61267989900062e-04
9.33576923076923e+00 1.57813199013667e-02 1.58761731395535e-04
9.53653846153846e+00 1.53680711338692e-02 1.56258257881295e-04
9.73730769230769e+00 1.49656436757087e-02 1.53760158393395e-04
9.93807692307692e+00 1.45737541606760e-02 1.51269815929056e-04
1.01388461538462e+01 1.41921266442492e-02 1.48789422649641e-04
1.03396153846154e+01 1.38204924022616e-02 1.46320992100666e-04
1.05403846153846e+01 1.34585897550298e-02 1.43866371937475e-04
1.07411538461538e+01 1.31061638714271e-02 1.41427256588074e-04
1.09419230769231e+01 1.27629665902557e-02 1.39005195667367e-04
1.11426923076923e+01 1.24287562550293e-02 1.36601604770972e-04
1.13434615384615e+01 1.21032975339785e-02 1.34217775459090e-04
1.15442307692308e+01 1.17863612550171e-02 1.31854881786317e-04
1.17450000000000e+01 1.14777242527393e-02 1.29513989039742e-04
1.19457692307692e+01 1.11771692026643e-02 1.27196061598548e-04
1.21465384615385e+01 1.08844844711649e-02 1.24901969014585e-04
1.23473076923077e+01 1.05994639641810e-02 1.22632491894752e-04
1.25480769230769e+01 1.03219069890805e-02 1.20388328277179e-04
1.27488461538462e+01 1.00516181061623e-02 1.18170099845806e-04
1.29496153846154e+01 9.78840699150929e-03 1.15978355596668e-04
1.31503846153846e+01 9.53208830912794e-03 1.13813577348728e-04
1.33511538461538e+01 9.28248157410555e-03 1.11676184878596e-04
1.35519230769231e+01 9.03941102594235e-03 1.09566538792193e-04
1.37526923076923e+01 8.80270551022554e-03 1.07484945100053e-04
1.39534615384615e+01 8.57219835251621e-03 1.05431659485578e-04
1.41542307692308e+01 8.34772724134272e-03 1.03406889554533e-04
1.43550000000000e+01 8.12913411873029e-03 1.01410798651253e-04
1.45557692307692e+01 7.91626506395325e-03 9.94435092647042e-05
1.47565384615385e+01 7.70897018684880e-03 9.75051054325269e-05
1.49573076923077e+01 7.50710352094762e-03 9.55956351317757e-05
1.51580769230769e+01 7.31052292476874e-03 9.37151130987641e-05
1.53588461538462e+01 7.11908997754653e-03 9.18635236467134e-05
1.55596153846154e+01 6.93266988202035e-03 9.00408219320812e-05
1.57603846153846e+01 6.75113137314085e-03 8.82469364904984e-05
1.59611538461538e+01 6.57434662191656e-03 8.64817716084976e-05
1.61619230769231e+01 6.40219114563568e-03 8.47452083005750e-05
1.63626923076923e+01 6.23454372343544e-03 8.30371064496697e-05
1.65634615384615e+01 6.07128630763297e-03 8.13573068092996e-05
1.67642307692308e+01 5.91230394080248e-03 7.97056317488571e-05
1.69650000000000e+01 5.75748467770574e-03 7.80818870632162e-05
1.71657692307692e+01 5.60671950351515e-03 7.64858635622789e-05
1.73665384615385e+01 5.45990225806104e-03 7.49173380511400e-05
1.75673076923077e+01 5.31692956028035e-03 7.33760743367116e-05
1.77680769230769e+01 5.17770073787759e-03 7.18618245508381e-05
1.79688461538462e+01 5.04211775391884e-03 7.03743305056919e-05
1.81696153846154e+01 4.91008513794775e-03 6.89133240646811e-05
1.83703846153846e+01 4.78150992095578e-03 6.74785283712539e-05
1.85711538461538e+01 4.65630156766561e-03 6.60696589976806e-05
1.87719230769231e+01 4.53437191291514e-03 6.46864242033219e-05
1.89726923076923e+01 4.41563510153989e-03 6.33285259777520e-05
1.91734615384615e+01 4.30000752590384e-03 6.19956610152556e-05
1.93742307692308e+01 4.18740776714413e-03 6.06875208825614e-05
1.95750000000000e+01 4.07775653960126e-03 5.94037929039370e-05
1.97757692307692e+01 3.97097663318632e-03 5.81441609191896e-05
1.99765384615385e+01 3.86699285963040e-03 5.69083056566864e-05
2.01773076923077e+01 3.76573199904836e-03 5.56959051371654e-05
2.03780769230769e+01 3.66712274989504e-03 5.45066353009183e-05
2.05788461538462e+01 3.57109567720839e-03 5.33401706698097e-05
2.07796153846154e+01 3.47758316380523e-03 5.21961843704467e-05
2.09803846153846e+01 3.38651936402746e-03 5.10743487358246e-05
2.11811538461538e+01 3.29784015598451e-03 4.99743358654948e-05
2.13819230769231e+01 3.21148309648211e-03 4.88958176057604e-05
2.15826923076923e+01 3.12738737827319e-03 4.78384660591048e-05
2.17834615384615e+01 3.04549378599030e-03 4.68019540577030e-05
2.19842307692308e+01 2.96574465451945e-03 4.57859551098032e-05
2.21850000000000e+01 2.88808382949350e-03 4.47901438299951e-05
2.23857692307692e+01 2.81245662662735e-03 4.38141962929043e-05
2.25865384615385e+01 2.73880979359604e-03 4.28577901383073e-05
2.27873076923077e+01 2.66709147222837e-03 4.19206047026533e-05
2.29880769230769e+01 2.59725116293999e-03 4.10023213059088e-05
2.31888461538462e+01 2.52923968820340e-03 4.01026235678422e-05
2.33896153846154e+01 2.46300915797339e-03 3.92211973039504e-05
2.35903846153846e+01 2.39851293681989e-03 3.83577308123111e-05
2.37911538461538e+01 2.33570561021473e-03 3.75119151382008e-05
2.39919230769231e+01 2.27454295260209e-03 3.66834439561796e-05
2.41926923076923e+01 2.21498189702679e-03 3.58720138100050e-05
2.43934615384615e+01 2.15698050402079e-03 3.50773243331894e-05
2.45942307692308e+01 2.10049793211472e-03 3.42990781211332e-05
2.47950000000000e+01 2.04549440977413e-03 3.35369809306243e-05
2.49957692307692e+01 1.99193120668401e-03 3.27907418319962e-05
2.51965384615385e+01 1.93977060671955e-03 3.20600731985259e-05
2.53973076923077e+01 1.88897588119205e-03 3.13446907164669e-05
2.55980769230769e+01 1.83951126358937e-03 3.06443135025468e-05
2.57988461538462e+01 1.79134192377464e-03 2.99586642443843e-05
2.59996153846154e+01 1.74443394349407e-03 2.92874690616664e-05
2.62003846153846e+01 1.69875429303761e-03 2.86304576323699e-05
2.64011538461538e+01 1.65427080742442e-03 2.79873633068811e-05
2.66019230769231e+01 1.61095216378431e-03 2.73579229675671e-05
2.68026923076923e+01 1.56876785979323e-03 2.67418771310991e-05
2.70034615384615e+01 1.52768819169241e-03 2.61389700402264e-05
2.72042307692308e+01 1.48768423339937e-03 2.55489495233298e-05
2.74050000000000e+01 1.44872781658429e-03 2.49715670762198e-05
2.76057692307692e+01 1.41079151038094e-03 2.44065779141697e-05
2.78065384615385e+01 1.37384860222643e-03 2.38537409163336e-05
2.80073076923077e+01 1.33787307892550e-03 2.33128185856711e-05
2.82080769230769e+01 1.30283960872046e-03 2.27835770831322e-05
2.84088461538462e+01 1.26872352305839e-03 2.22657862790374e-05
2.86096153846154e+01 1.23550079924178e-03 2.17592196176542e-05
2.88103846153846e+01 1.20314804386315e-03 2.12636541620752e-05
2.90111538461538e+01 1.17164247597463e-03 2.07788706325051e-05
2.92119230769231e+01 1.14096191106590e-03 2.03046532740381e-05
2.94126923076923e+01 1.11108474575992e-03 1.98407898896736e-05
2.96134615384615e+01 1.08198994227695e-03 1.93870718675932e-05
2.98142307692308e+01 1.05365701363793e-03 1.89432940526999e-05
3.00150000000000e+01 1.02606600952571e-03 1.85092547695352e-05
3.02157692307692e+01 9.99197501943781e-04 1.80847558262664e-05
3.04165384615385e+01 9.73032571636174e-04 1.76696024470136e-05
3.06173076923077e+01 9.47552794683842e-04 1.72636032155987e-05
3.08180769230769e+01 9.22740229782195e-04 1.68665700706263e-05
3.10188461538462e+01 8.98577405351703e-04 1.64783183132209e-05
3.12196153846154e+01 8.75047307248689e-04 1.60986664891179e-05
3.14203846153846e+01 8.52133367012055e-04 1.57274363937934e-05
3.16211538461538e+01 8.29819449964425e-04 1.53644530740489e-05
3.18219230769231e+01 8.08089843863185e-04 1.50095447147898e-05
3.20226923076923e+01 7.86929248042667e-04 1.46625426386292e-05
3.22234615384615e+01 7.66322762429766e-04 1.43232813024194e-05
3.24242307692308e+01 7.46255877062992e-04 1.39915981888227e-05
3.26250000000000e+01 7.26714462062224e-04 1.36673338013063e-05
3.28257692307692e+01 7.07684757488326e-04 1.33503316470007e-05
3.30265384615385e+01 6.89153363719232e-04 1.30404381715763e-05
3.32273076923077e+01 6.71107231961330e-04 1.27375027024420e-05
3.34280769230769e+01 6.53533655224764e-04 1.24413774274627e-05
3.36288461538462e+01 6.36420259208823e-04 1.21519173828921e-05
3.38296153846154e+01 6.19754993597197e-04 1.18689803564250e-05
3.40303846153846e+01 6.03526123721244e-04 1.15924268744491e-05
3.42311538461538e+01 5.87722222145373e-04 1.13221201874483e-05
3.44319230769231e+01 5.72332160628324e-04 1.10579261777829e-05
3.46326923076923e+01 5.57345102421995e-04 1.07997133447210e-05
3.48334615384615e+01 5.42750494503111e-04 1.05473527878814e-05
3.50342307692308e+01 5.28538060149383e-04 1.03007181196564e-05
3.52350000000000e+01 5.14697791825643e-04 1.00596854484865e-05
3.54357692307692e+01 5.01219944012050e-04 9.82413335431014e-06
3.56365384615385e+01 4.88095026384449e-04 9.59394283174550e-06
3.58373076923077e+01 4.75313797096778e-04 9.36899723929665e-06
3.60380769230769e+01 4.62867256380842e-04 9.14918227316865e-06
3.62388461538462e+01 4.50746640099539e-04 8.93438594774574e-06
3.64396153846154e+01 4.38943413581173e-04 8.72449851852531e-06
3.66403846153846e+01 4.27449265707400e-04 8.51941246281822e-06
3.68411538461538e+01 4.16256102961293e-04 8.31902245953832e-06
3.70419230769231e+01 4.05356043733425e-04 8.12322531633044e-06
3.72426923076923e+01 3.94741412860758e-04 7.93191994972189e-06
3.74434615384615e+01 3.84404736131610e-04 7.74500736450682e-06
3.76442307692308e+01 3.74338735027297e-04 7.56239058491617e-06
3.78450000000000e+01 3.64536321677674e-04 7.38397463444299e-06
3.80457692307692e+01 3.54990593787886e-04 7.20966651060298e-06
3.82465384615385e+01 3.45694829806214e-04 7.03937513791651e-06
3.84473076923077e+01 3.36642484168003e-04 6.87301132523352e-06
3.86480769230769e+01 3.27827182757519e-04 6.71048774013210e-06
3.88488461538462e+01 3.19242718347287e-04 6.55171888811567e-06
3.90496153846154e+01 3.10883046230934e-04 6.39662105267946e-06
3.92503846153846e+01 3.02742280031313e-04 6.24511227509854e-06
3.94511538461538e+01 2.94814687489789e-04 6.09711233381634e-06
3.96519230769231e+01 2.87094686433218e-04 5.95254268800331e-06
3.98526923076923e+01 2.79576840901955e-04 5.81132645759021e-06
4.00534615384615e+01 2.72255857262234e-04 5.67338840297837e-06
4.02542307692308e+01 2.65126580481674e-04 5.53865487192795e-06
4.04550000000000e+01 2.58183990552807e-04 5.40705377993078e-06
4.06557692307692e+01 2.51423198903742e-04 5.27851458729462e-06
4.08565384615385e+01 2.44839444974477e-04 5.15296826148486e-06
4.10573076923077e+01 2.38428092849440e-04 5.03034724259028e-06
4.12580769230769e+01 2.32184628040133e-04 4.91058542064952e-06
4.14588461538462e+01 2.26104654258308e-04 4.79361811642217e-06
4.16596153846154e+01 2.20183890322726e-04 4.67938203548453e-06
4.18603846153846e+01 2.14418167187381e-04 4.56781524969257e-06
4.20611538461538e+01 2.08803424962190e-04 4.45885717851669e-06
4.22619230769231e+01 2.03335710056421e-04 4.35244854593766e-06
4.24626923076923e+01 1.98011172433774e-04 4.24853136248259e-06
4.26634615384615e+01 1.92826062861597e-04 4.14704890717176e-06
4.28642307692308e+01 1.87776730272854e-04 4.04794568706738e-06
4.30650000000000e+01 1.82859619230764e-04 3.95116741991056e-06
4.32657692307692e+01 1.78071267389012e-04 3.85666101461957e-06
4.34665384615385e+01 1.73408303066104e-04 3.76437454178332e-06
4.36673076923077e+01 1.68867442860999e-04 3.67425720639744e-06
4.38680769230769e+01 1.64445489372416e-04 3.58625932885007e-06
4.40688461538462e+01 1.60139328915468e-04 3.50033232837692e-06
4.42696153846154e+01 1.55945929330748e-04 3.41642868829053e-06
4.44703846153846e+01 1.51862337877771e-04 3.33450194009896e-06
4.46711538461538e+01 1.47885679126700e-04 3.25450664763209e-06
4.48719230769231e+01 1.44013152935069e-04 3.17639837446342e-06
4.50726923076923e+01 1.40242032502077e-04 3.10013366868971e-06
4.52734615384615e+01 1.36569662421982e-04 3.02567004773633e-06
4.54742307692308e+01 1.32993456815619e-04 2.95296596784682e-06
4.56750000000000e+01 1.29510897533272e-04 2.88198080951894e-06
4.58757692307692e+01 1.26119532357344e-04 2.81267486154860e-06
4.60765384615385e+01 1.22816973283879e-04 2.74500929826951e-06
4.62773076923077e+01 1.19600894834238e-04 2.67894615840044e-06
4.64780769230769e+01 1.16469032438534e-04 2.61444832963812e-06
4.66788461538462e+01 1.13419180819716e-04 2.55147953501698e-06
4.68796153846154e+01 1.10449192441774e-04 2.49000430679246e-06
4.70803846153846e+01 1.07556976016639e-04 2.42998797338339e-06
4.72811538461538e+01 1.04740495012141e-04 2.37139664638306e-06
4.74819230769231e+01 1.01997766218960e-04 2.31419719613079e-06
4.76826923076923e+01 9.93268583715518e-05 2.25835723928724e-06
4.78834615384615e+01 9.67258907705007e-05 2.20384512648519e-06
4.80842307692308e+01 9.41930319591039e-05 2.15062991948817e-06
4.82850000000000e+01 9.17264984496362e-05 2.09868137938026e-06
4.84857692307692e+01 8.93245534513205e-05 2.04796995384906e-06
4.86865384615385e+01 8.69855056528913e-05 1.99846675983245e-06
4.88873076923077e+01 8.47077080270909e-05 1.95014356731722e-06
4.90880769230769e+01 8.24895566849432e-05 1.90297278714301e-06
4.92888461538462e+01 8.03294897320841e-05 1.85692746006969e-06
4.94896153846154e+01 7.82259861696548e-05 1.81198123728975e-06
4.96903846153846e+01 7.61775648360936e-05 1.76810836998168e-06
4.98911538461538e+01 7.41827833511276e-05 1.72528369895308e-06
5.00919230769231e+01 7.22402371007657e-05 1.68348263643728e-06
5.02926923076923e+01 7.03485582599242e-05 1.64268115620248e-06
5.04934615384615e+01 6.85064148173646e-05 1.60285578375186e-06
5.06942307692308e+01 6.67125096383411e-05 1.56398357932440e-06
5.08950000000000e+01 6.49655795618953e-05 1.52604212853725e-06
5.10957692307692e+01 6.32643945005300e-05 1.48900953243734e-06
5.12965384615385e+01 6.16077565777547e-05 1.45286439438906e-06
5.14973076923077e+01 5.99944992815295e-05 1.41758580778642e-06
5.16980769230769e+01 5.84234866522978e-05 1.38315334656072e-06
5.18988461538462e+01 5.68936124734937e-05 1.34954705659059e-06
5.20996153846154e+01 5.54037994930688e-05 1.31674744123709e-06
5.23003846153846e+01 5.39529986735584e-05 1.28473545314646e-06
5.25011538461538e+01 5.25401884446253e-05 1.25349248614331e-06
5.27019230769231e+01 5.11643739841531e-05 1.22300036173368e-06
5.29026923076923e+01 4.98245865256071e-05 1.19324132137212e-06
5.31034615384615e+01 4.85198826678636e-05 1.16419801881766e-06
5.33042307692308e+01 4.72493437113049e-05 1.13585350754291e-06
5.35050000000000e+01 4.60120750181038e-05 1.10819123344315e-06
5.37057692307692e+01 4.48072053749452e-05 1.08119502716110e-06
5.39065384615385e+01 4.36338863820595e-05 1.05484909424920e-06
5.41073076923077e+01 4.24912918537526e-05 1.02913800592186e-06
5.43080769230769e+01 4.13786172430048e-05 1.00404669176050e-06
5.45088461538462e+01 4.02950790684751e-05 9.79560433062957e-07
5.47096153846154e+01 3.92399143631271e-05 9.55664852152915e-07
5.49103846153846e+01 3.82123801427950e-05 9.32345906039445e-07
5.51111538461538e+01 3.72117528770941e-05 9.09589880158403e-07
5.53119230769231e+01 3.62373279802357e-05 8.87383378406226e-07
5.55126923076923e+01 3.52884193202011e-05 8.65713317175249e-07
5.57134615384615e+01 3.43643587301952e-05 8.44566919468083e-07
5.59142307692308e+01 3.34644955384187e-05 8.23931705608508e-07
5.61150000000000e+01 3.25881961147508e-05 8.03795487632513e-07
5.63157692307692e+01 3.17348434196370e-05 7.84146363429655e-07
5.65165384615385e+01 3.09038365712880e-05 7.64972709404434e-07
5.67173076923077e+01 3.00945904211702e-05 7.46263173559794e-07
5.69180769230769e+01 2.93065351462693e-05 7.28006669945827e-07
5.71188461538461e+01 2.85391158434757e-05 7.10192373568415e-07
5.73196153846154e+01 2.77917921390617e-05 6.92809712516469e-07
5.75203846153846e+01 2.70640378121033e-05 6.75848363111549e-07
5.77211538461538e+01 2.63553404199433e-05 6.59298245127305e-07
5.79219230769231e+01 2.56652009375493e-05 6.43149514455672e-07
5.81226923076923e+01 2.49931334097144e-05 6.27392558553883e-07
5.83234615384615e+01 2.43386646052169e-05 6.12017991958240e-07
5.85242307692308e+01 2.37013336837706e-05 5.97016649453558e-07
5.87250000000000e+01 2.30806918748076e-05 5.82379581800596e-07
5.89257692307692e+01 2.24763021581342e-05 5.68098051301595e-07
5.91265384615385e+01 2.18877389573441e-05 5.54163526351870e-07
5.93273076923077e+01 2.13145878392025e-05 5.40567676293196e-07
5.95280769230769e+01 2.07564452247310e-05 5.27302367222486e-07
5.97288461538461e+01 2.02129181020673e-05 5.14359658128618e-07
5.99296153846154e+01 1.96836237498683e-05 5.01731795112278e-07
6.01303846153846e+01 1.91681894704771e-05 4.89411207707727e-07
6.03311538461538e+01 1.86662523247793e-05 4.77390505261946e-07
6.05319230769231e+01 1.81774588767711e-05 4.65662471553647e-07
6.07326923076923e+01 1.77014649471195e-05 4.54220061346596e-07
6.09334615384615e+01 1.72379353683319e-05 4.43056396997446e-07
6.11342307692308e+01 1.67865437488669e-05 4.32164763447057e-07
6.13350000000000e+01 1.63469722455319e-05 4.21538604991545e-07
6.15357692307692e+01 1.59189113374083e-05 4.11171521948633e-07
6.17365384615385e+01 1.55020596086754e-05 4.01057266628599e-07
6.19373076923077e+01 1.50961235357269e-05 3.91189739520969e-07
6.21380769230769e+01 1.47008172824592e-05 3.81562986150162e-07
6.23388461538461e+01 1.43158624969918e-05 3.72171194165194e-07
6.25396153846154e+01 1.39409881157624e-05 3.63008689106802e-07
6.27403846153846e+01 1.35759301744625e-05 3.54069931637767e-07
6.29411538461538e+01 1.32204316203294e-05 3.45349514819173e-07
6.31419230769231e+01 1.28742421312315e-05 3.36842160172031e-07
6.33426923076923e+01 1.25371179410549e-05 3.28542715085656e-07
