Energy (eV)          EEDF (eV^-(3/2))     First Anisotropy
1.55250000000000e-03 1.46778516959173e+01 1.13516806787293e-02
4.65750000000000e-03 1.44264726826302e+01 1.86470228542191e-02
7.76250000000000e-03 1.41793988912435e+01 2.43583724137702e-02
1.08675000000000e-02 1.39365565887171e+01 2.85435897623340e-02
1.39725000000000e-02 1.36978733048045e+01 3.19091514236353e-02
1.70775000000000e-02 1.34632778104165e+01 3.47264329438687e-02
2.01825000000000e-02 1.32327000963635e+01 3.71379915234223e-02
2.32875000000000e-02 1.30060713524625e+01 3.92311671730353e-02
2.63925000000000e-02 1.27833239470028e+01 4.10647047900172e-02
2.94975000000000e-02 1.25643914065623e+01 4.26806949077850e-02
3.26025000000000e-02 1.23492083961709e+01 4.41107105821558e-02
3.57075000000000e-02 1.21377106998122e+01 4.53792756101489e-02
3.88125000000000e-02 1.19298352012600e+01 4.65059676626525e-02
4.19175000000000e-02 1.17255198652433e+01 4.75067651825281e-02
4.50225000000000e-02 1.15247037189327e+01 4.83949484698785e-02
4.81275000000000e-02 1.13273268337451e+01 4.91817244852384e-02
5.12325000000000e-02 1.11333303074593e+01 4.98766732431687e-02
5.43375000000000e-02 1.09426562466381e+01 5.04880749526964e-02
5.74425000000000e-02 1.07552477493514e+01 5.10231550681220e-02
6.05475000000000e-02 1.05710488881955e+01 5.14882713804482e-02
6.36525000000000e-02 1.03900046936026e+01 5.18890592708272e-02
6.67575000000000e-02 1.02120611374366e+01 5.22305461688962e-02
6.98625000000000e-02 1.00371651168700e+01 5.25172429485328e-02
7.29675000000000e-02 9.86526443853626e+00 5.27532177826511e-02
7.60725000000000e-02 9.69630780295444e+00 5.29421564696199e-02
7.91775000000000e-02 9.53024478921975e+00 5.30874121936832e-02
8.22825000000000e-02 9.36702583995694e+00 5.31920469379793e-02
8.53875000000000e-02 9.20660224653103e+00 5.32588662334732e-02
8.84925000000000e-02 9.04892613451142e+00 5.32904485363120e-02
9.15975000000000e-02 8.89395044938503e+00 5.32891702369688e-02
9.47025000000000e-02 8.74162894251398e+00 5.32572270879300e-02
9.78075000000000e-02 8.59191615733389e+00 5.31966526726584e-02
1.00912500000000e-01 8.44476741578843e+00 5.31093344129969e-02
1.04017500000000e-01 8.30013880499633e+00 5.29970275151227e-02
1.07122500000000e-01 8.15798716414667e+00 5.28613671785146e-02
1.10227500000000e-01 8.01827007161855e+00 5.27038793328681e-02
1.13332500000000e-01 7.88094583232147e+00 5.25259901207288e-02
1.16437500000000e-01 7.74597346525246e+00 5.23290343059664e-02
1.19542500000000e-01 7.61331269126628e+00 5.21142627579154e-02
1.22647500000000e-01 7.48292392105517e+00 5.18828491365145e-02
1.25752500000000e-01 7.35476824333436e+00 5.16358958838258e-02
1.28857500000000e-01 7.22880741322999e+00 5.13744396109622e-02
1.31962500000000e-01 7.10500384086585e+00 5.10994559560081e-02
1.35067500000000e-01 6.98332058014567e+00 5.08118639773678e-02
1.38172500000000e-01 6.86372131772741e+00 5.05125301377174e-02
1.41277500000000e-01 6.74617036218649e+00 5.02022719259828e-02
1.44382500000000e-01 6.63063263336456e+00 4.98818611582661e-02
1.47487500000000e-01 6.51707365190072e+00 4.95520269931610e-02
1.50592500000000e-01 6.40545952894196e+00 4.92134586922525e-02
1.53697500000000e-01 6.29575695602994e+00 4.88668081526488e-02
1.56802500000000e-01 6.18793319516086e+00 4.85126922350296e-02
1.59907500000000e-01 6.08195606901563e+00 4.81516949078227e-02
1.63012500000000e-01 5.97779395135737e+00 4.77843692256300e-02
1.66117500000000e-01 5.87541575759332e+00 4.74112391578960e-02
1.69222500000000e-01 5.77479093549844e+00 4.70328012819709e-02
1.72327500000000e-01 5.67588945609782e+00 4.66495263531263e-02
1.75432500000000e-01 5.57868180470533e+00 4.62618607626730e-02
1.78537500000000e-01 5.48313897211567e+00 4.58702278941301e-02
1.81642500000000e-01 5.38923244594727e+00 4.54750293863422e-02
1.84747500000000e-01 5.29693420213353e+00 4.50766463114889e-02
1.87852500000000e-01 5.20621669655971e+00 4.46754402751292e-02
1.90957500000000e-01 5.11705285684307e+00 4.42717544447018e-02
1.94062500000000e-01 5.02941607425377e+00 4.38659145122622e-02
1.97167500000000e-01 4.94328019577422e+00 4.34582295966810e-02
2.00272500000000e-01 4.85861951629430e+00 4.30489930900160e-02
2.03377500000000e-01 4.77540877094033e+00 4.26384834523398e-02
2.06482500000000e-01 4.69362312753541e+00 4.22269649589099e-02
2.09587500000000e-01 4.61323817918886e+00 4.18146884032013e-02
2.12692500000000e-01 4.53422993701260e+00 4.14018917590183e-02
2.15797500000000e-01 4.45657482296225e+00 4.09888008046194e-02
2.18902500000000e-01 4.38024966280086e+00 4.05756297115292e-02
2.22007500000000e-01 4.30523167918313e+00 4.01625816004884e-02
2.25112500000000e-01 4.23149848485810e+00 3.97498490667844e-02
2.28217500000000e-01 4.15902807598818e+00 3.93376146770229e-02
2.31322500000000e-01 4.08779882558270e+00 3.89260514392314e-02
2.34427500000000e-01 4.01778947704387e+00 3.85153232480348e-02
2.37532500000000e-01 3.94897913782325e+00 3.81055853065067e-02
2.40637500000000e-01 3.88134727318691e+00 3.76969845261741e-02
2.43742500000000e-01 3.81487370008732e+00 3.72896599065388e-02
2.46847500000000e-01 3.74953858114028e+00 3.68837428953817e-02
2.49952500000000e-01 3.68532241870489e+00 3.64793577310152e-02
2.53057500000000e-01 3.62220604906498e+00 3.60766217675673e-02
2.56162500000000e-01 3.56017063671019e+00 3.56756457843011e-02
2.59267500000000e-01 3.49919766871498e+00 3.52765342799039e-02
2.62372500000000e-01 3.43926894921387e+00 3.48793857526114e-02
2.65477500000000e-01 3.38036659397139e+00 3.44842929669727e-02
2.68582500000000e-01 3.32247302504493e+00 3.40913432080106e-02
2.71687500000000e-01 3.26557096553909e+00 3.37006185234757e-02
2.74792500000000e-01 3.20964343444977e+00 3.33121959548485e-02
2.77897500000000e-01 3.15467374159662e+00 3.29261477577025e-02
2.81002500000000e-01 3.10064548264231e+00 3.25425416119947e-02
2.84107500000000e-01 3.04754253419702e+00 3.21614408228220e-02
2.87212500000000e-01 2.99534904900685e+00 3.17829045121417e-02
2.90317500000000e-01 2.94404945122455e+00 3.14069878019288e-02
2.93422500000000e-01 2.89362843176136e+00 3.10337419892056e-02
2.96527500000000e-01 2.84407094371836e+00 3.06632147133553e-02
2.99632500000000e-01 2.79536219789608e+00 3.02954501161163e-02
3.02737500000000e-01 2.74748765838107e+00 2.99304889946148e-02
3.05842500000000e-01 2.70043303820800e+00 2.95683689477791e-02
3.08947500000000e-01 2.65418429509607e+00 2.92091245164624e-02
3.12052500000000e-01 2.60872762725842e+00 2.88527873175767e-02
3.15157500000000e-01 2.56404946928337e+00 2.84993861725239e-02
3.18262500000000e-01 2.52013648808615e+00 2.81489472301977e-02
3.21367500000000e-01 2.47697557892994e+00 2.78014940848106e-02
3.24472500000000e-01 2.43455386151513e+00 2.74570478887862e-02
3.27577500000000e-01 2.39285867613549e+00 2.71156274609493e-02
3.30682500000000e-01 2.35187757990019e+00 2.67772493902230e-02
3.33787500000000e-01 2.31159834302057e+00 2.64419281350464e-02
3.36892500000000e-01 2.27200894516041e+00 2.61096761186980e-02
3.39997500000000e-01 2.23309757184879e+00 2.57805038207116e-02
3.43102500000000e-01 2.19485261095434e+00 2.54544198645607e-02
3.46207500000000e-01 2.15726264921992e+00 2.51314311017716e-02
3.49312500000000e-01 2.12031646885658e+00 2.48115426926261e-02
3.52417500000000e-01 2.08400304419591e+00 2.44947581836004e-02
3.55522500000000e-01 2.04831153839969e+00 2.41810795816788e-02
3.58627500000000e-01 2.01323130022591e+00 2.38705074256803e-02
3.61732500000000e-01 1.97875186085020e+00 2.35630408547254e-02
3.64837500000000e-01 1.94486293074162e+00 2.32586776739611e-02
3.67942500000000e-01 1.91155439659204e+00 2.29574144176609e-02
3.71047500000000e-01 1.87881631829807e+00 2.26592464098118e-02
3.74152500000000e-01 1.84663892599467e+00 2.23641678222892e-02
3.77257500000000e-01 1.81501261713959e+00 2.20721717307237e-02
3.80362500000000e-01 1.78392795364772e+00 2.17832501681497e-02
3.83467500000000e-01 1.75337565907455e+00 2.14973941765304e-02
3.86572500000000e-01 1.72334661584781e+00 2.12145938562464e-02
3.89677500000000e-01 1.69383186254659e+00 2.09348384136254e-02
3.92782500000000e-01 1.66482259122701e+00 2.06581162065945e-02
3.95887500000000e-01 1.63631014479371e+00 2.03844147885341e-02
3.98992500000000e-01 1.60828601441637e+00 2.01137209503986e-02
4.02097500000000e-01 1.58074183699043e+00 1.98460207611765e-02
4.05202500000000e-01 1.55366939264137e+00 1.95812996067546e-02
4.08307500000000e-01 1.52706060227164e+00 1.93195422272495e-02
4.11412500000000e-01 1.50090752514973e+00 1.90607327528664e-02
4.14517500000000e-01 1.47520235654037e+00 1.88048547383415e-02
4.17622500000000e-01 1.44993742537546e+00 1.85518911960235e-02
4.20727500000000e-01 1.42510519196482e+00 1.83018246276489e-02
4.23832500000000e-01 1.40069824574615e+00 1.80546370548593e-02
4.26937500000000e-01 1.37670930307352e+00 1.78103100485086e-02
4.30042500000000e-01 1.35313120504376e+00 1.75688247568077e-02
4.33147500000000e-01 1.32995691536008e+00 1.73301619323520e-02
4.36252500000000e-01 1.30717951823223e+00 1.70943019580716e-02
4.39357500000000e-01 1.28479221631268e+00 1.68612248721461e-02
4.42462500000000e-01 1.26278832866809e+00 1.66309103919261e-02
4.45567500000000e-01 1.24116128878560e+00 1.64033379368933e-02
4.48672500000000e-01 1.21990464261317e+00 1.61784866506988e-02
4.51777500000000e-01 1.19901204663356e+00 1.59563354223156e-02
4.54882500000000e-01 1.17847726597124e+00 1.57368629063346e-02
4.57987500000000e-01 1.15829417253178e+00 1.55200475424391e-02
4.61092500000000e-01 1.13845674317304e+00 1.53058675740863e-02
4.64197500000000e-01 1.11895905790771e+00 1.50943010664272e-02
4.67302500000000e-01 1.09979529813669e+00 1.48853259234913e-02
4.70407500000000e-01 1.08095974491261e+00 1.46789199046658e-02
4.73512500000000e-01 1.06244677723318e+00 1.44750606404927e-02
4.76617500000000e-01 1.04425087036376e+00 1.42737256478094e-02
4.79722500000000e-01 1.02636659418859e+00 1.40748923442596e-02
4.82827500000000e-01 1.00878861159036e+00 1.38785380621949e-02
4.85932500000000e-01 9.91511676857459e-01 1.36846400619904e-02
4.89037500000000e-01 9.74530634118516e-01 1.34931755447951e-02
4.92142500000000e-01 9.57840415803765e-01 1.33041216647397e-02
4.95247500000000e-01 9.41436041132756e-01 1.31174555406206e-02
4.98352500000000e-01 9.25312614627963e-01 1.29331542670783e-02
5.01457500000000e-01 9.09465324653849e-01 1.27511949252902e-02
5.04562500000000e-01 8.93889441980958e-01 1.25715545931940e-02
5.07667500000000e-01 8.78580318374590e-01 1.23942103552620e-02
5.10772500000000e-01 8.63533385207653e-01 1.22191393118389e-02
5.13877500000000e-01 8.48744152097267e-01 1.20463185880607e-02
5.16982500000000e-01 8.34208205564725e-01 1.18757253423703e-02
5.20087500000000e-01 8.19921207718398e-01 1.17073367746451e-02
5.23192500000000e-01 8.05878894959198e-01 1.15411301339486e-02
5.26297500000000e-01 7.92077076708215e-01 1.13770827259222e-02
5.29402500000000e-01 7.78511634156142e-01 1.12151719198284e-02
5.32507500000000e-01 7.65178519034120e-01 1.10553751552593e-02
5.35612500000000e-01 7.52073752405631e-01 1.08976699485229e-02
5.38717500000000e-01 7.39193423479083e-01 1.07420338987179e-02
5.41822500000000e-01 7.26533688440736e-01 1.05884446935089e-02
5.44927500000000e-01 7.14090769307604e-01 1.04368801146134e-02
5.48032500000000e-01 7.01860952800018e-01 1.02873180430113e-02
5.51137500000000e-01 6.89840589233483e-01 1.01397364638855e-02
5.54242500000000e-01 6.78026091429526e-01 9.99411347130564e-03
5.57347500000000e-01 6.66413933645188e-01 9.85042727266418e-03
5.60452500000000e-01 6.55000650520856e-01 9.70865619287215e-03
5.63557500000000e-01 6.43782836046112e-01 9.56877867832466e-03
5.66662500000000e-01 6.32757142543293e-01 9.43077330064570e-03
5.69767500000000e-01 6.21920279668461e-01 9.29461876021908e-03
5.72872500000000e-01 6.11269013429482e-01 9.16029388951384e-03
5.75977500000000e-01 6.00800165220920e-01 9.02777765621129e-03
5.79082500000000e-01 5.90510610875463e-01 8.89704916614290e-03
5.82187500000000e-01 5.80397279731591e-01 8.76808766604415e-03
5.85292500000000e-01 5.70457153717215e-01 8.64087254613174e-03
5.88397500000000e-01 5.60687266449009e-01 8.51538334251217e-03
5.91502500000000e-01 5.51084702347164e-01 8.39159973942656e-03
5.94607500000000e-01 5.41646595765308e-01 8.26950157133792e-03
5.97712500000000e-01 5.32370130135327e-01 8.14906882486845e-03
6.00817500000000e-01 5.23252537126824e-01 8.03028164059117e-03
6.03922500000000e-01 5.14291095820986e-01 7.91312031468159e-03
6.07027500000000e-01 5.05483131898591e-01 7.79756530043558e-03
6.10132500000000e-01 4.96826016841923e-01 7.68359720965806e-03
6.13237500000000e-01 4.88317167150358e-01 7.57119681392776e-03
6.16342500000000e-01 4.79954043569382e-01 7.46034504574252e-03
6.19447500000000e-01 4.71734150332812e-01 7.35102299955074e-03
6.22552500000000e-01 4.63655034418001e-01 7.24321193267259e-03
6.25657500000000e-01 4.55714284813788e-01 7.13689326611554e-03
6.28762500000000e-01 4.47909531800998e-01 7.03204858528866e-03
6.31867500000000e-01 4.40238446245254e-01 6.92865964061953e-03
6.34972500000000e-01 4.32698738901907e-01 6.82670834807820e-03
6.38077500000000e-01 4.25288159732867e-01 6.72617678961155e-03
6.41182500000000e-01 4.18004497235135e-01 6.62704721349125e-03
6.44287500000000e-01 4.10845577780835e-01 6.52930203458016e-03
6.47392500000000e-01 4.03809264968551e-01 6.43292383451949e-03
6.50497500000000e-01 3.96893458985766e-01 6.33789536183989e-03
6.53602500000000e-01 3.90096095982231e-01 6.24419953200131e-03
6.56707500000000e-01 3.83415147454056e-01 6.15181942736241e-03
6.59812500000000e-01 3.76848619638356e-01 6.06073829708410e-03
6.62917500000000e-01 3.70394552918262e-01 5.97093955696985e-03
6.66022500000000e-01 3.64051021238119e-01 5.88240678924470e-03
6.69127500000000e-01 3.57816131528707e-01 5.79512374227666e-03
6.72232500000000e-01 3.51688023142298e-01 5.70907433024252e-03
6.75337500000000e-01 3.45664867297395e-01 5.62424263274060e-03
6.78442500000000e-01 3.39744866532974e-01 5.54061289435328e-03
6.81547500000000e-01 3.33926254172081e-01 5.45816952416083e-03
6.84652500000000e-01 3.28207293794606e-01 5.37689709520938e-03
6.87757500000000e-01 3.22586278719097e-01 5.29678034393527e-03
6.90862500000000e-01 3.17061531493439e-01 5.21780416954756e-03
6.93967500000000e-01 3.11631403394263e-01 5.13995363337084e-03
6.97072500000000e-01 3.06294273934924e-01 5.06321395814983e-03
7.00177500000000e-01 3.01048550381907e-01 4.98757052731856e-03
7.03282500000000e-01 2.95892667279517e-01 4.91300888423518e-03
7.06387500000000e-01 2.90825085982706e-01 4.83951473138474e-03
7.09492500000000e-01 2.85844294197902e-01 4.76707392955081e-03
7.12597500000000e-01 2.80948805531705e-01 4.69567249695812e-03
7.15702500000000e-01 2.76137159047309e-01 4.62529660838809e-03
7.18807500000000e-01 2.71407918828521e-01 4.55593259426797e-03
7.21912500000000e-01 2.66759673551247e-01 4.48756693973563e-03
7.25017500000000e-01 2.62191036062320e-01 4.42018628368132e-03
7.28122500000000e-01 2.57700642965536e-01 4.35377741776717e-03
7.31227500000000e-01 2.53287154214783e-01 4.28832728542682e-03
7.34332500000000e-01 2.48949252714139e-01 4.22382298084557e-03
7.37437500000000e-01 2.44685643924816e-01 4.16025174792225e-03
7.40542500000000e-01 2.40495055478836e-01 4.09760097921471e-03
7.43647500000000e-01 2.36376236799329e-01 4.03585821486942e-03
7.46752500000000e-01 2.32327958727323e-01 3.97501114153642e-03
7.49857500000000e-01 2.28349013154938e-01 3.91504759127066e-03
7.52962500000000e-01 2.24438212664854e-01 3.85595554042064e-03
7.56067500000000e-01 2.20594390175952e-01 3.79772310850554e-03
7.59172500000000e-01 2.16816398595035e-01 3.74033855708183e-03
7.62277500000000e-01 2.13103110474501e-01 3.68379028859984e-03
7.65382500000000e-01 2.09453417675886e-01 3.62806684525134e-03
7.68487500000000e-01 2.05866231039169e-01 3.57315690780930e-03
7.71592500000000e-01 2.02340480057738e-01 3.51904929446014e-03
7.74697500000000e-01 1.98875112558922e-01 3.46573295962952e-03
7.77802500000000e-01 1.95469094390000e-01 3.41319699280215e-03
7.80907500000000e-01 1.92121409109582e-01 3.36143061733669e-03
7.84012500000000e-01 1.88831057684276e-01 3.31042318927627e-03
7.87117500000000e-01 1.85597058190554e-01 3.26016419615498e-03
7.90222500000000e-01 1.82418445521721e-01 3.21064325580157e-03
7.93327500000000e-01 1.79294271099899e-01 3.16185011514027e-03
7.96432500000000e-01 1.76223602592954e-01 3.11377464898988e-03
7.99537500000000e-01 1.73205523636258e-01 3.06640685886146e-03
8.02642500000000e-01 1.70239133559230e-01 3.01973687175503e-03
8.05747500000000e-01 1.67323547116544e-01 2.97375493895610e-03
8.08852500000000e-01 1.64457894223960e-01 2.92845143483205e-03
8.11957500000000e-01 1.61641319698661e-01 2.88381685562935e-03
8.15062500000000e-01 1.58872983004048e-01 2.83984181827180e-03
8.18167500000000e-01 1.56152057998903e-01 2.79651705916024e-03
8.21272500000000e-01 1.53477732690847e-01 2.75383343297392e-03
8.24377500000000e-01 1.50849208994021e-01 2.71178191147466e-03
8.27482500000000e-01 1.48265702490919e-01 2.67035358231313e-03
8.30587500000000e-01 1.45726442198295e-01 2.62953964783848e-03
8.33692500000000e-01 1.43230670337083e-01 2.58933142391146e-03
8.36797500000000e-01 1.40777642106261e-01 2.54972033872078e-03
8.39902500000000e-01 1.38366625460576e-01 2.51069793160380e-03
8.43007500000000e-01 1.35996900892091e-01 2.47225585187157e-03
8.46112500000000e-01 1.33667761215459e-01 2.43438585763840e-03
8.49217500000000e-01 1.31378511356887e-01 2.39707981465607e-03
8.52322500000000e-01 1.29128468146704e-01 2.36032969515359e-03
8.55427500000000e-01 1.26916960115490e-01 2.32412757668201e-03
8.58532500000000e-01 1.24743327293687e-01 2.28846564096478e-03
8.61637500000000e-01 1.22606921014655e-01 2.25333617275425e-03
8.64742500000000e-01 1.20507103721087e-01 2.21873155869407e-03
8.67847500000000e-01 1.18443248774749e-01 2.18464428618771e-03
8.70952500000000e-01 1.16414740269476e-01 2.15106694227337e-03
8.74057500000000e-01 1.14420972847367e-01 2.11799221250573e-03
8.77162500000000e-01 1.12461351518135e-01 2.08541287984440e-03
8.80267500000000e-01 1.10535291481544e-01 2.05332182354900e-03
8.83372500000000e-01 1.08642217952891e-01 2.02171201808172e-03
8.86477500000000e-01 1.06781565991475e-01 1.99057653201697e-03
8.89582500000000e-01 1.04952780332007e-01 1.95990852695821e-03
8.92687500000000e-01 1.03155315218901e-01 1.92970125646240e-03
8.95792500000000e-01 1.01388634243410e-01 1.89994806497206e-03
8.98897500000000e-01 9.96522101835469e-02 1.87064238675498e-03
9.02002500000000e-01 9.79455248467487e-02 1.84177774485166e-03
9.05107500000000e-01 9.62680689152340e-02 1.81334775003079e-03
9.08212500000000e-01 9.46193417940103e-02 1.78534609975259e-03
9.11317500000000e-01 9.29988514614839e-02 1.75776657714025e-03
9.14422500000000e-01 9.14061143226282e-02 1.73060304995945e-03
9.17527500000000e-01 8.98406550646671e-02 1.70384946960617e-03
9.20632500000000e-01 8.83020065152291e-02 1.67749987010273e-03
9.23737500000000e-01 8.67897095029318e-02 1.65154836710205e-03
9.26842500000000e-01 8.53033127203536e-02 1.62598915690042e-03
9.29947500000000e-01 8.38423725893522e-02 1.60081651545863e-03
9.33052500000000e-01 8.24064531286894e-02 1.57602479743143e-03
9.36157500000000e-01 8.09951258239238e-02 1.55160843520563e-03
9.39262500000000e-01 7.96079694995312e-02 1.52756193794672e-03
9.42367500000000e-01 7.82445701932150e-02 1.50387989065389e-03
9.45472500000000e-01 7.69045210323698e-02 1.48055695322372e-03
9.48577500000000e-01 7.55874221126602e-02 1.45758785952248e-03
9.51682500000000e-01 7.42928803786792e-02 1.43496741646686e-03
9.54787500000000e-01 7.30205095066509e-02 1.41269050311355e-03
9.57892500000000e-01 7.17699297891415e-02 1.39075206975713e-03
9.60997500000000e-01 7.05407680217452e-02 1.36914713703686e-03
9.64102500000000e-01 6.93326573917106e-02 1.34787079505188e-03
9.67207500000000e-01 6.81452373684745e-02 1.32691820248511e-03
9.70312500000000e-01 6.69781535960706e-02 1.30628458573574e-03
9.73417500000000e-01 6.58310577873808e-02 1.28596523806016e-03
9.76522500000000e-01 6.47036076201974e-02 1.26595551872176e-03
9.79627500000000e-01 6.35954666350659e-02 1.24625085214900e-03
