Energy (eV)          EEDF (eV^-(3/2))     First Anisotropy
1.97500000000000e-01 6.09137045059942e-02 9.09261453230952e-05
5.92500000000000e-01 5.75071398509643e-02 1.46438823704956e-04
9.87500000000000e-01 5.42910854077642e-02 1.83740159195948e-04
1.38250000000000e+00 5.12548869999781e-02 2.06810939149248e-04
1.77750000000000e+00 4.83884862800111e-02 2.22069678819303e-04
2.17250000000000e+00 4.56823874076988e-02 2.32136417905074e-04
2.56750000000000e+00 4.31276255923952e-02 2.38457293041415e-04
2.96250000000000e+00 4.07157373943280e-02 2.41953840233124e-04
3.35750000000000e+00 3.84387326868326e-02 2.43264697680389e-04
3.75250000000000e+00 3.62890681865829e-02 2.42857186549947e-04
4.14750000000000e+00 3.42596224641290e-02 2.41086351872975e-04
4.54250000000000e+00 3.23436723519567e-02 2.38229327042317e-04
4.93750000000000e+00 3.05348706719126e-02 2.34506801848340e-04
5.33250000000000e+00 2.88272252082104e-02 2.30097188315929e-04
5.72750000000000e+00 2.72150788563609e-02 2.25146384702878e-04
6.12250000000000e+00 2.56930908822605e-02 2.19774748680141e-04
6.51750000000000e+00 2.42562192293559e-02 2.14082225898208e-04
6.91250000000000e+00 2.28997038152698e-02 2.08152215968444e-04
7.30750000000000e+00 2.16190507625539e-02 2.02054548117692e-04
7.70250000000000e+00 2.04100175113281e-02 1.95847812697439e-04
8.09750000000000e+00 1.92685987644866e-02 1.89581216138412e-04
8.49250000000000e+00 1.81910132189110e-02 1.83296076374181e-04
8.88750000000000e+00 1.71736910387325e-02 1.77027042302606e-04
9.28250000000000e+00 1.62132620291447e-02 1.70803098167921e-04
9.67750000000000e+00 1.53065444715901e-02 1.64648398020071e-04
1.00725000000000e+01 1.44505345833311e-02 1.58582964288321e-04
1.04675000000000e+01 1.36423965664901e-02 1.52623276501673e-04
1.08625000000000e+01 1.28794532135902e-02 1.46782770332065e-04
1.12575000000000e+01 1.21591770384767e-02 1.41072262786972e-04
1.16525000000000e+01 1.14791819032359e-02 1.35500316103826e-04
1.20475000000000e+01 1.08372151133747e-02 1.30073550402619e-04
1.24425000000000e+01 1.02311499550722e-02 1.24796913228089e-04
1.28375000000000e+01 9.65897864978136e-03 1.19673912612401e-04
1.32325000000000e+01 9.11880570284081e-03 1.14706819107878e-04
1.36275000000000e+01 8.60884162406181e-03 1.09896841300707e-04
1.40225000000000e+01 8.12739699948764e-03 1.05244278564226e-04
1.44175000000000e+01 7.67287689468667e-03 1.00748654202681e-04
1.48125000000000e+01 7.24377557103805e-03 9.64088316416839e-05
1.52075000000000e+01 6.83867149750621e-03 9.22231159161325e-05
1.56025000000000e+01 6.45622264137899e-03 8.81893423719525e-05
1.59975000000000e+01 6.09516202236863e-03 8.43049542203532e-05
1.63925000000000e+01 5.75429351534719e-03 8.05670703515915e-05
1.67875000000000e+01 5.43248788781159e-03 7.69725446207612e-05
1.71825000000000e+01 5.12867905895116e-03 7.35180176541157e-05
1.75775000000000e+01 4.84186056792483e-03 7.01999620854652e-05
1.79725000000000e+01 4.57108223964782e-03 6.70147220139124e-05
1.83675000000000e+01 4.31544703704242e-03 6.39585473731471e-05
1.87625000000000e+01 4.07410808932482e-03 6.10276238158256e-05
1.91575000000000e+01 3.84626588648336e-03 5.82180986419379e-05
1.95525000000000e+01 3.63116563065397e-03 5.55261032356252e-05
1.99475000000000e+01 3.42809473561851e-03 5.29477724190623e-05
2.03425000000000e+01 3.23638046614217e-03 5.04792610835015e-05
2.07375000000000e+01 3.05538770932969e-03 4.81167584153040e-05
2.11325000000000e+01 2.88451687061717e-03 4.58564999978543e-05
2.15275000000000e+01 2.72320188742935e-03 4.36947780379267e-05
2.19225000000000e+01 2.57090835392206e-03 4.16279499367000e-05
2.23175000000000e+01 2.42713175059728e-03 3.96524454006785e-05
2.27125000000000e+01 2.29139577292611e-03 3.77647722657963e-05
2.31075000000000e+01 2.16325075344244e-03 3.59615211886010e-05
2.35025000000000e+01 2.04227217208023e-03 3.42393693412624e-05
2.38975000000000e+01 1.92805924981933e-03 3.25950832319863e-05
2.42925000000000e+01 1.82023362098077e-03 3.10255207589587e-05
2.46875000000000e+01 1.71843807977335e-03 2.95276325940118e-05
2.50825000000000e+01 1.62233539693876e-03 2.80984629815901e-05
2.54775000000000e+01 1.53160720257524e-03 2.67351500291593e-05
2.58725000000000e+01 1.44595293143870e-03 2.54349255567999e-05
2.62675000000000e+01 1.36508882722721e-03 2.41951145662354e-05
2.66625000000000e+01 1.28874700255037e-03 2.30131343828682e-05
2.70575000000000e+01 1.21667455146941e-03 2.18864935184342e-05
2.74525000000000e+01 1.14863271166788e-03 2.08127902965656e-05
2.78475000000000e+01 1.08439607347757e-03 1.97897112787920e-05
2.82425000000000e+01 1.02375183313914e-03 1.88150295242624e-05
2.86375000000000e+01 9.66499087823767e-04 1.78866027126669e-05
2.90325000000000e+01 9.12448170080314e-04 1.70023711564372e-05
2.94275000000000e+01 8.61420019503138e-04 1.61603557252638e-05
2.98225000000000e+01 8.13245589539043e-04 1.53586557032464e-05
3.02175000000000e+01 7.67765287468219e-04 1.45954465965601e-05
3.06125000000000e+01 7.24828445703926e-04 1.38689779073418e-05
3.10075000000000e+01 6.84292822659447e-04 1.31775708875524e-05
3.14025000000000e+01 6.46024131528779e-04 1.25196162848282e-05
3.17975000000000e+01 6.09895595419995e-04 1.18935720907803e-05
3.21925000000000e+01 5.75787527367529e-04 1.12979613008051e-05
3.25875000000000e+01 5.43586933832025e-04 1.07313696932291e-05
3.29825000000000e+01 5.13187140374250e-04 1.01924436345009e-05
3.33775000000000e+01 4.84487438262970e-04 9.67988791615423e-06
3.37725000000000e+01 4.57392750846087e-04 9.19246362838422e-06
3.41675000000000e+01 4.31813318579782e-04 8.72898607429451e-06
3.45625000000000e+01 4.07664401672228e-04 8.28832272817563e-06
3.49575000000000e+01 3.84865999356781e-04 7.86939124055482e-06
3.53525000000000e+01 3.63342584864663e-04 7.47115749220905e-06
3.57475000000000e+01 3.43022855219151e-04 7.09263369884625e-06
3.61425000000000e+01 3.23839495022379e-04 6.73287656773120e-06
3.65375000000000e+01 3.05728953452238e-04 6.39098550715351e-06
3.69325000000000e+01 2.88631233730590e-04 6.06610088930252e-06
3.73275000000000e+01 2.72489694365363e-04 5.75740236682248e-06
3.77225000000000e+01 2.57250861508062e-04 5.46410724306648e-06
3.81175000000000e+01 2.42864251805084e-04 5.18546889584603e-06
3.85125000000000e+01 2.29282205155977e-04 4.92077525428011e-06
3.89075000000000e+01 2.16459726824592e-04 4.66934732818302e-06
3.93025000000000e+01 2.04354338380087e-04 4.43053778928738e-06
3.96975000000000e+01 1.92925936973966e-04 4.20372960347803e-06
4.00925000000000e+01 1.82136662486973e-04 3.98833471311077e-06
4.04875000000000e+01 1.71950772105724e-04 3.78379276840480e-06
4.08825000000000e+01 1.62334521913562e-04 3.58956990682750e-06
4.12775000000000e+01 1.53256055103386e-04 3.40515757933353e-06
4.16725000000000e+01 1.44685296442112e-04 3.23007142227564e-06
4.20675000000000e+01 1.36593852637143e-04 3.06385017377020e-06
4.24625000000000e+01 1.28954918274798e-04 2.90605463327501e-06
4.28575000000000e+01 1.21743187019077e-04 2.75626666312083e-06
4.32525000000000e+01 1.14934767776581e-04 2.61408823072816e-06
4.36475000000000e+01 1.08507105549871e-04 2.47914049023720e-06
4.40425000000000e+01 1.02438906717048e-04 2.35106290228183e-06
4.44375000000000e+01 9.67100684900407e-05 2.22951239064504e-06
4.48325000000000e+01 9.13016123178894e-05 2.11416253454469e-06
4.52275000000000e+01 8.61956210144203e-05 2.00470279531324e-06
4.56225000000000e+01 8.13751794020162e-05 1.90083777625313e-06
4.60175000000000e+01 7.68243182748516e-05 1.80228651446981e-06
4.64125000000000e+01 7.25279614959531e-05 1.70878180350719e-06
4.68075000000000e+01 6.84718760528254e-05 1.62006954563528e-06
4.72025000000000e+01 6.46426249061901e-05 1.53590813266498e-06
4.75975000000000e+01 6.10275224756304e-05 1.45606785419295e-06
4.79925000000000e+01 5.76145926146779e-05 1.38033033220761e-06
4.83875000000000e+01 5.43925289361177e-05 1.30848798101571e-06
4.87825000000000e+01 5.13506573560789e-05 1.24034349147906e-06
4.91775000000000e+01 4.84789007328261e-05 1.17570933858013e-06
4.95725000000000e+01 4.57677454831060e-05 1.11440731136553e-06
4.99675000000000e+01 4.32082100654566e-05 1.05626806434616e-06
5.03625000000000e+01 4.07918152260693e-05 1.00113068946275e-06
5.07575000000000e+01 3.85105559086343e-05 9.48842307754924e-07
5.11525000000000e+01 3.63568747351122e-05 8.99257679901661e-07
5.15475000000000e+01 3.43236369695791e-05 8.52238834829620e-07
5.19425000000000e+01 3.24041068822034e-05 8.07654715614569e-07
5.23375000000000e+01 3.05919254350550e-05 7.65380841929101e-07
5.27325000000000e+01 2.88810892158225e-05 7.25298988317338e-07
5.31275000000000e+01 2.72659305496506e-05 6.87296877604193e-07
5.35225000000000e+01 2.57410987232116e-05 6.51267888773090e-07
5.39175000000000e+01 2.43015422588106e-05 6.17110778671688e-07
5.43125000000000e+01 2.29424921798005e-05 5.84729416930040e-07
5.47075000000000e+01 2.16594462118705e-05 5.54032533500029e-07
5.51025000000000e+01 2.04481538678677e-05 5.24933478248463e-07
5.54975000000000e+01 1.93046023667419e-05 4.97349992059072e-07
5.58925000000000e+01 1.82250033399654e-05 4.71203988920950e-07
5.62875000000000e+01 1.72057802813894e-05 4.46421348502408e-07
5.66825000000000e+01 1.62435566989591e-05 4.22931718730019e-07
5.70775000000000e+01 1.53351449290385e-05 4.00668327912770e-07
5.74725000000000e+01 1.44775355762871e-05 3.79567805970630e-07
5.78675000000000e+01 1.36678875441054e-05 3.59570014345606e-07
5.82625000000000e+01 1.29035186226234e-05 3.40617884191418e-07
5.86575000000000e+01 1.21818966030486e-05 3.22657262455369e-07
5.90525000000000e+01 1.15006308889410e-05 3.05636765482751e-07
5.94475000000000e+01 1.08574645766212e-05 2.89507639790299e-07
5.98425000000000e+01 1.02502669784788e-05 2.74223629670737e-07
6.02375000000000e+01 9.67702656440901e-06 2.59740851305399e-07
6.06325000000000e+01 9.13584429799650e-06 2.46017673076277e-07
6.10275000000000e+01 8.62492734536917e-06 2.33014601782649e-07
6.14225000000000e+01 8.14258313588056e-06 2.20694174480672e-07
6.18175000000000e+01 7.68721375494538e-06 2.09020855677036e-07
6.22125000000000e+01 7.25731065045257e-06 1.97960939619984e-07
6.26075000000000e+01 6.85144963521917e-06 1.87482457442683e-07
6.30025000000000e+01 6.46828616892919e-06 1.77555088925130e-07
6.33975000000000e+01 6.10655090392741e-06 1.68150078651543e-07
6.37925000000000e+01 5.76504548011207e-06 1.59240156350437e-07
6.41875000000000e+01 5.44263855499593e-06 1.50799461214474e-07
6.45825000000000e+01 5.13826205578388e-06 1.42803470006563e-07
6.49775000000000e+01 4.85090764105097e-06 1.35228928767745e-07
6.53725000000000e+01 4.57962336029917e-06 1.28053787950992e-07
6.57675000000000e+01 4.32351050032648e-06 1.21257140813339e-07
6.61625000000000e+01 4.08172060796114e-06 1.14819164906624e-07
6.65575000000000e+01 3.85345267929766e-06 1.08721066514686e-07
6.69525000000000e+01 3.63795050612335e-06 1.02945027892054e-07
6.73475000000000e+01 3.43450017074436e-06 9.74741571660529e-08
6.77425000000000e+01 3.24242768091224e-06 9.22924407708474e-08
6.81375000000000e+01 3.06109673701585e-06 8.73846982881914e-08
6.85325000000000e+01 2.88990662414181e-06 8.27365395756824e-08
6.89275000000000e+01 2.72829022202035e-06 7.83343240690172e-08
6.93225000000000e+01 2.57571212626370e-06 7.41651221502223e-08
6.97175000000000e+01 2.43166687467327e-06 7.02166784790415e-08
7.01125000000000e+01 2.29567727273956e-06 6.64773771896272e-08
7.05075000000000e+01 2.16729281278755e-06 6.29362088594385e-08
7.09025000000000e+01 2.04608818153049e-06 5.95827391617564e-08
7.12975000000000e+01 1.93166185108793e-06 5.64070791175446e-08
7.16925000000000e+01 1.82363474880022e-06 5.33998568664970e-08
7.20875000000000e+01 1.72164900143293e-06 5.05521908810239e-08
7.24825000000000e+01 1.62536674961096e-06 4.78556645506683e-08
7.28775000000000e+01 1.53446902855467e-06 4.53023020679955e-08
7.32725000000000e+01 1.44865471141026e-06 4.28845455503918e-08
7.36675000000000e+01 1.36763951167385e-06 4.05952333354337e-08
7.40625000000000e+01 1.29115504140433e-06 3.84275793905663e-08
7.44575000000000e+01 1.21894792210520e-06 3.63751537807535e-08
7.48525000000000e+01 1.15077894532984e-06 3.44318641405553e-08
7.52475000000000e+01 1.08642228022943e-06 3.25919380997351e-08
7.56425000000000e+01 1.02566472541833e-06 3.08499066140342e-08
7.60375000000000e+01 9.68305002678416e-07 2.92005881551486e-08
7.64325000000000e+01 9.14153090162706e-07 2.76390737162351e-08
7.68275000000000e+01 8.63029592889092e-07 2.61607125914536e-08
7.72225000000000e+01 8.14765148438916e-07 2.47610988901180e-08
7.76175000000000e+01 7.69199865891505e-07 2.34360587480087e-08
7.80125000000000e+01 7.26182796135968e-07 2.21816382002653e-08
7.84075000000000e+01 6.85571431805519e-07 2.09940916820716e-08
7.88025000000000e+01 6.47231235177688e-07 1.98698711250339e-08
7.91975000000000e+01 6.11035192476443e-07 1.88056156187715e-08
7.95925000000000e+01 5.76863393099719e-07 1.77981416087708e-08
7.99875000000000e+01 5.44602632378413e-07 1.68444336030146e-08
8.03825000000000e+01 5.14146036550853e-07 1.59416353612831e-08
8.07775000000000e+01 4.85392708710361e-07 1.50870415423443e-08
8.11725000000000e+01 4.58247394553003e-07 1.42780897855022e-08
8.15675000000000e+01 4.32620166818202e-07 1.35123532041637e-08
8.19625000000000e+01 4.08426127376839e-07 1.27875332702187e-08
8.23575000000000e+01 3.85585125979900e-07 1.21014530691010e-08
8.27525000000000e+01 3.64021494735957e-07 1.14520509064214e-08
8.31475000000000e+01 3.43663797437840e-07 1.08373742480375e-08
8.35425000000000e+01 3.24444592908076e-07 1.02555739763445e-08
8.39375000000000e+01 3.06300211579099e-07 9.70489894645119e-09
8.43325000000000e+01 2.89170544568090e-07 9.18369082673686e-09
8.47275000000000e+01 2.72998844547687e-07 8.69037920907593e-09
8.51225000000000e+01 2.57731537752881e-07 8.22347697476983e-09
8.55175000000000e+01 2.43318046501336e-07 7.78157590293901e-09
8.59125000000000e+01 2.29710621639141e-07 7.36334250880552e-09
8.63075000000000e+01 2.16864184356958e-07 6.96751409994115e-09
8.67025000000000e+01 2.04736176852499e-07 6.59289503916706e-09
8.70975000000000e+01 1.93286421344627e-07 6.23835320337157e-09
8.74925000000000e+01 1.82476986972010e-07 5.90281662806370e-09
8.78875000000000e+01 1.72272064135398e-07 5.58527032800370e-09
8.82825000000000e+01 1.62637845867232e-07 5.28475328474840e-09
8.86775000000000e+01 1.53542415835595e-07 5.00035559242122e-09
8.90725000000000e+01 1.44955642611476e-07 4.73121575346357e-09
8.94675000000000e+01 1.36849079849079e-07 4.47651811655006e-09
8.98625000000000e+01 1.29195872048495e-07 4.23549044925320e-09
9.02575000000000e+01 1.21970665588538e-07 4.00740163842565e-09
9.06525000000000e+01 1.15149524735022e-07 3.79155951163178e-09
9.10475000000000e+01 1.08709852346231e-07 3.58730877330499e-09
9.14425000000000e+01 1.02630315012885e-07 3.39402904963429e-09
9.18375000000000e+01 9.68907723846178e-08 3.21113303649428e-09
9.22325000000000e+01 9.14722104488246e-08 3.03806474502696e-09
9.26275000000000e+01 8.63566785408598e-08 2.87429783976384e-09
9.30225000000000e+01 8.15272298768988e-08 2.71933406444134e-09
9.34175000000000e+01 7.69678654124686e-08 2.57270175091461e-09
9.38125000000000e+01 7.26634808406570e-08 2.43395440681317e-09
9.42075000000000e+01 6.85998165544187e-08 2.30266937780854e-09
9.46025000000000e+01 6.47634104072097e-08 2.17844658057850e-09
9.49975000000000e+01 6.11415531154582e-08 2.06090730275654e-09
9.53925000000000e+01 5.77222461551258e-08 1.94969306634835e-09
9.57875000000000e+01 5.44941620128808e-08 1.84446455128025e-09
9.61825000000000e+01 5.14466066602018e-08 1.74490057591849e-09
9.65775000000000e+01 4.85694841260960e-08 1.65069713156320e-09
9.69725000000000e+01 4.58532630510686e-08 1.56156646807708e-09
9.73675000000000e+01 4.32889451115422e-08 1.47723622795720e-09
9.77625000000000e+01 4.08680352101233e-08 1.39744862629895e-09
9.81575000000000e+01 3.85825133329606e-08 1.32195967423439e-09
9.85525000000000e+01 3.64248079809656e-08 1.25053844355379e-09
9.89475000000000e+01 3.43877710868767e-08 1.18296637033906e-09
9.93425000000000e+01 3.24646543350723e-08 1.11903659555133e-09
9.97375000000000e+01 3.06490868056857e-08 1.05855334062266e-09
1.00132500000000e+02 2.89350538689591e-08 1.00133131620433e-09
1.00527500000000e+02 2.73168772599205e-08 9.47195162320660e-10
1.00922500000000e+02 2.57891962673719e-08 8.95978918269342e-10
1.01317500000000e+02 2.43469499748728e-08 8.47525520696347e-10
1.01712500000000e+02 2.29853604948879e-08 8.01686328355878e-10
1.02107500000000e+02 2.16999171405540e-08 7.58320672144173e-10
1.02502500000000e+02 2.04863614826332e-08 7.17295429069998e-10
1.02897500000000e+02 1.93406732421468e-08 6.78484618895119e-10
1.03292500000000e+02 1.82590569719564e-08 6.41769022244542e-10
1.03687500000000e+02 1.72379294831696e-08 6.07035819049499e-10
1.04082500000000e+02 1.62739079747166e-08 5.74178246245975e-10
1.04477500000000e+02 1.53637988267747e-08 5.43095273708336e-10
1.04872500000000e+02 1.45045870209128e-08 5.13691297451384e-10
1.05267500000000e+02 1.36934261519093e-08 4.85875849185054e-10
1.05662500000000e+02 1.29276289981536e-08 4.59563321354288e-10
1.06057500000000e+02 1.22046586193916e-08 4.34672706842384e-10
1.06452500000000e+02 1.15221199523257e-08 4.11127352559419e-10
1.06847500000000e+02 1.08777518762257e-08 3.88854726178538e-10
1.07242500000000e+02 1.02694197222664e-08 3.67786195321703e-10
1.07637500000000e+02 9.69510820177538e-09 3.47856818533475e-10
1.08032500000000e+02 9.15291472996570e-09 3.29005147416336e-10
1.08427500000000e+02 8.64104312303416e-09 3.11173039334158e-10
1.08822500000000e+02 8.15779764774622e-09 2.94305480121824e-10
1.09217500000000e+02 7.70157740379450e-09 2.78350416268726e-10
1.09612500000000e+02 7.27087102032066e-09 2.63258596072055e-10
1.10007500000000e+02 6.86425164903132e-09 2.48983419282441e-10
1.10402500000000e+02 6.48037223732120e-09 2.35480794789839e-10
1.10797500000000e+02 6.11796106574410e-09 2.22709005921462e-10
1.11192500000000e+02 5.77581753504841e-09 2.10628582946270e-10
1.11587500000000e+02 5.45280818882022e-09 1.99202182402044e-10
1.11982500000000e+02 5.14786295855788e-09 1.88394472881375e-10
1.12377500000000e+02 4.85997161873872e-09 1.78172026932262e-10
1.12772500000000e+02 4.58818044013404e-09 1.68503218747228e-10
1.13167500000000e+02 4.33158903028572e-09 1.59358127332186e-10
1.13562500000000e+02 4.08934735067732e-09 1.50708444862708e-10
1.13957500000000e+02 3.86065290071817e-09 1.42527389950823e-10
1.14352500000000e+02 3.64474805921169e-09 1.34789625560245e-10
1.14747500000000e+02 3.44091757450047e-09 1.27471181321805e-10
1.15142500000000e+02 3.24848619497366e-09 1.20549380014086e-10
1.15537500000000e+02 3.06681643208684e-09 1.14002767986750e-10
1.15932500000000e+02 2.89530644848381e-09 1.07811049315893e-10
1.16327500000000e+02 2.73338806422391e-09 1.01955023491938e-10
1.16722500000000e+02 2.58052487451002e-09 9.64165264512428e-11
1.17117500000000e+02 2.43621047268152e-09 9.11783747726022e-11
1.17512500000000e+02 2.29996677258538e-09 8.62243128693931e-11
1.17907500000000e+02 2.17134242476772e-09 8.15389630170864e-11
1.18302500000000e+02 2.04991132123895e-09 7.71077780644154e-11
1.18697500000000e+02 1.93527118385905e-09 7.29169966845661e-11
1.19092500000000e+02 1.82704223166669e-09 6.89536010304101e-11
1.19487500000000e+02 1.72486592273711e-09 6.52052766650600e-11
1.19882500000000e+02 1.62840376640102e-09 6.16603746458840e-11
1.20277500000000e+02 1.53733620188934e-09 5.83078756466214e-11
1.20672500000000e+02 1.45136153968924e-09 5.51373560084008e-11
1.21067500000000e+02 1.37019496210416e-09 5.21389556162838e-11
1.21462500000000e+02 1.29356757970699e-09 4.93033475034829e-11
1.21857500000000e+02 1.22122554056055e-09 4.66217090906269e-11
1.22252500000000e+02 1.15292918925445e-09 4.40856949723916e-11
1.22647500000000e+02 1.08845227297227e-09 4.16874111685037e-11
1.23042500000000e+02 1.02758119195907e-09 3.94193907605565e-11
1.23437500000000e+02 9.70114291906057e-10 3.72745708402800e-11
1.23832500000000e+02 9.15861195908181e-10 3.52462706988801e-11
1.24227500000000e+02 8.64642173781716e-10 3.33281711908273e-11
1.24622500000000e+02 8.16287546652344e-10 3.15142952090423e-11
