Energy (eV)          EEDF (eV^-(3/2))     First Anisotropy
2.21904761904762e-02 2.52557992324352e-01 2.05102053184267e-04
6.65714285714286e-02 2.48436850054544e-01 3.37051649236228e-04
1.10952380952381e-01 2.44382954968165e-01 4.40648660792297e-04
1.55333333333333e-01 2.40395209758125e-01 5.16785137339990e-04
1.99714285714286e-01 2.36472534994290e-01 5.78194444169461e-04
2.44095238095238e-01 2.32613868909677e-01 6.29761445833676e-04
2.88476190476190e-01 2.28818167030367e-01 6.74049113940158e-04
3.32857142857143e-01 2.25084401917695e-01 7.12625885659008e-04
3.77238095238095e-01 2.21411562924627e-01 7.46545539094270e-04
4.21619047619048e-01 2.17798655880854e-01 7.76562324728507e-04
4.66000000000000e-01 2.14244702832120e-01 8.03241473425398e-04
5.10380952380952e-01 2.10748741798268e-01 8.27021622658501e-04
5.54761904761905e-01 2.07309826481314e-01 8.48252651819089e-04
5.99142857142857e-01 2.03927026038386e-01 8.67219900683903e-04
6.43523809523809e-01 2.00599424808324e-01 8.84160365588036e-04
6.87904761904762e-01 1.97326122066949e-01 8.99273920671214e-04
7.32285714285714e-01 1.94106231797792e-01 9.12731333576683e-04
7.76666666666667e-01 1.90938882436699e-01 9.24680136745148e-04
8.21047619047619e-01 1.87823216637809e-01 9.35249020529092e-04
8.65428571428571e-01 1.84758391052866e-01 9.44551188054004e-04
9.09809523809524e-01 1.81743576087670e-01 9.52686957247864e-04
9.54190476190476e-01 1.78777955692002e-01 9.59745809913505e-04
9.98571428571429e-01 1.75860727127930e-01 9.65808027199568e-04
1.04295238095238e+00 1.72991100767099e-01 9.70946014047754e-04
1.08733333333333e+00 1.70168299823356e-01 9.75225370209318e-04
1.13171428571429e+00 1.67391560244796e-01 9.78705781824536e-04
1.17609523809524e+00 1.64660130419168e-01 9.81441767149488e-04
1.22047619047619e+00 1.61973270999061e-01 9.83483290930264e-04
1.26485714285714e+00 1.59330254680857e-01 9.84876284914482e-04
1.30923809523810e+00 1.56730366071571e-01 9.85663097446724e-04
1.35361904761905e+00 1.54172901429519e-01 9.85882878990032e-04
1.39800000000000e+00 1.51657168496523e-01 9.85571906395045e-04
1.44238095238095e+00 1.49182486293509e-01 9.84763864671787e-04
1.48676190476190e+00 1.46748184988418e-01 9.83490098347568e-04
1.53114285714286e+00 1.44353605661141e-01 9.81779831810940e-04
1.57552380952381e+00 1.41998100143594e-01 9.79660356053398e-04
1.61990476190476e+00 1.39681030830167e-01 9.77157194286623e-04
1.66428571428571e+00 1.37401770548638e-01 9.74294254104539e-04
1.70866666666667e+00 1.35159702345730e-01 9.71093963180531e-04
1.75304761904762e+00 1.32954219335328e-01 9.67577384250310e-04
1.79742857142857e+00 1.30784724522375e-01 9.63764318807443e-04
1.84180952380952e+00 1.28650630677946e-01 9.59673405126980e-04
1.88619047619048e+00 1.26551360142684e-01 9.55322206893068e-04
1.93057142857143e+00 1.24486344683180e-01 9.50727286639705e-04
1.97495238095238e+00 1.22455025338353e-01 9.45904278663914e-04
2.01933333333333e+00 1.20456852258281e-01 9.40867949567595e-04
2.06371428571429e+00 1.18491284585254e-01 9.35632258824061e-04
2.10809523809524e+00 1.16557790276795e-01 9.30210414304965e-04
2.15247619047619e+00 1.14655845972147e-01 9.24614918350981e-04
2.19685714285714e+00 1.12784936842168e-01 9.18857610558943e-04
2.24123809523810e+00 1.10944556475684e-01 9.12949710875170e-04
2.28561904761905e+00 1.09134206716126e-01 9.06901859459975e-04
2.33000000000000e+00 1.07353397535675e-01 9.00724149179290e-04
2.37438095238095e+00 1.05601646895332e-01 8.94426156111732e-04
2.41876190476190e+00 1.03878480636714e-01 8.88016971209531e-04
2.46314285714286e+00 1.02183432330951e-01 8.81505229810995e-04
2.50752380952381e+00 1.00516043160179e-01 8.74899135172900e-04
2.55190476190476e+00 9.88758617870198e-02 8.68206480789619e-04
2.59628571428571e+00 9.72624442518147e-02 8.61434674287551e-04
2.64066666666667e+00 9.56753538326428e-02 8.54590759843677e-04
2.68504761904762e+00 9.41141609338272e-02 8.47681435609354e-04
2.72942857142857e+00 9.25784429641306e-02 8.40713070393768e-04
2.77380952380952e+00 9.10677842393492e-02 8.33691722109884e-04
2.81819047619048e+00 8.95817758524658e-02 8.26623155178430e-04
2.86257142857143e+00 8.81200155688242e-02 8.19512852991612e-04
2.90695238095238e+00 8.66821077173113e-02 8.12366033329612e-04
2.95133333333333e+00 8.52676630785030e-02 8.05187659481579e-04
2.99571428571429e+00 8.38762987937222e-02 7.97982453936339e-04
3.04009523809524e+00 8.25076382467150e-02 7.90754911379830e-04
3.08447619047619e+00 8.11613109667237e-02 7.83509308146105e-04
3.12885714285714e+00 7.98369525240223e-02 7.76249711449026e-04
3.17323809523810e+00 7.85342044440022e-02 7.68979990373294e-04
3.21761904761905e+00 7.72527140971684e-02 7.61703826352168e-04
3.26200000000000e+00 7.59921346081044e-02 7.54424720522451e-04
3.30638095238095e+00 7.47521247578811e-02 7.47146000971873e-04
3.35076190476190e+00 7.35323489029761e-02 7.39870831682491e-04
3.39514285714286e+00 7.23324768729303e-02 7.32602221087514e-04
3.43952380952381e+00 7.11521838848775e-02 7.25343027854516e-04
3.48390476190476e+00 6.99911504523529e-02 7.18095966634258e-04
3.52828571428571e+00 6.88490623088391e-02 7.10863615422607e-04
3.57266666666667e+00 6.77256103124917e-02 7.03648422627221e-04
3.61704761904762e+00 6.66204903659168e-02 6.96452711653939e-04
3.66142857142857e+00 6.55334033309423e-02 6.89278685506639e-04
3.70580952380952e+00 6.44640549565794e-02 6.82128432908337e-04
3.75019047619048e+00 6.34121557902815e-02 6.75003934193659e-04
3.79457142857143e+00 6.23774211026654e-02 6.67907064555245e-04
3.83895238095238e+00 6.13595708104649e-02 6.60839599423845e-04
3.88333333333333e+00 6.03583293981658e-02 6.53803217513209e-04
3.92771428571429e+00 5.93734258511658e-02 6.46799505730607e-04
3.97209523809524e+00 5.84045935745456e-02 6.39829963920261e-04
4.01647619047619e+00 5.74515703235851e-02 6.32896007657685e-04
4.06085714285714e+00 5.65140981305002e-02 6.25998971110578e-04
4.10523809523810e+00 5.55919232415435e-02 6.19140111195033e-04
4.14961904761905e+00 5.46847960412713e-02 6.12320611599387e-04
4.19400000000000e+00 5.37924709873706e-02 6.05541585040775e-04
4.23838095238095e+00 5.29147065421544e-02 5.98804075598859e-04
4.28276190476191e+00 5.20512651133992e-02 5.92109062255769e-04
4.32714285714286e+00 5.12019129837106e-02 5.85457462330403e-04
4.37152380952381e+00 5.03664202494037e-02 5.78850133305954e-04
4.41590476190476e+00 4.95445607564414e-02 5.72287874740406e-04
4.46028571428571e+00 4.87361120448061e-02 5.65771431298126e-04
4.50466666666667e+00 4.79408552826035e-02 5.59301495696623e-04
4.54904761904762e+00 4.71585752087498e-02 5.52878710189224e-04
4.59342857142857e+00 4.63890600730602e-02 5.46503668133067e-04
4.63780952380952e+00 4.56321015839616e-02 5.40176916597874e-04
4.68219047619048e+00 4.48874948469991e-02 5.33898958906118e-04
4.72657142857143e+00 4.41550383111008e-02 5.27670255572368e-04
4.77095238095238e+00 4.34345337140327e-02 5.21491226653675e-04
4.81533333333333e+00 4.27257860272785e-02 5.15362252678627e-04
4.85971428571429e+00 4.20286034076595e-02 5.09283676818073e-04
4.90409523809524e+00 4.13427971409248e-02 5.03255807003557e-04
4.94847619047619e+00 4.06681815921925e-02 4.97278916857583e-04
4.99285714285714e+00 4.00045741543907e-02 4.91353246706761e-04
5.03723809523810e+00 3.93517952028129e-02 4.85479005465993e-04
5.08161904761905e+00 3.87096680424498e-02 4.79656372480008e-04
5.12600000000000e+00 3.80780188615336e-02 4.73885498276307e-04
5.17038095238095e+00 3.74566766833072e-02 4.68166505398553e-04
5.21476190476190e+00 3.68454733233461e-02 4.62499490047095e-04
5.25914285714286e+00 3.62442433403749e-02 4.56884523684505e-04
5.30352380952381e+00 3.56528239927240e-02 4.51321653642851e-04
5.34790476190476e+00 3.50710551932093e-02 4.45810903808112e-04
5.39228571428571e+00 3.44987794690602e-02 4.40352276052399e-04
5.43666666666667e+00 3.39358419159832e-02 4.34945751637526e-04
5.48104761904762e+00 3.33820901573505e-02 4.29591291701981e-04
5.52542857142857e+00 3.28373743019877e-02 4.24288837821548e-04
5.56980952380952e+00 3.23015469065564e-02 4.19038313262646e-04
5.61419047619048e+00 3.17744629326422e-02 4.13839624212117e-04
5.65857142857143e+00 3.12559797085084e-02 4.08692659993660e-04
5.70295238095238e+00 3.07459568904832e-02 4.03597294212088e-04
5.74733333333333e+00 3.02442564241091e-02 3.98553384994771e-04
5.79171428571429e+00 2.97507425093880e-02 3.93560776053261e-04
5.83609523809524e+00 2.92652815613693e-02 3.88619297726790e-04
5.88047619047619e+00 2.87877421748908e-02 3.83728767270960e-04
5.92485714285714e+00 2.83179950882290e-02 3.78888989211385e-04
5.96923809523810e+00 2.78559131504838e-02 3.74099756276646e-04
6.01361904761905e+00 2.74013712847514e-02 3.69360850316269e-04
6.05800000000000e+00 2.69542464550848e-02 3.64672042523844e-04
6.10238095238095e+00 2.65144176324807e-02 3.60033093721352e-04
6.14676190476191e+00 2.60817657642777e-02 3.55443755180167e-04
6.19114285714286e+00 2.56561737397399e-02 3.50903769429834e-04
6.23552380952381e+00 2.52375263590987e-02 3.46412870426649e-04
6.27990476190476e+00 2.48257103017254e-02 3.41970783779833e-04
6.32428571428571e+00 2.44206140974217e-02 3.37577227474944e-04
6.36866666666667e+00 2.40221280942533e-02 3.33231912587255e-04
6.41304761904762e+00 2.36301444295424e-02 3.28934543405022e-04
6.45742857142857e+00 2.32445570000851e-02 3.24684817606816e-04
6.50180952380952e+00 2.28652614352204e-02 3.20482426899635e-04
6.54619047619048e+00 2.24921550667629e-02 3.16327057648768e-04
6.59057142857143e+00 2.21251369018255e-02 3.12218390851213e-04
6.63495238095238e+00 2.17641075954849e-02 3.08156102722617e-04
6.67933333333333e+00 2.14089694233666e-02 3.04139864697946e-04
6.72371428571429e+00 2.10596262567835e-02 3.00169343976279e-04
6.76809523809524e+00 2.07159835351014e-02 2.96244204059488e-04
6.81247619047619e+00 2.03779482406905e-02 2.92364104800915e-04
6.85685714285714e+00 2.00454288732693e-02 2.88528702500527e-04
6.90123809523810e+00 1.97183354265887e-02 2.84737650386252e-04
6.94561904761905e+00 1.93965793625962e-02 2.80990599090377e-04
6.99000000000000e+00 1.90800735879690e-02 2.77287196673456e-04
7.03438095238095e+00 1.87687324301041e-02 2.73627088691733e-04
7.07876190476190e+00 1.84624716152525e-02 2.70009918622579e-04
7.12314285714286e+00 1.81612082443644e-02 2.66435328285988e-04
7.16752380952381e+00 1.78648607711041e-02 2.62902957848095e-04
7.21190476190476e+00 1.75733489793797e-02 2.59412445865367e-04
7.25628571428571e+00 1.72865939628403e-02 2.55963429660756e-04
7.30066666666667e+00 1.70045181022894e-02 2.52555545696710e-04
7.34504761904762e+00 1.67270450450900e-02 2.49188429561963e-04
7.38942857142857e+00 1.64540996841345e-02 2.45861715996343e-04
7.43380952380952e+00 1.61856081386202e-02 2.42575039223365e-04
7.47819047619048e+00 1.59214977329296e-02 2.39328033280419e-04
7.52257142857143e+00 1.56616969773370e-02 2.36120331917574e-04
7.56695238095238e+00 1.54061355486587e-02 2.32951568904813e-04
7.61133333333333e+00 1.51547442708924e-02 2.29821377953291e-04
7.65571428571429e+00 1.49074550974806e-02 2.26729392999819e-04
7.70009523809524e+00 1.46642010918891e-02 2.23675248489752e-04
7.74447619047619e+00 1.44249164098287e-02 2.20658579337356e-04
7.78885714285714e+00 1.41895362811343e-02 2.17679020918663e-04
7.83323809523810e+00 1.39579969931368e-02 2.14736209322972e-04
7.87761904761905e+00 1.37302358725007e-02 2.11829781603185e-04
7.92200000000000e+00 1.35061912685696e-02 2.08959375727795e-04
7.96638095238095e+00 1.32858025364062e-02 2.06124630563151e-04
8.01076190476190e+00 1.30690100212050e-02 2.03325186095696e-04
8.05514285714286e+00 1.28557550413048e-02 2.00560683653473e-04
8.09952380952381e+00 1.26459798725890e-02 1.97830765851483e-04
8.14390476190476e+00 1.24396277326114e-02 1.95135076565289e-04
8.18828571428571e+00 1.22366427659845e-02 1.92473261127341e-04
8.23266666666667e+00 1.20369700284912e-02 1.89844966522846e-04
8.27704761904762e+00 1.18405554724729e-02 1.87249841330013e-04
8.32142857142857e+00 1.16473459319711e-02 1.84687535686671e-04
8.36580952380952e+00 1.14572891090312e-02 1.82157701463558e-04
8.41019047619048e+00 1.12703335588421e-02 1.79659992437428e-04
8.45457142857143e+00 1.10864286760488e-02 1.77194064177825e-04
8.49895238095238e+00 1.09055246810550e-02 1.74759574207491e-04
8.54333333333333e+00 1.07275726063435e-02 1.72356181906226e-04
8.58771428571429e+00 1.05525242838445e-02 1.69983548658559e-04
8.63209523809524e+00 1.03803323312659e-02 1.67641338001568e-04
8.67647619047619e+00 1.02109501394814e-02 1.65329215558411e-04
8.72085714285714e+00 1.00443318597265e-02 1.63046848994310e-04
8.76523809523809e+00 9.88043239175914e-03 1.60793908146638e-04
8.80961904761905e+00 9.71920737107278e-03 1.58570065155290e-04
8.85400000000000e+00 9.56061315708362e-03 1.56374994394530e-04
8.89838095238095e+00 9.40460682114551e-03 1.54208372425766e-04
8.94276190476191e+00 9.25114613545410e-03 1.52069878111986e-04
8.98714285714286e+00 9.10018956108521e-03 1.49959192732632e-04
9.03152380952381e+00 8.95169623693053e-03 1.47875999914483e-04
9.07590476190476e+00 8.80562596847910e-03 1.45819985582043e-04
9.12028571428571e+00 8.66193921741875e-03 1.43790838058088e-04
9.16466666666667e+00 8.52059709044583e-03 1.41788248164729e-04
9.20904761904762e+00 8.38156132890229e-03 1.39811909153932e-04
9.25342857142857e+00 8.24479429827460e-03 1.37861516656256e-04
9.29780952380952e+00 8.11025897844885e-03 1.35936768769015e-04
9.34219047619048e+00 7.97791895324198e-03 1.34037366145071e-04
9.38657142857143e+00 7.84773840069573e-03 1.32163011890153e-04
9.43095238095238e+00 7.71968208338080e-03 1.30313411644484e-04
9.47533333333333e+00 7.59371533872779e-03 1.28488273492663e-04
9.51971428571429e+00 7.46980407004190e-03 1.26687308038036e-04
9.56409523809524e+00 7.34791473687099e-03 1.24910228477809e-04
9.60847619047619e+00 7.22801434606302e-03 1.23156750534741e-04
9.65285714285714e+00 7.11007044271520e-03 1.21426592404335e-04
9.69723809523810e+00 6.99405110175418e-03 1.19719474819756e-04
9.74161904761905e+00 6.87992491892442e-03 1.18035121117505e-04
9.78600000000000e+00 6.76766100241282e-03 1.16373257170093e-04
9.83038095238095e+00 6.65722896437634e-03 1.14733611333155e-04
9.87476190476191e+00 6.54859891305239e-03 1.13115914501945e-04
9.91914285714286e+00 6.44174144432736e-03 1.11519900168642e-04
9.96352380952381e+00 6.33662763389246e-03 1.09945304356246e-04
1.00079047619048e+01 6.23322902931288e-03 1.08391865463645e-04
1.00522857142857e+01 6.13151764303238e-03 1.06859324750838e-04
1.00966666666667e+01 6.03146594279105e-03 1.05347425675637e-04
1.01410476190476e+01 5.93304684745583e-03 1.03855914340900e-04
1.01854285714286e+01 5.83623371586598e-03 1.02384539368129e-04
1.02298095238095e+01 5.74100034346748e-03 1.00933051845686e-04
1.02741904761905e+01 5.64732095145473e-03 9.95012056212312e-05
1.03185714285714e+01 5.55517018260023e-03 9.80887563026475e-05
1.03629523809524e+01 5.46452309431171e-03 9.66954626883480e-05
1.04073333333333e+01 5.37535514925503e-03 9.53210858277498e-05
1.04517142857143e+01 5.28764221219563e-03 9.39653891955556e-05
1.04960952380952e+01 5.20136054005489e-03 9.26281387460161e-05
1.05404761904762e+01 5.11648677882304e-03 9.13091028383725e-05
1.05848571428571e+01 5.03299795396738e-03 9.00080522877644e-05
1.06292380952381e+01 4.95087146741587e-03 8.87247602921783e-05
1.06736190476190e+01 4.87008508830434e-03 8.74590024801637e-05
1.07180000000000e+01 4.79061695002992e-03 8.62105568392928e-05
1.07623809523810e+01 4.71244554132484e-03 8.49792037608662e-05
1.08067619047619e+01 4.63554970337884e-03 8.37647259698699e-05
1.08511428571429e+01 4.55990862122767e-03 8.25669085668387e-05
1.08955238095238e+01 4.48550182094348e-03 8.13855389592953e-05
1.09399047619048e+01 4.41230916132658e-03 8.02204069009231e-05
1.09842857142857e+01 4.34031083116293e-03 7.90713044244842e-05
1.10286666666667e+01 4.26948734120807e-03 7.79380258784550e-05
1.10730476190476e+01 4.19981952151068e-03 7.68203678613974e-05
1.11174285714286e+01 4.13128851367813e-03 7.57181292561955e-05
1.11618095238095e+01 4.06387576826509e-03 7.46311111658734e-05
1.12061904761905e+01 3.99756303731052e-03 7.35591171010601e-05
1.12505714285714e+01 3.93233237121957e-03 7.25019522927640e-05
1.12949523809524e+01 3.86816611385387e-03 7.14594246516985e-05
1.13393333333333e+01 3.80504689604812e-03 7.04313441215778e-05
1.13837142857143e+01 3.74295763316996e-03 6.94175227878186e-05
1.14280952380952e+01 3.68188151828039e-03 6.84177749046730e-05
1.14724761904762e+01 3.62180201975423e-03 6.74319168356878e-05
1.15168571428571e+01 3.56270287467988e-03 6.64597670789661e-05
1.15612380952381e+01 3.50456808653929e-03 6.55011462090055e-05
1.16056190476190e+01 3.44738191883845e-03 6.45558769002003e-05
1.16500000000000e+01 3.39112889284581e-03 6.36237838700335e-05
1.16943809523810e+01 3.33579378144513e-03 6.27046939009169e-05
1.17387619047619e+01 3.28136160693135e-03 6.17984357847204e-05
1.17831428571429e+01 3.22781763507781e-03 6.09048403430465e-05
1.18275238095238e+01 3.17514737298840e-03 6.00237403730678e-05
1.18719047619048e+01 3.12333656337153e-03 5.91549706663230e-05
1.19162857142857e+01 3.07237118244749e-03 5.82983679558498e-05
1.19606666666667e+01 3.02223743442170e-03 5.74537709335887e-05
1.20050476190476e+01 2.97292174944616e-03 5.66210201987830e-05
1.20494285714286e+01 2.92441077828498e-03 5.57999582740633e-05
1.20938095238095e+01 2.87669139032878e-03 5.49904295551014e-05
1.21381904761905e+01 2.82975066844553e-03 5.41922804312210e-05
1.21825714285714e+01 2.78357590667394e-03 5.34053588115083e-05
1.22269523809524e+01 2.73815460675090e-03 5.26295147707768e-05
1.22713333333333e+01 2.69347447361465e-03 5.18646001033324e-05
1.23157142857143e+01 2.64952341355493e-03 5.11104683908243e-05
1.23600952380952e+01 2.60628952949103e-03 5.03669750144748e-05
1.24044761904762e+01 2.56376111917072e-03 4.96339771087445e-05
1.24488571428571e+01 2.52192667061200e-03 4.89113335725578e-05
1.24932380952381e+01 2.48077486034970e-03 4.81989050241227e-05
1.25376190476190e+01 2.44029454903512e-03 4.74965538111982e-05
1.25820000000000e+01 2.40047477972937e-03 4.68041439670467e-05
1.26263809523810e+01 2.36130477365521e-03 4.61215412198060e-05
1.26707619047619e+01 2.32277392853603e-03 4.54486129495512e-05
1.27151428571429e+01 2.28487181449461e-03 4.47852281968238e-05
1.27595238095238e+01 2.24758817243671e-03 4.41312576207756e-05
1.28039047619048e+01 2.21091291009148e-03 4.34865735069064e-05
1.28482857142857e+01 2.17483610043870e-03 4.28510497262772e-05
1.28926666666667e+01 2.13934797788585e-03 4.22245617424987e-05
1.29370476190476e+01 2.10443893673791e-03 4.16069865719810e-05
1.29814285714286e+01 2.07009952750633e-03 4.09982027902286e-05
1.30258095238095e+01 2.03632045542049e-03 4.03980904931079e-05
1.30701904761905e+01 2.00309257686375e-03 3.98065313746340e-05
1.31145714285714e+01 1.97040689768040e-03 3.92234083994614e-05
1.31589523809524e+01 1.93825457071932e-03 3.86486062392727e-05
1.32033333333333e+01 1.90662689270690e-03 3.80820109642060e-05
1.32477142857143e+01 1.87551530286330e-03 3.75235100851376e-05
1.32920952380952e+01 1.84491137963248e-03 3.69729925579581e-05
1.33364761904762e+01 1.81480683933641e-03 3.64303487481269e-05
1.33808571428571e+01 1.78519353301761e-03 3.58954704344201e-05
1.34252380952381e+01 1.75606344513047e-03 3.53682507744111e-05
1.34696190476190e+01 1.72740869049228e-03 3.48485843077246e-05
1.35140000000000e+01 1.69922151301071e-03 3.43363669224218e-05
1.35583809523810e+01 1.67149428273965e-03 3.38314958577865e-05
1.36027619047619e+01 1.64421949464192e-03 3.33338696716001e-05
1.36471428571429e+01 1.61738976574617e-03 3.28433882424943e-05
1.36915238095238e+01 1.59099783394406e-03 3.23599527380861e-05
1.37359047619048e+01 1.56503655524461e-03 3.18834656169275e-05
1.37802857142857e+01 1.53949890260502e-03 3.14138305974840e-05
1.38246666666667e+01 1.51437796327910e-03 3.09509526597061e-05
1.38690476190476e+01 1.48966693768081e-03 3.04947380148327e-05
1.39134285714286e+01 1.46535913682353e-03 3.00450941066070e-05
1.39578095238095e+01 1.44144798121552e-03 2.96019295818869e-05
1.40021904761905e+01 1.41792699838681e-03 2.91651543408808e-05
