Energy (eV)          EEDF (eV^-(3/2))     First Anisotropy
1.18478260869565e-02 2.01812320396782e-01 1.11528639346675e-04
3.55434782608696e-02 2.00296156076245e-01 1.84092572248721e-04
5.92391304347826e-02 1.98791382313328e-01 2.42829980742716e-04
8.29347826086957e-02 1.97297913529689e-01 2.87335910797185e-04
1.06630434782609e-01 1.95815664794314e-01 3.24357427616338e-04
1.30326086956522e-01 1.94344551812530e-01 3.56447886846353e-04
1.54021739130435e-01 1.92884490928373e-01 3.84929821192565e-04
1.77717391304348e-01 1.91435399109295e-01 4.10602557946955e-04
2.01413043478261e-01 1.89997193947203e-01 4.33996676169483e-04
2.25108695652174e-01 1.88569793646623e-01 4.55487493536986e-04
2.48804347826087e-01 1.87153117040693e-01 4.75353072412951e-04
2.72500000000000e-01 1.85747083564738e-01 4.93806823331787e-04
2.96195652173913e-01 1.84351613259372e-01 5.11017166222092e-04
3.19891304347826e-01 1.82966626766002e-01 5.27120055118852e-04
3.43586956521739e-01 1.81592045322328e-01 5.42227311513778e-04
3.67282608695652e-01 1.80227790754027e-01 5.56432369365732e-04
3.90978260869565e-01 1.78873785481938e-01 5.69814358383215e-04
4.14673913043478e-01 1.77529952505619e-01 5.82441079786135e-04
4.38369565217391e-01 1.76196215403097e-01 5.94371220862166e-04
4.62065217391304e-01 1.74872498326584e-01 6.05656037249318e-04
4.85760869565217e-01 1.73558725998135e-01 6.16340651343078e-04
5.09456521739130e-01 1.72254823702796e-01 6.26465068166622e-04
5.33152173913043e-01 1.70960717292221e-01 6.36064983000138e-04
5.56847826086957e-01 1.69676333172387e-01 6.45172430116477e-04
5.80543478260870e-01 1.68401598302141e-01 6.53816307933200e-04
6.04239130434783e-01 1.67136440189106e-01 6.62022810821469e-04
6.27934782608696e-01 1.65880786883514e-01 6.69815784906443e-04
6.51630434782609e-01 1.64634566980271e-01 6.77217025886121e-04
6.75326086956522e-01 1.63397709608606e-01 6.84246529248783e-04
6.99021739130435e-01 1.62170144430182e-01 6.90922700599488e-04
7.22717391304348e-01 1.60951801635091e-01 6.97262535640717e-04
7.46413043478261e-01 1.59742611937905e-01 7.03281774248100e-04
7.70108695652174e-01 1.58542506572162e-01 7.08995032225185e-04
7.93804347826087e-01 1.57351417291217e-01 7.14415916362104e-04
8.17500000000000e-01 1.56169276359511e-01 7.19557124529437e-04
8.41195652173913e-01 1.54996016550360e-01 7.24430531984727e-04
8.64891304347826e-01 1.53831571142141e-01 7.29047267924504e-04
8.88586956521739e-01 1.52675873914500e-01 7.33417782883050e-04
9.12282608695652e-01 1.51528859143328e-01 7.37551907527557e-04
9.35978260869565e-01 1.50390461600841e-01 7.41458905747460e-04
9.59673913043478e-01 1.49260616547990e-01 7.45147521947267e-04
9.83369565217391e-01 1.48139259732089e-01 7.48626022290459e-04
1.00706521739130e+00 1.47026327383173e-01 7.51902231865506e-04
1.03076086956522e+00 1.45921756213525e-01 7.54983571374020e-04
1.05445652173913e+00 1.44825483396155e-01 7.57877081738067e-04
1.07815217391304e+00 1.43737446598290e-01 7.60589453995997e-04
1.10184782608696e+00 1.42657583944685e-01 7.63127058615500e-04
1.12554347826087e+00 1.41585834024892e-01 7.65495962283483e-04
1.14923913043478e+00 1.40522135889905e-01 7.67701951802794e-04
1.17293478260870e+00 1.39466429039675e-01 7.69750547889011e-04
1.19663043478261e+00 1.38418653446869e-01 7.71647025459713e-04
1.22032608695652e+00 1.37378749525850e-01 7.73396432477282e-04
1.24402173913043e+00 1.36346658138630e-01 7.75003600726172e-04
1.26771739130435e+00 1.35322320583496e-01 7.76473156061990e-04
1.29141304347826e+00 1.34305678616116e-01 7.77809533553709e-04
1.31510869565217e+00 1.33296674421416e-01 7.79016991670478e-04
1.33880434782609e+00 1.32295250618641e-01 7.80099617866230e-04
1.36250000000000e+00 1.31301350258159e-01 7.81061341016533e-04
1.38619565217391e+00 1.30314916811125e-01 7.81905936043302e-04
1.40989130434783e+00 1.29335894187741e-01 7.82637034879657e-04
1.43358695652174e+00 1.28364226712301e-01 7.83258136858326e-04
1.45728260869565e+00 1.27399859127361e-01 7.83772611456203e-04
1.48097826086957e+00 1.26442736590646e-01 7.84183707564487e-04
1.50467391304348e+00 1.25492804665642e-01 7.84494555758966e-04
1.52836956521739e+00 1.24550009337497e-01 7.84708176598057e-04
1.55206521739130e+00 1.23614296990704e-01 7.84827488549213e-04
1.57576086956522e+00 1.22685614412566e-01 7.84855310227227e-04
1.59945652173913e+00 1.21763908784445e-01 7.84794362770181e-04
1.62315217391304e+00 1.20849127696131e-01 7.84647276671399e-04
1.64684782608696e+00 1.19941219125272e-01 7.84416598351159e-04
1.67054347826087e+00 1.19040131440325e-01 7.84104790289277e-04
1.69423913043478e+00 1.18145813397671e-01 7.83714237027848e-04
1.71793478260870e+00 1.17258214133546e-01 7.83247245238399e-04
1.74163043478261e+00 1.16377283176699e-01 7.82706049213991e-04
1.76532608695652e+00 1.15502970429785e-01 7.82092816189046e-04
1.78902173913043e+00 1.14635226171830e-01 7.81409646811737e-04
1.81271739130435e+00 1.13774001050692e-01 7.80658575835579e-04
1.83641304347826e+00 1.12919246094562e-01 7.79841576839152e-04
1.86010869565217e+00 1.12070912694705e-01 7.78960566813738e-04
1.88380434782609e+00 1.11228952607556e-01 7.78017405194375e-04
1.90750000000000e+00 1.10393317952005e-01 7.77013898121768e-04
1.93119565217391e+00 1.09563961202406e-01 7.75951797551164e-04
1.95489130434783e+00 1.08740835198784e-01 7.74832805216184e-04
1.97858695652174e+00 1.07923893131099e-01 7.73658576505770e-04
2.00228260869565e+00 1.07113088540976e-01 7.72430719194106e-04
2.02597826086957e+00 1.06308375319083e-01 7.71150797070746e-04
2.04967391304348e+00 1.05509707698637e-01 7.69820328784191e-04
2.07336956521739e+00 1.04717040264499e-01 7.68440791237212e-04
2.09706521739130e+00 1.03930327938764e-01 7.67013622919185e-04
2.12076086956522e+00 1.03149525982191e-01 7.65540223331552e-04
2.14445652173913e+00 1.02374589988073e-01 7.64021952641678e-04
2.16815217391304e+00 1.01605475890573e-01 7.62460134724788e-04
2.19184782608696e+00 1.00842139951242e-01 7.60856060160537e-04
2.21554347826087e+00 1.00084538760216e-01 7.59210984691461e-04
2.23923913043478e+00 9.93326292337735e-02 7.57526132054207e-04
2.26293478260870e+00 9.85863686086008e-02 7.55802692582711e-04
2.28663043478261e+00 9.78457144492610e-02 7.54041825880353e-04
2.31032608695652e+00 9.71106246357811e-02 7.52244663461383e-04
2.33402173913043e+00 9.63810573646239e-02 7.50412307935554e-04
2.35771739130435e+00 9.56569711432700e-02 7.48545832406265e-04
2.38141304347826e+00 9.49383247970841e-02 7.46646282909647e-04
2.40510869565217e+00 9.42250774576527e-02 7.44714680828202e-04
2.42880434782609e+00 9.35171885635897e-02 7.42752021277353e-04
2.45250000000000e+00 9.28146178582429e-02 7.40759275401341e-04
2.47619565217391e+00 9.21173253846094e-02 7.38737388906185e-04
2.49989130434783e+00 9.14252714915124e-02 7.36687284242336e-04
2.52358695652174e+00 9.07384168228143e-02 7.34609862772291e-04
2.54728260869565e+00 9.00567223180462e-02 7.32506003164738e-04
2.57097826086957e+00 8.93801492101981e-02 7.30376563464220e-04
2.59467391304348e+00 8.87086590209449e-02 7.28222379628821e-04
2.61836956521739e+00 8.80422135662141e-02 7.26044267501387e-04
2.64206521739130e+00 8.73807749461830e-02 7.23843024769200e-04
2.66576086956522e+00 8.67243055457634e-02 7.21619430039934e-04
2.68945652173913e+00 8.60727680300605e-02 7.19374242101486e-04
2.71315217391304e+00 8.54261253495182e-02 7.17108201752229e-04
2.73684782608696e+00 8.47843407304752e-02 7.14822033625068e-04
2.76054347826087e+00 8.41473776755357e-02 7.12516444632116e-04
2.78423913043478e+00 8.35151999615067e-02 7.10192125711905e-04
2.80793478260870e+00 8.28877716351183e-02 7.07849750411572e-04
2.83163043478261e+00 8.22650570176756e-02 7.05489976557245e-04
2.85532608695652e+00 8.16470206962720e-02 7.03113447921612e-04
2.87902173913043e+00 8.10336275240481e-02 7.00720793303917e-04
2.90271739130435e+00 8.04248426161181e-02 6.98312625775718e-04
2.92641304347826e+00 7.98206313538758e-02 6.95889544245740e-04
2.95010869565217e+00 7.92209593766773e-02 6.93452135021849e-04
2.97380434782609e+00 7.86257925820176e-02 6.91000970338549e-04
2.99750000000000e+00 7.80350971235991e-02 6.88536609857531e-04
3.02119565217391e+00 7.74488394074816e-02 6.86059599320655e-04
3.04489130434783e+00 7.68669860959868e-02 6.83570471989761e-04
3.06858695652174e+00 7.62895040999362e-02 6.81069750087480e-04
3.09228260869565e+00 7.57163605787393e-02 6.78557943378321e-04
3.11597826086957e+00 7.51475229385328e-02 6.76035550555623e-04
3.13967391304348e+00 7.45829588285437e-02 6.73503057941810e-04
3.16336956521739e+00 7.40226361446321e-02 6.70960940819801e-04
3.18706521739130e+00 7.34665230220352e-02 6.68409664765567e-04
3.21076086956522e+00 7.29145878353831e-02 6.65849684786486e-04
3.23445652173913e+00 7.23667991952232e-02 6.63281444600219e-04
3.25815217391304e+00 7.18231259513092e-02 6.60705377891128e-04
3.28184782608696e+00 7.12835371857115e-02 6.58121909569606e-04
3.30554347826087e+00 7.07480022127752e-02 6.55531454449446e-04
3.32923913043478e+00 7.02164905773835e-02 6.52934418461557e-04
3.35293478260870e+00 6.96889720516634e-02 6.50331197440957e-04
3.37663043478261e+00 6.91654166379780e-02 6.47722178293983e-04
3.40032608695652e+00 6.86457945624695e-02 6.45107740169562e-04
3.42402173913043e+00 6.81300762749631e-02 6.42488253646806e-04
3.44771739130435e+00 6.76182324458176e-02 6.39864080048583e-04
3.47141304347826e+00 6.71102339687059e-02 6.37235572548287e-04
3.49510869565217e+00 6.66060519544729e-02 6.34603077279833e-04
3.51880434782609e+00 6.61056577309981e-02 6.31966932112452e-04
3.54250000000000e+00 6.56090228415696e-02 6.29327467721880e-04
3.56619565217391e+00 6.51161190418955e-02 6.26685006463789e-04
3.58989130434783e+00 6.46269183026362e-02 6.24039863406308e-04
3.61358695652174e+00 6.41413928036372e-02 6.21392347367170e-04
3.63728260869565e+00 6.36595149337486e-02 6.18742759742384e-04
3.66097826086957e+00 6.31812572892584e-02 6.16091395508649e-04
3.68467391304348e+00 6.27065926710574e-02 6.13438542145243e-04
3.70836956521739e+00 6.22354940869458e-02 6.10784480599985e-04
3.73206521739130e+00 6.17679347462129e-02 6.08129486259498e-04
3.75576086956522e+00 6.13038880594203e-02 6.05473828220615e-04
3.77945652173913e+00 6.08433276356836e-02 6.02817768668743e-04
3.80315217391304e+00 6.03862272848196e-02 6.00161563796933e-04
3.82684782608696e+00 5.99325610121789e-02 5.97505464729895e-04
3.85054347826087e+00 5.94823030184013e-02 5.94849716443212e-04
3.87423913043478e+00 5.90354276979531e-02 5.92194558656821e-04
3.89793478260870e+00 5.85919096365423e-02 5.89540224839410e-04
3.92163043478261e+00 5.81517236130782e-02 5.86886943070145e-04
3.94532608695652e+00 5.77148445948046e-02 5.84234936905895e-04
3.96902173913044e+00 5.72812477370302e-02 5.81584424704594e-04
3.99271739130435e+00 5.68509083806488e-02 5.78935619045151e-04
4.01641304347826e+00 5.64238020539643e-02 5.76288727549821e-04
4.04010869565217e+00 5.59999044680456e-02 5.73643953711041e-04
4.06380434782609e+00 5.55791915164367e-02 5.71001495896354e-04
4.08750000000000e+00 5.51616392737887e-02 5.68361548148453e-04
4.11119565217391e+00 5.47472239935005e-02 5.65724299266854e-04
4.13489130434783e+00 5.43359221093837e-02 5.63089933580584e-04
4.15858695652174e+00 5.39277102312837e-02 5.60458631726502e-04
4.18228260869565e+00 5.35225651447689e-02 5.57830569700076e-04
4.20597826086957e+00 5.31204638098135e-02 5.55205919608962e-04
4.22967391304348e+00 5.27213833585522e-02 5.52584848796313e-04
4.25336956521739e+00 5.23253010968010e-02 5.49967520568559e-04
4.27706521739130e+00 5.19321944999229e-02 5.47354094928122e-04
4.30076086956522e+00 5.15420412125035e-02 5.44744727974749e-04
4.32445652173913e+00 5.11548190461929e-02 5.42139571389292e-04
4.34815217391304e+00 5.07705059811231e-02 5.39538773129284e-04
4.37184782608696e+00 5.03890801619558e-02 5.36942478129881e-04
4.39554347826087e+00 5.00105198975450e-02 5.34350827430441e-04
4.41923913043478e+00 4.96348036597065e-02 5.31763958853208e-04
4.44293478260870e+00 4.92619100811612e-02 5.29182006196299e-04
4.46663043478261e+00 4.88918179568303e-02 5.26605099889509e-04
4.49032608695652e+00 4.85245062400998e-02 5.24033367655405e-04
4.51402173913043e+00 4.81599540424737e-02 5.21466933956311e-04
4.53771739130435e+00 4.77981406315970e-02 5.18905919515977e-04
4.56141304347826e+00 4.74390454324626e-02 5.16350441947623e-04
4.58510869565217e+00 4.70826480238366e-02 5.13800616386653e-04
4.60880434782609e+00 4.67289281379043e-02 5.11256554687848e-04
4.63250000000000e+00 4.63778656591182e-02 5.08718366038352e-04
4.65619565217391e+00 4.60294406223140e-02 5.06186156214520e-04
4.67989130434783e+00 4.56836332138120e-02 5.03660028174960e-04
4.70358695652174e+00 4.53404237680364e-02 5.01140082658600e-04
4.72728260869565e+00 4.49997927671532e-02 4.98626417419081e-04
4.75097826086957e+00 4.46617208399618e-02 4.96119127804645e-04
4.77467391304348e+00 4.43261887600977e-02 4.93618306048998e-04
4.79836956521739e+00 4.39931774470389e-02 4.91124041832127e-04
4.82206521739130e+00 4.36626679629051e-02 4.88636422845656e-04
4.84576086956522e+00 4.33346415120918e-02 4.86155534305634e-04
4.86945652173913e+00 4.30090794395395e-02 4.83681458529438e-04
4.89315217391304e+00 4.26859632316726e-02 4.81214275473233e-04
4.91684782608696e+00 4.23652745133320e-02 4.78754063274295e-04
4.94054347826087e+00 4.20469950474057e-02 4.76300897546832e-04
4.96423913043478e+00 4.17311067337934e-02 4.73854851907594e-04
4.98793478260870e+00 4.14175916077546e-02 4.71415997323523e-04
5.01163043478261e+00 4.11064318407653e-02 4.68984402620357e-04
5.03532608695652e+00 4.07976097376122e-02 4.66560134995791e-04
5.05902173913043e+00 4.04911077360213e-02 4.64143259570161e-04
5.08271739130435e+00 4.01869084050674e-02 4.61733838995383e-04
5.10641304347826e+00 3.98849944459730e-02 4.59331933943061e-04
5.13010869565217e+00 3.95853486893209e-02 4.56937603596933e-04
5.15380434782609e+00 3.92879540946830e-02 4.54550905005485e-04
5.17750000000000e+00 3.89927937496518e-02 4.52171893559323e-04
5.20119565217391e+00 3.86998508683215e-02 4.49800622390588e-04
5.22489130434783e+00 3.84091087920169e-02 4.47437142835327e-04
5.24858695652174e+00 3.81205509866499e-02 4.45081504900188e-04
5.27228260869565e+00 3.78341610423483e-02 4.42733756644878e-04
5.29597826086957e+00 3.75499226725240e-02 4.40393944635086e-04
5.31967391304348e+00 3.72678197124214e-02 4.38062113369305e-04
5.34336956521739e+00 3.69878361197825e-02 4.35738305717219e-04
5.36706521739130e+00 3.67099559723386e-02 4.33422563362070e-04
5.39076086956522e+00 3.64341634674414e-02 4.31114926405215e-04
5.41445652173913e+00 3.61604429206637e-02 4.28815433020967e-04
5.43815217391304e+00 3.58887787664187e-02 4.26524119877543e-04
5.46184782608696e+00 3.56191555555531e-02 4.24241022562226e-04
5.48554347826087e+00 3.53515579549783e-02 4.21966175013061e-04
5.50923913043478e+00 3.50859707468001e-02 4.19699609931285e-04
5.53293478260870e+00 3.48223788269812e-02 4.17441358253778e-04
5.55663043478261e+00 3.45607672059059e-02 4.15191449552353e-04
5.58032608695652e+00 3.43011210060937e-02 4.12949912437071e-04
5.60402173913044e+00 3.40434254618349e-02 4.10716774191526e-04
5.62771739130435e+00 3.37876659179014e-02 4.08492060454152e-04
5.65141304347826e+00 3.35338278300716e-02 4.06275795602062e-04
5.67510869565217e+00 3.32818967629352e-02 4.04068003138560e-04
5.69880434782609e+00 3.30318583895310e-02 4.01868705170377e-04
5.72250000000000e+00 3.27836984905331e-02 3.99677922783729e-04
5.74619565217391e+00 3.25374029530177e-02 3.97495675558407e-04
5.76989130434783e+00 3.22929577709416e-02 3.95321981932071e-04
5.79358695652174e+00 3.20503490430556e-02 3.93156859568418e-04
5.81728260869565e+00 3.18095629725468e-02 3.91000324858250e-04
5.84097826086957e+00 3.15705858662546e-02 3.88852393276851e-04
5.86467391304348e+00 3.13334041334919e-02 3.86713078920141e-04
5.88836956521739e+00 3.10980042864800e-02 3.84582394850789e-04
5.91206521739131e+00 3.08643729383647e-02 3.82460353447816e-04
5.93576086956522e+00 3.06324968028644e-02 3.80346966085587e-04
5.95945652173913e+00 3.04023626931318e-02 3.78242242852573e-04
5.98315217391304e+00 3.01739575221581e-02 3.76146192884196e-04
6.00684782608696e+00 2.99472683008670e-02 3.74058824699130e-04
6.03054347826087e+00 2.97222821377653e-02 3.71980145739926e-04
6.05423913043478e+00 2.94989862382108e-02 3.69910162699486e-04
6.07793478260870e+00 2.92773679033237e-02 3.67848881093765e-04
6.10163043478261e+00 2.90574145303532e-02 3.65796305578108e-04
6.12532608695652e+00 2.88391136108647e-02 3.63752440266907e-04
6.14902173913044e+00 2.86224527303959e-02 3.61717288437430e-04
6.17271739130435e+00 2.84074195674069e-02 3.59690852270163e-04
6.19641304347826e+00 2.81940018936202e-02 3.57673133153194e-04
6.22010869565217e+00 2.79821875722772e-02 3.55664131989691e-04
6.24380434782609e+00 2.77719645577992e-02 3.53663848774921e-04
6.26750000000000e+00 2.75633208951034e-02 3.51672282894718e-04
6.29119565217391e+00 2.73562447185966e-02 3.49689432731789e-04
6.31489130434783e+00 2.71507242524843e-02 3.47715295955037e-04
6.33858695652174e+00 2.69467478091110e-02 3.45749869812122e-04
6.36228260869565e+00 2.67443037886268e-02 3.43793150725570e-04
6.38597826086957e+00 2.65433806783294e-02 3.41845134576865e-04
6.40967391304348e+00 2.63439670517005e-02 3.39905816330336e-04
6.43336956521739e+00 2.61460515686855e-02 3.37975190308540e-04
6.45706521739131e+00 2.59496229741132e-02 3.36053250470477e-04
6.48076086956522e+00 2.57546700973696e-02 3.34139990150665e-04
6.50445652173913e+00 2.55611818514685e-02 3.32235401830007e-04
6.52815217391304e+00 2.53691472333097e-02 3.30339477400721e-04
6.55184782608696e+00 2.51785553221587e-02 3.28452208434305e-04
6.57554347826087e+00 2.49893952793250e-02 3.26573585809294e-04
6.59923913043478e+00 2.48016563475470e-02 3.24703599971414e-04
6.62293478260870e+00 2.46153278501015e-02 3.22842240586926e-04
6.64663043478261e+00 2.44303991910366e-02 3.20989496794792e-04
6.67032608695652e+00 2.42468598537234e-02 3.19145357461698e-04
6.69402173913044e+00 2.40646994005414e-02 3.17309810941274e-04
6.71771739130435e+00 2.38839074720195e-02 3.15482844862307e-04
6.74141304347826e+00 2.37044737870504e-02 3.13664446371660e-04
6.76510869565217e+00 2.35263881414966e-02 3.11854602379802e-04
6.78880434782609e+00 2.33496404078814e-02 3.10053299217748e-04
6.81250000000000e+00 2.31742205348136e-02 3.08260522875453e-04
6.83619565217391e+00 2.30001185461635e-02 3.06476258682122e-04
6.85989130434783e+00 2.28273245412565e-02 3.04700491537380e-04
6.88358695652174e+00 2.26558286935443e-02 3.02933206145111e-04
6.90728260869565e+00 2.24856212503026e-02 3.01174386685737e-04
6.93097826086957e+00 2.23166925320771e-02 2.99424017043423e-04
6.95467391304348e+00 2.21490329318946e-02 2.97682080500514e-04
6.97836956521739e+00 2.19826329154362e-02 2.95948559957745e-04
7.00206521739130e+00 2.18174830197702e-02 2.94223438156973e-04
7.02576086956522e+00 2.16535738530579e-02 2.92506697468794e-04
7.04945652173913e+00 2.14908960937909e-02 2.90798319705521e-04
7.07315217391304e+00 2.13294404909499e-02 2.89098286333339e-04
7.09684782608696e+00 2.11691978627856e-02 2.87406578686886e-04
7.12054347826087e+00 2.10101590965282e-02 2.85723177666934e-04
7.14423913043478e+00 2.08523151478702e-02 2.84048063948841e-04
7.16793478260870e+00 2.06956570402357e-02 2.82381217700722e-04
7.19163043478261e+00 2.05401758649222e-02 2.80722618785472e-04
7.21532608695652e+00 2.03858627799373e-02 2.79072246965250e-04
7.23902173913044e+00 2.02327090097160e-02 2.77430081705405e-04
7.26271739130435e+00 2.00807058444152e-02 2.75796102001577e-04
7.28641304347826e+00 1.99298446400431e-02 2.74170286574489e-04
7.31010869565217e+00 1.97801168173386e-02 2.72552614066966e-04
7.33380434782609e+00 1.96315138614940e-02 2.70943062765073e-04
7.35750000000000e+00 1.94840273216715e-02 2.69341610789464e-04
7.38119565217391e+00 1.93376488103263e-02 2.67748235835229e-04
7.40489130434783e+00 1.91923700033213e-02 2.66162915357457e-04
7.42858695652174e+00 1.90481826388585e-02 2.64585626759092e-04
7.45228260869565e+00 1.89050785172082e-02 2.63016347124401e-04
7.47597826086957e+00 1.87630495002434e-02 2.61455053401426e-04
