Energy (eV)          EEDF (eV^-(3/2))     First Anisotropy
5.52941176470588e-03 2.79023147578736e+00 2.46724684500050e-03
1.65882352941176e-02 2.73398909708976e+00 4.04666907709525e-03
2.76470588235294e-02 2.67888038938444e+00 5.26981459728591e-03
3.87058823529412e-02 2.62488250177359e+00 6.15622583274655e-03
4.97647058823529e-02 2.57197304348816e+00 6.86088419885735e-03
6.08235294117647e-02 2.52013007516025e+00 7.44361482281741e-03
7.18823529411765e-02 2.46933209959788e+00 7.93598817036269e-03
8.29411764705882e-02 2.41955805307901e+00 8.35742928062809e-03
9.40000000000000e-02 2.37078729637315e+00 8.72105586912614e-03
1.05058823529412e-01 2.32299960623378e+00 9.03630180406059e-03
1.16117647058824e-01 2.27617516726076e+00 9.31026799069712e-03
1.27176470588235e-01 2.23029456300644e+00 9.54848718211608e-03
1.38235294117647e-01 2.18533876905181e+00 9.75538869193819e-03
1.49294117647059e-01 2.14128914378503e+00 9.93459654497390e-03
1.60352941176471e-01 2.09812742194788e+00 1.00891293279730e-02
1.71411764705882e-01 2.05583570591535e+00 1.02215390519945e-02
1.82470588235294e-01 2.01439645931112e+00 1.03340105461773e-02
1.93529411764706e-01 1.97379249879235e+00 1.04284344742864e-02
2.04588235294118e-01 1.93400698759906e+00 1.05064620744803e-02
2.15647058823529e-01 1.89502342853620e+00 1.05695471573269e-02
2.26705882352941e-01 1.85682565656380e+00 1.06189786771806e-02
2.37764705882353e-01 1.81939783282727e+00 1.06559064982486e-02
2.48823529411765e-01 1.78272443741138e+00 1.06813620157414e-02
2.59882352941176e-01 1.74679026353410e+00 1.06962748458770e-02
2.70941176470588e-01 1.71158041065545e+00 1.07014865001051e-02
2.82000000000000e-01 1.67708027884495e+00 1.06977616805509e-02
2.93058823529412e-01 1.64327556221711e+00 1.06857977115078e-02
3.04117647058824e-01 1.61015224347763e+00 1.06662324630044e-02
3.15176470588235e-01 1.57769658766207e+00 1.06396510732572e-02
3.26235294117647e-01 1.54589513686268e+00 1.06065916771368e-02
3.37294117647059e-01 1.51473470425035e+00 1.05675503329824e-02
3.48352941176471e-01 1.48420236898163e+00 1.05229852719642e-02
3.59411764705882e-01 1.45428547048674e+00 1.04733205961254e-02
3.70470588235294e-01 1.42497160355477e+00 1.04189495011782e-02
3.81529411764706e-01 1.39624861287253e+00 1.03602371160508e-02
3.92588235294118e-01 1.36810458821649e+00 1.02975229711810e-02
4.03647058823529e-01 1.34052785950395e+00 1.02311232441766e-02
4.14705882352941e-01 1.31350699174838e+00 1.01613326981346e-02
4.25764705882353e-01 1.28703078058658e+00 1.00884264355663e-02
4.36823529411765e-01 1.26108824737722e+00 1.00126614673370e-02
4.47882352941177e-01 1.23566863489150e+00 9.93427811664579e-03
4.58941176470588e-01 1.21076140262112e+00 9.85350128840105e-03
4.70000000000000e-01 1.18635622262818e+00 9.77054161149934e-03
4.81058823529412e-01 1.16244297505220e+00 9.68559647798222e-03
4.92117647058824e-01 1.13901174411464e+00 9.59885098275872e-03
5.03176470588235e-01 1.11605281381549e+00 9.51047878328421e-03
5.14235294117647e-01 1.09355666408765e+00 9.42064288036091e-03
5.25294117647059e-01 1.07151396667421e+00 9.32949633607242e-03
5.36352941176471e-01 1.04991558142799e+00 9.23718292834633e-03
5.47411764705882e-01 1.02875255236102e+00 9.14383775562074e-03
5.58470588235294e-01 1.00801610408463e+00 9.04958779000310e-03
5.69529411764706e-01 9.87697638023314e-01 8.95455239383371e-03
5.80588235294118e-01 9.67788728957862e-01 8.85884377692425e-03
5.91647058823529e-01 9.48281121527443e-01 8.76256745528744e-03
6.02705882352941e-01 9.29166726708778e-01 8.66582264225315e-03
6.13764705882353e-01 9.10437618590325e-01 8.56870262655770e-03
6.24823529411765e-01 8.92086030962518e-01 8.47129512286234e-03
6.35882352941176e-01 8.74104354215770e-01 8.37368259521336e-03
6.46941176470588e-01 8.56485132071407e-01 8.27594256097904e-03
6.58000000000000e-01 8.39221058599110e-01 8.17814787185652e-03
6.69058823529412e-01 8.22304975082421e-01 8.08036697871593e-03
6.80117647058824e-01 8.05729867151329e-01 7.98266417686846e-03
6.91176470588235e-01 7.89488861776526e-01 7.88509983787689e-03
7.02235294117647e-01 7.73575224512971e-01 7.78773062454256e-03
7.13294117647059e-01 7.57982356617363e-01 7.69060969463028e-03
7.24352941176471e-01 7.42703792398618e-01 7.59378689004264e-03
7.35411764705882e-01 7.27733196453299e-01 7.49730891652656e-03
7.46470588235294e-01 7.13064361119063e-01 7.40121951072194e-03
7.57529411764706e-01 6.98691203823038e-01 7.30555960130055e-03
7.68588235294118e-01 6.84607764617017e-01 7.21036744858398e-03
7.79647058823529e-01 6.70808203703918e-01 7.11567879816335e-03
7.90705882352941e-01 6.57286798964258e-01 7.02152700477105e-03
8.01764705882353e-01 6.44037943651976e-01 6.92794315866904e-03
8.12823529411765e-01 6.31056144003421e-01 6.83495620441878e-03
8.23882352941177e-01 6.18336017023125e-01 6.74259305151947e-03
8.34941176470588e-01 6.05872288190115e-01 6.65087868055073e-03
8.46000000000000e-01 5.93659789330242e-01 6.55983624208786e-03
8.57058823529412e-01 5.81693456415747e-01 6.46948715177190e-03
8.68117647058824e-01 5.69968327520862e-01 6.37985117893117e-03
8.79176470588235e-01 5.58479540710752e-01 6.29094653190658e-03
8.90235294117647e-01 5.47222332077217e-01 6.20278993760432e-03
9.01294117647059e-01 5.36192033713290e-01 6.11539671821715e-03
9.12352941176471e-01 5.25384071825989e-01 6.02878086275926e-03
9.23411764705882e-01 5.14793964793028e-01 5.94295509616816e-03
9.34470588235294e-01 5.04417321349651e-01 5.85793094373224e-03
9.45529411764706e-01 4.94249838724071e-01 5.77371879474221e-03
9.56588235294118e-01 4.84287300885677e-01 5.69032795529897e-03
9.67647058823529e-01 4.74525576795617e-01 5.60776671248094e-03
9.78705882352941e-01 4.64960618664334e-01 5.52604238198479e-03
9.89764705882353e-01 4.55588460312058e-01 5.44516135949068e-03
1.00082352941176e+00 4.46405215486514e-01 5.36512916797049e-03
1.01188235294118e+00 4.37407076296288e-01 5.28595050182563e-03
1.02294117647059e+00 4.28590311603491e-01 5.20762928976556e-03
1.03400000000000e+00 4.19951265382462e-01 5.13016869634736e-03
1.04505882352941e+00 4.11486355461919e-01 5.05357119205185e-03
1.05611764705882e+00 4.03192071719964e-01 4.97783858468745e-03
1.06717647058824e+00 3.95064974939599e-01 4.90297204118666e-03
1.07823529411765e+00 3.87101695150391e-01 4.82897216559476e-03
1.08929411764706e+00 3.79298930242457e-01 4.75583896799972e-03
1.10035294117647e+00 3.71653444804346e-01 4.68357192692718e-03
1.11141176470588e+00 3.64162068569943e-01 4.61217004826647e-03
1.12247058823529e+00 3.56821695114317e-01 4.54163183460595e-03
1.13352941176471e+00 3.49629280754324e-01 4.47195534115873e-03
1.14458823529412e+00 3.42581843093694e-01 4.40313822852420e-03
1.15564705882353e+00 3.35676459795926e-01 4.33517773265837e-03
1.16670588235294e+00 3.28910267544556e-01 4.26807071506273e-03
1.17776470588235e+00 3.22280460680096e-01 4.20181371014198e-03
1.18882352941176e+00 3.15784290045140e-01 4.13640289597067e-03
1.19988235294118e+00 3.09419062001597e-01 4.07183413936984e-03
1.21094117647059e+00 3.03182137153326e-01 4.00810303850866e-03
1.22200000000000e+00 2.97070929259257e-01 3.94520489457448e-03
1.23305882352941e+00 2.91082904304721e-01 3.88313475912211e-03
1.24411764705882e+00 2.85215579259508e-01 3.82188744508448e-03
1.25517647058824e+00 2.79466521234503e-01 3.76145753357593e-03
1.26623529411765e+00 2.73833346333783e-01 3.70183941766499e-03
1.27729411764706e+00 2.68313718672587e-01 3.64302727542852e-03
1.28835294117647e+00 2.62905349533527e-01 3.58501510421721e-03
1.29941176470588e+00 2.57605996290246e-01 3.52779675305179e-03
1.31047058823529e+00 2.52413461483472e-01 3.47136589676094e-03
1.32152941176471e+00 2.47325592024056e-01 3.41571606693971e-03
1.33258823529412e+00 2.42340278183582e-01 3.36084068118076e-03
1.34364705882353e+00 2.37455452725062e-01 3.30673301831387e-03
1.35470588235294e+00 2.32669090150349e-01 3.25338624638837e-03
1.36576470588235e+00 2.27979205753492e-01 3.20079344909233e-03
1.37682352941176e+00 2.23383854802691e-01 3.14894760209317e-03
1.38788235294118e+00 2.18881131829871e-01 3.09784159833203e-03
1.39894117647059e+00 2.14469169742707e-01 3.04746827193779e-03
1.41000000000000e+00 2.10146139054853e-01 2.99782037565330e-03
1.42105882352941e+00 2.05910247215415e-01 2.94889060820347e-03
1.43211764705882e+00 2.01759737748494e-01 2.90067161792059e-03
1.44317647058824e+00 1.97692889639071e-01 2.85315600374513e-03
1.45423529411765e+00 1.93708016534065e-01 2.80633634073608e-03
1.46529411764706e+00 1.89803466046894e-01 2.76020515909866e-03
1.47635294117647e+00 1.85977619149180e-01 2.71475496368605e-03
1.48741176470588e+00 1.82228889421050e-01 2.66997825243428e-03
1.49847058823529e+00 1.78555722396844e-01 2.62586749642742e-03
1.50952941176471e+00 1.74956594991167e-01 2.58241515759410e-03
1.52058823529412e+00 1.71430014795312e-01 2.53961370541029e-03
1.53164705882353e+00 1.67974519461697e-01 2.49745559797085e-03
1.54270588235294e+00 1.64588676162374e-01 2.45593329804697e-03
1.55376470588235e+00 1.61271080928736e-01 2.41503928823813e-03
1.56482352941176e+00 1.58020358072293e-01 2.37476605301431e-03
1.57588235294118e+00 1.54835159673951e-01 2.33510609328088e-03
1.58694117647059e+00 1.51714164964238e-01 2.29605194013926e-03
1.59800000000000e+00 1.48656079778303e-01 2.25759613785933e-03
1.60905882352941e+00 1.45659636074252e-01 2.21973126007884e-03
1.62011764705882e+00 1.42723591334231e-01 2.18244991031182e-03
1.63117647058824e+00 1.39846728120527e-01 2.14574472077868e-03
1.64223529411765e+00 1.37027853517474e-01 2.10960836759757e-03
1.65329411764706e+00 1.34265798639124e-01 2.07403355512718e-03
1.66435294117647e+00 1.31559418192713e-01 2.03901302728069e-03
1.67541176470588e+00 1.28907589954704e-01 2.00453957820923e-03
1.68647058823529e+00 1.26309214307591e-01 1.97060603748210e-03
1.69752941176471e+00 1.23763213828291e-01 1.93720528037602e-03
1.70858823529412e+00 1.21268532796182e-01 1.90433023757448e-03
1.71964705882353e+00 1.18824136757323e-01 1.87197388114826e-03
1.73070588235294e+00 1.16429012136383e-01 1.84012923390952e-03
1.74176470588235e+00 1.14082165774707e-01 1.80878937822615e-03
1.75282352941176e+00 1.11782624520297e-01 1.77794744276438e-03
1.76388235294118e+00 1.09529434861985e-01 1.74759661098739e-03
1.77494117647059e+00 1.07321662495664e-01 1.71773012917214e-03
1.78600000000000e+00 1.05158391938504e-01 1.68834129387586e-03
1.79705882352941e+00 1.03038726184125e-01 1.65942346165525e-03
1.80811764705882e+00 1.00961786284388e-01 1.63097004832945e-03
1.81917647058824e+00 9.89267110300767e-02 1.60297452715315e-03
1.83023529411765e+00 9.69326565600686e-02 1.57543043797559e-03
1.84129411764706e+00 9.49787960128486e-02 1.54833137577660e-03
1.85235294117647e+00 9.30643192142196e-02 1.52167099728955e-03
1.86341176470588e+00 9.11884323102286e-02 1.49544302724317e-03
1.87447058823529e+00 8.93503574393152e-02 1.46964124753348e-03
1.88552941176471e+00 8.75493324379871e-02 1.44425950325167e-03
1.89658823529412e+00 8.57846104960380e-02 1.41929170835407e-03
1.90764705882353e+00 8.40554598481101e-02 1.39473183543796e-03
1.91870588235294e+00 8.23611634963165e-02 1.37057392122454e-03
1.92976470588235e+00 8.07010188863959e-02 1.34681207171346e-03
1.94082352941176e+00 7.90743376175146e-02 1.32344045253072e-03
1.95188235294118e+00 7.74804451808949e-02 1.30045329391160e-03
1.96294117647059e+00 7.59186806556142e-02 1.27784489538973e-03
1.97400000000000e+00 7.43883964355703e-02 1.25560961668581e-03
1.98505882352941e+00 7.28889579832056e-02 1.23374188358012e-03
1.99611764705882e+00 7.14197435367890e-02 1.21223618677275e-03
2.00717647058824e+00 6.99801438814979e-02 1.19108708002826e-03
2.01823529411765e+00 6.85695620752149e-02 1.17028918573319e-03
2.02929411764706e+00 6.71874132018953e-02 1.14983718658774e-03
2.04035294117647e+00 6.58331241486424e-02 1.12972582948905e-03
2.05141176470588e+00 6.45061333480995e-02 1.10994992918043e-03
2.06247058823529e+00 6.32058905464236e-02 1.09050436041264e-03
2.07352941176471e+00 6.19318565932563e-02 1.07138406147700e-03
2.08458823529412e+00 6.06835031996946e-02 1.05258403751828e-03
2.09564705882353e+00 5.94603127200076e-02 1.03409935314057e-03
2.10670588235294e+00 5.82617779537633e-02 1.01592513561905e-03
2.11776470588235e+00 5.70874019184382e-02 9.98056577909428e-04
2.12882352941176e+00 5.59366976440468e-02 9.80488931673862e-04
2.13988235294118e+00 5.48091879867414e-02 9.63217510197513e-04
2.15094117647059e+00 5.37044054151628e-02 9.46237691123475e-04
2.16200000000000e+00 5.26218918172202e-02 9.29544909875150e-04
2.17305882352941e+00 5.15611983245064e-02 9.13134663212919e-04
2.18411764705882e+00 5.05218851070546e-02 8.97002508064238e-04
2.19517647058824e+00 4.95035212096286e-02 8.81144059880398e-04
2.20623529411765e+00 4.85056843590783e-02 8.65554996016005e-04
2.21729411764706e+00 4.75279607898079e-02 8.50231049742071e-04
2.22835294117647e+00 4.65699450848997e-02 8.35168012512526e-04
2.23941176470588e+00 4.56312399950894e-02 8.20361736085398e-04
2.25047058823529e+00 4.47114562745727e-02 8.05808126877968e-04
2.26152941176471e+00 4.38102125313566e-02 7.91503148025902e-04
2.27258823529412e+00 4.29271350571487e-02 7.77442821305437e-04
2.28364705882353e+00 4.20618576728889e-02 7.63623221811738e-04
2.29470588235294e+00 4.12140215877972e-02 7.50040479827619e-04
2.30576470588235e+00 4.03832752395188e-02 7.36690782566111e-04
2.31682352941176e+00 3.95692741487974e-02 7.23570369153861e-04
2.32788235294118e+00 3.87716807867240e-02 7.10675532324659e-04
2.33894117647059e+00 3.79901644245144e-02 6.98002619999732e-04
2.35000000000000e+00 3.72244009967820e-02 6.85548030558570e-04
2.36105882352941e+00 3.64740729765162e-02 6.73308214989863e-04
2.37211764705882e+00 3.57388692309780e-02 6.61279675843390e-04
2.38317647058824e+00 3.50184849048377e-02 6.49458965866903e-04
2.39423529411765e+00 3.43126212846869e-02 6.37842690058218e-04
2.40529411764706e+00 3.36209856755388e-02 6.26427501365971e-04
2.41635294117647e+00 3.29432912877346e-02 6.15210101997907e-04
2.42741176470588e+00 3.22792571096078e-02 6.04187244638347e-04
2.43847058823529e+00 3.16286077912996e-02 5.93355728396107e-04
2.44952941176471e+00 3.09910735382551e-02 5.82712399989879e-04
2.46058823529412e+00 3.03663899915450e-02 5.72254154847904e-04
2.47164705882353e+00 2.97542981185640e-02 5.61977933289197e-04
2.48270588235294e+00 2.91545441127342e-02 5.51880721596044e-04
2.49376470588235e+00 2.85668792810253e-02 5.41959553007522e-04
2.50482352941176e+00 2.79910599411215e-02 5.32211504120739e-04
2.51588235294118e+00 2.74268473269787e-02 5.22633695859473e-04
2.52694117647059e+00 2.68740074831044e-02 5.13223294371833e-04
2.53800000000000e+00 2.63323111678129e-02 5.03977507638760e-04
2.54905882352941e+00 2.58015337642947e-02 4.94893586768199e-04
2.56011764705882e+00 2.52814551793306e-02 4.85968825116608e-04
2.57117647058824e+00 2.47718597599882e-02 4.77200557199981e-04
2.58223529411765e+00 2.42725361982537e-02 4.68586159933920e-04
2.59329411764706e+00 2.37832774436463e-02 4.60123049552978e-04
2.60435294117647e+00 2.33038806227910e-02 4.51808682351654e-04
2.61541176470588e+00 2.28341469497761e-02 4.43640555368237e-04
2.62647058823529e+00 2.23738816439450e-02 4.35616203481937e-04
2.63752941176471e+00 2.19228938541663e-02 4.27733200081282e-04
2.64858823529412e+00 2.14809965745714e-02 4.19989157678618e-04
2.65964705882353e+00 2.10480065672167e-02 4.12381725174924e-04
2.67070588235294e+00 2.06237442907781e-02 4.04908588461617e-04
2.68176470588235e+00 2.02080338213466e-02 3.97567470972667e-04
2.69282352941176e+00 1.98007027796685e-02 3.90356131107469e-04
2.70388235294118e+00 1.94015822640102e-02 3.83272362771427e-04
2.71494117647059e+00 1.90105067757057e-02 3.76313995871852e-04
2.72600000000000e+00 1.86273141507045e-02 3.69478893889699e-04
2.73705882352941e+00 1.82518454963634e-02 3.62764954651302e-04
2.74811764705882e+00 1.78839451201954e-02 3.56170109620164e-04
2.75917647058824e+00 1.75234604705538e-02 3.49692323047511e-04
2.77023529411765e+00 1.71702420694586e-02 3.43329592715460e-04
2.78129411764706e+00 1.68241434507672e-02 3.37079947732636e-04
2.79235294117647e+00 1.64850211030207e-02 3.30941448941184e-04
2.80341176470588e+00 1.61527344062967e-02 3.24912189287808e-04
2.81447058823529e+00 1.58271455740430e-02 3.18990291746916e-04
2.82552941176471e+00 1.55081195992687e-02 3.13173909685172e-04
2.83658823529412e+00 1.51955241951808e-02 3.07461227192088e-04
2.84764705882353e+00 1.48892297404645e-02 3.01850457123387e-04
2.85870588235294e+00 1.45891092286231e-02 2.96339841426671e-04
2.86976470588235e+00 1.42950382121731e-02 2.90927651435762e-04
2.88082352941177e+00 1.40068947511638e-02 2.85612186027348e-04
2.89188235294118e+00 1.37245593654852e-02 2.80391771910940e-04
2.90294117647059e+00 1.34479149824060e-02 2.75264763890654e-04
2.91400000000000e+00 1.31768468881413e-02 2.70229543128548e-04
2.92505882352941e+00 1.29112426829556e-02 2.65284517598482e-04
2.93611764705882e+00 1.26509922310051e-02 2.60428121529361e-04
2.94717647058824e+00 1.23959876181389e-02 2.55658814753381e-04
2.95823529411765e+00 1.21461231045598e-02 2.50975083145725e-04
2.96929411764706e+00 1.19012950810781e-02 2.46375437048668e-04
2.98035294117647e+00 1.16614020285207e-02 2.41858411484255e-04
2.99141176470588e+00 1.14263444732253e-02 2.37422566344292e-04
3.00247058823529e+00 1.11960249458865e-02 2.33066484905741e-04
3.01352941176471e+00 1.09703479433437e-02 2.28788774018950e-04
3.02458823529412e+00 1.07492198867388e-02 2.24588064274435e-04
3.03564705882353e+00 1.05325490828004e-02 2.20463008604327e-04
3.04670588235294e+00 1.03202456878725e-02 2.16412282448264e-04
3.05776470588235e+00 1.01122216685758e-02 2.12434583899478e-04
3.06882352941176e+00 9.90839076538471e-03 2.08528632387330e-04
3.07988235294118e+00 9.70866845876626e-03 2.04693168822728e-04
3.09094117647059e+00 9.51297193219509e-03 2.00926955725759e-04
3.10200000000000e+00 9.32122003788755e-03 1.97228775984548e-04
3.11305882352941e+00 9.13333326492694e-03 1.93597433116788e-04
3.12411764705882e+00 8.94923370393493e-03 1.90031750839646e-04
3.13517647058824e+00 8.76884501707167e-03 1.86530572575575e-04
3.14623529411765e+00 8.59209240465917e-03 1.83092761707631e-04
3.15729411764706e+00 8.41890257423088e-03 1.79717200453620e-04
3.16835294117647e+00 8.24920371171768e-03 1.76402789967741e-04
3.17941176470588e+00 8.08292545006668e-03 1.73148450427910e-04
3.19047058823529e+00 7.91999884012473e-03 1.69953119975163e-04
3.20152941176471e+00 7.76035632351543e-03 1.66815754801563e-04
3.21258823529412e+00 7.60393170313388e-03 1.63735329224546e-04
3.22364705882353e+00 7.45066011575532e-03 1.60710834687876e-04
3.23470588235294e+00 7.30047800650425e-03 1.57741279837020e-04
3.24576470588235e+00 7.15332310111311e-03 1.54825690582026e-04
3.25682352941176e+00 7.00913438015311e-03 1.51963109156449e-04
3.26788235294118e+00 6.86785205500274e-03 1.49152594181301e-04
3.27894117647059e+00 6.72941754176467e-03 1.46393220717796e-04
3.29000000000000e+00 6.59377343702251e-03 1.43684079380832e-04
3.30105882352941e+00 6.46086349522115e-03 1.41024276485164e-04
3.31211764705882e+00 6.33063260377098e-03 1.38412933717352e-04
3.32317647058824e+00 6.20302676173303e-03 1.35849187764393e-04
3.33423529411765e+00 6.07799305627808e-03 1.33332190457945e-04
3.34529411764706e+00 5.95547964078954e-03 1.30861107970348e-04
3.35635294117647e+00 5.83543571441771e-03 1.28435120854623e-04
3.36741176470588e+00 5.71781149994492e-03 1.26053424075408e-04
3.37847058823529e+00 5.60255822318595e-03 1.23715226251634e-04
3.38952941176471e+00 5.48962809374347e-03 1.21419749689069e-04
3.40058823529412e+00 5.37897428419521e-03 1.19166230404296e-04
3.41164705882353e+00 5.27055091071489e-03 1.16953917411354e-04
3.42270588235294e+00 5.16431301495851e-03 1.14782072747557e-04
3.43376470588235e+00 5.06021654449465e-03 1.12649971491395e-04
3.44482352941176e+00 4.95821833457309e-03 1.10556901090594e-04
3.45588235294118e+00 4.85827609107607e-03 1.08502161381812e-04
3.46694117647059e+00 4.76034837211717e-03 1.06485064603272e-04
3.47800000000000e+00 4.66439457088973e-03 1.04504934761786e-04
3.48905882352941e+00 4.57037489962053e-03 1.02561107710666e-04
