Energy (eV)          EEDF (eV^-(3/2))     First Anisotropy
9.90384615384615e-04 6.86334706146251e+00 3.41119748030991e-03
2.97115384615385e-03 6.81809658930757e+00 5.63322551940954e-03
4.95192307692308e-03 6.77314445632488e+00 7.43747343306901e-03
6.93269230769231e-03 6.72848869554070e+00 8.80877016442116e-03
8.91346153846154e-03 6.68412735295355e+00 9.95294190437300e-03
1.08942307692308e-02 6.64005848744556e+00 1.09477763358632e-02
1.28750000000000e-02 6.59628017062409e+00 1.18335126625878e-02
1.48557692307692e-02 6.55279048705515e+00 1.26344407242035e-02
1.68365384615385e-02 6.50958753372807e+00 1.33666638027879e-02
1.88173076923077e-02 6.46666941998737e+00 1.40415589693732e-02
2.07980769230769e-02 6.42403426809738e+00 1.46675449030860e-02
2.27788461538462e-02 6.38168021245355e+00 1.52510750441353e-02
2.47596153846154e-02 6.33960539960448e+00 1.57972361706289e-02
2.67403846153846e-02 6.29780798865476e+00 1.63101295802312e-02
2.87211538461538e-02 6.25628615066338e+00 1.67931245936051e-02
3.07019230769231e-02 6.21503806862991e+00 1.72490331762581e-02
3.26826923076923e-02 6.17406193779708e+00 1.76802340401658e-02
3.46634615384615e-02 6.13335596516595e+00 1.80887630388125e-02
3.66442307692308e-02 6.09291836945881e+00 1.84763803663189e-02
3.86250000000000e-02 6.05274738135827e+00 1.88446216292525e-02
4.06057692307692e-02 6.01284124309885e+00 1.91948372385263e-02
4.25865384615385e-02 5.97319820850506e+00 1.95282232089759e-02
4.45673076923077e-02 5.93381654283472e+00 1.98458455953479e-02
4.65480769230769e-02 5.89469452295016e+00 2.01486601399046e-02
4.85288461538462e-02 5.85583043698708e+00 2.04375282238579e-02
5.05096153846154e-02 5.81722258429895e+00 2.07132298595186e-02
5.24903846153846e-02 5.77886927559672e+00 2.09764745011136e-02
5.44711538461538e-02 5.74076883265304e+00 2.12279100538753e-02
5.64519230769231e-02 5.70291958824490e+00 2.14681303659025e-02
5.84326923076923e-02 5.66531988626862e+00 2.16976816288936e-02
6.04134615384615e-02 5.62796808147326e+00 2.19170678237056e-02
6.23942307692308e-02 5.59086253940083e+00 2.21267553133348e-02
6.43750000000000e-02 5.55400163648255e+00 2.23271768588676e-02
6.63557692307692e-02 5.51738375979567e+00 2.25187350865417e-02
6.83365384615385e-02 5.48100730705172e+00 2.27018054712049e-02
7.03173076923077e-02 5.44487068647974e+00 2.28767389424174e-02
7.22980769230769e-02 5.40897231689944e+00 2.30438641935719e-02
7.42788461538462e-02 5.37331062750586e+00 2.32034897214129e-02
7.62596153846154e-02 5.33788405780848e+00 2.33559055704888e-02
7.82403846153846e-02 5.30269105769220e+00 2.35013849351396e-02
8.02211538461538e-02 5.26773008721697e+00 2.36401855849061e-02
8.22019230769231e-02 5.23299961655749e+00 2.37725510822238e-02
8.41826923076923e-02 5.19849812605389e+00 2.38987119251020e-02
8.61634615384615e-02 5.16422410602479e+00 2.40188865731458e-02
8.81442307692308e-02 5.13017605670697e+00 2.41332823194270e-02
9.01250000000000e-02 5.09635248829788e+00 2.42420961275087e-02
9.21057692307692e-02 5.06275192078016e+00 2.43455153836996e-02
9.40865384615385e-02 5.02937288389439e+00 2.44437185563557e-02
9.60673076923077e-02 4.99621391704337e+00 2.45368757964592e-02
9.80480769230769e-02 4.96327356932380e+00 2.46251495043850e-02
1.00028846153846e-01 4.93055039936548e+00 2.47086948629920e-02
1.02009615384615e-01 4.89804297521288e+00 2.47876602294319e-02
1.03990384615385e-01 4.86574987458923e+00 2.48621876175742e-02
1.05971153846154e-01 4.83366968444091e+00 2.49324131180577e-02
1.07951923076923e-01 4.80180100103284e+00 2.49984672362721e-02
1.09932692307692e-01 4.77014242962173e+00 2.50604751080355e-02
1.11913461538462e-01 4.73869258519466e+00 2.51185569001773e-02
1.13894230769231e-01 4.70745009159767e+00 2.51728281872181e-02
1.15875000000000e-01 4.67641358175067e+00 2.52234001109619e-02
1.17855769230769e-01 4.64558169734786e+00 2.52703795377386e-02
1.19836538461538e-01 4.61495308952507e+00 2.53138693729237e-02
1.21817307692308e-01 4.58452641806418e+00 2.53539688590238e-02
1.23798076923077e-01 4.55430035158297e+00 2.53907736743067e-02
1.25778846153846e-01 4.52427356725918e+00 2.54243760335235e-02
1.27759615384615e-01 4.49444475143603e+00 2.54548649418115e-02
1.29740384615385e-01 4.46481259889264e+00 2.54823264370013e-02
1.31721153846154e-01 4.43537581301259e+00 2.55068436074532e-02
1.33701923076923e-01 4.40613310572938e+00 2.55284968118958e-02
1.35682692307692e-01 4.37708319727330e+00 2.55473636920055e-02
1.37663461538462e-01 4.34822481670861e+00 2.55635193723520e-02
1.39644230769231e-01 4.31955670127752e+00 2.55770366527468e-02
1.41625000000000e-01 4.29107759654813e+00 2.55879860321151e-02
1.43605769230769e-01 4.26278625617925e+00 2.55964357387272e-02
1.45586538461538e-01 4.23468144241193e+00 2.56024518997579e-02
1.47567307692308e-01 4.20676192546275e+00 2.56060987052654e-02
1.49548076923077e-01 4.17902648365619e+00 2.56074384136990e-02
1.51528846153846e-01 4.15147390320536e+00 2.56065313644755e-02
1.53509615384615e-01 4.12410297866311e+00 2.56034361242815e-02
1.55490384615385e-01 4.09691251235927e+00 2.55982096292099e-02
1.57471153846154e-01 4.06990131451934e+00 2.55909071442297e-02
1.59451923076923e-01 4.04306820321389e+00 2.55815823956832e-02
1.61432692307692e-01 4.01641200415529e+00 2.55702875337468e-02
1.63413461538462e-01 3.98993155110310e+00 2.55570732559659e-02
1.65394230769231e-01 3.96362568535130e+00 2.55419889279354e-02
1.67375000000000e-01 3.93749325583358e+00 2.55250825654421e-02
1.69355769230769e-01 3.91153311893279e+00 2.55064008240465e-02
1.71336538461538e-01 3.88574413885513e+00 2.54859891089518e-02
1.73317307692308e-01 3.86012518715170e+00 2.54638916826974e-02
1.75298076923077e-01 3.83467514281344e+00 2.54401516413067e-02
1.77278846153846e-01 3.80939289209201e+00 2.54148108978113e-02
1.79259615384615e-01 3.78427732884601e+00 2.53879102809861e-02
1.81240384615385e-01 3.75932735409350e+00 2.53594896324242e-02
1.83221153846154e-01 3.73454187609781e+00 2.53295877503601e-02
1.85201923076923e-01 3.70991981032063e+00 2.52982424816164e-02
1.87182692307692e-01 3.68546007925490e+00 2.52654906702129e-02
1.89163461538462e-01 3.66116161273862e+00 2.52313682443712e-02
1.91144230769231e-01 3.63702334754342e+00 2.51959103023759e-02
1.93125000000000e-01 3.61304422745102e+00 2.51591510815550e-02
1.95105769230769e-01 3.58922320309550e+00 2.51211239341756e-02
1.97086538461538e-01 3.56555923225484e+00 2.50818614070845e-02
1.99067307692308e-01 3.54205127946449e+00 2.50413953204769e-02
2.01048076923077e-01 3.51869831608673e+00 2.49997567351397e-02
2.03028846153846e-01 3.49549932016144e+00 2.49569759263655e-02
2.05009615384615e-01 3.47245327667749e+00 2.49130824573239e-02
2.06990384615385e-01 3.44955917720916e+00 2.48681052517623e-02
2.08971153846154e-01 3.42681601997905e+00 2.48220725359985e-02
2.10951923076923e-01 3.40422280981491e+00 2.47750119084390e-02
2.12932692307692e-01 3.38177855800957e+00 2.47269502864375e-02
2.14913461538462e-01 3.35948228256867e+00 2.46779139726494e-02
2.16894230769231e-01 3.33733300787396e+00 2.46279287209617e-02
2.18875000000000e-01 3.31532976473967e+00 2.45770197023753e-02
2.20855769230769e-01 3.29347159027961e+00 2.45252114769646e-02
2.22836538461538e-01 3.27175752813849e+00 2.44725280556975e-02
2.24817307692308e-01 3.25018662817412e+00 2.44189929619512e-02
2.26798076923077e-01 3.22875794650860e+00 2.43646291972544e-02
2.28778846153846e-01 3.20747054540222e+00 2.43094592128719e-02
2.30759615384615e-01 3.18632349346952e+00 2.42535049676283e-02
2.32740384615385e-01 3.16531586537911e+00 2.41967879855127e-02
2.34721153846154e-01 3.14444674190015e+00 2.41393293006199e-02
2.36701923076923e-01 3.12371520986259e+00 2.40811495125417e-02
2.38682692307692e-01 3.10312036203829e+00 2.40222687357864e-02
2.40663461538462e-01 3.08266129733935e+00 2.39627066529315e-02
2.42644230769231e-01 3.06233712053853e+00 2.39024825676835e-02
2.44625000000000e-01 3.04214694231098e+00 2.38416153714729e-02
2.46605769230769e-01 3.02208987912103e+00 2.37801235153245e-02
2.48586538461538e-01 3.00216505340807e+00 2.37180250599323e-02
2.50567307692308e-01 2.98237159332165e+00 2.36553377256830e-02
2.52548076923077e-01 2.96270863275944e+00 2.35920788597521e-02
2.54528846153846e-01 2.94317531125941e+00 2.35282654082467e-02
2.56509615384615e-01 2.92377077417406e+00 2.34639139634878e-02
2.58490384615385e-01 2.90449417241930e+00 2.33990408112987e-02
2.60471153846154e-01 2.88534466250894e+00 2.33336618804546e-02
2.62451923076923e-01 2.86632140651815e+00 2.32677927883084e-02
2.64432692307692e-01 2.84742357198141e+00 2.32014487942131e-02
2.66413461538462e-01 2.82865033205316e+00 2.31346448434550e-02
2.68394230769231e-01 2.81000086527291e+00 2.30673956112548e-02
2.70375000000000e-01 2.79147435559615e+00 2.29997154715240e-02
2.72355769230769e-01 2.77306999229702e+00 2.29316184701769e-02
2.74336538461538e-01 2.75478697011919e+00 2.28631183668167e-02
2.76317307692308e-01 2.73662448905268e+00 2.27942286765082e-02
2.78298076923077e-01 2.71858175436200e+00 2.27249626392568e-02
2.80278846153846e-01 2.70065797649310e+00 2.26553331938585e-02
2.82259615384615e-01 2.68285237121528e+00 2.25853530175132e-02
2.84240384615385e-01 2.66516415940896e+00 2.25150345655465e-02
2.86221153846154e-01 2.64759256709121e+00 2.24443900256799e-02
2.88201923076923e-01 2.63013682538219e+00 2.23734313564483e-02
2.90182692307692e-01 2.61279617041682e+00 2.23021702449498e-02
2.92163461538462e-01 2.59556984347609e+00 2.22306181439198e-02
2.94144230769231e-01 2.57845709078785e+00 2.21587863089492e-02
2.96125000000000e-01 2.56145716354964e+00 2.20866857698656e-02
2.98105769230769e-01 2.54456931784427e+00 2.20143273060716e-02
3.00086538461538e-01 2.52779281476345e+00 2.19417214818889e-02
3.02067307692308e-01 2.51112692021800e+00 2.18688786820543e-02
3.04048076923077e-01 2.49457090495862e+00 2.17958090838878e-02
3.06028846153846e-01 2.47812404449499e+00 2.17225226332458e-02
3.08009615384615e-01 2.46178561921233e+00 2.16490290782597e-02
3.09990384615385e-01 2.44555491419047e+00 2.15753380032278e-02
3.11971153846154e-01 2.42943121922268e+00 2.15014587875342e-02
3.13951923076923e-01 2.41341382878476e+00 2.14274006384791e-02
3.15932692307692e-01 2.39750204195816e+00 2.13531725532393e-02
3.17913461538462e-01 2.38169516253809e+00 2.12787833506023e-02
3.19894230769231e-01 2.36599249886317e+00 2.12042417028785e-02
3.21875000000000e-01 2.35039336383226e+00 2.11295561099675e-02
3.23855769230769e-01 2.33489707483067e+00 2.10547348768561e-02
3.25836538461538e-01 2.31950295383223e+00 2.09797861439779e-02
3.27817307692308e-01 2.30421032723667e+00 2.09047179177496e-02
3.29798076923077e-01 2.28901852588480e+00 2.08295380454042e-02
3.31778846153846e-01 2.27392688498777e+00 2.07542541931179e-02
3.33759615384615e-01 2.25893474422340e+00 2.06788738750722e-02
3.35740384615385e-01 2.24404144758093e+00 2.06034044827017e-02
3.37721153846154e-01 2.22924634337461e+00 2.05278532479039e-02
3.39701923076923e-01 2.21454878421540e+00 2.04522272713970e-02
3.41682692307692e-01 2.19994812694358e+00 2.03765334885886e-02
3.43663461538462e-01 2.18544373271832e+00 2.03007786970182e-02
3.45644230769231e-01 2.17103496687112e+00 2.02249695839863e-02
3.47625000000000e-01 2.15672119891790e+00 2.01491127031824e-02
3.49605769230769e-01 2.14250180249437e+00 2.00732144543040e-02
3.51586538461538e-01 2.12837615544060e+00 1.99972811093712e-02
3.53567307692308e-01 2.11434363966096e+00 1.99213188392339e-02
3.55548076923077e-01 2.10040364113496e+00 1.98453336909127e-02
3.57528846153846e-01 2.08655554985504e+00 1.97693315678186e-02
3.59509615384615e-01 2.07279875990670e+00 1.96933182550019e-02
3.61490384615385e-01 2.05913266933441e+00 1.96172994445986e-02
3.63471153846154e-01 2.04555668015131e+00 1.95412807029206e-02
3.65451923076923e-01 2.03207019831317e+00 1.94652674951438e-02
3.67432692307692e-01 2.01867263365911e+00 1.93892651547347e-02
3.69413461538462e-01 2.00536339998613e+00 1.93132789073567e-02
3.71394230769231e-01 1.99214191492240e+00 1.92373138949726e-02
3.73375000000000e-01 1.97900759993569e+00 1.91613751548340e-02
3.75355769230769e-01 1.96595988027640e+00 1.90854676010929e-02
3.77336538461538e-01 1.95299818504816e+00 1.90095960477668e-02
3.79317307692308e-01 1.94012194708637e+00 1.89337652319040e-02
3.81298076923077e-01 1.92733060296578e+00 1.88579797932308e-02
3.83278846153846e-01 1.91462359294560e+00 1.87822442563169e-02
3.85259615384615e-01 1.90200036103640e+00 1.87065630526546e-02
3.87240384615385e-01 1.88946035488374e+00 1.86309405429252e-02
3.89221153846154e-01 1.87700302577484e+00 1.85553809875792e-02
3.91201923076923e-01 1.86462782861469e+00 1.84798885684566e-02
3.93182692307692e-01 1.85233422187358e+00 1.84044673614089e-02
3.95163461538462e-01 1.84012166764959e+00 1.83291213572496e-02
3.97144230769231e-01 1.82798963155825e+00 1.82538544828955e-02
3.99125000000000e-01 1.81593758273836e+00 1.81786705825038e-02
4.01105769230769e-01 1.80396499380153e+00 1.81035734009138e-02
4.03086538461538e-01 1.79207134089127e+00 1.80285666038018e-02
4.05067307692308e-01 1.78025610357730e+00 1.79536537980262e-02
4.07048076923077e-01 1.76851876486058e+00 1.78788385133638e-02
4.09028846153846e-01 1.75685881112467e+00 1.78041241864556e-02
4.11009615384615e-01 1.74527573219182e+00 1.77295141802091e-02
4.12990384615385e-01 1.73376902122156e+00 1.76550118033854e-02
4.14971153846154e-01 1.72233817471501e+00 1.75806202842837e-02
4.16951923076923e-01 1.71098269249293e+00 1.75063427897604e-02
4.18932692307692e-01 1.69970207764926e+00 1.74321824007166e-02
4.20913461538462e-01 1.68849583660345e+00 1.73581421305401e-02
4.22894230769231e-01 1.67736347900432e+00 1.72842249437280e-02
4.24875000000000e-01 1.66630451773358e+00 1.72104337389669e-02
4.26855769230769e-01 1.65531846886110e+00 1.71367713342291e-02
4.28836538461538e-01 1.64440485169457e+00 1.70632404845376e-02
4.30817307692308e-01 1.63356318868714e+00 1.69898438999136e-02
4.32798076923077e-01 1.62279300544045e+00 1.69165842289867e-02
4.34778846153846e-01 1.61209383066142e+00 1.68434640445567e-02
4.36759615384615e-01 1.60146519620947e+00 1.67704858607122e-02
4.38740384615385e-01 1.59090663700772e+00 1.66976521501228e-02
4.40721153846154e-01 1.58041769104558e+00 1.66249653204858e-02
4.42701923076923e-01 1.56999789935854e+00 1.65524277313307e-02
4.44682692307692e-01 1.55964680598684e+00 1.64800416720527e-02
4.46663461538462e-01 1.54936395801962e+00 1.64078093782068e-02
4.48644230769231e-01 1.53914890551057e+00 1.63357330479768e-02
4.50625000000000e-01 1.52900120147992e+00 1.62638148269862e-02
4.52605769230769e-01 1.51892040187458e+00 1.61920567949001e-02
4.54586538461538e-01 1.50890606560998e+00 1.61204609811348e-02
4.56567307692308e-01 1.49895775448909e+00 1.60490293807378e-02
4.58548076923077e-01 1.48907503320393e+00 1.59777639396831e-02
4.60528846153846e-01 1.47925746929710e+00 1.59066665418867e-02
4.62509615384615e-01 1.46950463320157e+00 1.58357390243583e-02
4.64490384615385e-01 1.45981609816277e+00 1.57649831925182e-02
4.66471153846154e-01 1.45019144023973e+00 1.56944007991051e-02
4.68451923076923e-01 1.44063023828658e+00 1.56239935590573e-02
4.70432692307692e-01 1.43113207391568e+00 1.55537631298248e-02
4.72413461538462e-01 1.42169653153488e+00 1.54837111258097e-02
4.74394230769231e-01 1.41232319827343e+00 1.54138391329676e-02
4.76375000000000e-01 1.40301166398264e+00 1.53441486951741e-02
4.78355769230769e-01 1.39376152120035e+00 1.52746413021747e-02
4.80336538461538e-01 1.38457236518632e+00 1.52053184035192e-02
4.82317307692308e-01 1.37544379385089e+00 1.51361814226527e-02
4.84298076923077e-01 1.36637540775545e+00 1.50672317437134e-02
4.86278846153846e-01 1.35736681007798e+00 1.49984706998575e-02
4.88259615384615e-01 1.34841760664677e+00 1.49298995867069e-02
4.90240384615385e-01 1.33952740587178e+00 1.48615196759488e-02
4.92221153846154e-01 1.33069581874476e+00 1.47933321964320e-02
4.94201923076923e-01 1.32192245882221e+00 1.47253383473841e-02
4.96182692307692e-01 1.31320694219247e+00 1.46575392807496e-02
4.98163461538462e-01 1.30454888750727e+00 1.45899361140192e-02
5.00144230769231e-01 1.29594791591634e+00 1.45225299432082e-02
5.02125000000000e-01 1.28740365106723e+00 1.44553218306138e-02
5.04105769230769e-01 1.27891571907346e+00 1.43883127939751e-02
5.06086538461539e-01 1.27048374854448e+00 1.43215038188611e-02
5.08067307692308e-01 1.26210737052280e+00 1.42548958712029e-02
5.10048076923077e-01 1.25378621848350e+00 1.41884898854365e-02
5.12028846153846e-01 1.24551992830346e+00 1.41222867540009e-02
5.14009615384615e-01 1.23730813828987e+00 1.40562873392998e-02
5.15990384615385e-01 1.22915048911969e+00 1.39904924858056e-02
5.17971153846154e-01 1.22104662383890e+00 1.39249030031008e-02
5.19951923076923e-01 1.21299618784691e+00 1.38595196776444e-02
5.21932692307692e-01 1.20499882886709e+00 1.37943432569156e-02
5.23913461538462e-01 1.19705419697347e+00 1.37293744608352e-02
5.25894230769231e-01 1.18916194453302e+00 1.36646139933265e-02
5.27875000000000e-01 1.18132172620470e+00 1.36000625313143e-02
5.29855769230769e-01 1.17353319891092e+00 1.35357207149698e-02
5.31836538461538e-01 1.16579602186298e+00 1.34715891587472e-02
5.33817307692308e-01 1.15810985650546e+00 1.34076684625511e-02
5.35798076923077e-01 1.15047436651505e+00 1.33439592010828e-02
5.37778846153846e-01 1.14288921777300e+00 1.32804619143867e-02
5.39759615384615e-01 1.13535407838928e+00 1.32171771185131e-02
5.41740384615385e-01 1.12786861864905e+00 1.31541053163125e-02
5.43721153846154e-01 1.12043251101126e+00 1.30912469822069e-02
5.45701923076923e-01 1.11304543009438e+00 1.30286025726843e-02
5.47682692307692e-01 1.10570705264994e+00 1.29661725120544e-02
5.49663461538462e-01 1.09841705758522e+00 1.29039572026366e-02
5.51644230769231e-01 1.09117512591214e+00 1.28419570350739e-02
5.53625000000000e-01 1.08398094074570e+00 1.27801723784423e-02
5.55605769230769e-01 1.07683418727847e+00 1.27186035714712e-02
5.57586538461538e-01 1.06973455280210e+00 1.26572509323891e-02
5.59567307692308e-01 1.06268172665812e+00 1.25961147688947e-02
5.61548076923077e-01 1.05567540023624e+00 1.25351953685767e-02
5.63528846153846e-01 1.04871526694958e+00 1.24744929903998e-02
5.65509615384615e-01 1.04180102225528e+00 1.24140078742279e-02
5.67490384615385e-01 1.03493236360697e+00 1.23537402504634e-02
5.69471153846154e-01 1.02810899045295e+00 1.22936903263632e-02
5.71451923076923e-01 1.02133060422310e+00 1.22338582954171e-02
5.73432692307692e-01 1.01459690830510e+00 1.21742443245364e-02
5.75413461538462e-01 1.00790760806373e+00 1.21148485631566e-02
5.77394230769231e-01 1.00126241079548e+00 1.20556711524579e-02
5.79375000000000e-01 9.94661025726674e-01 1.19967122164655e-02
5.81355769230769e-01 9.88103163990427e-01 1.19379718541399e-02
5.83336538461538e-01 9.81588538645069e-01 1.18794501481793e-02
5.85317307692308e-01 9.75116864630344e-01 1.18211471739327e-02
5.87298076923077e-01 9.68687858765417e-01 1.17630629907793e-02
5.89278846153846e-01 9.62301239726603e-01 1.17051976344629e-02
5.91259615384615e-01 9.55956728064884e-01 1.16475511256025e-02
5.93240384615385e-01 9.49654046163669e-01 1.15901234783139e-02
5.95221153846154e-01 9.43392918236701e-01 1.15329146879088e-02
5.97201923076923e-01 9.37173070316011e-01 1.14759247392809e-02
5.99182692307692e-01 9.30994230230521e-01 1.14191535953809e-02
6.01163461538462e-01 9.24856127622494e-01 1.13626012053612e-02
6.03144230769231e-01 9.18758493907168e-01 1.13062675128265e-02
6.05125000000000e-01 9.12701062270582e-01 1.12501524478218e-02
6.07105769230769e-01 9.06683567648865e-01 1.11942559197039e-02
6.09086538461538e-01 9.00705746743899e-01 1.11385778250211e-02
6.11067307692308e-01 8.94767337984368e-01 1.10831180554931e-02
6.13048076923077e-01 8.88868081523511e-01 1.10278764902475e-02
6.15028846153846e-01 8.83007719219068e-01 1.09728529889103e-02
6.17009615384615e-01 8.77185994648204e-01 1.09180473992274e-02
6.18990384615385e-01 8.71402653069909e-01 1.08634595647847e-02
6.20971153846154e-01 8.65657441422689e-01 1.08090893139405e-02
6.22951923076923e-01 8.59950108313508e-01 1.07549364673370e-02
6.24932692307692e-01 8.54280403998517e-01 1.07010008275220e-02
