Energy (eV)          EEDF (eV^-(3/2))     First Anisotropy
4.35294117647059e-04 1.25465616808099e+02 7.15674596563123e-02
1.30588235294118e-03 1.22948048270215e+02 1.17387179722989e-01
2.17647058823529e-03 1.20480996770467e+02 1.52882819027837e-01
3.04705882352941e-03 1.18063448641533e+02 1.78615135530019e-01
3.91764705882353e-03 1.15694410563011e+02 1.99078413933565e-01
4.78823529411765e-03 1.13372909138279e+02 2.16007257518323e-01
5.65882352941176e-03 1.11097990508422e+02 2.30316912993182e-01
6.52941176470588e-03 1.08868719950295e+02 2.42570452178577e-01
7.40000000000000e-03 1.06684181500102e+02 2.53148072111525e-01
8.27058823529412e-03 1.04543477570826e+02 2.62323169813317e-01
9.14117647058824e-03 1.02445728588620e+02 2.70301511468556e-01
1.00117647058824e-02 1.00390072626955e+02 2.77243408668092e-01
1.08823529411765e-02 9.83756650577769e+01 2.83277190553488e-01
1.17529411764706e-02 9.64016781923720e+01 2.88507847978343e-01
1.26235294117647e-02 9.44673009641057e+01 2.93022827123456e-01
1.34941176470588e-02 9.25717385731189e+01 2.96896053977177e-01
1.43647058823529e-02 9.07142121629336e+01 3.00190816331265e-01
1.52352941176471e-02 8.88939585164914e+01 3.02961879164413e-01
1.61058823529412e-02 8.71102297253757e+01 3.05257072303517e-01
1.69764705882353e-02 8.53622928846640e+01 3.07118505982020e-01
1.78470588235294e-02 8.36494298043680e+01 3.08583515761109e-01
1.87176470588235e-02 8.19709367009917e+01 3.09685408634855e-01
1.95882352941176e-02 8.03261239098155e+01 3.10454060870149e-01
2.04588235294118e-02 7.87143156117289e+01 3.10916401467889e-01
2.13294117647059e-02 7.71348495448379e+01 3.11096807892695e-01
2.22000000000000e-02 7.55870767333866e+01 3.11017433902880e-01
2.30705882352941e-02 7.40703612295400e+01 3.10698482309090e-01
2.39411764705882e-02 7.25840798408131e+01 3.10158434656184e-01
2.48117647058824e-02 7.11276218847829e+01 3.09414245883000e-01
2.56823529411765e-02 6.97003889301536e+01 3.08481510056269e-01
2.65529411764706e-02 6.83017945515625e+01 3.07374603324937e-01
2.74235294117647e-02 6.69312640951147e+01 3.06106806877109e-01
2.82941176470588e-02 6.55882344355312e+01 3.04690413734181e-01
2.91647058823529e-02 6.42721537453336e+01 3.03136822503560e-01
3.00352941176471e-02 6.29824812736210e+01 3.01456619150542e-01
3.09058823529412e-02 6.17186871181570e+01 2.99659649060366e-01
3.17764705882353e-02 6.04802520081095e+01 2.97755081267998e-01
3.26470588235294e-02 5.92666670954170e+01 2.95751465093542e-01
3.35176470588235e-02 5.80774337408106e+01 2.93656780652909e-01
3.43882352941177e-02 5.69120633093034e+01 2.91478484470313e-01
3.52588235294118e-02 5.57700769735164e+01 2.89223550041221e-01
3.61294117647059e-02 5.46510055127042e+01 2.86898504370888e-01
3.70000000000000e-02 5.35543891202605e+01 2.84509461349624e-01
3.78705882352941e-02 5.24797772183654e+01 2.82062151589889e-01
3.87411764705882e-02 5.14267282680898e+01 2.79561949721538e-01
3.96117647058824e-02 5.03948095925717e+01 2.77013899241612e-01
4.04823529411765e-02 4.93835971958089e+01 2.74422735015873e-01
4.13529411764706e-02 4.83926755886756e+01 2.71792904213851e-01
4.22235294117647e-02 4.74216376211285e+01 2.69128585186812e-01
4.30941176470588e-02 4.64700843119076e+01 2.66433704813680e-01
4.39647058823529e-02 4.55376246848016e+01 2.63711954751138e-01
4.48352941176471e-02 4.46238756105778e+01 2.60966806129792e-01
4.57058823529412e-02 4.37284616469088e+01 2.58201523133987e-01
4.65764705882353e-02 4.28510148842846e+01 2.55419175824944e-01
4.74470588235294e-02 4.19911747971219e+01 2.52622651760414e-01
4.83176470588235e-02 4.11485880932876e+01 2.49814666784054e-01
4.91882352941177e-02 4.03229085690841e+01 2.46997775288972e-01
5.00588235294118e-02 3.95137969690249e+01 2.44174379528747e-01
5.09294117647059e-02 3.87209208443625e+01 2.41346738299524e-01
5.18000000000000e-02 3.79439544166144e+01 2.38516975256382e-01
5.26705882352941e-02 3.71825784455137e+01 2.35687086437244e-01
5.35411764705882e-02 3.64364800954345e+01 2.32858947421824e-01
5.44117647058824e-02 3.57053528091845e+01 2.30034320022363e-01
5.52823529411765e-02 3.49888961803067e+01 2.27214858449754e-01
5.61529411764706e-02 3.42868158297486e+01 2.24402115308054e-01
5.70235294117647e-02 3.35988232864250e+01 2.21597547029007e-01
5.78941176470588e-02 3.29246358671348e+01 2.18802518985203e-01
5.87647058823529e-02 3.22639765605011e+01 2.16018310472356e-01
5.96352941176471e-02 3.16165739145134e+01 2.13246119221037e-01
6.05058823529412e-02 3.09821619235968e+01 2.10487065653150e-01
6.13764705882353e-02 3.03604799193962e+01 2.07742197053492e-01
6.22470588235294e-02 2.97512724648939e+01 2.05012491341435e-01
6.31176470588235e-02 2.91542892482027e+01 2.02298860637629e-01
6.39882352941177e-02 2.85692849797869e+01 1.99602154779313e-01
6.48588235294118e-02 2.79960192927786e+01 1.96923164492431e-01
6.57294117647059e-02 2.74342566430884e+01 1.94262624397510e-01
6.66000000000000e-02 2.68837662126846e+01 1.91621215988655e-01
6.74705882352941e-02 2.63443218157492e+01 1.88999570300326e-01
6.83411764705882e-02 2.58157018044189e+01 1.86398270513269e-01
6.92117647058824e-02 2.52976889790002e+01 1.83817854415104e-01
7.00823529411765e-02 2.47900704977659e+01 1.81258816670505e-01
7.09529411764706e-02 2.42926377895532e+01 1.78721611106744e-01
7.18235294117647e-02 2.38051864689138e+01 1.76206652760250e-01
7.26941176470588e-02 2.33275162512685e+01 1.73714319824925e-01
7.35647058823529e-02 2.28594308706592e+01 1.71244955611810e-01
7.44352941176471e-02 2.24007379998754e+01 1.68798870297914e-01
7.53058823529412e-02 2.19512491706441e+01 1.66376342593523e-01
7.61764705882353e-02 2.15107796962333e+01 1.63977621428132e-01
7.70470588235294e-02 2.10791485962644e+01 1.61602927449403e-01
7.79176470588235e-02 2.06561785216375e+01 1.59252454454080e-01
7.87882352941176e-02 2.02416956816992e+01 1.56926370842641e-01
7.96588235294118e-02 1.98355297734678e+01 1.54624820907447e-01
8.05294117647059e-02 1.94375139110126e+01 1.52347926063709e-01
8.14000000000000e-02 1.90474845569153e+01 1.50095786107731e-01
8.22705882352941e-02 1.86652814556518e+01 1.47868480316546e-01
8.31411764705882e-02 1.82907475669798e+01 1.45666068547728e-01
8.40117647058824e-02 1.79237290021598e+01 1.43488592280578e-01
8.48823529411765e-02 1.75640749601684e+01 1.41336075568891e-01
8.57529411764706e-02 1.72116376657637e+01 1.39208526033871e-01
8.66235294117647e-02 1.68662723092645e+01 1.37105935731760e-01
8.74941176470588e-02 1.65278369865432e+01 1.35028281985054e-01
8.83647058823529e-02 1.61961926407453e+01 1.32975528245548e-01
8.92352941176471e-02 1.58712030056058e+01 1.30947624844281e-01
9.01058823529412e-02 1.55527345489980e+01 1.28944509710630e-01
9.09764705882353e-02 1.52406564180898e+01 1.26966109123381e-01
9.18470588235294e-02 1.49348403859925e+01 1.25012338359485e-01
9.27176470588235e-02 1.46351607986523e+01 1.23083102316536e-01
9.35882352941177e-02 1.43414945232418e+01 1.21178296167001e-01
9.44588235294118e-02 1.40537208979449e+01 1.19297805919691e-01
9.53294117647059e-02 1.37717216819934e+01 1.17441508958794e-01
9.62000000000000e-02 1.34953810071029e+01 1.15609274614102e-01
9.70705882352941e-02 1.32245853302091e+01 1.13800964640651e-01
9.79411764705882e-02 1.29592233863566e+01 1.12016433710825e-01
9.88117647058824e-02 1.26991861434291e+01 1.10255529879074e-01
9.96823529411765e-02 1.24443667570163e+01 1.08518095005815e-01
1.00552941176471e-01 1.21946605266273e+01 1.06803965205122e-01
1.01423529411765e-01 1.19499648528609e+01 1.05112971159686e-01
1.02294117647059e-01 1.17101791939272e+01 1.03444938674167e-01
1.03164705882353e-01 1.14752050273731e+01 1.01799688936646e-01
1.04035294117647e-01 1.12449458067205e+01 1.00177038766248e-01
1.04905882352941e-01 1.10193069227725e+01 9.85768010916404e-02
1.05776470588235e-01 1.07981956647447e+01 9.69987851672875e-02
1.06647058823529e-01 1.05815211813680e+01 9.54427970237141e-02
1.07517647058824e-01 1.03691944460060e+01 9.39086396455549e-02
1.08388235294118e-01 1.01611282175851e+01 9.23961131664659e-02
1.09258823529412e-01 9.95723700559517e+00 9.09050152141944e-02
1.10129411764706e-01 9.75743703424680e+00 8.94351412507093e-02
1.11000000000000e-01 9.56164621023447e+00 8.79862847094655e-02
1.11870588235294e-01 9.36978408678121e+00 8.65582371492504e-02
1.12741176470588e-01 9.18177183133987e+00 8.51507885451309e-02
1.13611764705882e-01 8.99753219256220e+00 8.37637275760564e-02
1.14482352941176e-01 8.81698947051197e+00 8.23968417286539e-02
1.15352941176471e-01 8.64006948357215e+00 8.10499174171466e-02
1.16223529411765e-01 8.46669953863913e+00 7.97227402284454e-02
1.17094117647059e-01 8.29680840068274e+00 7.84150951651429e-02
1.17964705882353e-01 8.13032626522604e+00 7.71267667218671e-02
1.18835294117647e-01 7.96718472788389e+00 7.58575389771619e-02
1.19705882352941e-01 7.80731675685917e+00 7.46071958334993e-02
1.20576470588235e-01 7.65065666540341e+00 7.33755210869391e-02
1.21447058823529e-01 7.49714008432705e+00 7.21622986550853e-02
1.22317647058824e-01 7.34670393707283e+00 7.09673126263727e-02
1.23188235294118e-01 7.19928641225068e+00 6.97903473239806e-02
1.24058823529412e-01 7.05482693876674e+00 6.86311874710915e-02
1.24929411764706e-01 6.91326616048795e+00 6.74896183560237e-02
1.25800000000000e-01 6.77454591321810e+00 6.63654258640034e-02
1.26670588235294e-01 6.63860919941112e+00 6.52583965228586e-02
1.27541176470588e-01 6.50540016522284e+00 6.41683176412614e-02
1.28411764705882e-01 6.37486407716052e+00 6.30949774473943e-02
1.29282352941176e-01 6.24694730081816e+00 6.20381651064724e-02
1.30152941176471e-01 6.12159727759357e+00 6.09976707514469e-02
1.31023529411765e-01 5.99876250351502e+00 5.99732855982307e-02
1.31894117647059e-01 5.87839250771952e+00 5.89648020617767e-02
1.32764705882353e-01 5.76043783281465e+00 5.79720137620560e-02
1.33635294117647e-01 5.64485001343912e+00 5.69947155424643e-02
1.34505882352941e-01 5.53158155672747e+00 5.60327035880865e-02
1.35376470588235e-01 5.42058592279784e+00 5.50857754318264e-02
1.36247058823529e-01 5.31181750531365e+00 5.41537300678385e-02
1.37117647058824e-01 5.20523161370537e+00 5.32363679463986e-02
1.37988235294118e-01 5.10078445383105e+00 5.23334909802582e-02
1.38858823529412e-01 4.99843311031401e+00 5.14449026195685e-02
1.39729411764706e-01 4.89813552862601e+00 5.05704079282899e-02
1.40600000000000e-01 4.79985049867174e+00 4.97098135720268e-02
1.41470588235294e-01 4.70353763697779e+00 4.88629278166386e-02
1.42341176470588e-01 4.60915737039779e+00 4.80295605895040e-02
1.43211764705882e-01 4.51667091959775e+00 4.72095235424238e-02
1.44082352941176e-01 4.42604028389970e+00 4.64026300339146e-02
1.44952941176471e-01 4.33722822487734e+00 4.56086951215867e-02
1.45823529411765e-01 4.25019825132327e+00 4.48275356117805e-02
1.46694117647059e-01 4.16491460402629e+00 4.40589701109497e-02
1.47564705882353e-01 4.08134224177856e+00 4.33028190036443e-02
1.48435294117647e-01 3.99944682626603e+00 4.25589044399280e-02
1.49305882352941e-01 3.91919470820023e+00 4.18270503903804e-02
1.50176470588235e-01 3.84055291349328e+00 4.11070826265882e-02
1.51047058823529e-01 3.76348912950773e+00 4.03988287745883e-02
1.51917647058824e-01 3.68797169239347e+00 3.97021182890345e-02
1.52788235294118e-01 3.61396957345377e+00 3.90167824359910e-02
1.53658823529412e-01 3.54145236660798e+00 3.83426543222734e-02
1.54529411764706e-01 3.47039027571660e+00 3.76795689266409e-02
1.55400000000000e-01 3.40075410289175e+00 3.70273630717181e-02
1.56270588235294e-01 3.33251523593792e+00 3.63858754039599e-02
1.57141176470588e-01 3.26564563678644e+00 3.57549464161828e-02
1.58011764705882e-01 3.20011782981152e+00 3.51344184719363e-02
1.58882352941176e-01 3.13590489103999e+00 3.45241357758598e-02
1.59752941176471e-01 3.07298043658151e+00 3.39239443515287e-02
1.60623529411765e-01 3.01131861195964e+00 3.33336920582256e-02
1.61494117647059e-01 2.95089408134132e+00 3.27532286095324e-02
1.62364705882353e-01 2.89168201757709e+00 3.21824055426808e-02
1.63235294117647e-01 2.83365809154231e+00 3.16210761948676e-02
1.64105882352941e-01 2.77679846229563e+00 3.10690957254906e-02
1.64976470588235e-01 2.72107976728371e+00 3.05263210885349e-02
1.65847058823529e-01 2.66647911261180e+00 2.99926110547010e-02
1.66717647058824e-01 2.61297406403292e+00 2.94678261802129e-02
1.67588235294118e-01 2.56054263732770e+00 2.89518287819704e-02
1.68458823529412e-01 2.50916328940799e+00 2.84444829444109e-02
1.69329411764706e-01 2.45881490934781e+00 2.79456545280983e-02
1.70200000000000e-01 2.40947681006680e+00 2.74552111384318e-02
1.71070588235294e-01 2.36112871946688e+00 2.69730221002469e-02
1.71941176470588e-01 2.31375077222597e+00 2.64989584614309e-02
1.72811764705882e-01 2.26732350152976e+00 2.60328929982063e-02
1.73682352941176e-01 2.22182783139625e+00 2.55747001840323e-02
1.74552941176471e-01 2.17724506850938e+00 2.51242561639709e-02
1.75423529411765e-01 2.13355689464950e+00 2.46814387556062e-02
1.76294117647059e-01 2.09074535907101e+00 2.42461274515696e-02
1.77164705882353e-01 2.04879287141891e+00 2.38182033888642e-02
1.78035294117647e-01 2.00768219420434e+00 2.33975493232580e-02
1.78905882352941e-01 1.96739643582239e+00 2.29840496349853e-02
1.79776470588235e-01 1.92791904361200e+00 2.25775903009165e-02
1.80647058823529e-01 1.88923379697014e+00 2.21780589007430e-02
1.81517647058824e-01 1.85132480094445e+00 2.17853445871351e-02
1.82388235294118e-01 1.81417647944074e+00 2.13993380605047e-02
1.83258823529412e-01 1.77777356891180e+00 2.10199315654382e-02
1.84129411764706e-01 1.74210111200938e+00 2.06470188885849e-02
1.85000000000000e-01 1.70714445167142e+00 2.02804953295944e-02
1.85870588235294e-01 1.67288922486305e+00 1.99202576763181e-02
1.86741176470588e-01 1.63932135675529e+00 1.95662041998536e-02
1.87611764705882e-01 1.60642705487280e+00 1.92182346509731e-02
1.88482352941176e-01 1.57419280363763e+00 1.88762502319418e-02
1.89352941176471e-01 1.54260535860171e+00 1.85401535722878e-02
1.90223529411765e-01 1.51165174107744e+00 1.82098487227406e-02
1.91094117647059e-01 1.48131923274247e+00 1.78852411504835e-02
1.91964705882353e-01 1.45159537060485e+00 1.75662377119302e-02
1.92835294117647e-01 1.42246794168824e+00 1.72527466291616e-02
1.93705882352941e-01 1.39392497807945e+00 1.69446774877720e-02
1.94576470588235e-01 1.36595475201121e+00 1.66419412120633e-02
1.95447058823529e-01 1.33854577098803e+00 1.63444500635576e-02
1.96317647058824e-01 1.31168677323272e+00 1.60521176150798e-02
1.97188235294118e-01 1.28536672288783e+00 1.57648587281549e-02
1.98058823529412e-01 1.25957480553937e+00 1.54825895452593e-02
1.98929411764706e-01 1.23430042372317e+00 1.52052274832334e-02
1.99800000000000e-01 1.20953319272330e+00 1.49326912084155e-02
2.00670588235294e-01 1.18526293615000e+00 1.46649006148441e-02
2.01541176470588e-01 1.16147968181101e+00 1.44017768160668e-02
2.02411764705882e-01 1.13817365756872e+00 1.41432421380451e-02
2.03282352941176e-01 1.11533528746344e+00 1.38892200953574e-02
2.04152941176471e-01 1.09295518763813e+00 1.36396353702395e-02
2.05023529411765e-01 1.07102416253041e+00 1.33944138040925e-02
2.05894117647059e-01 1.04953320105309e+00 1.31534823900234e-02
2.06764705882353e-01 1.02847347301721e+00 1.29167692501201e-02
2.07635294117647e-01 1.00783632537638e+00 1.26842036153536e-02
2.08505882352941e-01 9.87613278714484e-01 1.24557158201630e-02
2.09376470588235e-01 9.67796023761809e-01 1.22312372816811e-02
2.10247058823529e-01 9.48376417944401e-01 1.20107004949856e-02
2.11117647058824e-01 9.29346482149414e-01 1.17940390117279e-02
2.11988235294118e-01 9.10698397333908e-01 1.15811874211422e-02
2.12858823529412e-01 8.92424501350377e-01 1.13720813412583e-02
2.13729411764706e-01 8.74517285765434e-01 1.11666574110162e-02
2.14600000000000e-01 8.56969392875424e-01 1.09648532699460e-02
2.15470588235294e-01 8.39773612581002e-01 1.07666075400448e-02
2.16341176470588e-01 8.22922879459283e-01 1.05718598170082e-02
2.17211764705882e-01 8.06410269830809e-01 1.03805506623076e-02
2.18082352941176e-01 7.90228999006102e-01 1.01926215838983e-02
2.18952941176471e-01 7.74372418405155e-01 1.00080150189582e-02
2.19823529411765e-01 7.58834012857060e-01 9.82667432520217e-03
2.20694117647059e-01 7.43607397895857e-01 9.64854377298872e-03
2.21564705882353e-01 7.28686317220214e-01 9.47356852703057e-03
2.22435294117647e-01 7.14064640038581e-01 9.30169462998246e-03
2.23305882352941e-01 6.99736358578651e-01 9.13286899612375e-03
2.24176470588235e-01 6.85695585618948e-01 8.96703939459627e-03
2.25047058823529e-01 6.71936552045726e-01 8.80415444367565e-03
2.25917647058824e-01 6.58453604555996e-01 8.64416359370705e-03
2.26788235294118e-01 6.45241203260089e-01 8.48701711173983e-03
2.27658823529412e-01 6.32293919430705e-01 8.33266607319182e-03
2.28529411764706e-01 6.19606433250440e-01 8.18106235419788e-03
2.29400000000000e-01 6.07173531692673e-01 8.03215861547728e-03
2.30270588235294e-01 5.94990106311882e-01 7.88590828777195e-03
2.31141176470588e-01 5.83051151167623e-01 7.74226556372906e-03
2.32011764705882e-01 5.71351760747799e-01 7.60118539042413e-03
2.32882352941176e-01 5.59887128013665e-01 7.46262345412722e-03
2.33752941176471e-01 5.48652542363168e-01 7.32653616651845e-03
2.34623529411765e-01 5.37643387716269e-01 7.19288065681427e-03
2.35494117647059e-01 5.26855140600232e-01 7.06161476449267e-03
2.36364705882353e-01 5.16283368346069e-01 6.93269702492094e-03
2.37235294117647e-01 5.05923727211322e-01 6.80608665632331e-03
2.38105882352941e-01 4.95771960614203e-01 6.68174355370182e-03
2.38976470588235e-01 4.85823897384693e-01 6.55962827563683e-03
2.39847058823529e-01 4.76075450034633e-01 6.43970203869988e-03
2.40717647058824e-01 4.66522613127065e-01 6.32192670411646e-03
2.41588235294118e-01 4.57161461580902e-01 6.20626476564080e-03
2.42458823529412e-01 4.47988149074981e-01 6.09267934228168e-03
2.43329411764706e-01 4.38998906453106e-01 5.98113417154186e-03
2.44200000000000e-01 4.30190040219747e-01 5.87159359686082e-03
2.45070588235294e-01 4.21557930977387e-01 5.76402255617632e-03
2.45941176470588e-01 4.13099031954637e-01 5.65838657493641e-03
2.46811764705882e-01 4.04809867535690e-01 5.55465175959043e-03
2.47682352941176e-01 3.96687031872609e-01 5.45278478577480e-03
2.48552941176471e-01 3.88727187444943e-01 5.35275288753271e-03
2.49423529411765e-01 3.80927063702277e-01 5.25452385061629e-03
2.50294117647059e-01 3.73283455708381e-01 5.15806600623529e-03
2.51164705882353e-01 3.65793222861059e-01 5.06334821995060e-03
2.52035294117647e-01 3.58453287564473e-01 4.97033988152230e-03
2.52905882352941e-01 3.51260633977210e-01 4.87901089955736e-03
2.53776470588235e-01 3.44212306773163e-01 4.78933169129181e-03
2.54647058823529e-01 3.37305409916524e-01 4.70127317763289e-03
2.55517647058824e-01 3.30537105504439e-01 4.61480677289296e-03
2.56388235294118e-01 3.23904612567884e-01 4.52990437538670e-03
2.57258823529412e-01 3.17405205940226e-01 4.44653836138205e-03
2.58129411764706e-01 3.11036215127768e-01 4.36468157943280e-03
2.59000000000000e-01 3.04795023242127e-01 4.28430734074163e-03
2.59870588235294e-01 2.98679065894908e-01 4.20538941031961e-03
2.60741176470588e-01 2.92685830154241e-01 4.12790200122398e-03
2.61611764705882e-01 2.86812853503403e-01 4.05181976915092e-03
2.62482352941176e-01 2.81057722855989e-01 3.97711780339428e-03
2.63352941176471e-01 2.75418073537032e-01 3.90377161854006e-03
2.64223529411765e-01 2.69891588320674e-01 3.83175714898530e-03
2.65094117647059e-01 2.64475996470000e-01 3.76105074378761e-03
2.65964705882353e-01 2.59169072828588e-01 3.69162915818771e-03
2.66835294117647e-01 2.53968636881309e-01 3.62346954581087e-03
2.67705882352941e-01 2.48872551866815e-01 3.55654945418680e-03
2.68576470588235e-01 2.43878723899608e-01 3.49084681693885e-03
2.69447058823529e-01 2.38985101102529e-01 3.42633994961320e-03
2.70317647058824e-01 2.34189672785482e-01 3.36300754186585e-03
2.71188235294118e-01 2.29490468597146e-01 3.30082865026368e-03
2.72058823529412e-01 2.24885557722890e-01 3.23978269340836e-03
2.72929411764706e-01 2.20373048084913e-01 3.17984944734141e-03
2.73800000000000e-01 2.15951085584683e-01 3.12100903822641e-03
2.74670588235294e-01 2.11617853320964e-01 3.06324193559843e-03
