Energy (eV)          EEDF (eV^-(3/2))     First Anisotropy
3.40909090909091e-02 6.72979752740026e-02 4.38002593903437e-05
1.02272727272727e-01 6.65987201395973e-02 7.21936256098237e-05
1.70454545454545e-01 6.59067305707143e-02 9.49519392214806e-05
2.38636363636364e-01 6.52219310700095e-02 1.12028981204407e-04
3.06818181818182e-01 6.45442469341462e-02 1.26096569837123e-04
3.75000000000000e-01 6.38736042308228e-02 1.38170209354271e-04
4.43181818181818e-01 6.32099297962218e-02 1.48778054529155e-04
5.11363636363636e-01 6.25531512268786e-02 1.58240597548145e-04
5.79545454545454e-01 6.19031968717131e-02 1.66771414721408e-04
6.47727272727273e-01 6.12599958231241e-02 1.74522173180500e-04
7.15909090909091e-01 6.06234779124629e-02 1.81605671305147e-04
7.84090909090909e-01 5.99935736989813e-02 1.88108809278907e-04
8.52272727272727e-01 5.93702144634461e-02 1.94100423606859e-04
9.20454545454545e-01 5.87533322006784e-02 1.99636285246459e-04
9.88636363636364e-01 5.81428596114740e-02 2.04762429872870e-04
1.05681818181818e+00 5.75387300989129e-02 2.09517458719354e-04
1.12500000000000e+00 5.69408777528054e-02 2.13934174977982e-04
1.19318181818182e+00 5.63492373507673e-02 2.18040777961519e-04
1.26136363636364e+00 5.57637443480954e-02 2.21861754944928e-04
1.32954545454545e+00 5.51843348707581e-02 2.25418558012063e-04
1.39772727272727e+00 5.46109457126003e-02 2.28730129055639e-04
1.46590909090909e+00 5.40435143155671e-02 2.31813309845612e-04
1.53409090909091e+00 5.34819787760194e-02 2.34683167853660e-04
1.60227272727273e+00 5.29262778334719e-02 2.37353260322627e-04
1.67045454545455e+00 5.23763508640026e-02 2.39835847163155e-04
1.73863636363636e+00 5.18321378767647e-02 2.42142067452414e-04
1.80681818181818e+00 5.12935794977616e-02 2.44282084047804e-04
1.87500000000000e+00 5.07606169732167e-02 2.46265204237052e-04
1.94318181818182e+00 5.02331921598112e-02 2.48099982931650e-04
2.01136363636364e+00 4.97112475183590e-02 2.49794308807766e-04
2.07954545454545e+00 4.91947261075404e-02 2.51355477774907e-04
2.14772727272727e+00 4.86835715800900e-02 2.52790257127152e-04
2.21590909090909e+00 4.81777281693031e-02 2.54104939502406e-04
2.28409090909091e+00 4.76771406904100e-02 2.55305389575103e-04
2.35227272727273e+00 4.71817545320146e-02 2.56397086165611e-04
2.42045454545455e+00 4.66915156501732e-02 2.57385157724302e-04
2.48863636363636e+00 4.62063705644426e-02 2.58274414792585e-04
2.55681818181818e+00 4.57262663460767e-02 2.59069377425861e-04
2.62500000000000e+00 4.52511506183044e-02 2.59774299415082e-04
2.69318181818182e+00 4.47809715485639e-02 2.60393191085858e-04
2.76136363636364e+00 4.43156778428553e-02 2.60929838644290e-04
2.82954545454545e+00 4.38552187401503e-02 2.61387821504700e-04
2.89772727272727e+00 4.33995440084329e-02 2.61770528717410e-04
2.96590909090909e+00 4.29486039344048e-02 2.62081172684804e-04
3.03409090909091e+00 4.25023493229389e-02 2.62322801489485e-04
3.10227272727273e+00 4.20607314900568e-02 2.62498311162352e-04
3.17045454545455e+00 4.16237022576362e-02 2.62610455743073e-04
3.23863636363636e+00 4.11912139494847e-02 2.62661857432207e-04
3.30681818181818e+00 4.07632193820717e-02 2.62655014878765e-04
3.37500000000000e+00 4.03396718634981e-02 2.62592310708807e-04
3.44318181818182e+00 3.99205251870093e-02 2.62476019417632e-04
3.51136363636364e+00 3.95057336259586e-02 2.62308313823450e-04
3.57954545454545e+00 3.90952519288216e-02 2.62091271014057e-04
3.64772727272727e+00 3.86890353153746e-02 2.61826878521057e-04
3.71590909090909e+00 3.82870394684154e-02 2.61517039155474e-04
3.78409090909091e+00 3.78892205323620e-02 2.61163575441920e-04
3.85227272727273e+00 3.74955351073053e-02 2.60768234611385e-04
3.92045454545454e+00 3.71059402442849e-02 2.60332692369290e-04
3.98863636363636e+00 3.67203934415653e-02 2.59858557202361e-04
4.05681818181818e+00 3.63388526370655e-02 2.59347373600461e-04
4.12500000000000e+00 3.59612762067369e-02 2.58800625028093e-04
4.19318181818182e+00 3.55876229590203e-02 2.58219737503131e-04
4.26136363636364e+00 3.52178521303547e-02 2.57606082300343e-04
4.32954545454545e+00 3.48519233807315e-02 2.56960978492070e-04
4.39772727272727e+00 3.44897967901169e-02 2.56285695895168e-04
4.46590909090909e+00 3.41314328515954e-02 2.55581457130145e-04
4.53409090909091e+00 3.37767924695883e-02 2.54849439529586e-04
4.60227272727273e+00 3.34258369547333e-02 2.54090777655664e-04
4.67045454545454e+00 3.30785280196706e-02 2.53306564963309e-04
4.73863636363636e+00 3.27348277755869e-02 2.52497856028715e-04
4.80681818181818e+00 3.23946987258852e-02 2.51665668005475e-04
4.87500000000000e+00 3.20581037643144e-02 2.50810981977894e-04
4.94318181818182e+00 3.17250061701717e-02 2.49934744902195e-04
5.01136363636364e+00 3.13953696042982e-02 2.49037870915696e-04
5.07954545454545e+00 3.10691581051157e-02 2.48121242586485e-04
5.14772727272727e+00 3.07463360853294e-02 2.47185712566074e-04
5.21590909090909e+00 3.04268683261445e-02 2.46232104573783e-04
5.28409090909091e+00 3.01107199753447e-02 2.45261214313173e-04
5.35227272727273e+00 2.97978565428410e-02 2.44273810941041e-04
5.42045454545454e+00 2.94882438969133e-02 2.43270637879271e-04
5.48863636363636e+00 2.91818482610419e-02 2.42252414136613e-04
5.55681818181818e+00 2.88786362085344e-02 2.41219835030712e-04
5.62500000000000e+00 2.85785746605843e-02 2.40173572860593e-04
5.69318181818182e+00 2.82816308820871e-02 2.39114278098454e-04
5.76136363636364e+00 2.79877724780701e-02 2.38042580088418e-04
5.82954545454545e+00 2.76969673901591e-02 2.36959087722808e-04
5.89772727272727e+00 2.74091838935679e-02 2.35864390479318e-04
5.96590909090909e+00 2.71243905921599e-02 2.34759058925652e-04
6.03409090909091e+00 2.68425564165148e-02 2.33643645189043e-04
6.10227272727273e+00 2.65636506200356e-02 2.32518683905524e-04
6.17045454545454e+00 2.62876427755969e-02 2.31384692640249e-04
6.23863636363636e+00 2.60145027726610e-02 2.30242172750476e-04
6.30681818181818e+00 2.57442008126702e-02 2.29091609763304e-04
6.37500000000000e+00 2.54767074071315e-02 2.27933473726462e-04
6.44318181818182e+00 2.52119933739494e-02 2.26768220006539e-04
6.51136363636364e+00 2.49500298342429e-02 2.25596289687756e-04
6.57954545454545e+00 2.46907882091956e-02 2.24418109963124e-04
6.64772727272727e+00 2.44342402173223e-02 2.23234094839269e-04
6.71590909090909e+00 2.41803578702177e-02 2.22044645404578e-04
6.78409090909091e+00 2.39291134706799e-02 2.20850150077180e-04
6.85227272727273e+00 2.36804796092920e-02 2.19650985264238e-04
6.92045454545454e+00 2.34344291614338e-02 2.18447515585240e-04
6.98863636363636e+00 2.31909352846685e-02 2.17240094475248e-04
7.05681818181818e+00 2.29499714147638e-02 2.16029064386878e-04
7.12500000000000e+00 2.27115112638540e-02 2.14814756976094e-04
7.19318181818182e+00 2.24755288172156e-02 2.13597493670952e-04
7.26136363636364e+00 2.22419983304291e-02 2.12377585909877e-04
7.32954545454545e+00 2.20108943265712e-02 2.11155335378634e-04
7.39772727272727e+00 2.17821915937431e-02 2.09931034517361e-04
7.46590909090909e+00 2.15558651813863e-02 2.08704966663658e-04
7.53409090909091e+00 2.13318903985033e-02 2.07477406183018e-04
7.60227272727273e+00 2.11102428106459e-02 2.06248618950920e-04
7.67045454545454e+00 2.08908982372510e-02 2.05018862470482e-04
7.73863636363636e+00 2.06738327492815e-02 2.03788386315302e-04
7.80681818181818e+00 2.04590226657699e-02 2.02557432236140e-04
7.87500000000000e+00 2.02464445520879e-02 2.01326234257124e-04
7.94318181818182e+00 2.00360752171033e-02 2.00095019099344e-04
8.01136363636363e+00 1.98278917106494e-02 1.98864006327561e-04
8.07954545454545e+00 1.96218713210222e-02 1.97633408498364e-04
8.14772727272727e+00 1.94179915727512e-02 1.96403431540244e-04
8.21590909090909e+00 1.92162302233930e-02 1.95174274827141e-04
8.28409090909091e+00 1.90165652618664e-02 1.93946131243551e-04
8.35227272727273e+00 1.88189749057942e-02 1.92719187550422e-04
8.42045454545454e+00 1.86234375991280e-02 1.91493624443557e-04
8.48863636363636e+00 1.84299320100231e-02 1.90269616890550e-04
8.55681818181818e+00 1.82384370278241e-02 1.89047334183566e-04
8.62500000000000e+00 1.80489317614554e-02 1.87826939984927e-04
8.69318181818182e+00 1.78613955369083e-02 1.86608592652988e-04
8.76136363636363e+00 1.76758078949858e-02 1.85392445333974e-04
8.82954545454545e+00 1.74921485890713e-02 1.84178646056393e-04
8.89772727272727e+00 1.73103975831226e-02 1.82967338024660e-04
8.96590909090909e+00 1.71305350488705e-02 1.81758659652747e-04
9.03409090909091e+00 1.69525413642768e-02 1.80552744591819e-04
9.10227272727273e+00 1.67763971111843e-02 1.79349722015624e-04
9.17045454545454e+00 1.66020830731994e-02 1.78149716644753e-04
9.23863636363636e+00 1.64295802337807e-02 1.76952849009805e-04
9.30681818181818e+00 1.62588697736025e-02 1.75759235472918e-04
9.37500000000000e+00 1.60899330690688e-02 1.74568988244101e-04
9.44318181818182e+00 1.59227516900906e-02 1.73382215637935e-04
9.51136363636363e+00 1.57573073980753e-02 1.72199022131323e-04
9.57954545454545e+00 1.55935821439377e-02 1.71019508424150e-04
9.64772727272727e+00 1.54315580662973e-02 1.69843771671254e-04
9.71590909090909e+00 1.52712174890242e-02 1.68671905492712e-04
9.78409090909091e+00 1.51125429198208e-02 1.67503999979706e-04
9.85227272727273e+00 1.49555170481418e-02 1.66340141921715e-04
9.92045454545454e+00 1.48001227433064e-02 1.65180414810813e-04
9.98863636363636e+00 1.46463430527819e-02 1.64024899171257e-04
1.00568181818182e+01 1.44941611994180e-02 1.62873672121064e-04
1.01250000000000e+01 1.43435605817528e-02 1.61726807775561e-04
1.01931818181818e+01 1.41945247700515e-02 1.60584377699061e-04
1.02613636363636e+01 1.40470375052913e-02 1.59446450402549e-04
1.03295454545455e+01 1.39010826973898e-02 1.58313092000705e-04
1.03977272727273e+01 1.37566444220682e-02 1.57184365163252e-04
1.04659090909091e+01 1.36137069232922e-02 1.56060329940218e-04
1.05340909090909e+01 1.34722546073346e-02 1.54941044598388e-04
1.06022727272727e+01 1.33322720424915e-02 1.53826564531359e-04
1.06704545454545e+01 1.31937439574038e-02 1.52716943061674e-04
1.07386363636364e+01 1.30566552381202e-02 1.51612230457052e-04
1.08068181818182e+01 1.29209909302903e-02 1.50512474696904e-04
1.08750000000000e+01 1.27867362336539e-02 1.49417722249598e-04
1.09431818181818e+01 1.26538765017312e-02 1.48328017050512e-04
1.10113636363636e+01 1.25223972402258e-02 1.47243400922943e-04
1.10795454545455e+01 1.23922841054447e-02 1.46163913954619e-04
1.11477272727273e+01 1.22635229015855e-02 1.45089593586254e-04
1.12159090909091e+01 1.21360995826606e-02 1.44020475313430e-04
1.12840909090909e+01 1.20100002474588e-02 1.42956593398592e-04
1.13522727272727e+01 1.18852111392068e-02 1.41897979925129e-04
1.14204545454545e+01 1.17617186440721e-02 1.40844665480557e-04
1.14886363636364e+01 1.16395092886195e-02 1.39796678301338e-04
1.15568181818182e+01 1.15185697415409e-02 1.38754044926151e-04
1.16250000000000e+01 1.13988868089706e-02 1.37716790858845e-04
1.16931818181818e+01 1.12804474341322e-02 1.36684939681253e-04
1.17613636363636e+01 1.11632386959152e-02 1.35658513409377e-04
1.18295454545455e+01 1.10472478074659e-02 1.34637532811920e-04
1.18977272727273e+01 1.09324621138341e-02 1.33622016617783e-04
1.19659090909091e+01 1.08188690934923e-02 1.32611982115605e-04
1.20340909090909e+01 1.07064563540423e-02 1.31607445762384e-04
1.21022727272727e+01 1.05952116318472e-02 1.30608422361928e-04
1.21704545454545e+01 1.04851227906962e-02 1.29614925649109e-04
1.22386363636364e+01 1.03761778195948e-02 1.28626967546032e-04
1.23068181818182e+01 1.02683648341321e-02 1.27644558721045e-04
1.23750000000000e+01 1.01616720724813e-02 1.26667709156315e-04
1.24431818181818e+01 1.00560878950259e-02 1.25696427376989e-04
1.25113636363636e+01 9.95160078308999e-03 1.24730720754118e-04
1.25795454545455e+01 9.84819933768264e-03 1.23770595775484e-04
1.26477272727273e+01 9.74587227745046e-03 1.22816057356023e-04
1.27159090909091e+01 9.64460843987803e-03 1.21867109351791e-04
1.27840909090909e+01 9.54439677761645e-03 1.20923755082006e-04
1.28522727272727e+01 9.44522635810253e-03 1.19985996614845e-04
1.29204545454545e+01 9.34708636236847e-03 1.19053835268798e-04
1.29886363636364e+01 9.24996608311772e-03 1.18127270965213e-04
1.30568181818182e+01 9.15385492580511e-03 1.17206302708166e-04
1.31250000000000e+01 9.05874240521203e-03 1.16290929071964e-04
1.31931818181818e+01 8.96461814506547e-03 1.15381147530729e-04
1.32613636363636e+01 8.87147187690650e-03 1.14476954717081e-04
1.33295454545455e+01 8.77929343897058e-03 1.13578346653315e-04
1.33977272727273e+01 8.68807277440270e-03 1.12685318150908e-04
1.34659090909091e+01 8.59779993220572e-03 1.11797863252444e-04
1.35340909090909e+01 8.50846506409056e-03 1.10915975680643e-04
1.36022727272727e+01 8.42005842409532e-03 1.10039648216907e-04
1.36704545454545e+01 8.33257036752392e-03 1.09168873132729e-04
1.37386363636364e+01 8.24599134926712e-03 1.08303641625655e-04
1.38068181818182e+01 8.16031192465560e-03 1.07443944232344e-04
1.38750000000000e+01 8.07552274651792e-03 1.06589771248409e-04
1.39431818181818e+01 7.99161456480351e-03 1.05741112144792e-04
1.40113636363636e+01 7.90857822557393e-03 1.04897955789349e-04
1.40795454545455e+01 7.82640467000463e-03 1.04060290644873e-04
1.41477272727273e+01 7.74508493282591e-03 1.03228104245739e-04
1.42159090909091e+01 7.66461014307125e-03 1.02401383578807e-04
1.42840909090909e+01 7.58497152136751e-03 1.01580115470614e-04
1.43522727272727e+01 7.50616037956239e-03 1.00764286046085e-04
1.44204545454545e+01 7.42816811977811e-03 9.99538811006157e-05
1.44886363636364e+01 7.35098623294366e-03 9.91488856083052e-05
1.45568181818182e+01 7.27460629946756e-03 9.83492840783441e-05
1.46250000000000e+01 7.19901998670388e-03 9.75550609173563e-05
1.46931818181818e+01 7.12421904858624e-03 9.67661999208683e-05
1.47613636363636e+01 7.05019532472855e-03 9.59826844636557e-05
1.48295454545455e+01 6.97694073953509e-03 9.52044976698176e-05
1.48977272727273e+01 6.90444730083630e-03 9.44316219562766e-05
1.49659090909091e+01 6.83270710047823e-03 9.36640393617695e-05
1.50340909090909e+01 6.76171231198538e-03 9.29017318814093e-05
1.51022727272727e+01 6.69145519020223e-03 9.21446809947808e-05
1.51704545454545e+01 6.62192807044943e-03 9.13928679875114e-05
1.52386363636364e+01 6.55312336723877e-03 9.06462735221593e-05
1.53068181818182e+01 6.48503357480232e-03 8.99048779462904e-05
1.53750000000000e+01 6.41765126490481e-03 8.91686616058291e-05
1.54431818181818e+01 6.35096908649335e-03 8.84376044015302e-05
1.55113636363636e+01 6.28497976489577e-03 8.77116859528791e-05
1.55795454545455e+01 6.21967610102718e-03 8.69908857445155e-05
1.56477272727273e+01 6.15505097019464e-03 8.62751827276987e-05
1.57159090909091e+01 6.09109732255990e-03 8.55645556050003e-05
1.57840909090909e+01 6.02780818111928e-03 8.48589831199101e-05
1.58522727272727e+01 5.96517664136276e-03 8.41584436450432e-05
1.59204545454545e+01 5.90319587052173e-03 8.34629154605402e-05
1.59886363636364e+01 5.84185910644220e-03 8.27723763793191e-05
1.60568181818182e+01 5.78115965799963e-03 8.20868040138648e-05
1.61250000000000e+01 5.72109090320625e-03 8.14061760476651e-05
1.61931818181818e+01 5.66164628887946e-03 8.07304698480266e-05
1.62613636363636e+01 5.60281932992713e-03 8.00596626074890e-05
1.63295454545455e+01 5.54460360864031e-03 7.93937314701544e-05
1.63977272727273e+01 5.48699277364431e-03 7.87326531834772e-05
1.64659090909091e+01 5.42998054026058e-03 7.80764043450086e-05
1.65340909090909e+01 5.37356068875704e-03 7.74249616534747e-05
1.66022727272727e+01 5.31772706402702e-03 7.67783015491396e-05
1.66704545454545e+01 5.26247357491847e-03 7.61364004552180e-05
1.67386363636364e+01 5.20779419324486e-03 7.54992344503270e-05
1.68068181818182e+01 5.15368295410871e-03 7.48667794998765e-05
1.68750000000000e+01 5.10013395426107e-03 7.42390116915379e-05
1.69431818181818e+01 5.04714135179018e-03 7.36159068969734e-05
1.70113636363636e+01 4.99469936548432e-03 7.29974408940745e-05
1.70795454545455e+01 4.94280227420128e-03 7.23835894761154e-05
1.71477272727273e+01 4.89144441594691e-03 7.17743281473007e-05
1.72159090909091e+01 4.84062018815649e-03 7.11696323369252e-05
1.72840909090909e+01 4.79032404617663e-03 7.05694776173484e-05
1.73522727272727e+01 4.74055050296504e-03 6.99738393896495e-05
1.74204545454545e+01 4.69129412849251e-03 6.93826930932493e-05
1.74886363636364e+01 4.64254954887359e-03 6.87960139194199e-05
1.75568181818182e+01 4.59431144661737e-03 6.82137770122140e-05
1.76250000000000e+01 4.54657455920307e-03 6.76359576730261e-05
1.76931818181818e+01 4.49933367878967e-03 6.70625310648174e-05
1.77613636363636e+01 4.45258365164793e-03 6.64934723179238e-05
1.78295454545455e+01 4.40631937759825e-03 6.59287566245435e-05
1.78977272727273e+01 4.36053580920038e-03 6.53683589723316e-05
1.79659090909091e+01 4.31522795197056e-03 6.48122543305108e-05
1.80340909090909e+01 4.27039086306224e-03 6.42604178393470e-05
1.81022727272727e+01 4.22601965098698e-03 6.37128245351843e-05
1.81704545454545e+01 4.18210947508128e-03 6.31694495326780e-05
1.82386363636364e+01 4.13865554474184e-03 6.26302677740307e-05
1.83068181818182e+01 4.09565311961828e-03 6.20952542037036e-05
1.83750000000000e+01 4.05309750837450e-03 6.15643839463162e-05
1.84431818181818e+01 4.01098406841929e-03 6.10376320478447e-05
1.85113636363636e+01 3.96930820540002e-03 6.05149735673307e-05
1.85795454545455e+01 3.92806537270153e-03 5.99963836587808e-05
1.86477272727273e+01 3.88725107073286e-03 5.94818373378986e-05
1.87159090909091e+01 3.84686084709327e-03 5.89713096439979e-05
1.87840909090909e+01 3.80689029542397e-03 5.84647758048915e-05
1.88522727272727e+01 3.76733505515000e-03 5.79622109962004e-05
1.89204545454545e+01 3.72819081100489e-03 5.74635904999483e-05
1.89886363636364e+01 3.68945329235721e-03 5.69688894849243e-05
1.90568181818182e+01 3.65111827335721e-03 5.64780831587562e-05
1.91250000000000e+01 3.61318157185805e-03 5.59911469227907e-05
1.91931818181818e+01 3.57563904916713e-03 5.55080561454760e-05
1.92613636363636e+01 3.53848660959471e-03 5.50287862419687e-05
1.93295454545455e+01 3.50172020000714e-03 5.45533127451920e-05
1.93977272727273e+01 3.46533580919854e-03 5.40816111014405e-05
1.94659090909091e+01 3.42932946801610e-03 5.36136568114102e-05
1.95340909090909e+01 3.39369724835941e-03 5.31494255738215e-05
1.96022727272727e+01 3.35843526294254e-03 5.26888930745832e-05
1.96704545454545e+01 3.32353966487036e-03 5.22320351249622e-05
1.97386363636364e+01 3.28900664704507e-03 5.17788274690763e-05
1.98068181818182e+01 3.25483244227604e-03 5.13292459164008e-05
1.98750000000000e+01 3.22101332233922e-03 5.08832664767382e-05
1.99431818181818e+01 3.18754559774834e-03 5.04408651616465e-05
2.00113636363636e+01 3.15442561735253e-03 5.00020180536075e-05
2.00795454545455e+01 3.12164976793805e-03 4.95667013677581e-05
2.01477272727273e+01 3.08921447367437e-03 4.91348912726993e-05
2.02159090909091e+01 3.05711619620708e-03 4.87065640134181e-05
2.02840909090909e+01 3.02535143378478e-03 4.82816960365157e-05
2.03522727272727e+01 2.99391672104067e-03 4.78602638054134e-05
2.04204545454545e+01 2.96280862861477e-03 4.74422439208215e-05
2.04886363636364e+01 2.93202376263055e-03 4.70276129519254e-05
2.05568181818182e+01 2.90155876477571e-03 4.66163475519334e-05
2.06250000000000e+01 2.87141031148100e-03 4.62084245757967e-05
2.06931818181818e+01 2.84157511371043e-03 4.58038209061174e-05
2.07613636363636e+01 2.81204991660254e-03 4.54025135133061e-05
2.08295454545455e+01 2.78283149911538e-03 4.50044795092504e-05
2.08977272727273e+01 2.75391667353780e-03 4.46096959901241e-05
2.09659090909091e+01 2.72530228555682e-03 4.42181401436404e-05
2.10340909090909e+01 2.69698521349490e-03 4.38297893583181e-05
2.11022727272727e+01 2.66896236810999e-03 4.34446210614103e-05
2.11704545454545e+01 2.64123069225872e-03 4.30626128240397e-05
2.12386363636364e+01 2.61378716043457e-03 4.26837422130660e-05
2.13068181818182e+01 2.58662877882566e-03 4.23079868919321e-05
2.13750000000000e+01 2.55975258459701e-03 4.19353247234261e-05
2.14431818181818e+01 2.53315564569873e-03 4.15657336169550e-05
2.15113636363636e+01 2.50683506054624e-03 4.11991915809097e-05
