Energy (eV)          EEDF (eV^-(3/2))     First Anisotropy
9.47222222222222e-02 3.60096218301635e-02 3.16464045422394e-05
2.84166666666667e-01 3.53253740860302e-02 5.19353145671364e-05
4.73611111111111e-01 3.46541282815743e-02 6.77130032311100e-05
6.63055555555556e-01 3.39956373583796e-02 7.91959454338926e-05
8.52500000000000e-01 3.33496589495367e-02 8.83649749089446e-05
1.04194444444444e+00 3.27159552956090e-02 9.59832886530324e-05
1.23138888888889e+00 3.20942931515697e-02 1.02452936335337e-04
1.42083333333333e+00 3.14844437117287e-02 1.08020895417690e-04
1.61027777777778e+00 3.08861825085156e-02 1.12853698274043e-04
1.79972222222222e+00 3.02992893488255e-02 1.17070943524945e-04
1.98916666666667e+00 2.97235482186603e-02 1.20762539569271e-04
2.17861111111111e+00 2.91587472065472e-02 1.23998459366396e-04
2.36805555555556e+00 2.86046784331531e-02 1.26834663878440e-04
2.55750000000000e+00 2.80611379642455e-02 1.29316899481915e-04
2.74694444444444e+00 2.75279257452587e-02 1.31483241482581e-04
2.93638888888889e+00 2.70048455188302e-02 1.33365860003873e-04
3.12583333333333e+00 2.64917047607051e-02 1.34992283074032e-04
3.31527777777778e+00 2.59883146013520e-02 1.36386323545661e-04
3.50472222222222e+00 2.54944897634263e-02 1.37568774114934e-04
3.69416666666667e+00 2.50100484884237e-02 1.38557939186900e-04
3.88361111111111e+00 2.45348124704487e-02 1.39370047408874e-04
4.07305555555556e+00 2.40686067942468e-02 1.40019578046016e-04
4.26250000000000e+00 2.36112598659034e-02 1.40519521571515e-04
4.45194444444444e+00 2.31626033543262e-02 1.40881590553231e-04
4.64138888888889e+00 2.27224721249103e-02 1.41116392218206e-04
4.83083333333333e+00 2.22907041828966e-02 1.41233570930150e-04
5.02027777777778e+00 2.18671406098321e-02 1.41241926996539e-04
5.20972222222222e+00 2.14516255087879e-02 1.41149516376242e-04
5.39916666666667e+00 2.10440059442229e-02 1.40963735466956e-04
5.58861111111111e+00 2.06441318859681e-02 1.40691392726834e-04
5.77805555555556e+00 2.02518561561517e-02 1.40338770749157e-04
5.96750000000000e+00 1.98670343721597e-02 1.39911679564989e-04
6.15694444444444e+00 1.94895248962311e-02 1.39415502925407e-04
6.34638888888889e+00 1.91191887807133e-02 1.38855238724791e-04
6.53583333333333e+00 1.87558897194175e-02 1.38235534395924e-04
6.72527777777778e+00 1.83994939950625e-02 1.37560718122167e-04
6.91472222222222e+00 1.80498704323420e-02 1.36834826353413e-04
7.10416666666667e+00 1.77068903479430e-02 1.36061628508564e-04
7.29361111111111e+00 1.73704275033249e-02 1.35244648502282e-04
7.48305555555556e+00 1.70403580596399e-02 1.34387184461345e-04
7.67250000000000e+00 1.67165605303056e-02 1.33492326208093e-04
7.86194444444444e+00 1.63989157380637e-02 1.32562971013966e-04
8.05138888888889e+00 1.60873067694121e-02 1.31601837854326e-04
8.24083333333333e+00 1.57816189332105e-02 1.30611480283835e-04
8.43027777777778e+00 1.54817397168927e-02 1.29594298154668e-04
8.61972222222222e+00 1.51875587465690e-02 1.28552548216412e-04
8.80916666666667e+00 1.48989677452733e-02 1.27488353989838e-04
8.99861111111111e+00 1.46158604931928e-02 1.26403714423848e-04
9.18805555555556e+00 1.43381327895176e-02 1.25300512181250e-04
9.37750000000000e+00 1.40656824128289e-02 1.24180521085877e-04
9.56694444444445e+00 1.37984090846893e-02 1.23045412986300e-04
9.75638888888889e+00 1.35362144315630e-02 1.21896764105518e-04
9.94583333333333e+00 1.32790019497381e-02 1.20736060998088e-04
1.01352777777778e+01 1.30266769677098e-02 1.19564705502010e-04
1.03247222222222e+01 1.27791466164359e-02 1.18384020194513e-04
1.05141666666667e+01 1.25363197891769e-02 1.17195253638148e-04
1.07036111111111e+01 1.22981071082266e-02 1.15999583183781e-04
1.08930555555556e+01 1.20644208986977e-02 1.14798120078283e-04
1.10825000000000e+01 1.18351751473508e-02 1.13591913000761e-04
1.12719444444444e+01 1.16102854795413e-02 1.12381951463323e-04
1.14613888888889e+01 1.13896691198437e-02 1.11169169165977e-04
1.16508333333333e+01 1.11732448696322e-02 1.09954446959399e-04
1.18402777777778e+01 1.09609330694110e-02 1.08738615788230e-04
1.20297222222222e+01 1.07526555770246e-02 1.07522459070209e-04
1.22191666666667e+01 1.05483357332779e-02 1.06306716147446e-04
1.24086111111111e+01 1.03478983340670e-02 1.05092083288458e-04
1.25980555555556e+01 1.01512696075500e-02 1.03879216774977e-04
1.27875000000000e+01 9.95837718053603e-03 1.02668734822034e-04
1.29769444444444e+01 9.76915005810322e-03 1.01461219468215e-04
1.31663888888889e+01 9.58351859140736e-03 1.00257218494692e-04
1.33558333333333e+01 9.40141445791969e-03 9.90572471000866e-05
1.35452777777778e+01 9.22277063058851e-03 9.78617896123771e-05
1.37347222222222e+01 9.04752135868537e-03 9.66713008092123e-05
1.39241666666667e+01 8.87560213948717e-03 9.54862081252311e-05
1.41136111111111e+01 8.70694969477401e-03 9.43069119735008e-05
1.43030555555556e+01 8.54150195112699e-03 9.31337877446119e-05
1.44925000000000e+01 8.37919801230465e-03 9.19671869204477e-05
1.46819444444444e+01 8.21997814146349e-03 9.08074381960587e-05
1.48713888888889e+01 8.06378373467482e-03 8.96548486508438e-05
1.50608333333333e+01 7.91055730371789e-03 8.85097047538899e-05
1.52502777777778e+01 7.76024245068652e-03 8.73722734206487e-05
1.54397222222222e+01 7.61278385134066e-03 8.62428027821885e-05
1.56291666666667e+01 7.46812723167564e-03 8.51215236768208e-05
1.58186111111111e+01 7.32621934811488e-03 8.40086496644523e-05
1.60080555555556e+01 7.18700797060667e-03 8.29043783884022e-05
1.61975000000000e+01 7.05044185981497e-03 8.18088922498332e-05
1.63869444444444e+01 6.91647075174258e-03 8.07223591033765e-05
1.65763888888889e+01 6.78504533584802e-03 7.96449330041355e-05
1.67658333333333e+01 6.65611724018259e-03 7.85767548357018e-05
1.69552777777778e+01 6.52963901039352e-03 7.75179529893528e-05
1.71447222222222e+01 6.40556409536022e-03 7.64686438252135e-05
1.73341666666667e+01 6.28384682774414e-03 7.54289327189561e-05
1.75236111111111e+01 6.16444240730242e-03 7.43989139385940e-05
1.77130555555556e+01 6.04730688644467e-03 7.33786716050712e-05
1.79025000000000e+01 5.93239715133466e-03 7.23682801115743e-05
1.80919444444444e+01 5.81967090866900e-03 7.13678045672976e-05
1.82813888888889e+01 5.70908666753664e-03 7.03773012883603e-05
1.84708333333333e+01 5.60060372665049e-03 6.93968182003024e-05
1.86602777777778e+01 5.49418215693288e-03 6.84263952867588e-05
1.88497222222222e+01 5.38978278918624e-03 6.74660648692846e-05
1.90391666666667e+01 5.28736719790878e-03 6.65158523615240e-05
1.92286111111111e+01 5.18689768724130e-03 6.55757760897924e-05
1.94180555555556e+01 5.08833727866163e-03 6.46458479875228e-05
1.96075000000000e+01 4.99164969528662e-03 6.37260738594134e-05
1.97969444444444e+01 4.89679935055122e-03 6.28164536693433e-05
1.99863888888889e+01 4.80375133313392e-03 6.19169818694137e-05
2.01758333333333e+01 4.71247139603060e-03 6.10276476617052e-05
2.03652777777778e+01 4.62292594207762e-03 6.01484352999929e-05
2.05547222222222e+01 4.53508201340783e-03 5.92793242588836e-05
2.07441666666667e+01 4.44890727795941e-03 5.84202897876185e-05
2.09336111111111e+01 4.36437001764258e-03 5.75713027146071e-05
2.11230555555556e+01 4.28143911787789e-03 5.67323299584346e-05
2.13125000000000e+01 4.20008405453080e-03 5.59033346944671e-05
2.15019444444444e+01 4.12027488424769e-03 5.50842765430132e-05
2.16913888888889e+01 4.04198223190539e-03 5.42751117925047e-05
2.18808333333333e+01 3.96517728128860e-03 5.34757935706256e-05
2.20702777777778e+01 3.88983176303345e-03 5.26862720493145e-05
2.22597222222222e+01 3.81591794563497e-03 5.19064945446609e-05
2.24491666666667e+01 3.74340862418535e-03 5.11364059292349e-05
2.26386111111111e+01 3.67227711041117e-03 5.03759484404061e-05
2.28280555555556e+01 3.60249722379389e-03 4.96250620612745e-05
2.30175000000000e+01 3.53404328067863e-03 4.88836846245173e-05
2.32069444444444e+01 3.46689008604379e-03 4.81517519351480e-05
2.33963888888889e+01 3.40101292303638e-03 4.74291979227108e-05
2.35858333333333e+01 3.33638754503536e-03 4.67159547527314e-05
2.37752777777778e+01 3.27299016559653e-03 4.60119529665734e-05
2.39647222222222e+01 3.21079745079946e-03 4.53171215373707e-05
2.41541666666667e+01 3.14978650983624e-03 4.46313881801878e-05
2.43436111111111e+01 3.08993488662448e-03 4.39546791735025e-05
2.45330555555556e+01 3.03122055228036e-03 4.32869196459048e-05
2.47225000000000e+01 2.97362189602848e-03 4.26280336389738e-05
2.49119444444444e+01 2.91711771820501e-03 4.19779441864305e-05
2.51013888888889e+01 2.86168722152187e-03 4.13365734178654e-05
2.52908333333333e+01 2.80731000432148e-03 4.07038426302939e-05
2.54802777777778e+01 2.75396605218114e-03 4.00796723833891e-05
2.56697222222222e+01 2.70163573141073e-03 3.94639825273383e-05
2.58591666666667e+01 2.65029978118071e-03 3.88566924379330e-05
2.60486111111111e+01 2.59993930646241e-03 3.82577208551164e-05
2.62380555555556e+01 2.55053577165392e-03 3.76669861003044e-05
2.64275000000000e+01 2.50207099298563e-03 3.70844061123085e-05
2.66169444444444e+01 2.45452713258046e-03 3.65098984971181e-05
2.68063888888889e+01 2.40788669115414e-03 3.59433805981193e-05
2.69958333333333e+01 2.36213250229042e-03 3.53847695407342e-05
2.71852777777778e+01 2.31724772542450e-03 3.48339822967367e-05
2.73747222222222e+01 2.27321584032558e-03 3.42909356942419e-05
2.75641666666667e+01 2.23002064050775e-03 3.37555465969107e-05
2.77536111111111e+01 2.18764622728775e-03 3.32277317605571e-05
2.79430555555556e+01 2.14607700439163e-03 3.27074079987556e-05
2.81325000000000e+01 2.10529767160455e-03 3.21944922010250e-05
2.83219444444444e+01 2.06529321973421e-03 3.16889013627334e-05
2.85113888888889e+01 2.02604892450626e-03 3.11905526319625e-05
2.87008333333333e+01 1.98755034171091e-03 3.06993633359289e-05
2.88902777777778e+01 1.94978330133432e-03 3.02152510237220e-05
2.90797222222222e+01 1.91273390288192e-03 2.97381334650934e-05
2.92691666666667e+01 1.87638850985971e-03 2.92679287876322e-05
2.94586111111111e+01 1.84073374477282e-03 2.88045553509273e-05
2.96480555555556e+01 1.80575648456521e-03 2.83479318732529e-05
2.98375000000000e+01 1.77144385530610e-03 2.78979774381674e-05
3.00269444444444e+01 1.73778322792332e-03 2.74546115109736e-05
3.02163888888889e+01 1.70476221309470e-03 2.70177539692427e-05
3.04058333333333e+01 1.67236865713720e-03 2.65873251169289e-05
3.05952777777778e+01 1.64059063709529e-03 2.61632457120042e-05
3.07847222222222e+01 1.60941645678026e-03 2.57454369584346e-05
3.09741666666667e+01 1.57883464214584e-03 2.53338206114983e-05
3.11636111111111e+01 1.54883393707874e-03 2.49283188682655e-05
3.13530555555556e+01 1.51940329954483e-03 2.45288544647707e-05
3.15425000000000e+01 1.49053189714043e-03 2.41353506751678e-05
3.17319444444444e+01 1.46220910348062e-03 2.37477313191641e-05
3.19213888888889e+01 1.43442449392180e-03 2.33659207811084e-05
3.21108333333333e+01 1.40716784208224e-03 2.29898440158597e-05
3.23002777777778e+01 1.38042911572921e-03 2.26194265658571e-05
3.24897222222222e+01 1.35419847342709e-03 2.22545945491881e-05
3.26791666666667e+01 1.32846626066068e-03 2.18952747406127e-05
3.28686111111111e+01 1.30322300629254e-03 2.15413944768042e-05
3.30580555555556e+01 1.27845941930756e-03 2.11928817310140e-05
3.32475000000000e+01 1.25416638508666e-03 2.08496651075925e-05
3.34369444444444e+01 1.23033496235142e-03 2.05116738434477e-05
3.36263888888889e+01 1.20695637958079e-03 2.01788378191597e-05
3.38158333333333e+01 1.18402203206809e-03 1.98510875594131e-05
3.40052777777778e+01 1.16152347847522e-03 1.95283542427137e-05
3.41947222222222e+01 1.13945243799786e-03 1.92105696874644e-05
3.43841666666667e+01 1.11780078711429e-03 1.88976664143738e-05
3.45736111111111e+01 1.09656055660400e-03 1.85895775648246e-05
3.47630555555556e+01 1.07572392879897e-03 1.82862369582964e-05
3.49525000000000e+01 1.05528323446090e-03 1.79875790841587e-05
3.51419444444444e+01 1.03523095019806e-03 1.76935390992690e-05
3.53313888888889e+01 1.01555969546228e-03 1.74040528335728e-05
3.55208333333333e+01 9.96262230060856e-04 1.71190567870532e-05
3.57102777777778e+01 9.77331451268656e-04 1.68384881343732e-05
3.58997222222222e+01 9.58760391431734e-04 1.65622847102166e-05
3.60891666666667e+01 9.40542215240021e-04 1.62903850573791e-05
3.62786111111111e+01 9.22670217218244e-04 1.60227283566744e-05
3.64680555555556e+01 9.05137819405803e-04 1.57592544711061e-05
3.66575000000000e+01 8.87938568738940e-04 1.54999039362192e-05
3.68469444444444e+01 8.71066134867766e-04 1.52446179553060e-05
3.70363888888889e+01 8.54514307638609e-04 1.49933384012464e-05
3.72258333333333e+01 8.38276994991615e-04 1.47460078113255e-05
3.74152777777778e+01 8.22348220539426e-04 1.45025693884295e-05
3.76047222222222e+01 8.06722121542407e-04 1.42629669864572e-05
3.77941666666667e+01 7.91392946620121e-04 1.40271451473711e-05
3.79836111111111e+01 7.76355053639806e-04 1.37950490411624e-05
3.81730555555556e+01 7.61602907758587e-04 1.35666244998111e-05
3.83625000000000e+01 7.47131079228213e-04 1.33418180070578e-05
3.85519444444444e+01 7.32934241551017e-04 1.31205766922317e-05
3.87413888888889e+01 7.19007169368550e-04 1.29028483295824e-05
3.89308333333333e+01 7.05344736685731e-04 1.26885813319000e-05
3.91202777777778e+01 6.91941914840147e-04 1.24777247494250e-05
3.93097222222222e+01 6.78793770791892e-04 1.22702282558323e-05
3.94991666666667e+01 6.65895465202783e-04 1.20660421767529e-05
3.96886111111111e+01 6.53242250659442e-04 1.18651174384532e-05
3.98780555555556e+01 6.40829470021667e-04 1.16674055939154e-05
4.00675000000000e+01 6.28652554581008e-04 1.14728588125940e-05
4.02569444444444e+01 6.16707022503590e-04 1.12814298735631e-05
4.04463888888889e+01 6.04988477058975e-04 1.10930721632290e-05
4.06358333333333e+01 5.93492605120652e-04 1.09077396683917e-05
4.08252777777778e+01 5.82215175462492e-04 1.07253869736945e-05
4.10147222222222e+01 5.71152037314791e-04 1.05459692484761e-05
4.12041666666667e+01 5.60299118751806e-04 1.03694422686945e-05
4.13936111111111e+01 5.49652425196428e-04 1.01957623731242e-05
4.15830555555556e+01 5.39208038027155e-04 1.00248864833459e-05
4.17725000000000e+01 5.28962113033085e-04 9.85677209385110e-06
4.19619444444444e+01 5.18910879099380e-04 9.69137726497756e-06
4.21513888888889e+01 5.09050636721171e-04 9.52866061963452e-06
4.23408333333333e+01 4.99377756737771e-04 9.36858133623502e-06
4.25302777777778e+01 4.89888678903231e-04 9.21109914527107e-06
4.27197222222222e+01 4.80579910667508e-04 9.05617431718891e-06
4.29091666666667e+01 4.71448025822585e-04 8.90376767920440e-06
4.30986111111111e+01 4.62489663244130e-04 8.75384057796471e-06
4.32880555555556e+01 4.53701525716796e-04 8.60635489482975e-06
4.34775000000000e+01 4.45080378637644e-04 8.46127303654291e-06
4.36669444444444e+01 4.36623048906733e-04 8.31855792826583e-06
4.38563888888889e+01 4.28326423679925e-04 8.17817300976053e-06
4.40458333333333e+01 4.20187449300671e-04 8.04008222847416e-06
4.42352777777778e+01 4.12203130100317e-04 7.90425003564952e-06
4.44247222222222e+01 4.04370527369561e-04 7.77064137528656e-06
4.46141666666667e+01 3.96686758221502e-04 7.63922169700277e-06
4.48036111111111e+01 3.89148994532737e-04 7.50995692423759e-06
4.49930555555556e+01 3.81754461952944e-04 7.38281346589519e-06
4.51825000000000e+01 3.74500438816575e-04 7.25775820770132e-06
4.53719444444444e+01 3.67384255206780e-04 7.13475850553560e-06
4.55613888888889e+01 3.60403291908516e-04 7.01378218137966e-06
4.57508333333333e+01 3.53554979507268e-04 6.89479751673227e-06
4.59402777777778e+01 3.46836797381995e-04 6.77777324853804e-06
4.61297222222222e+01 3.40246272837363e-04 6.66267855923739e-06
4.63191666666667e+01 3.33780980148821e-04 6.54948308656580e-06
4.65086111111111e+01 3.27438539671545e-04 6.43815689650069e-06
4.66980555555556e+01 3.21216617005516e-04 6.32867049209358e-06
4.68875000000000e+01 3.15112922081867e-04 6.22099480556846e-06
4.70769444444444e+01 3.09125208373229e-04 6.11510119207072e-06
4.72663888888889e+01 3.03251272014824e-04 6.01096142559026e-06
4.74558333333333e+01 2.97488951044186e-04 5.90854769281160e-06
4.76452777777778e+01 2.91836124555680e-04 5.80783258905424e-06
4.78347222222222e+01 2.86290711968513e-04 5.70878910937333e-06
4.80241666666667e+01 2.80850672224611e-04 5.61139065599160e-06
4.82136111111111e+01 2.75514003038793e-04 5.51561101529822e-06
4.84030555555556e+01 2.70278740195032e-04 5.42142436451191e-06
4.85925000000000e+01 2.65142956779310e-04 5.32880526453097e-06
4.87819444444444e+01 2.60104762513606e-04 5.23772865416254e-06
4.89713888888889e+01 2.55162303017902e-04 5.14816984616008e-06
4.91608333333333e+01 2.50313759168971e-04 5.06010452156290e-06
4.93502777777778e+01 2.45557346390426e-04 4.97350872577365e-06
4.95397222222222e+01 2.40891314035391e-04 4.88835886064920e-06
4.97291666666667e+01 2.36313944712637e-04 4.80463169010540e-06
4.99186111111111e+01 2.31823553655610e-04 4.72230432057163e-06
5.01080555555556e+01 2.27418488129343e-04 4.64135420598373e-06
5.02975000000000e+01 2.23097126786226e-04 4.56175914136695e-06
5.04869444444444e+01 2.18857879104373e-04 4.48349725757135e-06
5.06763888888889e+01 2.14699184767864e-04 4.40654701751199e-06
5.08658333333333e+01 2.10619513126041e-04 4.33088721101644e-06
5.10552777777778e+01 2.06617362597283e-04 4.25649695111885e-06
5.12447222222222e+01 2.02691260148456e-04 4.18335566706824e-06
5.14341666666667e+01 1.98839760728744e-04 4.11144310852388e-06
5.16236111111111e+01 1.95061446738696e-04 4.04073932895541e-06
5.18130555555556e+01 1.91354927530439e-04 3.97122468935244e-06
5.20025000000000e+01 1.87718838866607e-04 3.90287985250319e-06
5.21919444444444e+01 1.84151842446795e-04 3.83568577823633e-06
5.23813888888889e+01 1.80652625387036e-04 3.76962371991569e-06
5.25708333333333e+01 1.77219899763907e-04 3.70467521979207e-06
5.27602777777778e+01 1.73852402113761e-04 3.64082210555925e-06
5.29497222222222e+01 1.70548892993845e-04 3.57804648419965e-06
5.31391666666667e+01 1.67308156506562e-04 3.51633074509706e-06
5.33286111111111e+01 1.64128999852699e-04 3.45565754594435e-06
5.35180555555556e+01 1.61010252910289e-04 3.39600981546965e-06
5.37075000000000e+01 1.57950767780140e-04 3.33737074836346e-06
5.38969444444444e+01 1.54949418386614e-04 3.27972380101042e-06
5.40863888888889e+01 1.52005100040388e-04 3.22305268826474e-06
5.42758333333333e+01 1.49116729054135e-04 3.16734137928735e-06
5.44652777777778e+01 1.46283242321872e-04 3.11257409438556e-06
5.46547222222222e+01 1.43503596948982e-04 3.05873529961577e-06
5.48441666666667e+01 1.40776769852441e-04 3.00580970906652e-06
5.50336111111111e+01 1.38101757384860e-04 2.95378227289982e-06
5.52230555555556e+01 1.35477574979678e-04 2.90263817932678e-06
5.54125000000000e+01 1.32903256769368e-04 2.85236285012975e-06
5.56019444444444e+01 1.30377855248923e-04 2.80294193685796e-06
5.57913888888889e+01 1.27900440908548e-04 2.75436131789204e-06
5.59808333333333e+01 1.25470101909703e-04 2.70660709473763e-06
5.61702777777778e+01 1.23085943731723e-04 2.65966558915462e-06
5.63597222222222e+01 1.20747088859961e-04 2.61352333843860e-06
5.65491666666667e+01 1.18452676449819e-04 2.56816709707089e-06
5.67386111111111e+01 1.16201862010393e-04 2.52358382657346e-06
5.69280555555556e+01 1.13993817105557e-04 2.47976069691471e-06
5.71175000000000e+01 1.11827729033209e-04 2.43668508257239e-06
5.73069444444444e+01 1.09702800541639e-04 2.39434455915973e-06
5.74963888888889e+01 1.07618249520935e-04 2.35272690077597e-06
5.76858333333333e+01 1.05573308729943e-04 2.31182007672298e-06
5.78752777777778e+01 1.03567225499372e-04 2.27161224891811e-06
5.80647222222222e+01 1.01599261468954e-04 2.23209176778046e-06
5.82541666666667e+01 9.96686923050776e-05 2.19324717340033e-06
5.84436111111111e+01 9.77748074345848e-05 2.15506718693520e-06
5.86330555555556e+01 9.59169097929655e-05 2.11754071158483e-06
5.88225000000000e+01 9.40943155548560e-05 2.08065682914149e-06
5.90119444444444e+01 9.23063538950058e-05 2.04440479701099e-06
5.92013888888889e+01 9.05523667289890e-05 2.00877404583769e-06
5.93908333333333e+01 8.88317084831036e-05 1.97375417660812e-06
5.95802777777778e+01 8.71437458449064e-05 1.93933495833507e-06
5.97697222222222e+01 8.54878575417123e-05 1.90550632447967e-06
