Energy (eV)          EEDF (eV^-(3/2))     First Anisotropy
1.57000000000000e-02 3.56865595555492e+00 5.65423291616445e-03
4.71000000000000e-02 3.32974953695595e+00 9.05465782302814e-03
7.85000000000000e-02 3.10683689235997e+00 1.12284556991163e-02
1.09900000000000e-01 2.89884730626110e+00 1.24907805594695e-02
1.41300000000000e-01 2.70478174302675e+00 1.32557854615017e-02
1.72700000000000e-01 2.52370804823339e+00 1.36949235136780e-02
2.04100000000000e-01 2.35475647125255e+00 1.39035938380833e-02
2.35500000000000e-01 2.19711548758075e+00 1.39427715841220e-02
2.66900000000000e-01 2.05002790084675e+00 1.38546580901602e-02
2.98300000000000e-01 1.91278720577299e+00 1.36699779255197e-02
3.29700000000000e-01 1.78473419462127e+00 1.34118784657319e-02
3.61100000000000e-01 1.66525379082259e+00 1.30982217400199e-02
3.92500000000000e-01 1.55377209458211e+00 1.27430295037370e-02
4.23900000000000e-01 1.44975362626830e+00 1.23574450186637e-02
4.55300000000000e-01 1.35269875434554e+00 1.19504011257724e-02
4.86700000000000e-01 1.26214129549577e+00 1.15291005740686e-02
5.18100000000000e-01 1.17764627540186e+00 1.10993712444183e-02
5.49500000000000e-01 1.09880783943695e+00 1.06659350569577e-02
5.80900000000000e-01 1.02524730322447e+00 1.02326155420523e-02
6.12300000000000e-01 9.56611333704787e-01 9.80250071132086e-03
6.43700000000000e-01 8.92570251971774e-01 9.37807263564044e-03
6.75100000000000e-01 8.32816449727341e-01 8.96131175294792e-03
7.06500000000000e-01 7.77062911747574e-01 8.55378167651000e-03
7.37900000000000e-01 7.25041837263549e-01 8.15669873782148e-03
7.69300000000000e-01 6.76503353634860e-01 7.77098942647701e-03
8.00700000000000e-01 6.31214316137258e-01 7.39733812664730e-03
8.32100000000000e-01 5.88957188099438e-01 7.03622699716732e-03
8.63500000000000e-01 5.49528996009921e-01 6.68796943523842e-03
8.94900000000000e-01 5.12740354575121e-01 6.35273825949159e-03
9.26300000000000e-01 4.78414557045638e-01 6.03058951759848e-03
9.57700000000000e-01 4.46386726441367e-01 5.72148264670883e-03
9.89100000000000e-01 4.16503023598489e-01 5.42529757769248e-03
1.02050000000000e+00 3.88619908234366e-01 5.14184926647434e-03
1.05190000000000e+00 3.62603449481021e-01 4.87090005046613e-03
1.08330000000000e+00 3.38328682575476e-01 4.61217015995231e-03
1.11470000000000e+00 3.15679008616956e-01 4.36534665938506e-03
1.14610000000000e+00 2.94545634507807e-01 4.13009104897587e-03
1.17750000000000e+00 2.74827050388002e-01 3.90604572053725e-03
1.20890000000000e+00 2.56428542053193e-01 3.69283943155292e-03
1.24030000000000e+00 2.39261736014311e-01 3.49009193664356e-03
1.27170000000000e+00 2.23244175013510e-01 3.29741789494815e-03
1.30310000000000e+00 2.08298921957506e-01 3.11443015466933e-03
1.33450000000000e+00 1.94354190365923e-01 2.94074250151768e-03
1.36590000000000e+00 1.81342999559545e-01 2.77597194554037e-03
1.39730000000000e+00 1.69202852932256e-01 2.61974061044093e-03
1.42870000000000e+00 1.57875437761323e-01 2.47167728067044e-03
1.46010000000000e+00 1.47306345114101e-01 2.33141865404019e-03
1.49150000000000e+00 1.37444808505802e-01 2.19861034116040e-03
1.52290000000000e+00 1.28243460053020e-01 2.07290764747859e-03
1.55430000000000e+00 1.19658102951748e-01 1.95397616893213e-03
1.58570000000000e+00 1.11647499187027e-01 1.84149222812470e-03
1.61710000000000e+00 1.04173171454538e-01 1.73514317438959e-03
1.64850000000000e+00 9.71992183427028e-02 1.63462756803127e-03
1.67990000000000e+00 9.06921418875632e-02 1.53965526637250e-03
1.71130000000000e+00 8.46206866721310e-02 1.44994742692020e-03
1.74270000000000e+00 7.89556896973553e-02 1.36523644095009e-03
1.77410000000000e+00 7.36699403035945e-02 1.28526580905697e-03
1.80550000000000e+00 6.87380494697517e-02 1.20978996868876e-03
1.83690000000000e+00 6.41363278622813e-02 1.13857408234904e-03
1.86830000000000e+00 5.98426720482981e-02 1.07139379398784e-03
1.89970000000000e+00 5.58364583262373e-02 1.00803496008283e-03
1.93110000000000e+00 5.20984436641027e-02 9.48293361023742e-04
1.96250000000000e+00 4.86106732694805e-02 8.91974397634702e-04
1.99390000000000e+00 4.53563943473489e-02 8.38892776989262e-04
2.02530000000000e+00 4.23199756314384e-02 7.88872191077765e-04
2.05670000000000e+00 3.94868323026259e-02 7.41744991366650e-04
2.08810000000000e+00 3.68433559337262e-02 6.97351861834532e-04
2.11950000000000e+00 3.43768491241817e-02 6.55541492672546e-04
2.15090000000000e+00 3.20754645106845e-02 6.16170256489497e-04
2.18230000000000e+00 2.99281478607785e-02 5.79101888559603e-04
2.21370000000000e+00 2.79245849761040e-02 5.44207172386702e-04
2.24510000000000e+00 2.60551521502464e-02 5.11363631629055e-04
2.27650000000000e+00 2.43108699432211e-02 4.80455229229113e-04
2.30790000000000e+00 2.26833600505619e-02 4.51372074419227e-04
2.33930000000000e+00 2.11648050598412e-02 4.24010138124109e-04
2.37070000000000e+00 1.97479109013210e-02 3.98270977151031e-04
2.40210000000000e+00 1.84258718123737e-02 3.74061467446892e-04
2.43350000000000e+00 1.71923376473871e-02 3.51293546605152e-04
2.46490000000000e+00 1.60413833761327e-02 3.29883965723312e-04
2.49630000000000e+00 1.49674806240893e-02 3.09754050641489e-04
2.52770000000000e+00 1.39654711180213e-02 2.90829472533092e-04
2.55910000000000e+00 1.30305419092637e-02 2.73040027768462e-04
2.59050000000000e+00 1.21582022557026e-02 2.56319426930321e-04
2.62190000000000e+00 1.13442620514104e-02 2.40605092825042e-04
2.65330000000000e+00 1.05848117003242e-02 2.25837967305124e-04
2.68470000000000e+00 9.87620333729789e-03 2.11962326695110e-04
2.71610000000000e+00 9.21503330632381e-03 1.98925605594767e-04
2.74750000000000e+00 8.59812581176466e-03 1.86678228819026e-04
2.77890000000000e+00 8.02251766406539e-03 1.75173451223454e-04
2.81030000000000e+00 7.48544404667555e-03 1.64367205156373e-04
2.84170000000000e+00 6.98432523581585e-03 1.54217955273748e-04
2.87310000000000e+00 6.51675420930023e-03 1.44686560450205e-04
2.90450000000000e+00 6.08048508489474e-03 1.35736142518834e-04
2.93590000000000e+00 5.67342233267956e-03 1.27331961573226e-04
2.96730000000000e+00 5.29361070959758e-03 1.19441297567548e-04
2.99870000000000e+00 4.93922586784250e-03 1.12033337953862e-04
3.03010000000000e+00 4.60856559197551e-03 1.05079071100333e-04
3.06150000000000e+00 4.30004162268002e-03 9.85511852392080e-05
3.09290000000000e+00 4.01217202788136e-03 9.24239726993165e-05
3.12430000000000e+00 3.74357408458775e-03 8.66732391842574e-05
3.15570000000000e+00 3.49295763726196e-03 8.12762178642224e-05
3.18710000000000e+00 3.25911890082182e-03 7.62114880565420e-05
3.21850000000000e+00 3.04093467850364e-03 7.14588982773509e-05
3.24990000000000e+00 2.83735696681524e-03 6.69994934542486e-05
3.28130000000000e+00 2.64740792166456e-03 6.28154460973915e-05
3.31270000000000e+00 2.47017516148458e-03 5.88899912340257e-05
3.34410000000000e+00 2.30480738479429e-03 5.52073649190311e-05
3.37550000000000e+00 2.15051028114528e-03 5.17527461415441e-05
3.40690000000000e+00 2.00654271581325e-03 4.85122019551285e-05
3.43830000000000e+00 1.87221316990821e-03 4.54726356662475e-05
3.46970000000000e+00 1.74687641880432e-03 4.26217379229203e-05
3.50110000000000e+00 1.62993043293474e-03 3.99479405524233e-05
3.53250000000000e+00 1.52081348606517e-03 3.74403730036852e-05
3.56390000000000e+00 1.41900145715623e-03 3.50888212566304e-05
3.59530000000000e+00 1.32400531285480e-03 3.28836890671244e-05
3.62670000000000e+00 1.23536875852181e-03 3.08159614223713e-05
3.65810000000000e+00 1.15266604651388e-03 2.88771700876044e-05
3.68950000000000e+00 1.07549993119118e-03 2.70593611306781e-05
3.72090000000000e+00 1.00349976082887e-03 2.53550643167316e-05
3.75230000000000e+00 9.36319697266987e-04 2.37572642704420e-05
3.78370000000000e+00 8.73637054747292e-04 2.22593733085149e-05
3.81510000000000e+00 8.15150749957884e-04 2.08552058499876e-05
3.84650000000000e+00 7.60579855840828e-04 1.95389543166389e-05
3.87790000000000e+00 7.09662252216222e-04 1.83051664403131e-05
3.90930000000000e+00 6.62153366741279e-04 1.71487238982867e-05
3.94070000000000e+00 6.17825000156868e-04 1.60648222019317e-05
3.97210000000000e+00 5.76464230178834e-04 1.50489517678665e-05
4.00350000000000e+00 5.37872388769150e-04 1.40968801045422e-05
4.03490000000000e+00 5.01864107874450e-04 1.32046350507944e-05
4.06630000000000e+00 4.68266429048316e-04 1.23684890062976e-05
4.09770000000000e+00 4.36917972680598e-04 1.15849440971075e-05
4.12910000000000e+00 4.07668162843310e-04 1.08507182225620e-05
4.16050000000000e+00 3.80376504029813e-04 1.01627319327493e-05
4.19190000000000e+00 3.54911906313256e-04 9.51809608853746e-06
4.22330000000000e+00 3.31152055682801e-04 8.91410025881131e-06
4.25470000000000e+00 3.08982826533168e-04 8.34820181207373e-06
4.28610000000000e+00 2.88297733485531e-04 7.81801566195570e-06
4.31750000000000e+00 2.68997419906676e-04 7.32130462843973e-06
4.34890000000000e+00 2.50989180669643e-04 6.85597037874603e-06
4.38030000000000e+00 2.34186516863522e-04 6.42004491386189e-06
4.41170000000000e+00 2.18508720313545e-04 6.01168256861913e-06
4.44310000000000e+00 2.03880485915797e-04 5.62915249504602e-06
4.47450000000000e+00 1.90231549924486e-04 5.27083160044423e-06
4.50590000000000e+00 1.77496352454338e-04 4.93519791327321e-06
4.53730000000000e+00 1.65613722577043e-04 4.62082435146716e-06
4.56870000000000e+00 1.54526584499147e-04 4.32637286926858e-06
4.60010000000000e+00 1.44181683410105e-04 4.05058896004208e-06
4.63150000000000e+00 1.34529329683634e-04 3.79229649383501e-06
4.66290000000000e+00 1.25523160203714e-04 3.55039286968335e-06
4.69430000000000e+00 1.17119915668800e-04 3.32384446382350e-06
4.72570000000000e+00 1.09279232804568e-04 3.11168235606963e-06
4.75710000000000e+00 1.01963450487151e-04 2.91299831765219e-06
4.78850000000000e+00 9.51374288455937e-05 2.72694104479217e-06
4.81990000000000e+00 8.87683804746390e-05 2.55271262320869e-06
4.85130000000000e+00 8.28257129470997e-05 2.38956520962843e-06
4.88270000000000e+00 7.72808818693642e-05 2.23679791718708e-06
4.91410000000000e+00 7.21072537742129e-05 2.09375389238756e-06
4.94550000000000e+00 6.72799781923803e-05 1.95981757201007e-06
4.97690000000000e+00 6.27758682883853e-05 1.83441210905779e-06
5.00830000000000e+00 5.85732894872879e-05 1.71699695747046e-06
5.03970000000000e+00 5.46520555574122e-05 1.60706560595000e-06
5.07110000000000e+00 5.09933316498931e-05 1.50414345181797e-06
5.10250000000000e+00 4.75795438293138e-05 1.40778580636753e-06
5.13390000000000e+00 4.43942946608852e-05 1.31757602368352e-06
5.16530000000000e+00 4.14222844487058e-05 1.23312374538564e-06
5.19670000000000e+00 3.86492377467876e-05 1.15406325420265e-06
5.22810000000000e+00 3.60618347898574e-05 1.08005192971229e-06
5.25950000000000e+00 3.36476475145765e-05 1.01076879998316e-06
5.29090000000000e+00 3.13950798638679e-05 9.45913183232347e-07
5.32230000000000e+00 2.92933120876178e-05 8.85203413968650e-07
5.35370000000000e+00 2.73322487722079e-05 8.28375648425588e-07
5.38510000000000e+00 2.55024703492521e-05 7.75182744403152e-07
5.41650000000000e+00 2.37951878506170e-05 7.25393210933425e-07
5.44790000000000e+00 2.22022006924029e-05 6.78790223463635e-07
5.47930000000000e+00 2.07158572851088e-05 6.35170700512179e-07
5.51070000000000e+00 1.93290182807797e-05 5.94344437999367e-07
5.54210000000000e+00 1.80350222806024e-05 5.56133297686236e-07
5.57350000000000e+00 1.68276538382322e-05 5.20370446372444e-07
5.60490000000000e+00 1.57011136051624e-05 4.86899642708941e-07
5.63630000000000e+00 1.46499904747335e-05 4.55574568673465e-07
5.66770000000000e+00 1.36692355909849e-05 4.26258202937658e-07
5.69910000000000e+00 1.27541380975025e-05 3.98822233524522e-07
5.73050000000000e+00 1.19003025097795e-05 3.73146507314541e-07
5.76190000000000e+00 1.11036276024012e-05 3.49118514108860e-07
5.79330000000000e+00 1.03602867096434e-05 3.26632903098759e-07
5.82470000000000e+00 9.66670934486335e-06 3.05591029723098e-07
5.85610000000000e+00 9.01956405039341e-06 2.85900531019734e-07
5.88750000000000e+00 8.41574239556275e-06 2.67474927693730e-07
5.91890000000000e+00 7.85234404598336e-06 2.50233251234869e-07
5.95030000000000e+00 7.32666283238428e-06 2.34099694520002e-07
5.98170000000000e+00 6.83617375207850e-06 2.19003284432503e-07
6.01310000000000e+00 6.37852084062654e-06 2.04877575121932e-07
6.04450000000000e+00 5.95150585544097e-06 1.91660360612292e-07
6.07590000000000e+00 5.55307771697567e-06 1.79293405547340e-07
6.10730000000000e+00 5.18132265678279e-06 1.67722192936578e-07
6.13870000000000e+00 4.83445502511563e-06 1.56895687836087e-07
6.17010000000000e+00 4.51080871392364e-06 1.46766115964611e-07
6.20150000000000e+00 4.20882915404156e-06 1.37288756317457e-07
6.23290000000000e+00 3.92706584813300e-06 1.28421746899109e-07
6.26430000000000e+00 3.66416540352168e-06 1.20125902750192e-07
6.29570000000000e+00 3.41886503144536e-06 1.12364545495808e-07
6.32710000000000e+00 3.18998648150702e-06 1.05103343690477e-07
6.35850000000000e+00 2.97643038218901e-06 9.83101632801131e-08
6.38990000000000e+00 2.77717096024574e-06 9.19549275439524e-08
6.42130000000000e+00 2.59125111361079e-06 8.60094859191099e-08
6.45270000000000e+00 2.41777781415193e-06 8.04474911478337e-08
6.48410000000000e+00 2.25591781819233e-06 7.52442842225359e-08
6.51550000000000e+00 2.10489366419417e-06 7.03767866365484e-08
6.54690000000000e+00 1.96397993838046e-06 6.58233994793859e-08
6.57830000000000e+00 1.83249979035763e-06 6.15639089442031e-08
6.60970000000000e+00 1.70982168200245e-06 5.75793978422432e-08
6.64110000000000e+00 1.59535635399727e-06 5.38521627445191e-08
6.67250000000000e+00 1.48855399544278e-06 5.03656363948030e-08
6.70390000000000e+00 1.38890160295339e-06 4.71043150603686e-08
6.73530000000000e+00 1.29592051654980e-06 4.40536905079005e-08
6.76670000000000e+00 1.20916412051335e-06 4.12001863116382e-08
6.79810000000000e+00 1.12821569815823e-06 3.85310982192693e-08
6.82950000000000e+00 1.05268643021783e-06 3.60345383183598e-08
6.86090000000000e+00 9.82213527230437e-07 3.36993827623173e-08
6.89230000000000e+00 9.16458486954020e-07 3.15152228300749e-08
6.92370000000000e+00 8.55105468439555e-07 2.94723191079211e-08
6.95510000000000e+00 7.97859774953361e-07 2.75615585952495e-08
6.98650000000000e+00 7.44446438461322e-07 2.57744145485187e-08
7.01790000000000e+00 6.94608898875924e-07 2.41029088894364e-08
7.04930000000000e+00 6.48107771722105e-07 2.25395770143784e-08
7.08070000000000e+00 6.04719698302660e-07 2.10774348523538e-08
7.11210000000000e+00 5.64236272840220e-07 1.97099480284850e-08
7.14350000000000e+00 5.26463041442522e-07 1.84310029990206e-08
7.17490000000000e+00 4.91218568082732e-07 1.72348800323796e-08
7.20630000000000e+00 4.58333563108426e-07 1.61162279186741e-08
7.23770000000000e+00 4.27650070093207e-07 1.50700402976020e-08
7.26910000000000e+00 3.99020707125175e-07 1.40916335015827e-08
7.30050000000000e+00 3.72307958887912e-07 1.31766258175475e-08
7.33190000000000e+00 3.47383516133662e-07 1.23209180769192e-08
7.36330000000000e+00 3.24127659375976e-07 1.15206754890626e-08
7.39470000000000e+00 3.02428683841538e-07 1.07723106388590e-08
7.42610000000000e+00 2.82182362919022e-07 1.00724675741014e-08
7.45750000000000e+00 2.63291447527789e-07 9.41800691312654e-09
7.48890000000000e+00 2.45665199001725e-07 8.80599190752067e-09
7.52030000000000e+00 2.29218953244531e-07 8.23367539888168e-09
7.55170000000000e+00 2.13873714062973e-07 7.69848761249892e-09
7.58310000000000e+00 1.99555773724754e-07 7.19802473444898e-09
7.61450000000000e+00 1.86196358918421e-07 6.73003822200972e-09
7.64590000000000e+00 1.73731300414772e-07 6.29242480048606e-09
7.67730000000000e+00 1.62100724843024e-07 5.88321710252772e-09
7.70870000000000e+00 1.51248767101264e-07 5.50057490881766e-09
7.74010000000000e+00 1.41123302019812e-07 5.14277695163124e-09
7.77150000000000e+00 1.31675693988573e-07 4.80821324522037e-09
7.80290000000000e+00 1.22860563345791e-07 4.49537790927637e-09
7.83430000000000e+00 1.14635568406081e-07 4.20286245387825e-09
7.86570000000000e+00 1.06961202080760e-07 3.92934949634893e-09
7.89710000000000e+00 9.98006021135959e-08 3.67360688233083e-09
7.92850000000000e+00 9.31193740204599e-08 3.43448218516027e-09
7.95990000000000e+00 8.68854258824259e-08 3.21089755927589e-09
7.99130000000000e+00 8.10688141987709e-08 3.00184492494690e-09
8.02270000000000e+00 7.56416000594660e-08 2.80638146305880e-09
8.05410000000000e+00 7.05777149463098e-08 2.62362540005411e-09
8.08550000000000e+00 6.58528355181085e-08 2.45275206439792e-09
8.11690000000000e+00 6.14442667784584e-08 2.29299019713051e-09
8.14830000000000e+00 5.73308330649513e-08 2.14361850018506e-09
8.17970000000000e+00 5.34927763361907e-08 2.00396240719316e-09
8.21110000000000e+00 4.99116612680632e-08 1.87339106247935e-09
8.24250000000000e+00 4.65702867034117e-08 1.75131449486145e-09
8.27390000000000e+00 4.34526030297794e-08 1.63718097373103e-09
8.30530000000000e+00 4.05436350883636e-08 1.53047453569106e-09
8.33670000000000e+00 3.78294102438892e-08 1.43071267077919e-09
8.36810000000000e+00 3.52968912698999e-08 1.33744415800853e-09
8.39950000000000e+00 3.29339137270951e-08 1.25024704061657e-09
8.43090000000000e+00 3.07291275339223e-08 1.16872673202900e-09
8.46230000000000e+00 2.86719424487711e-08 1.09251424412256e-09
8.49370000000000e+00 2.67524772019035e-08 1.02126452991107e-09
8.52510000000000e+00 2.49615120327867e-08 9.54654933284474e-10
8.55650000000000e+00 2.32904444048501e-08 8.92383738903869e-10
8.58790000000000e+00 2.17312476849527e-08 8.34168815798758e-10
8.61930000000000e+00 2.02764325890844e-08 7.79746348627184e-10
8.65070000000000e+00 1.89190112091154e-08 7.28869650947537e-10
8.68210000000000e+00 1.76524634478021e-08 6.81308055214145e-10
8.71350000000000e+00 1.64707057008271e-08 6.36845874548648e-10
8.74490000000000e+00 1.53680616354447e-08 5.95281431657411e-10
8.77630000000000e+00 1.43392349253723e-08 5.56426150562978e-10
8.80770000000000e+00 1.33792838109649e-08 5.20103707096249e-10
8.83910000000000e+00 1.24835973624792e-08 4.86149234356966e-10
8.87050000000000e+00 1.16478733324112e-08 4.54408579594139e-10
8.90190000000000e+00 1.08680974905258e-08 4.24737609186479e-10
8.93330000000000e+00 1.01405243423198e-08 3.97001558616701e-10
8.96470000000000e+00 9.46165913830111e-09 3.71074424533607e-10
8.99610000000000e+00 8.82824108767111e-09 3.46838396183060e-10
9.02750000000000e+00 8.23722769578006e-09 3.24183323664133e-10
9.05890000000000e+00 7.68578015012336e-09 3.03006220630700e-10
9.09030000000000e+00 7.17124968468366e-09 2.83210799212073e-10
9.12170000000000e+00 6.69116485712254e-09 2.64707035069843e-10
9.15310000000000e+00 6.24321967771044e-09 2.47410760642426e-10
9.18450000000000e+00 5.82526253297438e-09 2.31243284754441e-10
9.21590000000000e+00 5.43528585086076e-09 2.16131036885681e-10
9.24730000000000e+00 5.07141645777172e-09 2.02005234504453e-10
9.27870000000000e+00 4.73190658115705e-09 1.88801571972980e-10
9.31010000000000e+00 4.41512545444464e-09 1.76459929628930e-10
9.34150000000000e+00 4.11955148398523e-09 1.64924101737233e-10
9.37290000000000e+00 3.84376494038709e-09 1.54141542090653e-10
9.40430000000000e+00 3.58644113913492e-09 1.44063126116496e-10
9.43570000000000e+00 3.34634407773751e-09 1.34642928420651e-10
9.46710000000000e+00 3.12232049884135e-09 1.25838014769158e-10
9.49850000000000e+00 2.91329435079378e-09 1.17608247572172e-10
9.52990000000000e+00 2.71826161904791e-09 1.09916103995583e-10
9.56130000000000e+00 2.53628550358315e-09 1.02726505882107e-10
9.59270000000000e+00 2.36649191917706e-09 9.60066607165613e-11
9.62410000000000e+00 2.20806529691492e-09 8.97259129195380e-11
9.65550000000000e+00 2.06024466677047e-09 8.38556047999427e-11
9.68690000000000e+00 1.92232000244136e-09 7.83689465402212e-11
9.71830000000000e+00 1.79362881088232e-09 7.32408946285743e-11
9.74970000000000e+00 1.67355295015470e-09 6.84480381903724e-11
9.78110000000000e+00 1.56151566030751e-09 6.39684927064319e-11
9.81250000000000e+00 1.45697879302846e-09 5.97818006389719e-11
9.84390000000000e+00 1.35944022675804e-09 5.58688385171018e-11
9.87530000000000e+00 1.26843145485086e-09 5.22117300626942e-11
9.90670000000000e+00 1.18351533519939e-09 4.87937649646476e-11
