################################
# DATA CONSIDERED FOR THE TESTS#
################################

# elastic momentum transfer constant rate coefficient = 1.000000e-12 (m3s-1)
#                                     gas temperature = 300.000000 (K)
#                           mass of the heavy species = 40.000000 (uam)
#               decades of decay ensured for the eedf = 15 
#                 number of cells for the energy grid = 5800 

E/N(Td)              Te_th(eV)            Te_sim(eV)           RelError(Te)         RelError(EEDF)
0.00000000000000e+00 2.58519910116516e-02 2.58511004649831e-02 3.44478948695043e-05 4.68087742093460e-05 
1.00000000000000e+00 3.01268347033801e-02 3.01257979187927e-02 3.44139899717678e-05 4.67165087935013e-05 
2.00000000000000e+00 4.29513657785653e-02 4.29498918131650e-02 3.43170787151176e-05 4.64532716878635e-05 
3.00000000000000e+00 6.43255842372075e-02 6.43233714053319e-02 3.44004940153157e-05 4.66798032906071e-05 
4.00000000000000e+00 9.42494900793065e-02 9.42462366824023e-02 3.45189868022983e-05 4.70025311491552e-05 
5.00000000000000e+00 1.32723083304862e-01 1.32718518378796e-01 3.43943642102265e-05 4.66631327238141e-05 
6.00000000000000e+00 1.79746363913875e-01 1.79740170403053e-01 3.44569463723831e-05 4.68334480875966e-05 
7.00000000000000e+00 2.35319331906345e-01 2.35311223481052e-01 3.44571150481803e-05 4.68338839390320e-05 
8.00000000000000e+00 2.99441987282271e-01 2.99431738976528e-01 3.42246784963120e-05 4.62029908475547e-05 
9.00000000000000e+00 3.72114330041654e-01 3.72101440551140e-01 3.46385222864527e-05 4.73291871720834e-05 
1.00000000000000e+01 4.53336360184494e-01 4.53320681449457e-01 3.45852140139200e-05 4.71833529605340e-05 
1.10000000000000e+01 5.43108077710791e-01 5.43089308020547e-01 3.45597699875367e-05 4.71138428755318e-05 
1.20000000000000e+01 6.41429482620545e-01 6.41407320274860e-01 3.45514920744525e-05 4.70912375800404e-05 
1.30000000000000e+01 7.48300574913756e-01 7.48274871834341e-01 3.43486030564549e-05 4.65388190660821e-05 
1.40000000000000e+01 8.63721354590423e-01 8.63691655496615e-01 3.43850405578040e-05 4.66377997723388e-05 
1.50000000000000e+01 9.87691821650547e-01 9.87657824845715e-01 3.44204579680552e-05 4.67341023288869e-05 
1.60000000000000e+01 1.12021197609413e+00 1.12017337985454e+00 3.44544072130113e-05 4.68265129529824e-05 
1.70000000000000e+01 1.26128181792117e+00 1.26123832055291e+00 3.44866370378124e-05 4.69143132331949e-05 
1.80000000000000e+01 1.41090134713166e+00 1.41085280056359e+00 3.44081945705526e-05 4.67007793588261e-05 
1.90000000000000e+01 1.56907056372561e+00 1.56901651266686e+00 3.44478189848446e-05 4.68085597358499e-05 
2.00000000000000e+01 1.73578946770302e+00 1.73572961043977e+00 3.44841723987436e-05 4.69076155692457e-05 
2.10000000000000e+01 1.91105805906389e+00 1.91099224756456e+00 3.44372056181266e-05 4.67796800816294e-05 
2.20000000000000e+01 2.09487633780821e+00 2.09480411669236e+00 3.44751212976334e-05 4.68829212999930e-05 
2.30000000000000e+01 2.28724430393599e+00 2.28716552520344e+00 3.44426401733064e-05 4.67945189925255e-05 
2.40000000000000e+01 2.48816195744723e+00 2.48807631932245e+00 3.44182276878149e-05 4.67280153659290e-05 
2.50000000000000e+01 2.69762929834192e+00 2.69753634558908e+00 3.44572002146740e-05 4.68340948794518e-05 
2.60000000000000e+01 2.91564632662007e+00 2.91554544993502e+00 3.45983956033582e-05 4.72194036807513e-05 
2.70000000000000e+01 3.14221304228167e+00 3.14210409342922e+00 3.46726498136214e-05 4.74226675103562e-05 
2.80000000000000e+01 3.37732944532674e+00 3.37721258439447e+00 3.46015791944941e-05 4.72281206419833e-05 
2.90000000000000e+01 3.62099553575526e+00 3.62087092191235e+00 3.44142492523037e-05 4.67172153168207e-05 
3.00000000000000e+01 3.87321131356724e+00 3.87307756925677e+00 3.45305999692595e-05 4.70342108002749e-05 
3.10000000000000e+01 4.13397677876267e+00 4.13383406322405e+00 3.45225786830866e-05 4.70123204064037e-05 
3.20000000000000e+01 4.40329193134156e+00 4.40314040380127e+00 3.44123311953733e-05 4.67120084231965e-05 
3.30000000000000e+01 4.68115677130391e+00 4.68099505454695e+00 3.45463236673291e-05 4.70771783772888e-05 
3.40000000000000e+01 4.96757129864971e+00 4.96739955188564e+00 3.45735881275211e-05 4.71516150978146e-05 
3.50000000000000e+01 5.26253551337897e+00 5.26235389616703e+00 3.45113513213531e-05 4.69817016167898e-05 
3.60000000000000e+01 5.56604941549169e+00 5.56585808659094e+00 3.43742727508656e-05 4.66085418221158e-05 
3.70000000000000e+01 5.87811300498787e+00 5.87791058771782e+00 3.44357568279160e-05 4.67757330114809e-05 
3.80000000000000e+01 6.19872628186750e+00 6.19851293515659e+00 3.44178305684211e-05 4.67269562126094e-05 
3.90000000000000e+01 6.52788924613059e+00 6.52766512881071e+00 3.43322797658257e-05 4.64945524760501e-05 
4.00000000000000e+01 6.86560189777713e+00 6.86536563351082e+00 3.44127535838413e-05 4.67131533939438e-05 
4.10000000000000e+01 7.21186423680714e+00 7.21161598445447e+00 3.44227712164455e-05 4.67404200334713e-05 
4.20000000000000e+01 7.56667626322060e+00 7.56641618167366e+00 3.43719670155984e-05 4.66022763521807e-05 
4.30000000000000e+01 7.93003797701751e+00 7.92976468969762e+00 3.44622964839775e-05 4.68479999891093e-05 
4.40000000000000e+01 8.30194937819788e+00 8.30166304392518e+00 3.44900046553903e-05 4.69234837933786e-05 
4.50000000000000e+01 8.68241046676172e+00 8.68211124493821e+00 3.44629898176819e-05 4.68498846983395e-05 
4.60000000000000e+01 9.07142124270900e+00 9.07110929230856e+00 3.43882609014203e-05 4.66465925059956e-05 
4.70000000000000e+01 9.46898170603975e+00 9.46865565012767e+00 3.44341051864509e-05 4.67712286584577e-05 
4.80000000000000e+01 9.87509185675395e+00 9.87475185472300e+00 3.44302651437999e-05 4.67607845297799e-05 
4.90000000000000e+01 1.02897516948516e+01 1.02893979053830e+01 3.43827022354896e-05 4.66314824655681e-05 
5.00000000000000e+01 1.07129612203327e+01 1.07125922665888e+01 3.44399402114431e-05 4.67871026914493e-05 
