Energy (eV)          EEDF (eV^-(3/2))     First Anisotropy
2.00000000000000e-02 8.56167257366474e-02 4.62803930613965e-05
6.00000000000000e-02 8.50036504172936e-02 7.64053253200928e-05
1.00000000000000e-01 8.43949651437238e-02 1.00819303164208e-04
1.40000000000000e-01 8.37906384801679e-02 1.19339802667673e-04
1.80000000000000e-01 8.31906392159482e-02 1.34763809332019e-04
2.20000000000000e-01 8.25949363638759e-02 1.48149263982529e-04
2.60000000000000e-01 8.20034991586511e-02 1.60043866416127e-04
3.00000000000000e-01 8.14162970552752e-02 1.70778482510603e-04
3.40000000000000e-01 8.08332997274727e-02 1.80572630780506e-04
3.80000000000000e-01 8.02544770661251e-02 1.89581520124033e-04
4.20000000000000e-01 7.96797991777166e-02 1.97920086701503e-04
4.60000000000000e-01 7.91092363827894e-02 2.05676501629546e-04
5.00000000000000e-01 7.85427592144113e-02 2.12920316094950e-04
5.40000000000000e-01 7.79803384166538e-02 2.19707648380354e-04
5.80000000000000e-01 7.74219449430815e-02 2.26084634428035e-04
6.20000000000000e-01 7.68675499552513e-02 2.32089806803210e-04
6.60000000000000e-01 7.63171248212235e-02 2.37755784578293e-04
7.00000000000000e-01 7.57706411140832e-02 2.43110504558718e-04
7.40000000000000e-01 7.52280706104718e-02 2.48178138117204e-04
7.80000000000000e-01 7.46893852891297e-02 2.52979786993565e-04
8.20000000000000e-01 7.41545573294488e-02 2.57534020221985e-04
8.60000000000000e-01 7.36235591100363e-02 2.61857294622293e-04
9.00000000000000e-01 7.30963632072874e-02 2.65964288470423e-04
9.40000000000000e-01 7.25729423939695e-02 2.69868169423749e-04
9.80000000000000e-01 7.20532696378161e-02 2.73580811965402e-04
1.02000000000000e+00 7.15373181001304e-02 2.77112975598066e-04
1.06000000000000e+00 7.10250611343992e-02 2.80474452169179e-04
1.10000000000000e+00 7.05164722849171e-02 2.83674188665281e-04
1.14000000000000e+00 7.00115252854199e-02 2.86720390324950e-04
1.18000000000000e+00 6.95101940577280e-02 2.89620607821630e-04
1.22000000000000e+00 6.90124527103999e-02 2.92381811447604e-04
1.26000000000000e+00 6.85182755373946e-02 2.95010454611003e-04
1.30000000000000e+00 6.80276370167446e-02 2.97512528484809e-04
1.34000000000000e+00 6.75405118092370e-02 2.99893609282613e-04
1.38000000000000e+00 6.70568747571056e-02 3.02158899352652e-04
1.42000000000000e+00 6.65767008827313e-02 3.04313263059532e-04
1.46000000000000e+00 6.60999653873519e-02 3.06361258247385e-04
1.50000000000000e+00 6.56266436497817e-02 3.08307163938597e-04
1.54000000000000e+00 6.51567112251400e-02 3.10155004810241e-04
1.58000000000000e+00 6.46901438435881e-02 3.11908572899789e-04
1.62000000000000e+00 6.42269174090767e-02 3.13571446918539e-04
1.66000000000000e+00 6.37670079981005e-02 3.15147009491064e-04
1.70000000000000e+00 6.33103918584635e-02 3.16638462589880e-04
1.74000000000000e+00 6.28570454080517e-02 3.18048841394075e-04
1.78000000000000e+00 6.24069452336155e-02 3.19381026766724e-04
1.82000000000000e+00 6.19600680895607e-02 3.20637756518041e-04
1.86000000000000e+00 6.15163908967474e-02 3.21821635597700e-04
1.90000000000000e+00 6.10758907412985e-02 3.22935145339902e-04
1.94000000000000e+00 6.06385448734163e-02 3.23980651868396e-04
1.98000000000000e+00 6.02043307062073e-02 3.24960413754268e-04
2.02000000000000e+00 5.97732258145160e-02 3.25876589007385e-04
2.06000000000000e+00 5.93452079337666e-02 3.26731241472290e-04
2.10000000000000e+00 5.89202549588131e-02 3.27526346690398e-04
2.14000000000000e+00 5.84983449427979e-02 3.28263797282901e-04
2.18000000000000e+00 5.80794560960178e-02 3.28945407902311e-04
2.22000000000000e+00 5.76635667847995e-02 3.29572919794917e-04
2.26000000000000e+00 5.72506555303815e-02 3.30148005011608e-04
2.30000000000000e+00 5.68407010078053e-02 3.30672270300301e-04
2.34000000000000e+00 5.64336820448139e-02 3.31147260709435e-04
2.38000000000000e+00 5.60295776207585e-02 3.31574462928954e-04
2.42000000000000e+00 5.56283668655126e-02 3.31955308392271e-04
2.46000000000000e+00 5.52300290583945e-02 3.32291176160159e-04
2.50000000000000e+00 5.48345436270969e-02 3.32583395605476e-04
2.54000000000000e+00 5.44418901466245e-02 3.32833248915729e-04
2.58000000000000e+00 5.40520483382392e-02 3.33041973428663e-04
2.62000000000000e+00 5.36649980684128e-02 3.33210763814551e-04
2.66000000000000e+00 5.32807193477873e-02 3.33340774117778e-04
2.70000000000000e+00 5.28991923301421e-02 3.33433119668743e-04
2.74000000000000e+00 5.25203973113696e-02 3.33488878876358e-04
2.78000000000000e+00 5.21443147284572e-02 3.33509094910439e-04
2.82000000000000e+00 5.17709251584771e-02 3.33494777282182e-04
2.86000000000000e+00 5.14002093175833e-02 3.33446903330547e-04
2.90000000000000e+00 5.10321480600153e-02 3.33366419621411e-04
2.94000000000000e+00 5.06667223771097e-02 3.33254243265840e-04
2.98000000000000e+00 5.03039133963185e-02 3.33111263163353e-04
3.02000000000000e+00 4.99437023802341e-02 3.32938341175427e-04
3.06000000000000e+00 4.95860707256217e-02 3.32736313234063e-04
3.10000000000000e+00 4.92309999624588e-02 3.32505990389992e-04
3.14000000000000e+00 4.88784717529810e-02 3.32248159804607e-04
3.18000000000000e+00 4.85284678907350e-02 3.31963585689233e-04
3.22000000000000e+00 4.81809702996386e-02 3.31653010195392e-04
3.26000000000000e+00 4.78359610330467e-02 3.31317154259215e-04
3.30000000000000e+00 4.74934222728246e-02 3.30956718402874e-04
3.34000000000000e+00 4.71533363284282e-02 3.30572383495841e-04
3.38000000000000e+00 4.68156856359896e-02 3.30164811478453e-04
3.42000000000000e+00 4.64804527574107e-02 3.29734646050159e-04
3.46000000000000e+00 4.61476203794622e-02 3.29282513324568e-04
3.50000000000000e+00 4.58171713128895e-02 3.28809022453251e-04
3.54000000000000e+00 4.54890884915252e-02 3.28314766220336e-04
3.58000000000000e+00 4.51633549714072e-02 3.27800321609423e-04
3.62000000000000e+00 4.48399539299044e-02 3.27266250344491e-04
3.66000000000000e+00 4.45188686648472e-02 3.26713099406418e-04
3.70000000000000e+00 4.42000825936650e-02 3.26141401526270e-04
3.74000000000000e+00 4.38835792525303e-02 3.25551675656880e-04
3.78000000000000e+00 4.35693422955078e-02 3.24944427423780e-04
3.82000000000000e+00 4.32573554937106e-02 3.24320149556662e-04
3.86000000000000e+00 4.29476027344618e-02 3.23679322302513e-04
3.90000000000000e+00 4.26400680204626e-02 3.23022413821220e-04
3.94000000000000e+00 4.23347354689659e-02 3.22349880564710e-04
3.98000000000000e+00 4.20315893109562e-02 3.21662167640532e-04
4.02000000000000e+00 4.17306138903349e-02 3.20959709160528e-04
4.06000000000000e+00 4.14317936631124e-02 3.20242928575496e-04
4.10000000000000e+00 4.11351131966044e-02 3.19512238996524e-04
4.14000000000000e+00 4.08405571686357e-02 3.18768043503574e-04
4.18000000000000e+00 4.05481103667482e-02 3.18010735442093e-04
4.22000000000000e+00 4.02577576874160e-02 3.17240698708178e-04
4.26000000000000e+00 3.99694841352646e-02 3.16458308022796e-04
4.30000000000000e+00 3.96832748222970e-02 3.15663929195683e-04
4.34000000000000e+00 3.93991149671245e-02 3.14857919379354e-04
4.38000000000000e+00 3.91169898942036e-02 3.14040627313679e-04
4.42000000000000e+00 3.88368850330777e-02 3.13212393561550e-04
4.46000000000000e+00 3.85587859176250e-02 3.12373550735945e-04
4.50000000000000e+00 3.82826781853110e-02 3.11524423718851e-04
4.54000000000000e+00 3.80085475764470e-02 3.10665329872414e-04
4.58000000000000e+00 3.77363799334537e-02 3.09796579242591e-04
4.62000000000000e+00 3.74661612001298e-02 3.08918474755786e-04
4.66000000000000e+00 3.71978774209263e-02 3.08031312408630e-04
4.70000000000000e+00 3.69315147402255e-02 3.07135381451229e-04
4.74000000000000e+00 3.66670594016256e-02 3.06230964564285e-04
4.78000000000000e+00 3.64044977472303e-02 3.05318338030204e-04
4.82000000000000e+00 3.61438162169432e-02 3.04397771898528e-04
4.86000000000000e+00 3.58850013477678e-02 3.03469530145920e-04
4.90000000000000e+00 3.56280397731117e-02 3.02533870830838e-04
4.94000000000000e+00 3.53729182220971e-02 3.01591046243302e-04
4.98000000000000e+00 3.51196235188744e-02 3.00641303049833e-04
5.02000000000000e+00 3.48681425819426e-02 2.99684882433689e-04
5.06000000000000e+00 3.46184624234731e-02 2.98722020230764e-04
5.10000000000000e+00 3.43705701486395e-02 2.97752947061200e-04
5.14000000000000e+00 3.41244529549510e-02 2.96777888456940e-04
5.18000000000000e+00 3.38800981315917e-02 2.95797064985311e-04
5.22000000000000e+00 3.36374930587641e-02 2.94810692368867e-04
5.26000000000000e+00 3.33966252070370e-02 2.93818981601586e-04
5.30000000000000e+00 3.31574821366987e-02 2.92822139061587e-04
5.34000000000000e+00 3.29200514971147e-02 2.91820366620548e-04
5.38000000000000e+00 3.26843210260893e-02 2.90813861749766e-04
5.42000000000000e+00 3.24502785492329e-02 2.89802817623214e-04
5.46000000000000e+00 3.22179119793329e-02 2.88787423217574e-04
5.50000000000000e+00 3.19872093157296e-02 2.87767863409362e-04
5.54000000000000e+00 3.17581586436963e-02 2.86744319069293e-04
5.58000000000000e+00 3.15307481338242e-02 2.85716967153945e-04
5.62000000000000e+00 3.13049660414110e-02 2.84685980794902e-04
5.66000000000000e+00 3.10808007058548e-02 2.83651529385308e-04
5.70000000000000e+00 3.08582405500520e-02 2.82613778664082e-04
5.74000000000000e+00 3.06372740797986e-02 2.81572890797792e-04
5.78000000000000e+00 3.04178898831974e-02 2.80529024460271e-04
5.82000000000000e+00 3.02000766300683e-02 2.79482334910114e-04
5.86000000000000e+00 2.99838230713631e-02 2.78432974066015e-04
5.90000000000000e+00 2.97691180385847e-02 2.77381090580155e-04
5.94000000000000e+00 2.95559504432102e-02 2.76326829909595e-04
5.98000000000000e+00 2.93443092761181e-02 2.75270334385794e-04
6.02000000000000e+00 2.91341836070200e-02 2.74211743282316e-04
6.06000000000000e+00 2.89255625838961e-02 2.73151192880751e-04
6.10000000000000e+00 2.87184354324342e-02 2.72088816534912e-04
6.14000000000000e+00 2.85127914554740e-02 2.71024744733404e-04
6.18000000000000e+00 2.83086200324543e-02 2.69959105160648e-04
6.22000000000000e+00 2.81059106188644e-02 2.68892022756248e-04
6.26000000000000e+00 2.79046527456997e-02 2.67823619772914e-04
6.30000000000000e+00 2.77048360189209e-02 2.66754015832955e-04
6.34000000000000e+00 2.75064501189173e-02 2.65683327983337e-04
6.38000000000000e+00 2.73094847999737e-02 2.64611670749389e-04
6.42000000000000e+00 2.71139298897415e-02 2.63539156187152e-04
6.46000000000000e+00 2.69197752887131e-02 2.62465893934502e-04
6.50000000000000e+00 2.67270109697003e-02 2.61391991261006e-04
6.54000000000000e+00 2.65356269773169e-02 2.60317553116532e-04
6.58000000000000e+00 2.63456134274637e-02 2.59242682178782e-04
6.62000000000000e+00 2.61569605068189e-02 2.58167478899628e-04
6.66000000000000e+00 2.59696584723307e-02 2.57092041550342e-04
6.70000000000000e+00 2.57836976507146e-02 2.56016466265790e-04
6.74000000000000e+00 2.55990684379531e-02 2.54940847087564e-04
6.78000000000000e+00 2.54157612988006e-02 2.53865276006112e-04
6.82000000000000e+00 2.52337667662903e-02 2.52789843001910e-04
6.86000000000000e+00 2.50530754412453e-02 2.51714636085661e-04
6.90000000000000e+00 2.48736779917937e-02 2.50639741337582e-04
6.94000000000000e+00 2.46955651528860e-02 2.49565242945778e-04
6.98000000000000e+00 2.45187277258170e-02 2.48491223243777e-04
7.02000000000000e+00 2.43431565777507e-02 2.47417762747179e-04
7.06000000000000e+00 2.41688426412485e-02 2.46344940189490e-04
7.10000000000000e+00 2.39957769138010e-02 2.45272832557182e-04
7.14000000000000e+00 2.38239504573628e-02 2.44201515123942e-04
7.18000000000000e+00 2.36533543978916e-02 2.43131061484200e-04
7.22000000000000e+00 2.34839799248889e-02 2.42061543585844e-04
7.26000000000000e+00 2.33158182909458e-02 2.40993031762288e-04
7.30000000000000e+00 2.31488608112910e-02 2.39925594763827e-04
7.34000000000000e+00 2.29830988633419e-02 2.38859299788285e-04
7.38000000000000e+00 2.28185238862598e-02 2.37794212511046e-04
7.42000000000000e+00 2.26551273805076e-02 2.36730397114389e-04
7.46000000000000e+00 2.24929009074106e-02 2.35667916316199e-04
7.50000000000000e+00 2.23318360887211e-02 2.34606831398117e-04
7.54000000000000e+00 2.21719246061854e-02 2.33547202233052e-04
7.58000000000000e+00 2.20131582011142e-02 2.32489087312096e-04
7.62000000000000e+00 2.18555286739563e-02 2.31432543770930e-04
7.66000000000000e+00 2.16990278838748e-02 2.30377627415616e-04
7.70000000000000e+00 2.15436477483271e-02 2.29324392747890e-04
7.74000000000000e+00 2.13893802426471e-02 2.28272892989922e-04
7.78000000000000e+00 2.12362173996308e-02 2.27223180108554e-04
7.82000000000000e+00 2.10841513091251e-02 2.26175304839048e-04
7.86000000000000e+00 2.09331741176190e-02 2.25129316708362e-04
7.90000000000000e+00 2.07832780278382e-02 2.24085264057899e-04
7.94000000000000e+00 2.06344552983421e-02 2.23043194065846e-04
7.98000000000000e+00 2.04866982431243e-02 2.22003152769047e-04
8.02000000000000e+00 2.03399992312157e-02 2.20965185084411e-04
8.06000000000000e+00 2.01943506862901e-02 2.19929334829952e-04
8.10000000000000e+00 2.00497450862731e-02 2.18895644745326e-04
8.14000000000000e+00 1.99061749629536e-02 2.17864156512004e-04
8.18000000000000e+00 1.97636329015980e-02 2.16834910773059e-04
8.22000000000000e+00 1.96221115405675e-02 2.15807947152525e-04
8.26000000000000e+00 1.94816035709376e-02 2.14783304274384e-04
8.30000000000000e+00 1.93421017361209e-02 2.13761019781174e-04
8.34000000000000e+00 1.92035988314922e-02 2.12741130352273e-04
8.38000000000000e+00 1.90660877040164e-02 2.11723671721787e-04
8.42000000000000e+00 1.89295612518790e-02 2.10708678696094e-04
8.46000000000000e+00 1.87940124241197e-02 2.09696185171045e-04
8.50000000000000e+00 1.86594342202678e-02 2.08686224148868e-04
8.54000000000000e+00 1.85258196899807e-02 2.07678827754725e-04
8.58000000000000e+00 1.83931619326855e-02 2.06674027252887e-04
8.62000000000000e+00 1.82614540972218e-02 2.05671853062718e-04
8.66000000000000e+00 1.81306893814885e-02 2.04672334774289e-04
8.70000000000000e+00 1.80008610320921e-02 2.03675501163683e-04
8.74000000000000e+00 1.78719623439984e-02 2.02681380208025e-04
8.78000000000000e+00 1.77439866601855e-02 2.01689999100250e-04
8.82000000000000e+00 1.76169273713007e-02 2.00701384263573e-04
8.86000000000000e+00 1.74907779153188e-02 1.99715561365686e-04
8.90000000000000e+00 1.73655317772033e-02 1.98732555332685e-04
8.94000000000000e+00 1.72411824885697e-02 1.97752390362734e-04
8.98000000000000e+00 1.71177236273519e-02 1.96775089939524e-04
9.02000000000000e+00 1.69951488174701e-02 1.95800676845438e-04
9.06000000000000e+00 1.68734517285017e-02 1.94829173174425e-04
9.10000000000000e+00 1.67526260753544e-02 1.93860600344729e-04
9.14000000000000e+00 1.66326656179413e-02 1.92894979111357e-04
9.18000000000000e+00 1.65135641608592e-02 1.91932329578288e-04
9.22000000000000e+00 1.63953155530681e-02 1.90972671210461e-04
9.26000000000000e+00 1.62779136875736e-02 1.90016022845577e-04
9.30000000000000e+00 1.61613525011120e-02 1.89062402705671e-04
9.34000000000000e+00 1.60456259738364e-02 1.88111828408469e-04
9.38000000000000e+00 1.59307281290065e-02 1.87164316978527e-04
9.42000000000000e+00 1.58166530326793e-02 1.86219884858179e-04
9.46000000000000e+00 1.57033947934033e-02 1.85278547918316e-04
9.50000000000000e+00 1.55909475619137e-02 1.84340321468911e-04
9.54000000000000e+00 1.54793055308305e-02 1.83405220269420e-04
9.58000000000000e+00 1.53684629343586e-02 1.82473258538970e-04
9.62000000000000e+00 1.52584140479901e-02 1.81544449966343e-04
9.66000000000000e+00 1.51491531882084e-02 1.80618807719786e-04
9.70000000000000e+00 1.50406747121949e-02 1.79696344456690e-04
9.74000000000000e+00 1.49329730175376e-02 1.78777072333054e-04
9.78000000000000e+00 1.48260425419416e-02 1.77861003012791e-04
9.82000000000000e+00 1.47198777629417e-02 1.76948147676896e-04
9.86000000000000e+00 1.46144731976178e-02 1.76038517032404e-04
9.90000000000000e+00 1.45098234023111e-02 1.75132121321223e-04
9.94000000000000e+00 1.44059229723430e-02 1.74228970328812e-04
9.98000000000000e+00 1.43027665417364e-02 1.73329073392680e-04
1.00200000000000e+01 1.42003487829384e-02 1.72432439410784e-04
1.00600000000000e+01 1.40986644065449e-02 1.71539076849738e-04
1.01000000000000e+01 1.39977081610277e-02 1.70648993752889e-04
1.01400000000000e+01 1.38974748324631e-02 1.69762197748252e-04
1.01800000000000e+01 1.37979592442628e-02 1.68878696056319e-04
1.02200000000000e+01 1.36991562569065e-02 1.67998495497735e-04
1.02600000000000e+01 1.36010607676763e-02 1.67121602500805e-04
1.03000000000000e+01 1.35036677103936e-02 1.66248023108900e-04
1.03400000000000e+01 1.34069720551569e-02 1.65377762987776e-04
1.03800000000000e+01 1.33109688080823e-02 1.64510827432667e-04
1.04200000000000e+01 1.32156530110457e-02 1.63647221375312e-04
1.04600000000000e+01 1.31210197414266e-02 1.62786949390901e-04
1.05000000000000e+01 1.30270641118538e-02 1.61930015704844e-04
1.05400000000000e+01 1.29337812699532e-02 1.61076424199436e-04
1.05800000000000e+01 1.28411663980970e-02 1.60226178420411e-04
1.06200000000000e+01 1.27492147131550e-02 1.59379281583383e-04
1.06600000000000e+01 1.26579214662475e-02 1.58535736580184e-04
1.07000000000000e+01 1.25672819425000e-02 1.57695545985102e-04
1.07400000000000e+01 1.24772914608000e-02 1.56858712060994e-04
1.07800000000000e+01 1.23879453735549e-02 1.56025236765287e-04
1.08200000000000e+01 1.22992390664521e-02 1.55195121755907e-04
1.08600000000000e+01 1.22111679582206e-02 1.54368368397100e-04
1.09000000000000e+01 1.21237275003947e-02 1.53544977765127e-04
1.09400000000000e+01 1.20369131770787e-02 1.52724950653885e-04
1.09800000000000e+01 1.19507205047139e-02 1.51908287580444e-04
1.10200000000000e+01 1.18651450318470e-02 1.51094988790462e-04
1.10600000000000e+01 1.17801823389002e-02 1.50285054263540e-04
1.11000000000000e+01 1.16958280379430e-02 1.49478483718462e-04
1.11400000000000e+01 1.16120777724656e-02 1.48675276618346e-04
1.11800000000000e+01 1.15289272171535e-02 1.47875432175717e-04
1.12200000000000e+01 1.14463720776649e-02 1.47078949357517e-04
1.12600000000000e+01 1.13644080904083e-02 1.46285826889988e-04
1.13000000000000e+01 1.12830310223223e-02 1.45496063263488e-04
1.13400000000000e+01 1.12022366706573e-02 1.44709656737260e-04
1.13800000000000e+01 1.11220208627586e-02 1.43926605344080e-04
1.14200000000000e+01 1.10423794558500e-02 1.43146906894817e-04
1.14600000000000e+01 1.09633083368211e-02 1.42370558982969e-04
1.15000000000000e+01 1.08848034220137e-02 1.41597558989090e-04
1.15400000000000e+01 1.08068606570119e-02 1.40827904085140e-04
1.15800000000000e+01 1.07294760164318e-02 1.40061591238769e-04
1.16200000000000e+01 1.06526455037143e-02 1.39298617217529e-04
1.16600000000000e+01 1.05763651509185e-02 1.38538978593039e-04
1.17000000000000e+01 1.05006310185166e-02 1.37782671745031e-04
1.17400000000000e+01 1.04254391951904e-02 1.37029692865353e-04
1.17800000000000e+01 1.03507857976299e-02 1.36280037961931e-04
1.18200000000000e+01 1.02766669703318e-02 1.35533702862629e-04
1.18600000000000e+01 1.02030788854013e-02 1.34790683219065e-04
1.19000000000000e+01 1.01300177423537e-02 1.34050974510356e-04
1.19400000000000e+01 1.00574797679186e-02 1.33314572046790e-04
1.19800000000000e+01 9.98546121584477e-03 1.32581470973459e-04
1.20200000000000e+01 9.91395836670668e-03 1.31851666273822e-04
1.20600000000000e+01 9.84296752771258e-03 1.31125152773198e-04
1.21000000000000e+01 9.77248503251362e-03 1.30401925142217e-04
1.21400000000000e+01 9.70250724101459e-03 1.29681977900217e-04
1.21800000000000e+01 9.63303053918588e-03 1.28965305418559e-04
1.22200000000000e+01 9.56405133887683e-03 1.28251901923904e-04
1.22600000000000e+01 9.49556607763046e-03 1.27541761501450e-04
1.23000000000000e+01 9.42757121849944e-03 1.26834878098077e-04
1.23400000000000e+01 9.36006324986348e-03 1.26131245525487e-04
1.23800000000000e+01 9.29303868524789e-03 1.25430857463261e-04
1.24200000000000e+01 9.22649406314359e-03 1.24733707461857e-04
1.24600000000000e+01 9.16042594682829e-03 1.24039788945586e-04
1.25000000000000e+01 9.09483092418905e-03 1.23349095215516e-04
1.25400000000000e+01 9.02970560754602e-03 1.22661619452349e-04
1.25800000000000e+01 8.96504663347749e-03 1.21977354719234e-04
1.26200000000000e+01 8.90085066264620e-03 1.21296293964540e-04
