Energy (eV)          EEDF (eV^-(3/2))     First Anisotropy
4.40476190476191e-02 3.20469399775030e-02 1.85418030455047e-05
1.32142857142857e-01 3.17844894346057e-02 3.05952690518515e-05
2.20238095238095e-01 3.15241882482067e-02 4.03296125488949e-05
3.08333333333333e-01 3.12660188157047e-02 4.76886891355479e-05
3.96428571428571e-01 3.10099636789334e-02 5.37963807823295e-05
4.84523809523810e-01 3.07560055227174e-02 5.90784360367968e-05
5.72619047619048e-01 3.05041271732173e-02 6.37555853748468e-05
6.60714285714286e-01 3.02543115982682e-02 6.79613604657020e-05
7.48809523809524e-01 3.00065419046171e-02 7.17844785973533e-05
8.36904761904762e-01 2.97608013373678e-02 7.52877532718132e-05
9.25000000000000e-01 2.95170732788448e-02 7.85177632878265e-05
1.01309523809524e+00 2.92753412474652e-02 8.15102893957018e-05
1.10119047619048e+00 2.90355888959088e-02 8.42935941921687e-05
1.18928571428571e+00 2.87978000117983e-02 8.68905119399558e-05
1.27738095238095e+00 2.85619585171867e-02 8.93198402894434e-05
1.36547619047619e+00 2.83280484617922e-02 9.15972993630222e-05
1.45357142857143e+00 2.80960540280059e-02 9.37362134002210e-05
1.54166666666667e+00 2.78659595277399e-02 9.57480084713078e-05
1.62976190476190e+00 2.76377494014018e-02 9.76425825562266e-05
1.71785714285714e+00 2.74114082181774e-02 9.94285872571398e-05
1.80595238095238e+00 2.71869206708410e-02 1.01113644661657e-04
1.89404761904762e+00 2.69642715789459e-02 1.02704517210609e-04
1.98214285714286e+00 2.67434458863484e-02 1.04207243256375e-04
2.07023809523810e+00 2.65244286602225e-02 1.05627245333800e-04
2.15833333333333e+00 2.63072050910587e-02 1.06969418686523e-04
2.24642857142857e+00 2.60917604885376e-02 1.08238203289275e-04
2.33452380952381e+00 2.58780802837114e-02 1.09437643385823e-04
2.42261904761905e+00 2.56661500269369e-02 1.10571437738364e-04
2.51071428571429e+00 2.54559553869114e-02 1.11642981287501e-04
2.59880952380952e+00 2.52474821505126e-02 1.12655400927936e-04
2.68690476190476e+00 2.50407162193651e-02 1.13611585468468e-04
2.77500000000000e+00 2.48356436113916e-02 1.14514211258858e-04
2.86309523809524e+00 2.46322504590175e-02 1.15365764784791e-04
2.95119047619048e+00 2.44305230082373e-02 1.16168561823719e-04
3.03928571428571e+00 2.42304476176873e-02 1.16924764112001e-04
3.12738095238095e+00 2.40320107583640e-02 1.17636394274004e-04
3.21547619047619e+00 2.38351990107529e-02 1.18305348479599e-04
3.30357142857143e+00 2.36399990659008e-02 1.18933407570362e-04
3.39166666666667e+00 2.34463977238467e-02 1.19522247359244e-04
3.47976190476190e+00 2.32543818927344e-02 1.20073447330646e-04
3.56785714285714e+00 2.30639385884632e-02 1.20588498804532e-04
3.65595238095238e+00 2.28750549321730e-02 1.21068811828850e-04
3.74404761904762e+00 2.26877181510298e-02 1.21515721336043e-04
3.83214285714286e+00 2.25019155767994e-02 1.21930493089488e-04
3.92023809523810e+00 2.23176346449983e-02 1.22314328643155e-04
4.00833333333333e+00 2.21348628944996e-02 1.22668370200877e-04
4.09642857142857e+00 2.19535879652977e-02 1.22993704652546e-04
4.18452380952381e+00 2.17737975990802e-02 1.23291367222653e-04
4.27261904761905e+00 2.15954796379230e-02 1.23562345166380e-04
4.36071428571429e+00 2.14186220234710e-02 1.23807580776841e-04
4.44880952380952e+00 2.12432127965183e-02 1.24027974478073e-04
4.53690476190476e+00 2.10692400949987e-02 1.24224387324335e-04
4.62500000000000e+00 2.08966921543957e-02 1.24397643279427e-04
4.71309523809524e+00 2.07255573065383e-02 1.24548531655329e-04
4.80119047619048e+00 2.05558239788123e-02 1.24677809088102e-04
4.88928571428571e+00 2.03874806933791e-02 1.24786201364395e-04
4.97738095238095e+00 2.02205160667363e-02 1.24874405354632e-04
5.06547619047619e+00 2.00549188079244e-02 1.24943090500064e-04
5.15357142857143e+00 1.98906777187968e-02 1.24992900179823e-04
5.24166666666667e+00 1.97277816929136e-02 1.25024453290785e-04
5.32976190476190e+00 1.95662197147931e-02 1.25038345414450e-04
5.41785714285714e+00 1.94059808594624e-02 1.25035150189801e-04
5.50595238095238e+00 1.92470542908194e-02 1.25015420314250e-04
5.59404761904762e+00 1.90894292618078e-02 1.24979688468552e-04
5.68214285714286e+00 1.89330951133835e-02 1.24928468467068e-04
5.77023809523810e+00 1.87780412737969e-02 1.24862256055728e-04
5.85833333333333e+00 1.86242572581394e-02 1.24781529924356e-04
5.94642857142857e+00 1.84717326668376e-02 1.24686752398235e-04
6.03452380952381e+00 1.83204571857544e-02 1.24578370079352e-04
6.12261904761905e+00 1.81704205852202e-02 1.24456814713341e-04
6.21071428571429e+00 1.80216127193422e-02 1.24322503747581e-04
6.29880952380952e+00 1.78740235255532e-02 1.24175841101877e-04
6.38690476190476e+00 1.77276430232201e-02 1.24017217656367e-04
6.47500000000000e+00 1.75824613136861e-02 1.23847011704717e-04
6.56309523809524e+00 1.74384685793593e-02 1.23665589627129e-04
6.65119047619048e+00 1.72956550830497e-02 1.23473306332784e-04
6.73928571428571e+00 1.71540111673111e-02 1.23270505681618e-04
6.82738095238095e+00 1.70135272539938e-02 1.23057521060837e-04
6.91547619047619e+00 1.68741938429725e-02 1.22834675712194e-04
7.00357142857143e+00 1.67360015121337e-02 1.22602283036271e-04
7.09166666666667e+00 1.65989409165267e-02 1.22360647106166e-04
7.17976190476191e+00 1.64630027877319e-02 1.22110062936108e-04
7.26785714285714e+00 1.63281779334204e-02 1.21850816945868e-04
7.35595238095238e+00 1.61944572361691e-02 1.21583187198420e-04
7.44404761904762e+00 1.60618316534120e-02 1.21307443621005e-04
7.53214285714286e+00 1.59302922166370e-02 1.21023848424749e-04
7.62023809523810e+00 1.57998300307806e-02 1.20732656300430e-04
7.70833333333333e+00 1.56704362737944e-02 1.20434114800190e-04
7.79642857142857e+00 1.55421021955396e-02 1.20128464511394e-04
7.88452380952381e+00 1.54148191177081e-02 1.19815939218098e-04
7.97261904761905e+00 1.52885784330629e-02 1.19496766250340e-04
8.06071428571429e+00 1.51633716048570e-02 1.19171166627460e-04
8.14880952380952e+00 1.50391901664078e-02 1.18839355377169e-04
8.23690476190476e+00 1.49160257200642e-02 1.18501541663344e-04
8.32500000000000e+00 1.47938699371028e-02 1.18157928904152e-04
8.41309523809524e+00 1.46727145570088e-02 1.17808715067424e-04
8.50119047619048e+00 1.45525513869173e-02 1.17454092809371e-04
8.58928571428572e+00 1.44333723010595e-02 1.17094249610215e-04
8.67738095238095e+00 1.43151692403497e-02 1.16729368036901e-04
8.76547619047619e+00 1.41979342114276e-02 1.16359625830996e-04
8.85357142857143e+00 1.40816592865333e-02 1.15985195989428e-04
8.94166666666667e+00 1.39663366028319e-02 1.15606247010568e-04
9.02976190476191e+00 1.38519583618817e-02 1.15222942966061e-04
9.11785714285714e+00 1.37385168292314e-02 1.14835443727356e-04
9.20595238095238e+00 1.36260043335208e-02 1.14443905029692e-04
9.29404761904762e+00 1.35144132663409e-02 1.14048478530481e-04
9.38214285714286e+00 1.34037360815921e-02 1.13649312023149e-04
9.47023809523810e+00 1.32939652949744e-02 1.13246549488879e-04
9.55833333333333e+00 1.31850934835946e-02 1.12840331294104e-04
9.64642857142857e+00 1.30771132851206e-02 1.12430794236459e-04
9.73452380952381e+00 1.29700173976301e-02 1.12018071586213e-04
9.82261904761905e+00 1.28637985790001e-02 1.11602293274096e-04
9.91071428571429e+00 1.27584496464175e-02 1.11183585927796e-04
9.99880952380953e+00 1.26539634759977e-02 1.10762072938179e-04
1.00869047619048e+01 1.25503330023951e-02 1.10337874976234e-04
1.01750000000000e+01 1.24475512168068e-02 1.09911109215400e-04
1.02630952380952e+01 1.23456111698566e-02 1.09481890076822e-04
1.03511904761905e+01 1.22445059670811e-02 1.09050329149594e-04
1.04392857142857e+01 1.21442287724510e-02 1.08616534973801e-04
1.05273809523810e+01 1.20447728049224e-02 1.08180614174281e-04
1.06154761904762e+01 1.19461313380644e-02 1.07742669966759e-04
1.07035714285714e+01 1.18482977024013e-02 1.07302803010096e-04
1.07916666666667e+01 1.17512652821313e-02 1.06861112224376e-04
1.08797619047619e+01 1.16550275147582e-02 1.06417693352031e-04
1.09678571428571e+01 1.15595778933029e-02 1.05972640007341e-04
1.10559523809524e+01 1.14649099623271e-02 1.05526043516136e-04
1.11440476190476e+01 1.13710173209847e-02 1.05077992709515e-04
1.12321428571429e+01 1.12778936199757e-02 1.04628574939645e-04
1.13202380952381e+01 1.11855325611910e-02 1.04177874718116e-04
1.14083333333333e+01 1.10939278997381e-02 1.03725974700287e-04
1.14964285714286e+01 1.10030734402509e-02 1.03272955528232e-04
1.15845238095238e+01 1.09129630396951e-02 1.02818895630645e-04
1.16726190476190e+01 1.08235906045388e-02 1.02363872176614e-04
1.17607142857143e+01 1.07349500904051e-02 1.01907959787037e-04
1.18488095238095e+01 1.06470355039341e-02 1.01451231248550e-04
1.19369047619048e+01 1.05598409000815e-02 1.00993758200547e-04
1.20250000000000e+01 1.04733603817786e-02 1.00535609893280e-04
1.21130952380952e+01 1.03875881016932e-02 1.00076854073994e-04
1.22011904761905e+01 1.03025182589571e-02 9.96175568385025e-05
1.22892857142857e+01 1.02181451016131e-02 9.91577824438802e-05
1.23773809523810e+01 1.01344629240993e-02 9.86975941684637e-05
1.24654761904762e+01 1.00514660669200e-02 9.82370531362094e-05
1.25535714285714e+01 9.96914891826583e-03 9.77762189597342e-05
1.26416666666667e+01 9.88750591160900e-03 9.73151503598732e-05
1.27297619047619e+01 9.80653152537975e-03 9.68539040321183e-05
1.28178571428571e+01 9.72622028450180e-03 9.63925354470132e-05
1.29059523809524e+01 9.64656675747969e-03 9.59310987108988e-05
1.29940476190476e+01 9.56756555854127e-03 9.54696463915039e-05
1.30821428571429e+01 9.48921134539311e-03 9.50082302957485e-05
1.31702380952381e+01 9.41149881890874e-03 9.45469003962321e-05
1.32583333333333e+01 9.33442272454282e-03 9.40857055856752e-05
1.33464285714286e+01 9.25797784961353e-03 9.36246935425985e-05
1.34345238095238e+01 9.18215902528237e-03 9.31639105638819e-05
1.35226190476190e+01 9.10696112445846e-03 9.27034022983845e-05
1.36107142857143e+01 9.03237906149552e-03 9.22432127301389e-05
1.36988095238095e+01 8.95840779349750e-03 9.17833847253896e-05
1.37869047619048e+01 8.88504231831074e-03 9.13239605605617e-05
1.38750000000000e+01 8.81227767422783e-03 9.08649809411707e-05
1.39630952380952e+01 8.74010894122649e-03 9.04064856860807e-05
1.40511904761905e+01 8.66853123853939e-03 8.99485136024418e-05
1.41392857142857e+01 8.59753972639548e-03 8.94911023305512e-05
1.42273809523810e+01 8.52712960414130e-03 8.90342890099161e-05
1.43154761904762e+01 8.45729610995497e-03 8.85781093495347e-05
1.44035714285714e+01 8.38803452199081e-03 8.81225981242893e-05
1.44916666666667e+01 8.31934015657836e-03 8.76677896544562e-05
1.45797619047619e+01 8.25120836794162e-03 8.72137169082520e-05
1.46678571428571e+01 8.18363454928713e-03 8.67604121237533e-05
1.47559523809524e+01 8.11661413062503e-03 8.63079066927808e-05
1.48440476190476e+01 8.05014258030454e-03 8.58562310173801e-05
1.49321428571429e+01 7.98421540332559e-03 8.54054151157340e-05
1.50202380952381e+01 7.91882814106912e-03 8.49554877713294e-05
1.51083333333333e+01 7.85397637230281e-03 8.45064771209795e-05
1.51964285714286e+01 7.78965571114007e-03 8.40584105434576e-05
1.52845238095238e+01 7.72586180846438e-03 8.36113145222290e-05
1.53726190476190e+01 7.66259035034665e-03 8.31652152185905e-05
1.54607142857143e+01 7.59983705778400e-03 8.27201376648770e-05
1.55488095238095e+01 7.53759768763156e-03 8.22761061907596e-05
1.56369047619048e+01 7.47586803108227e-03 8.18331448355907e-05
1.57250000000000e+01 7.41464391341174e-03 8.13912765690953e-05
1.58130952380952e+01 7.35392119486458e-03 8.09505238273040e-05
1.59011904761905e+01 7.29369576881766e-03 8.05109084094210e-05
1.59892857142857e+01 7.23396356304056e-03 8.00724513510431e-05
1.60773809523810e+01 7.17472053826823e-03 7.96351734469158e-05
1.61654761904762e+01 7.11596268795492e-03 7.91990945116278e-05
1.62535714285714e+01 7.05768603909571e-03 7.87642337683067e-05
1.63416666666667e+01 6.99988665085480e-03 7.83306102248717e-05
1.64297619047619e+01 6.94256061432448e-03 7.78982419596404e-05
1.65178571428571e+01 6.88570405330763e-03 7.74671466104996e-05
1.66059523809524e+01 6.82931312266148e-03 7.70373412794991e-05
1.66940476190476e+01 6.77338400941529e-03 7.66088424158136e-05
1.67821428571429e+01 6.71791293148034e-03 7.61816662931860e-05
1.68702380952381e+01 6.66289613741853e-03 7.57558283319270e-05
1.69583333333333e+01 6.60832990716775e-03 7.53313435624133e-05
1.70464285714286e+01 6.55421055048571e-03 7.49082265337805e-05
1.71345238095238e+01 6.50053440798979e-03 7.44864912021412e-05
1.72226190476190e+01 6.44729784994410e-03 7.40661513831332e-05
1.73107142857143e+01 6.39449727603585e-03 7.36472201083138e-05
1.73988095238095e+01 6.34212911604916e-03 7.32297099611205e-05
1.74869047619048e+01 6.29018982869772e-03 7.28136334024349e-05
1.75750000000000e+01 6.23867590140640e-03 7.23990021483318e-05
1.76630952380952e+01 6.18758385095336e-03 7.19858275939587e-05
1.77511904761905e+01 6.13691022206275e-03 7.15741207291528e-05
1.78392857142857e+01 6.08665158832928e-03 7.11638920352980e-05
1.79273809523810e+01 6.03680455111904e-03 7.07551518994230e-05
1.80154761904762e+01 5.98736573935925e-03 7.03479100232900e-05
1.81035714285714e+01 5.93833181013480e-03 6.99421757307873e-05
1.81916666666667e+01 5.88969944763004e-03 6.95379582659603e-05
1.82797619047619e+01 5.84146536292293e-03 6.91352662215175e-05
1.83678571428571e+01 5.79362629455422e-03 6.87341079269326e-05
1.84559523809524e+01 5.74617900725273e-03 6.83344913704515e-05
1.85440476190476e+01 5.69912029275873e-03 6.79364241039182e-05
1.86321428571429e+01 5.65244696882620e-03 6.75399136221001e-05
1.87202380952381e+01 5.60615587902534e-03 6.71449668197734e-05
1.88083333333333e+01 5.56024389327131e-03 6.67515903600115e-05
1.88964285714286e+01 5.51470790662364e-03 6.63597905996451e-05
1.89845238095238e+01 5.46954484005398e-03 6.59695734984083e-05
1.90726190476190e+01 5.42475163950580e-03 6.55809449789782e-05
1.91607142857143e+01 5.38032527570371e-03 6.51939104111409e-05
1.92488095238095e+01 5.33626274464568e-03 6.48084748787321e-05
1.93369047619048e+01 5.29256106669655e-03 6.44246434386692e-05
1.94250000000000e+01 5.24921728640195e-03 6.40424206218188e-05
1.95130952380952e+01 5.20622847295797e-03 6.36618107707024e-05
1.96011904761905e+01 5.16359171912112e-03 6.32828179706281e-05
1.96892857142857e+01 5.12130414189358e-03 6.29054459658264e-05
1.97773809523810e+01 5.07936288166778e-03 6.25296984897449e-05
1.98654761904762e+01 5.03776510204733e-03 6.21555787906455e-05
1.99535714285714e+01 4.99650799028426e-03 6.17830898764565e-05
2.00416666666667e+01 4.95558875645416e-03 6.14122347525048e-05
2.01297619047619e+01 4.91500463328106e-03 6.10430159623469e-05
2.02178571428571e+01 4.87475287655506e-03 6.06754358976899e-05
2.03059523809524e+01 4.83483076414140e-03 6.03094967347489e-05
2.03940476190476e+01 4.79523559659277e-03 5.99452003568418e-05
2.04821428571429e+01 4.75596469637017e-03 5.95825486576340e-05
2.05702380952381e+01 4.71701540767479e-03 5.92215431045714e-05
2.06583333333333e+01 4.67838509683673e-03 5.88621850333234e-05
2.07464285714286e+01 4.64007115137977e-03 5.85044755869785e-05
2.08345238095238e+01 4.60207098059345e-03 5.81484156421707e-05
2.09226190476190e+01 4.56438201479722e-03 5.77940060972272e-05
2.10107142857143e+01 4.52700170517839e-03 5.74412474570363e-05
2.10988095238095e+01 4.48992752415457e-03 5.70901400464427e-05
2.11869047619048e+01 4.45315696466328e-03 5.67406842175906e-05
2.12750000000000e+01 4.41668754000387e-03 5.63928799479571e-05
2.13630952380952e+01 4.38051678418369e-03 5.60467271108899e-05
2.14511904761905e+01 4.34464225106625e-03 5.57022254194292e-05
2.15392857142857e+01 4.30906151488337e-03 5.53593743580753e-05
2.16273809523810e+01 4.27377216956365e-03 5.50181734476500e-05
2.17154761904762e+01 4.23877182858048e-03 5.46786218629513e-05
2.18035714285714e+01 4.20405812527466e-03 5.43407186289009e-05
2.18916666666667e+01 4.16962871220614e-03 5.40044628111919e-05
2.19797619047619e+01 4.13548126100537e-03 5.36698531459781e-05
2.20678571428571e+01 4.10161346268183e-03 5.33368882886379e-05
2.21559523809524e+01 4.06802302684737e-03 5.30055667618288e-05
2.22440476190476e+01 4.03470768217505e-03 5.26758868924803e-05
2.23321428571429e+01 4.00166517578583e-03 5.23478470554058e-05
2.24202380952381e+01 3.96889327310583e-03 5.20214453209580e-05
2.25083333333333e+01 3.93638975815392e-03 5.16966796915930e-05
2.25964285714286e+01 3.90415243280746e-03 5.13735480522534e-05
2.26845238095238e+01 3.87217911723172e-03 5.10520481102158e-05
2.27726190476190e+01 3.84046764929964e-03 5.07321776267894e-05
2.28607142857143e+01 3.80901588445437e-03 5.04139340820401e-05
2.29488095238095e+01 3.77782169597774e-03 5.00973148462282e-05
2.30369047619048e+01 3.74688297442945e-03 4.97823173465443e-05
2.31250000000000e+01 3.71619762751309e-03 4.94689387422800e-05
2.32130952380952e+01 3.68576358033265e-03 4.91571761425362e-05
2.33011904761905e+01 3.65557877472204e-03 4.88470265603521e-05
2.33892857142857e+01 3.62564116963042e-03 4.85384868571343e-05
2.34773809523810e+01 3.59594874059131e-03 4.82315539559514e-05
2.35654761904762e+01 3.56649947959374e-03 4.79262245323512e-05
2.36535714285714e+01 3.53729139532170e-03 4.76224951722082e-05
2.37416666666667e+01 3.50832251264105e-03 4.73203625252679e-05
2.38297619047619e+01 3.47959087247362e-03 4.70198230055276e-05
2.39178571428571e+01 3.45109453202631e-03 4.67208729917455e-05
2.40059523809524e+01 3.42283156417817e-03 4.64235087850043e-05
2.40940476190476e+01 3.39480005782649e-03 4.61277265573354e-05
2.41821428571429e+01 3.36699811740069e-03 4.58335225482142e-05
2.42702380952381e+01 3.33942386274142e-03 4.55408927793012e-05
2.43583333333333e+01 3.31207542931439e-03 4.52498332452591e-05
2.44464285714286e+01 3.28495096763003e-03 4.49603398732066e-05
2.45345238095238e+01 3.25804864356787e-03 4.46724084736773e-05
2.46226190476191e+01 3.23136663791592e-03 4.43860349276385e-05
2.47107142857143e+01 3.20490314625444e-03 4.41012149148794e-05
2.47988095238095e+01 3.17865637915558e-03 4.38179440522935e-05
2.48869047619048e+01 3.15262456173801e-03 4.35362180284639e-05
2.49750000000000e+01 3.12680593355339e-03 4.32560323403856e-05
2.50630952380952e+01 3.10119874877748e-03 4.29773824693217e-05
2.51511904761905e+01 3.07580127567895e-03 4.27002638432979e-05
2.52392857142857e+01 3.05061179691106e-03 4.24246717917545e-05
2.53273809523810e+01 3.02562860908936e-03 4.21506017179531e-05
2.54154761904762e+01 3.00085002268264e-03 4.18780488482243e-05
2.55035714285714e+01 2.97627436219136e-03 4.16070083594470e-05
2.55916666666667e+01 2.95189996573927e-03 4.13374755031676e-05
2.56797619047619e+01 2.92772518496680e-03 4.10694453624924e-05
2.57678571428571e+01 2.90374838520195e-03 4.08029130142464e-05
2.58559523809524e+01 2.87996794497375e-03 4.05378734942664e-05
2.59440476190476e+01 2.85638225627465e-03 4.02743217554489e-05
2.60321428571429e+01 2.83298972417309e-03 4.00122528267669e-05
2.61202380952381e+01 2.80978876671122e-03 3.97516615816920e-05
2.62083333333333e+01 2.78677781506446e-03 3.94925428926017e-05
2.62964285714286e+01 2.76395531308032e-03 3.92348915976282e-05
2.63845238095238e+01 2.74131971752454e-03 3.89787024606025e-05
2.64726190476190e+01 2.71886949771366e-03 3.87239703224861e-05
2.65607142857143e+01 2.69660313541655e-03 3.84706898807586e-05
2.66488095238095e+01 2.67451912500362e-03 3.82188558013106e-05
2.67369047619048e+01 2.65261597309117e-03 3.79684628274382e-05
2.68250000000000e+01 2.63089219844530e-03 3.77195055658962e-05
2.69130952380952e+01 2.60934633212477e-03 3.74719786293797e-05
2.70011904761905e+01 2.58797691705801e-03 3.72258766058258e-05
2.70892857142857e+01 2.56678250826488e-03 3.69811940213498e-05
2.71773809523810e+01 2.54576167251906e-03 3.67379254800065e-05
2.72654761904762e+01 2.52491298825585e-03 3.64960654599213e-05
2.73535714285714e+01 2.50423504570560e-03 3.62556084165720e-05
2.74416666666667e+01 2.48372644656694e-03 3.60165488834035e-05
2.75297619047619e+01 2.46338580391673e-03 3.57788812740944e-05
2.76178571428571e+01 2.44321174233781e-03 3.55426000140824e-05
2.77059523809524e+01 2.42320289753092e-03 3.53076995121397e-05
2.77940476190476e+01 2.40335791651449e-03 3.50741741260637e-05
