Energy (eV)          EEDF (eV^-(3/2))     First Anisotropy
2.31250000000000e-04 6.89132621762651e+01 2.88834061744227e-02
6.93750000000000e-04 6.84195517250668e+01 4.76841700197503e-02
1.15625000000000e-03 6.79293783290555e+01 6.29205838722425e-02
1.61875000000000e-03 6.74427166479349e+01 7.44788259590834e-02
2.08125000000000e-03 6.69595415229684e+01 8.41045011629091e-02
2.54375000000000e-03 6.64798279756650e+01 9.24578761401227e-02
3.00625000000000e-03 6.60035512064859e+01 9.98807750158548e-02
3.46875000000000e-03 6.55306865935624e+01 1.06579695006342e-01
3.93125000000000e-03 6.50612096914225e+01 1.12691640803278e-01
4.39375000000000e-03 6.45950962297274e+01 1.18313480990251e-01
4.85625000000000e-03 6.41323221120165e+01 1.23516949568543e-01
5.31875000000000e-03 6.36728634144618e+01 1.28357076186737e-01
5.78125000000000e-03 6.32166963846313e+01 1.32877269562605e-01
6.24375000000000e-03 6.27637974402605e+01 1.37112554747680e-01
6.70625000000000e-03 6.23141431680341e+01 1.41091726655883e-01
7.16875000000000e-03 6.18677103223750e+01 1.44838834799151e-01
7.63125000000000e-03 6.14244758242426e+01 1.48374237963686e-01
8.09375000000000e-03 6.09844167599403e+01 1.51715372633549e-01
8.55625000000000e-03 6.05475103799299e+01 1.54877325199570e-01
9.01875000000000e-03 6.01137340976566e+01 1.57873266218432e-01
9.48125000000000e-03 5.96830654883806e+01 1.60714785517678e-01
9.94375000000000e-03 5.92554822880183e+01 1.63412154631595e-01
1.04062500000000e-02 5.88309623919909e+01 1.65974535051099e-01
1.08687500000000e-02 5.84094838540821e+01 1.68410145441249e-01
1.13312500000000e-02 5.79910248853031e+01 1.70726397352764e-01
1.17937500000000e-02 5.75755638527666e+01 1.72930006436732e-01
1.22562500000000e-02 5.71630792785683e+01 1.75027084393730e-01
1.27187500000000e-02 5.67535498386764e+01 1.77023215612786e-01
1.31812500000000e-02 5.63469543618294e+01 1.78923521526814e-01
1.36437500000000e-02 5.59432718284417e+01 1.80732715025788e-01
1.41062500000000e-02 5.55424813695168e+01 1.82455146757114e-01
1.45687500000000e-02 5.51445622655683e+01 1.84094844755951e-01
1.50312500000000e-02 5.47494939455493e+01 1.85655548553361e-01
1.54937500000000e-02 5.43572559857883e+01 1.87140738682651e-01
1.59562500000000e-02 5.39678281089338e+01 1.88553662327535e-01
1.64187500000000e-02 5.35811901829060e+01 1.89897355717192e-01
1.68812500000000e-02 5.31973222198558e+01 1.91174663763547e-01
1.73437500000000e-02 5.28162043751317e+01 1.92388257349107e-01
1.78062500000000e-02 5.24378169462538e+01 1.93540648603667e-01
1.82687500000000e-02 5.20621403718955e+01 1.94634204451728e-01
1.87312500000000e-02 5.16891552308717e+01 1.95671158666792e-01
1.91937500000000e-02 5.13188422411354e+01 1.96653622631256e-01
1.96562500000000e-02 5.09511822587806e+01 1.97583594969918e-01
2.01187500000000e-02 5.05861562770525e+01 1.98462970199759e-01
2.05812500000000e-02 5.02237454253651e+01 1.99293546517698e-01
2.10437500000000e-02 4.98639309683257e+01 2.00077032830476e-01
2.15062500000000e-02 4.95066943047663e+01 2.00815055116205e-01
2.19687500000000e-02 4.91520169667817e+01 2.01509162194717e-01
2.24312500000000e-02 4.87998806187753e+01 2.02160830973562e-01
2.28937500000000e-02 4.84502670565107e+01 2.02771471227657e-01
2.33562500000000e-02 4.81031582061711e+01 2.03342429963072e-01
2.38187500000000e-02 4.77585361234244e+01 2.03874995409081e-01
2.42812500000000e-02 4.74163829924959e+01 2.04370400677074e-01
2.47437500000000e-02 4.70766811252473e+01 2.04829827120377e-01
2.52062500000000e-02 4.67394129602622e+01 2.05254407424835e-01
2.56687500000000e-02 4.64045610619380e+01 2.05645228456527e-01
2.61312500000000e-02 4.60721081195851e+01 2.06003333890018e-01
2.65937500000000e-02 4.57420369465313e+01 2.06329726637878e-01
2.70562500000000e-02 4.54143304792340e+01 2.06625371099908e-01
2.75187500000000e-02 4.50889717763975e+01 2.06891195248460e-01
2.79812500000000e-02 4.47659440180975e+01 2.07128092564576e-01
2.84437500000000e-02 4.44452305049116e+01 2.07336923838079e-01
2.89062500000000e-02 4.41268146570559e+01 2.07518518843315e-01
2.93687500000000e-02 4.38106800135276e+01 2.07673677901162e-01
2.98312500000000e-02 4.34968102312547e+01 2.07803173336863e-01
3.02937500000000e-02 4.31851890842505e+01 2.07907750842221e-01
3.07562500000000e-02 4.28758004627751e+01 2.07988130749840e-01
3.12187500000000e-02 4.25686283725023e+01 2.08045009226570e-01
3.16812500000000e-02 4.22636569336932e+01 2.08079059392348e-01
3.21437500000000e-02 4.19608703803747e+01 2.08090932370276e-01
3.26062500000000e-02 4.16602530595250e+01 2.08081258273197e-01
3.30687500000000e-02 4.13617894302640e+01 2.08050647131439e-01
3.35312500000000e-02 4.10654640630502e+01 2.07999689766198e-01
3.39937500000000e-02 4.07712616388827e+01 2.07928958612392e-01
3.44562500000000e-02 4.04791669485096e+01 2.07839008494647e-01
3.49187500000000e-02 4.01891648916414e+01 2.07730377359836e-01
3.53812500000000e-02 3.99012404761707e+01 2.07603586969061e-01
3.58437500000000e-02 3.96153788173969e+01 2.07459143551933e-01
3.63062500000000e-02 3.93315651372570e+01 2.07297538425688e-01
3.67687500000000e-02 3.90497847635611e+01 2.07119248581532e-01
3.72312500000000e-02 3.87700231292345e+01 2.06924737240389e-01
3.76937500000000e-02 3.84922657715644e+01 2.06714454379906e-01
3.81562500000000e-02 3.82164983314521e+01 2.06488837234744e-01
3.86187500000000e-02 3.79427065526706e+01 2.06248310771773e-01
3.90812500000000e-02 3.76708762811283e+01 2.05993288141749e-01
3.95437500000000e-02 3.74009934641362e+01 2.05724171108894e-01
4.00062500000000e-02 3.71330441496825e+01 2.05441350459789e-01
4.04687500000000e-02 3.68670144857103e+01 2.05145206392793e-01
4.09312500000000e-02 3.66028907194023e+01 2.04836108889154e-01
4.13937500000000e-02 3.63406591964697e+01 2.04514418066908e-01
4.18562500000000e-02 3.60803063604460e+01 2.04180484518558e-01
4.23187500000000e-02 3.58218187519862e+01 2.03834649633462e-01
4.27812500000000e-02 3.55651830081713e+01 2.03477245905766e-01
4.32437500000000e-02 3.53103858618173e+01 2.03108597228764e-01
4.37062500000000e-02 3.50574141407895e+01 2.02729019176392e-01
4.41687500000000e-02 3.48062547673211e+01 2.02338819272579e-01
4.46312500000000e-02 3.45568947573376e+01 2.01938297249093e-01
4.50937500000000e-02 3.43093212197855e+01 2.01527745292525e-01
4.55562500000000e-02 3.40635213559655e+01 2.01107448280956e-01
4.60187500000000e-02 3.38194824588713e+01 2.00677684010896e-01
4.64812500000000e-02 3.35771919125326e+01 2.00238723414976e-01
4.69437500000000e-02 3.33366371913626e+01 1.99790830770835e-01
4.74062500000000e-02 3.30978058595108e+01 1.99334263901678e-01
4.78687500000000e-02 3.28606855702199e+01 1.98869274368967e-01
4.83312500000000e-02 3.26252640651878e+01 1.98396107657554e-01
4.87937500000000e-02 3.23915291739335e+01 1.97915003353663e-01
4.92562500000000e-02 3.21594688131683e+01 1.97426195316116e-01
4.97187500000000e-02 3.19290709861708e+01 1.96929911841053e-01
5.01812500000000e-02 3.17003237821668e+01 1.96426375820478e-01
5.06437500000000e-02 3.14732153757140e+01 1.95915804894966e-01
5.11062500000000e-02 3.12477340260898e+01 1.95398411600752e-01
5.15687500000000e-02 3.10238680766852e+01 1.94874403511490e-01
5.20312500000000e-02 3.08016059544016e+01 1.94343983374922e-01
5.24937500000000e-02 3.05809361690530e+01 1.93807349244664e-01
5.29562500000000e-02 3.03618473127714e+01 1.93264694607381e-01
5.34187500000000e-02 3.01443280594177e+01 1.92716208505493e-01
5.38812500000000e-02 2.99283671639956e+01 1.92162075655638e-01
5.43437500000000e-02 2.97139534620707e+01 1.91602476563120e-01
5.48062500000000e-02 2.95010758691932e+01 1.91037587632451e-01
5.52687500000000e-02 2.92897233803247e+01 1.90467581274165e-01
5.57312500000000e-02 2.90798850692695e+01 1.89892626008081e-01
5.61937500000000e-02 2.88715500881098e+01 1.89312886563161e-01
5.66562500000000e-02 2.86647076666446e+01 1.88728523974136e-01
5.71187500000000e-02 2.84593471118331e+01 1.88139695674947e-01
5.75812500000000e-02 2.82554578072420e+01 1.87546555589206e-01
5.80437500000000e-02 2.80530292124965e+01 1.86949254217792e-01
5.85062500000000e-02 2.78520508627356e+01 1.86347938723656e-01
5.89687500000000e-02 2.76525123680708e+01 1.85742753014000e-01
5.94312500000000e-02 2.74544034130492e+01 1.85133837819878e-01
5.98937500000000e-02 2.72577137561202e+01 1.84521330773362e-01
6.03562500000000e-02 2.70624332291060e+01 1.83905366482355e-01
6.08187500000000e-02 2.68685517366760e+01 1.83286076603149e-01
6.12812500000000e-02 2.66760592558249e+01 1.82663589910760e-01
6.17437500000000e-02 2.64849458353543e+01 1.82038032367219e-01
6.22062500000000e-02 2.62952015953588e+01 1.81409527187835e-01
6.26687500000000e-02 2.61068167267147e+01 1.80778194905500e-01
6.31312500000000e-02 2.59197814905731e+01 1.80144153433140e-01
6.35937500000000e-02 2.57340862178566e+01 1.79507518124342e-01
6.40562500000000e-02 2.55497213087591e+01 1.78868401832275e-01
6.45187500000000e-02 2.53666772322499e+01 1.78226914966923e-01
6.49812500000000e-02 2.51849445255808e+01 1.77583165550697e-01
6.54437500000000e-02 2.50045137937967e+01 1.76937259272510e-01
6.59062500000000e-02 2.48253757092503e+01 1.76289299540315e-01
6.63687500000000e-02 2.46475210111196e+01 1.75639387532242e-01
6.68312500000000e-02 2.44709405049293e+01 1.74987622246285e-01
6.72937500000000e-02 2.42956250620756e+01 1.74334100548685e-01
6.77562500000000e-02 2.41215656193538e+01 1.73678917220999e-01
6.82187500000000e-02 2.39487531784903e+01 1.73022165005847e-01
6.86812500000000e-02 2.37771788056770e+01 1.72363934651520e-01
6.91437500000000e-02 2.36068336311100e+01 1.71704314955365e-01
6.96062500000000e-02 2.34377088485305e+01 1.71043392806073e-01
7.00687500000000e-02 2.32697957147696e+01 1.70381253224806e-01
7.05312500000000e-02 2.31030855492968e+01 1.69717979405292e-01
7.09937500000000e-02 2.29375697337708e+01 1.69053652752906e-01
7.14562500000000e-02 2.27732397115938e+01 1.68388352922703e-01
7.19187500000000e-02 2.26100869874699e+01 1.67722157856535e-01
7.23812500000000e-02 2.24481031269652e+01 1.67055143819198e-01
7.28437500000000e-02 2.22872797560719e+01 1.66387385433671e-01
7.33062500000000e-02 2.21276085607758e+01 1.65718955715534e-01
7.37687500000000e-02 2.19690812866261e+01 1.65049926106456e-01
7.42312500000000e-02 2.18116897383086e+01 1.64380366506891e-01
7.46937500000000e-02 2.16554257792225e+01 1.63710345308000e-01
7.51562500000000e-02 2.15002813310593e+01 1.63039929422764e-01
7.56187500000000e-02 2.13462483733854e+01 1.62369184316344e-01
7.60812500000000e-02 2.11933189432275e+01 1.61698174035740e-01
7.65437500000000e-02 2.10414851346608e+01 1.61026961238708e-01
7.70062500000000e-02 2.08907390984003e+01 1.60355607222017e-01
7.74687500000000e-02 2.07410730413952e+01 1.59684171949035e-01
7.79312500000000e-02 2.05924792264259e+01 1.59012714076648e-01
7.83937500000000e-02 2.04449499717039e+01 1.58341290981569e-01
7.88562500000000e-02 2.02984776504750e+01 1.57669958786032e-01
7.93187500000000e-02 2.01530546906245e+01 1.56998772382887e-01
7.97812500000000e-02 2.00086735742865e+01 1.56327785460127e-01
8.02437500000000e-02 1.98653268374545e+01 1.55657050524862e-01
8.07062500000000e-02 1.97230070695959e+01 1.54986618926719e-01
8.11687500000000e-02 1.95817069132689e+01 1.54316540880737e-01
8.16312500000000e-02 1.94414190637422e+01 1.53646865489751e-01
8.20937500000000e-02 1.93021362686171e+01 1.52977640766247e-01
8.25562500000000e-02 1.91638513274529e+01 1.52308913653779e-01
8.30187500000000e-02 1.90265570913945e+01 1.51640730047854e-01
8.34812500000000e-02 1.88902464628026e+01 1.50973134816394e-01
8.39437500000000e-02 1.87549123948874e+01 1.50306171819763e-01
8.44062500000000e-02 1.86205478913436e+01 1.49639883930301e-01
8.48687500000000e-02 1.84871460059893e+01 1.48974313051479e-01
8.53312500000000e-02 1.83546998424064e+01 1.48309500136634e-01
8.57937500000000e-02 1.82232025535846e+01 1.47645485207300e-01
8.62562500000000e-02 1.80926473415668e+01 1.46982307371133e-01
8.67187500000000e-02 1.79630274570983e+01 1.46320004839457e-01
8.71812500000000e-02 1.78343361992776e+01 1.45658614944459e-01
8.76437500000000e-02 1.77065669152098e+01 1.44998174155989e-01
8.81062500000000e-02 1.75797129996632e+01 1.44338718098030e-01
8.85687500000000e-02 1.74537678947271e+01 1.43680281564827e-01
8.90312500000000e-02 1.73287250894735e+01 1.43022898536659e-01
8.94937500000000e-02 1.72045781196200e+01 1.42366602195280e-01
8.99562500000000e-02 1.70813205671959e+01 1.41711424939075e-01
9.04187500000000e-02 1.69589460602102e+01 1.41057398397879e-01
9.08812500000000e-02 1.68374482723226e+01 1.40404553447493e-01
9.13437500000000e-02 1.67168209225158e+01 1.39752920223894e-01
9.18062500000000e-02 1.65970577747713e+01 1.39102528137197e-01
9.22687500000000e-02 1.64781526377470e+01 1.38453405885291e-01
9.27312500000000e-02 1.63600993644567e+01 1.37805581467213e-01
9.31937500000000e-02 1.62428918519529e+01 1.37159082196254e-01
9.36562500000000e-02 1.61265240410109e+01 1.36513934712800e-01
9.41187500000000e-02 1.60109899158157e+01 1.35870164996937e-01
9.45812500000000e-02 1.58962835036509e+01 1.35227798380796e-01
9.50437500000000e-02 1.57823988745901e+01 1.34586859560615e-01
9.55062500000000e-02 1.56693301411904e+01 1.33947372608599e-01
9.59687500000000e-02 1.55570714581875e+01 1.33309360984578e-01
9.64312500000000e-02 1.54456170221944e+01 1.32672847547375e-01
9.68937500000000e-02 1.53349610714004e+01 1.32037854565982e-01
9.73562500000000e-02 1.52250978852742e+01 1.31404403730506e-01
9.78187500000000e-02 1.51160217842673e+01 1.30772516162930e-01
9.82812500000000e-02 1.50077271295212e+01 1.30142212427640e-01
9.87437500000000e-02 1.49002083225750e+01 1.29513512541752e-01
9.92062500000000e-02 1.47934598050769e+01 1.28886435985255e-01
9.96687500000000e-02 1.46874760584962e+01 1.28261001710949e-01
1.00131250000000e-01 1.45822516038383e+01 1.27637228154205e-01
1.00593750000000e-01 1.44777810013612e+01 1.27015133242508e-01
1.01056250000000e-01 1.43740588502946e+01 1.26394734404858e-01
1.01518750000000e-01 1.42710797885607e+01 1.25776048580970e-01
1.01981250000000e-01 1.41688384924965e+01 1.25159092230320e-01
1.02443750000000e-01 1.40673296765794e+01 1.24543881340992e-01
1.02906250000000e-01 1.39665480931530e+01 1.23930431438381e-01
1.03368750000000e-01 1.38664885321568e+01 1.23318757593737e-01
1.03831250000000e-01 1.37671458208560e+01 1.22708874432542e-01
1.04293750000000e-01 1.36685148235746e+01 1.22100796142719e-01
1.04756250000000e-01 1.35705904414298e+01 1.21494536482692e-01
1.05218750000000e-01 1.34733676120683e+01 1.20890108789341e-01
1.05681250000000e-01 1.33768413094048e+01 1.20287525985758e-01
1.06143750000000e-01 1.32810065433618e+01 1.19686800588867e-01
1.06606250000000e-01 1.31858583596121e+01 1.19087944716932e-01
1.07068750000000e-01 1.30913918393222e+01 1.18490970096900e-01
1.07531250000000e-01 1.29976020988984e+01 1.17895888071630e-01
1.07993750000000e-01 1.29044842897343e+01 1.17302709606988e-01
1.08456250000000e-01 1.28120335979598e+01 1.16711445298800e-01
1.08918750000000e-01 1.27202452441926e+01 1.16122105379683e-01
1.09381250000000e-01 1.26291144832910e+01 1.15534699725763e-01
1.09843750000000e-01 1.25386366041084e+01 1.14949237863268e-01
1.10306250000000e-01 1.24488069292503e+01 1.14365728974994e-01
1.10768750000000e-01 1.23596208148318e+01 1.13784181906664e-01
1.11231250000000e-01 1.22710736502379e+01 1.13204605173194e-01
1.11693750000000e-01 1.21831608578854e+01 1.12627006964781e-01
1.12156250000000e-01 1.20958778929855e+01 1.12051395152953e-01
1.12618750000000e-01 1.20092202433097e+01 1.11477777296483e-01
1.13081250000000e-01 1.19231834289560e+01 1.10906160647196e-01
1.13543750000000e-01 1.18377630021174e+01 1.10336552155686e-01
1.14006250000000e-01 1.17529545468520e+01 1.09768958476907e-01
1.14468750000000e-01 1.16687536788549e+01 1.09203385975693e-01
1.14931250000000e-01 1.15851560452312e+01 1.08639840732165e-01
1.15393750000000e-01 1.15021573242711e+01 1.08078328547051e-01
1.15856250000000e-01 1.14197532252267e+01 1.07518854946915e-01
1.16318750000000e-01 1.13379394880899e+01 1.06961425189272e-01
1.16781250000000e-01 1.12567118833723e+01 1.06406044267641e-01
1.17243750000000e-01 1.11760662118864e+01 1.05852716916508e-01
1.17706250000000e-01 1.10959983045289e+01 1.05301447616178e-01
1.18168750000000e-01 1.10165040220648e+01 1.04752240597570e-01
1.18631250000000e-01 1.09375792549133e+01 1.04205099846915e-01
1.19093750000000e-01 1.08592199229360e+01 1.03660029110380e-01
1.19556250000000e-01 1.07814219752253e+01 1.03117031898605e-01
1.20018750000000e-01 1.07041813898952e+01 1.02576111491163e-01
1.20481250000000e-01 1.06274941738734e+01 1.02037270940942e-01
1.20943750000000e-01 1.05513563626952e+01 1.01500513078463e-01
1.21406250000000e-01 1.04757640202979e+01 1.00965840516108e-01
1.21868750000000e-01 1.04007132388177e+01 1.00433255652286e-01
1.22331250000000e-01 1.03262001383878e+01 9.99027606755215e-02
1.22793750000000e-01 1.02522208669375e+01 9.93743575684867e-02
1.23256250000000e-01 1.01787715999934e+01 9.88480481119469e-02
1.23718750000000e-01 1.01058485404812e+01 9.83238338886363e-02
1.24181250000000e-01 1.00334479185300e+01 9.78017162870933e-02
1.24643750000000e-01 9.96156599127706e+00 9.72816965054073e-02
1.25106250000000e-01 9.89019904267426e+00 9.67637755549106e-02
1.25568750000000e-01 9.81934338329620e+00 9.62479542638058e-02
1.26031250000000e-01 9.74899535014934e+00 9.57342332807332e-02
1.26493750000000e-01 9.67915130648267e+00 9.52226130782719e-02
1.26956250000000e-01 9.60980764159972e+00 9.47130939563902e-02
1.27418750000000e-01 9.54096077067184e+00 9.42056760458428e-02
1.27881250000000e-01 9.47260713455296e+00 9.37003593114852e-02
1.28343750000000e-01 9.40474319959552e+00 9.31971435555639e-02
1.28806250000000e-01 9.33736545746783e+00 9.26960284209257e-02
1.29268750000000e-01 9.27047042497271e+00 9.21970133941908e-02
1.29731250000000e-01 9.20405464386738e+00 9.17000978088634e-02
1.30193750000000e-01 9.13811468068472e+00 9.12052808483794e-02
1.30656250000000e-01 9.07264712655578e+00 9.07125615491414e-02
1.31118750000000e-01 9.00764859703347e+00 9.02219388034603e-02
1.31581250000000e-01 8.94311573191772e+00 8.97334113624501e-02
1.32043750000000e-01 8.87904519508168e+00 8.92469778389187e-02
1.32506250000000e-01 8.81543367429927e+00 8.87626367101709e-02
1.32968750000000e-01 8.75227788107398e+00 8.82803863207546e-02
1.33431250000000e-01 8.68957455046882e+00 8.78002248851932e-02
1.33893750000000e-01 8.62732044093758e+00 8.73221504906689e-02
1.34356250000000e-01 8.56551233415723e+00 8.68461610996352e-02
1.34818750000000e-01 8.50414703486153e+00 8.63722545524051e-02
1.35281250000000e-01 8.44322137067589e+00 8.59004285697056e-02
1.35743750000000e-01 8.38273219195330e+00 8.54306807551677e-02
1.36206250000000e-01 8.32267637161159e+00 8.49630085977749e-02
1.36668750000000e-01 8.26305080497169e+00 8.44974094742917e-02
1.37131250000000e-01 8.20385240959718e+00 8.40338806516464e-02
1.37593750000000e-01 8.14507812513494e+00 8.35724192892566e-02
1.38056250000000e-01 8.08672491315689e+00 8.31130224413336e-02
1.38518750000000e-01 8.02878975700296e+00 8.26556870591375e-02
1.38981250000000e-01 7.97126966162513e+00 8.22004099931996e-02
1.39443750000000e-01 7.91416165343259e+00 8.17471879955142e-02
1.39906250000000e-01 7.85746278013803e+00 8.12960177216822e-02
1.40368750000000e-01 7.80117011060499e+00 8.08468957330316e-02
1.40831250000000e-01 7.74528073469634e+00 8.03998184986935e-02
1.41293750000000e-01 7.68979176312385e+00 7.99547823976301e-02
1.41756250000000e-01 7.63470032729882e+00 7.95117837206644e-02
1.42218750000000e-01 7.58000357918378e+00 7.90708186724550e-02
1.42681250000000e-01 7.52569869114525e+00 7.86318833734353e-02
1.43143750000000e-01 7.47178285580756e+00 7.81949738617233e-02
1.43606250000000e-01 7.41825328590774e+00 7.77600860950007e-02
1.44068750000000e-01 7.36510721415139e+00 7.73272159523641e-02
1.44531250000000e-01 7.31234189306966e+00 7.68963592361454e-02
1.44993750000000e-01 7.25995459487720e+00 7.64675116736963e-02
1.45456250000000e-01 7.20794261133114e+00 7.60406689191435e-02
1.45918750000000e-01 7.15630325359106e+00 7.56158265551243e-02
