Energy (eV)          EEDF (eV^-(3/2))     First Anisotropy
2.29230769230769e-03 1.40194819202007e+00 6.43572399797008e-04
6.87692307692308e-03 1.39452637696270e+00 1.06348319269082e-03
1.14615384615385e-02 1.38714385246129e+00 1.40593907168500e-03
1.60461538461538e-02 1.37980041049255e+00 1.66733908502528e-03
2.06307692307692e-02 1.37249584423292e+00 1.88637355856364e-03
2.52153846153846e-02 1.36522994782638e+00 2.07763726735788e-03
2.98000000000000e-02 1.35800251655948e+00 2.24866660466481e-03
3.43846153846154e-02 1.35081334680138e+00 2.40400292904173e-03
3.89692307692308e-02 1.34366223599903e+00 2.54665183436127e-03
4.35538461538462e-02 1.33654898267177e+00 2.67873317865956e-03
4.81384615384615e-02 1.32947338642042e+00 2.80181292709180e-03
5.27230769230769e-02 1.32243524787514e+00 2.91708944419274e-03
5.73076923076923e-02 1.31543436873789e+00 3.02550571764270e-03
6.18923076923077e-02 1.30847055176032e+00 3.12782076286953e-03
6.64769230769231e-02 1.30154360073806e+00 3.22465707366943e-03
7.10615384615385e-02 1.29465332050557e+00 3.31653330653356e-03
7.56461538461538e-02 1.28779951693051e+00 3.40388747466906e-03
8.02307692307692e-02 1.28098199691673e+00 3.48709383458385e-03
8.48153846153846e-02 1.27420056837278e+00 3.56647544420063e-03
8.94000000000000e-02 1.26745504023309e+00 3.64231368376703e-03
9.39846153846154e-02 1.26074522244355e+00 3.71485560059367e-03
9.85692307692308e-02 1.25407092595616e+00 3.78431964755408e-03
1.03153846153846e-01 1.24743196275471e+00 3.85090025465276e-03
1.07738461538462e-01 1.24082814571917e+00 3.91477145414976e-03
1.12323076923077e-01 1.23425928884886e+00 3.97608985885241e-03
1.16907692307692e-01 1.22772520700975e+00 4.03499708508916e-03
1.21492307692308e-01 1.22122571616194e+00 4.09162174533399e-03
1.26076923076923e-01 1.21476063318021e+00 4.14608114810779e-03
1.30661538461538e-01 1.20832977586240e+00 4.19848264843488e-03
1.35246153846154e-01 1.20193296306916e+00 4.24892486106036e-03
1.39830769230769e-01 1.19557001452451e+00 4.29749865736427e-03
1.44415384615385e-01 1.18924075099947e+00 4.34428801592514e-03
1.49000000000000e-01 1.18294499416600e+00 4.38937078997518e-03
1.53584615384615e-01 1.17668256660107e+00 4.43281930206579e-03
1.58169230769231e-01 1.17045329190248e+00 4.47470091991179e-03
1.62753846153846e-01 1.16425699455974e+00 4.51507855924676e-03
1.67338461538462e-01 1.15809349995653e+00 4.55401106683499e-03
1.71923076923077e-01 1.15196263447359e+00 4.59155361902339e-03
1.76507692307692e-01 1.14586422533988e+00 4.62775804415944e-03
1.81092307692308e-01 1.13979810076824e+00 4.66267310681125e-03
1.85676923076923e-01 1.13376408984522e+00 4.69634479108565e-03
1.90261538461538e-01 1.12776202253211e+00 4.72881649448260e-03
1.94846153846154e-01 1.12179172975278e+00 4.76012925829740e-03
1.99430769230769e-01 1.11585304326504e+00 4.79032194695260e-03
2.04015384615385e-01 1.10994579577713e+00 4.81943140806520e-03
2.08600000000000e-01 1.10406982085227e+00 4.84749264518784e-03
2.13184615384615e-01 1.09822495290842e+00 4.87453891953039e-03
2.17769230769231e-01 1.09241102729451e+00 4.90060188978109e-03
2.22353846153846e-01 1.08662788020324e+00 4.92571173935451e-03
2.26938461538462e-01 1.08087534867027e+00 4.94989724593338e-03
2.31523076923077e-01 1.07515327064378e+00 4.97318589498065e-03
2.36107692307692e-01 1.06946148488100e+00 4.99560395942192e-03
2.40692307692308e-01 1.06379983104069e+00 5.01717657160638e-03
2.45276923076923e-01 1.05816814960590e+00 5.03792781422819e-03
2.49861538461538e-01 1.05256628188267e+00 5.05788075585942e-03
2.54446153846154e-01 1.04699407006133e+00 5.07705753050216e-03
2.59030769230769e-01 1.04145135712421e+00 5.09547938835552e-03
2.63615384615385e-01 1.03593798692752e+00 5.11316674179831e-03
2.68200000000000e-01 1.03045380413230e+00 5.13013923124994e-03
2.72784615384615e-01 1.02499865420273e+00 5.14641574120188e-03
2.77369230769231e-01 1.01957238346052e+00 5.16201445466137e-03
2.81953846153846e-01 1.01417483902083e+00 5.17695290384861e-03
2.86538461538462e-01 1.00880586879020e+00 5.19124797880940e-03
2.91123076923077e-01 1.00346532151707e+00 5.20491597734787e-03
2.95707692307692e-01 9.98153046714475e-01 5.21797263136078e-03
3.00292307692308e-01 9.92868894727666e-01 5.23043313066066e-03
3.04876923076923e-01 9.87612716676007e-01 5.24231216609303e-03
3.09461538461538e-01 9.82384364450829e-01 5.25362392953272e-03
3.14046153846154e-01 9.77183690760698e-01 5.26438215338024e-03
3.18630769230769e-01 9.72010549061259e-01 5.27460012848823e-03
3.23215384615385e-01 9.66864793616106e-01 5.28429072028955e-03
3.27800000000000e-01 9.61746279444000e-01 5.29346640362762e-03
3.32384615384615e-01 9.56654862316445e-01 5.30213925745703e-03
3.36969230769231e-01 9.51590398798623e-01 5.31032099346256e-03
3.41553846153846e-01 9.46552746199715e-01 5.31802298308368e-03
3.46138461538462e-01 9.41541762570397e-01 5.32525625021873e-03
3.50723076923077e-01 9.36557306741131e-01 5.33203150010645e-03
3.55307692307692e-01 9.31599238261817e-01 5.33835912930013e-03
3.59892307692308e-01 9.26667417453398e-01 5.34424923449145e-03
3.64476923076923e-01 9.21761705362266e-01 5.34971163865972e-03
3.69061538461538e-01 9.16881963757727e-01 5.35475588130915e-03
3.73646153846154e-01 9.12028055166768e-01 5.35939124309966e-03
3.78230769230769e-01 9.07199842818592e-01 5.36362675277766e-03
3.82815384615385e-01 9.02397190691654e-01 5.36747119318839e-03
3.87400000000000e-01 8.97619963471710e-01 5.37093312386746e-03
3.91984615384615e-01 8.92868026549160e-01 5.37402086978611e-03
3.96569230769231e-01 8.88141246050819e-01 5.37674253961636e-03
4.01153846153846e-01 8.83439488800135e-01 5.37910604313815e-03
4.05738461538462e-01 8.78762622314503e-01 5.38111907951962e-03
4.10323076923077e-01 8.74110514835188e-01 5.38278915708930e-03
4.14907692307692e-01 8.69483035278755e-01 5.38412359718499e-03
4.19492307692308e-01 8.64880053277655e-01 5.38512953732518e-03
4.24076923076923e-01 8.60301439143352e-01 5.38581394963948e-03
4.28661538461538e-01 8.55747063863657e-01 5.38618362854524e-03
4.33246153846154e-01 8.51216799130147e-01 5.38624520838983e-03
4.37830769230769e-01 8.46710517293120e-01 5.38600516603124e-03
4.42415384615385e-01 8.42228091398914e-01 5.38546982283925e-03
4.47000000000000e-01 8.37769395155677e-01 5.38464536126834e-03
4.51584615384615e-01 8.33334302930659e-01 5.38353781225981e-03
4.56169230769231e-01 8.28922689775452e-01 5.38215306842078e-03
4.60753846153846e-01 8.24534431393356e-01 5.38049689665744e-03
4.65338461538462e-01 8.20169404136666e-01 5.37857492560771e-03
4.69923076923077e-01 8.15827485030567e-01 5.37639266062070e-03
4.74507692307692e-01 8.11508551733177e-01 5.37395548500384e-03
4.79092307692308e-01 8.07212482568159e-01 5.37126866080030e-03
4.83676923076923e-01 8.02939156494255e-01 5.36833734299688e-03
4.88261538461538e-01 7.98688453102615e-01 5.36516656699338e-03
4.92846153846154e-01 7.94460252638838e-01 5.36176126233143e-03
4.97430769230769e-01 7.90254435965674e-01 5.35812625336431e-03
5.02015384615385e-01 7.86070884593196e-01 5.35426625950674e-03
5.06600000000000e-01 7.81909480650344e-01 5.35018590832128e-03
5.11184615384615e-01 7.77770106882240e-01 5.34588972314038e-03
5.15769230769231e-01 7.73652646670596e-01 5.34138213332367e-03
5.20353846153846e-01 7.69556984006471e-01 5.33666748413700e-03
5.24938461538462e-01 7.65483003487593e-01 5.33175002457219e-03
5.29523076923077e-01 7.61430590337759e-01 5.32663391939977e-03
5.34107692307692e-01 7.57399630373417e-01 5.32132324922670e-03
5.38692307692308e-01 7.53390010030297e-01 5.31582201019232e-03
5.43276923076923e-01 7.49401616337833e-01 5.31013412552911e-03
5.47861538461539e-01 7.45434336916543e-01 5.30426343364189e-03
5.52446153846154e-01 7.41488059996018e-01 5.29821369933977e-03
5.57030769230769e-01 7.37562674383559e-01 5.29198861361840e-03
5.61615384615385e-01 7.33658069488951e-01 5.28559179310638e-03
5.66200000000000e-01 7.29774135300439e-01 5.27902679087165e-03
5.70784615384615e-01 7.25910762382126e-01 5.27229708480288e-03
5.75369230769231e-01 7.22067841890698e-01 5.26540608598456e-03
5.79953846153846e-01 7.18245265552357e-01 5.25835714679014e-03
5.84538461538462e-01 7.14442925660233e-01 5.25115354950927e-03
5.89123076923077e-01 7.10660715090326e-01 5.24379851641789e-03
5.93707692307692e-01 7.06898527273201e-01 5.23629520927114e-03
5.98292307692308e-01 7.03156256216006e-01 5.22864672850181e-03
6.02876923076923e-01 6.99433796480729e-01 5.22085612294743e-03
6.07461538461538e-01 6.95731043181664e-01 5.21292637880948e-03
6.12046153846154e-01 6.92047892000261e-01 5.20486042913338e-03
6.16630769230769e-01 6.88384239158447e-01 5.19666115316903e-03
6.21215384615385e-01 6.84739981439195e-01 5.18833137545573e-03
6.25800000000000e-01 6.81115016166015e-01 5.17987387499682e-03
6.30384615384615e-01 6.77509241200455e-01 5.17129137456175e-03
6.34969230769231e-01 6.73922554955952e-01 5.16258654773954e-03
6.39553846153846e-01 6.70354856378091e-01 5.15376202576893e-03
6.44138461538462e-01 6.66806044942119e-01 5.14482038709009e-03
6.48723076923077e-01 6.63276020666192e-01 5.13576416595983e-03
6.53307692307692e-01 6.59764684087134e-01 5.12659585168311e-03
6.57892307692308e-01 6.56271936278842e-01 5.11731788759459e-03
6.62476923076923e-01 6.52797678833601e-01 5.10793267941937e-03
6.67061538461538e-01 6.49341813859668e-01 5.09844258516816e-03
6.71646153846154e-01 6.45904243993638e-01 5.08884992330250e-03
6.76230769230769e-01 6.42484872377530e-01 5.07915697190436e-03
6.80815384615385e-01 6.39083602676030e-01 5.06936596761174e-03
6.85400000000000e-01 6.35700339058817e-01 5.05947911355451e-03
6.89984615384615e-01 6.32334986198174e-01 5.04949856958768e-03
6.94569230769231e-01 6.28987449280569e-01 5.03942645835308e-03
6.99153846153846e-01 6.25657633989596e-01 5.02926487116266e-03
7.03738461538462e-01 6.22345446503617e-01 5.01901585846701e-03
7.08323076923077e-01 6.19050793506846e-01 5.00868143734432e-03
7.12907692307692e-01 6.15773582168425e-01 4.99826359062433e-03
7.17492307692308e-01 6.12513720157929e-01 4.98776426579292e-03
7.22076923076923e-01 6.09271115629181e-01 4.97718538228493e-03
7.26661538461538e-01 6.06045677217950e-01 4.96652882228187e-03
7.31246153846154e-01 6.02837314052337e-01 4.95579643784317e-03
7.35830769230769e-01 5.99645935732939e-01 4.94499005000559e-03
7.40415384615385e-01 5.96471452347409e-01 4.93411144767691e-03
7.45000000000000e-01 5.93313774455107e-01 4.92316239458662e-03
7.49584615384615e-01 5.90172813084837e-01 4.91214462040428e-03
7.54169230769231e-01 5.87048479744589e-01 4.90105982602401e-03
7.58753846153846e-01 5.83940686406695e-01 4.88990968869884e-03
7.63338461538462e-01 5.80849345505596e-01 4.87869585337677e-03
7.67923076923077e-01 5.77774369947181e-01 4.86741993928465e-03
7.72507692307692e-01 5.74715673090602e-01 4.85608353901909e-03
7.77092307692308e-01 5.71673168761419e-01 4.84468821744979e-03
7.81676923076923e-01 5.68646771237484e-01 4.83323551814666e-03
7.86261538461538e-01 5.65636395246766e-01 4.82172695501803e-03
7.90846153846154e-01 5.62641955976119e-01 4.81016401860027e-03
7.95430769230769e-01 5.59663369053998e-01 4.79854817514782e-03
8.00015384615385e-01 5.56700550562839e-01 4.78688086554135e-03
8.04600000000000e-01 5.53753417025637e-01 4.77516351143223e-03
8.09184615384615e-01 5.50821885403809e-01 4.76339750717625e-03
8.13769230769231e-01 5.47905873105441e-01 4.75158422448721e-03
8.18353846153846e-01 5.45005297972287e-01 4.73972501696515e-03
8.22938461538462e-01 5.42120078277662e-01 4.72782121222687e-03
8.27523076923077e-01 5.39250132734358e-01 4.71587411773948e-03
8.32107692307692e-01 5.36395380478737e-01 4.70388501992632e-03
8.36692307692308e-01 5.33555741081947e-01 4.69185518310455e-03
8.41276923076923e-01 5.30731134537539e-01 4.67978585518845e-03
8.45861538461539e-01 5.27921481259408e-01 4.66767826009923e-03
8.50446153846154e-01 5.25126702089244e-01 4.65553360335277e-03
8.55030769230769e-01 5.22346718281381e-01 4.64335307117238e-03
8.59615384615385e-01 5.19581451513384e-01 4.63113782944107e-03
8.64200000000000e-01 5.16830823874245e-01 4.61888902916850e-03
8.68784615384615e-01 5.14094757862369e-01 4.60660779916919e-03
8.73369230769231e-01 5.11373176392592e-01 4.59429525019038e-03
8.77953846153846e-01 5.08666002784735e-01 4.58195247893330e-03
8.82538461538462e-01 5.05973160761615e-01 4.56958056090866e-03
8.87123076923077e-01 5.03294574455794e-01 4.55718055563683e-03
8.91707692307692e-01 5.00630168395585e-01 4.54475350578851e-03
8.96292307692308e-01 4.97979867514678e-01 4.53230043617543e-03
9.00876923076923e-01 4.95343597141213e-01 4.51982235884291e-03
9.05461538461539e-01 4.92721282995846e-01 4.50732026617741e-03
9.10046153846154e-01 4.90112851198102e-01 4.49479513589619e-03
9.14630769230769e-01 4.87518228253033e-01 4.48224793020206e-03
9.19215384615385e-01 4.84937341060310e-01 4.46967959479452e-03
9.23800000000000e-01 4.82370116903798e-01 4.45709106375767e-03
9.28384615384615e-01 4.79816483449659e-01 4.44448325291039e-03
9.32969230769231e-01 4.77276368752347e-01 4.43185706349058e-03
9.37553846153846e-01 4.74749701244488e-01 4.41921338574768e-03
9.42138461538462e-01 4.72236409735006e-01 4.40655309245004e-03
9.46723076923077e-01 4.69736423414897e-01 4.39387704354413e-03
9.51307692307692e-01 4.67249671844869e-01 4.38118608534184e-03
9.55892307692308e-01 4.64776084963633e-01 4.36848104957137e-03
9.60476923076923e-01 4.62315593078226e-01 4.35576275794545e-03
9.65061538461539e-01 4.59868126862188e-01 4.34303201589876e-03
9.69646153846154e-01 4.57433617361006e-01 4.33028961706317e-03
9.74230769230769e-01 4.55011995980311e-01 4.31753634247122e-03
9.78815384615385e-01 4.52603194493722e-01 4.30477295963123e-03
9.83400000000000e-01 4.50207145033598e-01 4.29200022691674e-03
9.87984615384615e-01 4.47823780089254e-01 4.27921888752374e-03
9.92569230769231e-01 4.45453032512102e-01 4.26642967277196e-03
9.97153846153846e-01 4.43094835506665e-01 4.25363330532740e-03
1.00173846153846e+00 4.40749122628817e-01 4.24083049428591e-03
1.00632307692308e+00 4.38415827788486e-01 4.22802193055214e-03
1.01090769230769e+00 4.36094885258817e-01 4.21520831049157e-03
1.01549230769231e+00 4.33786229625328e-01 4.20239031555044e-03
1.02007692307692e+00 4.31489795842188e-01 4.18956859094984e-03
1.02466153846154e+00 4.29205519229657e-01 4.17674380041954e-03
1.02924615384615e+00 4.26933335406844e-01 4.16391658777900e-03
1.03383076923077e+00 4.24673180376802e-01 4.15108758597005e-03
1.03841538461538e+00 4.22424990438704e-01 4.13825741824964e-03
1.04300000000000e+00 4.20188702271191e-01 4.12542669731368e-03
1.04758461538462e+00 4.17964252846314e-01 4.11259602646583e-03
1.05216923076923e+00 4.15751579511173e-01 4.09976599875503e-03
1.05675384615385e+00 4.13550619903587e-01 4.08693719812129e-03
1.06133846153846e+00 4.11361312032061e-01 4.07411019854586e-03
1.06592307692308e+00 4.09183594193143e-01 4.06128556517410e-03
1.07050769230769e+00 4.07017405049768e-01 4.04846385347809e-03
1.07509230769231e+00 4.04862683550252e-01 4.03564561907432e-03
1.07967692307692e+00 4.02719368985810e-01 4.02283138199244e-03
1.08426153846154e+00 4.00587400988214e-01 4.01002167994519e-03
1.08884615384615e+00 3.98466719470419e-01 3.99721703345928e-03
1.09343076923077e+00 3.96357264701495e-01 3.98441795405942e-03
1.09801538461538e+00 3.94258977229084e-01 3.97162494532390e-03
1.10260000000000e+00 3.92171797952830e-01 3.95883850208335e-03
1.10718461538462e+00 3.90095668048355e-01 3.94605911145642e-03
1.11176923076923e+00 3.88030529039224e-01 3.93328725206067e-03
1.11635384615385e+00 3.85976322722402e-01 3.92052339502806e-03
1.12093846153846e+00 3.83932991238790e-01 3.90776800322776e-03
1.12552307692308e+00 3.81900477000132e-01 3.89502153226331e-03
1.13010769230769e+00 3.79878722758151e-01 3.88228442970633e-03
1.13469230769231e+00 3.77867671532871e-01 3.86955714399253e-03
1.13927692307692e+00 3.75867266663375e-01 3.85684009195454e-03
1.14386153846154e+00 3.73877451805658e-01 3.84413370720116e-03
1.14844615384615e+00 3.71898170880031e-01 3.83143840842267e-03
1.15303076923077e+00 3.69929368137321e-01 3.81875460681998e-03
1.15761538461538e+00 3.67970988090182e-01 3.80608270704499e-03
1.16220000000000e+00 3.66022975577996e-01 3.79342310646710e-03
1.16678461538462e+00 3.64085275699498e-01 3.78077619609479e-03
1.17136923076923e+00 3.62157833876416e-01 3.76814235985488e-03
1.17595384615385e+00 3.60240595787374e-01 3.75552197549703e-03
1.18053846153846e+00 3.58333507430299e-01 3.74291541388356e-03
1.18512307692308e+00 3.56436515057578e-01 3.73032303987679e-03
1.18970769230769e+00 3.54549565237254e-01 3.71774521163942e-03
1.19429230769231e+00 3.52672604789414e-01 3.70518228871119e-03
1.19887692307692e+00 3.50805580831111e-01 3.69263460246688e-03
1.20346153846154e+00 3.48948440774391e-01 3.68010250011534e-03
1.20804615384615e+00 3.47101132279575e-01 3.66758631585487e-03
1.21263076923077e+00 3.45263603313902e-01 3.65508637762792e-03
1.21721538461538e+00 3.43435802090517e-01 3.64260300796010e-03
1.22180000000000e+00 3.41617677125993e-01 3.63013652329059e-03
1.22638461538462e+00 3.39809177180457e-01 3.61768723479517e-03
1.23096923076923e+00 3.38010251314019e-01 3.60525544772777e-03
1.23555384615385e+00 3.36220848828011e-01 3.59284146222907e-03
1.24013846153846e+00 3.34440919320341e-01 3.58044557267731e-03
1.24472307692308e+00 3.32670412627827e-01 3.56806806848227e-03
1.24930769230769e+00 3.30909278880501e-01 3.55570923344598e-03
1.25389230769231e+00 3.29157468445009e-01 3.54336935310547e-03
1.25847692307692e+00 3.27414931964473e-01 3.53104868782067e-03
1.26306153846154e+00 3.25681620356669e-01 3.51874751284232e-03
1.26764615384615e+00 3.23957484772435e-01 3.50646609202911e-03
1.27223076923077e+00 3.22242476647741e-01 3.49420468399762e-03
1.27681538461538e+00 3.20536547649370e-01 3.48196354287366e-03
1.28140000000000e+00 3.18839649726016e-01 3.46974291768055e-03
1.28598461538462e+00 3.17151735054954e-01 3.45754305307701e-03
1.29056923076923e+00 3.15472756092192e-01 3.44536418875528e-03
1.29515384615385e+00 3.13802665520108e-01 3.43320656016653e-03
1.29973846153846e+00 3.12141416296663e-01 3.42107039792764e-03
1.30432307692308e+00 3.10488961604003e-01 3.40895592853379e-03
1.30890769230769e+00 3.08845254896747e-01 3.39686337377353e-03
1.31349230769231e+00 3.07210249851526e-01 3.38479295741414e-03
1.31807692307692e+00 3.05583900402420e-01 3.37274488065823e-03
1.32266153846154e+00 3.03966160739291e-01 3.36071935867355e-03
1.32724615384615e+00 3.02356985270654e-01 3.34871659661923e-03
1.33183076923077e+00 3.00756328670024e-01 3.33673679525143e-03
1.33641538461538e+00 2.99164145827447e-01 3.32478015159807e-03
1.34100000000000e+00 2.97580391894989e-01 3.31284685840079e-03
1.34558461538462e+00 2.96005022239137e-01 3.30093710477748e-03
1.35016923076923e+00 2.94437992485458e-01 3.28905107567252e-03
1.35475384615385e+00 2.92879258471847e-01 3.27718895250912e-03
1.35933846153846e+00 2.91328776292373e-01 3.26535091264655e-03
1.36392307692308e+00 2.89786502251359e-01 3.25353713002135e-03
1.36850769230769e+00 2.88252392906432e-01 3.24174777461354e-03
1.37309230769231e+00 2.86726405023416e-01 3.22998301854005e-03
1.37767692307692e+00 2.85208495607925e-01 3.21824301364799e-03
1.38226153846154e+00 2.83698621903813e-01 3.20652792485536e-03
1.38684615384615e+00 2.82196741359978e-01 3.19483790826099e-03
1.39143076923077e+00 2.80702811671695e-01 3.18317311625989e-03
1.39601538461538e+00 2.79216790737271e-01 3.17153369815096e-03
1.40060000000000e+00 2.77738636698636e-01 3.15991979962703e-03
1.40518461538462e+00 2.76268307898760e-01 3.14833156337211e-03
1.40976923076923e+00 2.74805762921511e-01 3.13676912855880e-03
1.41435384615385e+00 2.73350960549826e-01 3.12523263143550e-03
1.41893846153846e+00 2.71903859804847e-01 3.11372220483029e-03
1.42352307692308e+00 2.70464419904829e-01 3.10223797873016e-03
1.42810769230769e+00 2.69032600303574e-01 3.09078007979199e-03
1.43269230769231e+00 2.67608360650054e-01 3.07934863690324e-03
1.43727692307692e+00 2.66191660816613e-01 3.06794376070771e-03
1.44186153846154e+00 2.64782460897540e-01 3.05656557406368e-03
1.44644615384615e+00 2.63380721179322e-01 3.04521419203813e-03
