Energy (eV)          EEDF (eV^-(3/2))     First Anisotropy
3.56666666666667e-01 6.89567672935480e-02 1.41585480930228e-04
1.07000000000000e+00 6.14531498837458e-02 2.21823093067024e-04
1.78333333333333e+00 5.47660480190128e-02 2.62733294740179e-04
2.49666666666667e+00 4.88066115834547e-02 2.79154754237198e-04
3.21000000000000e+00 4.34956587282229e-02 2.82957549131058e-04
3.92333333333333e+00 3.87626238816544e-02 2.79213104896427e-04
4.63666666666667e+00 3.45446201831226e-02 2.70746984077311e-04
5.35000000000000e+00 3.07856038673326e-02 2.59325985117851e-04
6.06333333333333e+00 2.74356296383098e-02 2.46123512709942e-04
6.77666666666667e+00 2.44501870728309e-02 2.31945245027800e-04
7.49000000000000e+00 2.17896091982364e-02 2.17354000629874e-04
8.20333333333333e+00 1.94185454511637e-02 2.02745272192958e-04
8.91666666666667e+00 1.73054919906140e-02 1.88395903109323e-04
9.63000000000000e+00 1.54223731021504e-02 1.74496942194572e-04
1.03433333333333e+01 1.37441681641867e-02 1.61176598307175e-04
1.10566666666667e+01 1.22485792090433e-02 1.48516702634961e-04
1.17700000000000e+01 1.09157346516808e-02 1.36564750935328e-04
1.24833333333333e+01 9.72792524542756e-03 1.25342843600916e-04
1.31966666666667e+01 8.66936881773242e-03 1.14854398875279e-04
1.39100000000000e+01 7.72600054196009e-03 1.05089234143683e-04
1.46233333333333e+01 6.88528606827417e-03 9.60274298900360e-05
1.53366666666667e+01 6.13605499996212e-03 8.76422800405802e-05
1.60500000000000e+01 5.46835245451039e-03 7.99025447589020e-05
1.67633333333333e+01 4.87330679934416e-03 7.27741666031842e-05
1.74766666666667e+01 4.34301178715737e-03 6.62215748098542e-05
1.81900000000000e+01 3.87042149487944e-03 6.02086688343075e-05
1.89033333333333e+01 3.44925670844562e-03 5.46995515102677e-05
1.96166666666667e+01 3.07392149899673e-03 4.96590687823345e-05
2.03300000000000e+01 2.73942886321684e-03 4.50531978564491e-05
2.10433333333333e+01 2.44133446356549e-03 4.08493167896990e-05
2.17566666666667e+01 2.17567758161364e-03 3.70163831598923e-05
2.24700000000000e+01 1.93892848791559e-03 3.35250419259687e-05
2.31833333333333e+01 1.72794154416012e-03 3.03476785415330e-05
2.38966666666667e+01 1.53991341050316e-03 2.74584311604235e-05
2.46100000000000e+01 1.37234579504640e-03 2.48331717543512e-05
2.53233333333333e+01 1.22301226013709e-03 2.24494640178831e-05
2.60366666666667e+01 1.08992864194969e-03 2.02865050410243e-05
2.67500000000000e+01 9.71326685292764e-04 1.83250554844141e-05
2.74633333333333e+01 8.65630549541063e-04 1.65473620384279e-05
2.81766666666667e+01 7.71435871939415e-04 1.49370756294816e-05
2.88900000000000e+01 6.87491106810994e-04 1.34791675439730e-05
2.96033333333333e+01 6.12680896767931e-04 1.21598451738606e-05
3.03166666666667e+01 5.46011253957449e-04 1.09664690195414e-05
3.10300000000000e+01 4.86596352289606e-04 9.88747182635577e-06
3.17433333333333e+01 4.33646757803839e-04 8.91228050999541e-06
3.24566666666667e+01 3.86458940130366e-04 8.03124155991807e-06
3.31700000000000e+01 3.44405924260154e-04 7.23555015833206e-06
3.38833333333333e+01 3.06928960158266e-04 6.51718315564907e-06
3.45966666666667e+01 2.73530099103692e-04 5.86883611230589e-06
3.53100000000000e+01 2.43765577171916e-04 5.28386434650098e-06
3.60233333333333e+01 2.17239919101303e-04 4.75622789301794e-06
3.67366666666667e+01 1.93600683918575e-04 4.28044035277530e-06
3.74500000000000e+01 1.72533781878640e-04 3.85152145048125e-06
3.81633333333333e+01 1.53759301262453e-04 3.46495311344257e-06
3.88766666666667e+01 1.37027789397085e-04 3.11663895230646e-06
3.95900000000000e+01 1.22116938062898e-04 2.80286692728650e-06
4.03033333333333e+01 1.08828629758859e-04 2.52027499240926e-06
4.10166666666667e+01 9.69863054561880e-05 2.26581956728950e-06
4.17300000000000e+01 8.64326185833974e-05 2.03674662800668e-06
4.24433333333333e+01 7.70273444139542e-05 1.83056522243004e-06
4.31566666666667e+01 6.86455169964373e-05 1.64502326120958e-06
4.38700000000000e+01 6.11757686827967e-05 1.47808540147553e-06
4.45833333333333e+01 5.45188504221093e-05 1.32791285467972e-06
4.52966666666667e+01 4.85863131041441e-05 1.19284498594553e-06
4.60100000000000e+01 4.32993323038318e-05 1.07138255244978e-06
4.67233333333333e+01 3.85876609658902e-05 9.62172441494082e-07
4.74366666666667e+01 3.43886960772194e-05 8.63993796554816e-07
4.81500000000000e+01 3.06466468395299e-05 7.75745408351596e-07
4.88633333333333e+01 2.73117933942114e-05 6.96434259165502e-07
4.95766666666667e+01 2.43398262254759e-05 6.25165129607750e-07
5.02900000000000e+01 2.16912574059276e-05 5.61131170892673e-07
5.10033333333333e+01 1.93308959324459e-05 5.03605354820480e-07
5.17166666666667e+01 1.72273801645780e-05 4.51932729434082e-07
5.24300000000000e+01 1.53527611132799e-05 4.05523405151389e-07
5.31433333333333e+01 1.36821310910424e-05 3.63846203458009e-07
5.38566666666667e+01 1.21932927780837e-05 3.26422911999660e-07
5.45700000000000e+01 1.08664642805399e-05 2.92823088457613e-07
5.52833333333333e+01 9.68401629426139e-06 2.62659361277527e-07
5.59966666666667e+01 8.63023787434462e-06 2.35583184038034e-07
5.67100000000000e+01 7.69112767983741e-06 2.11280999733601e-07
5.74233333333333e+01 6.85420794198649e-06 1.89470775624502e-07
5.81366666666667e+01 6.10835867909672e-06 1.69898875739233e-07
5.88500000000000e+01 5.44366994271624e-06 1.52337238097926e-07
5.95633333333333e+01 4.85131014699263e-06 1.36580827059943e-07
6.02766666666667e+01 4.32340872821316e-06 1.22445335927712e-07
6.09900000000000e+01 3.85295156689749e-06 1.09765115158135e-07
6.17033333333333e+01 3.43368779317969e-06 9.83913040511978e-08
6.24166666666667e+01 3.06004673483817e-06 8.81901472507052e-08
6.31300000000000e+01 2.72706389863401e-06 7.90414777024652e-08
6.38433333333333e+01 2.43031500848082e-06 7.08373496041786e-08
6.45566666666667e+01 2.16585722240145e-06 6.34808074137106e-08
6.52700000000000e+01 1.93017674323442e-06 5.68847773067466e-08
6.59833333333333e+01 1.72014213178588e-06 5.09710688837566e-08
6.66966666666667e+01 1.53296270100160e-06 4.56694767726234e-08
6.74100000000000e+01 1.36615143561165e-06 4.09169720735453e-08
6.81233333333333e+01 1.21749194784199e-06 3.66569746388538e-08
6.88366666666667e+01 1.08500902938402e-06 3.28386985239458e-08
6.95500000000000e+01 9.66942406474416e-07 2.94165632059840e-08
7.02633333333333e+01 8.61723351616984e-07 2.63496639405688e-08
7.09766666666667e+01 7.67953840674461e-07 2.36012956025357e-08
7.16900000000000e+01 6.84387977105949e-07 2.11385245739470e-08
7.24033333333333e+01 6.09915438075975e-07 1.89318038124769e-08
7.31166666666667e+01 5.43546722133252e-07 1.69546269412332e-08
7.38300000000000e+01 4.84400001562676e-07 1.51832173767625e-08
7.45433333333333e+01 4.31689405776668e-07 1.35962489309781e-08
7.52566666666667e+01 3.84714579827262e-07 1.21745948354421e-08
7.59700000000000e+01 3.42851378696298e-07 1.09011022759268e-08
7.66833333333333e+01 3.05543574446466e-07 9.76038983232344e-09
7.73966666666667e+01 2.72295465881560e-07 8.73866558986217e-09
7.81100000000000e+01 2.42665292103129e-07 7.82356379668564e-09
7.88233333333333e+01 2.16259362949994e-07 7.00399816746888e-09
7.95366666666667e+01 1.92726828218852e-07 6.27003020080698e-09
8.02500000000000e+01 1.71755015877198e-07 5.61275096238062e-09
8.09633333333333e+01 1.53065277671981e-07 5.02417494990038e-09
8.16766666666667e+01 1.36409286857005e-07 4.49714484933570e-09
8.23900000000000e+01 1.21565738648945e-07 4.02524605644941e-09
8.31033333333333e+01 1.08337409808325e-07 3.60272995716154e-09
8.38166666666667e+01 9.65485382227476e-08 3.22444509984381e-09
8.45300000000000e+01 8.60424875383606e-08 2.88577544164581e-09
8.52433333333333e+01 7.66796659731645e-08 2.58258493790002e-09
8.59566666666667e+01 6.83356716227183e-08 2.31116784425247e-09
8.66700000000000e+01 6.08996395207087e-08 2.06820413814068e-09
8.73833333333333e+01 5.42727686046662e-08 1.85071952941085e-09
8.80966666666667e+01 4.83670089893480e-08 1.65604960231988e-09
8.88100000000000e+01 4.31038920405341e-08 1.48180765891645e-09
8.95233333333333e+01 3.84134877823609e-08 1.32585587963400e-09
9.02366666666667e+01 3.42334757678442e-08 1.18627946907445e-09
9.09500000000000e+01 3.05083170223092e-08 1.06136347569070e-09
9.16633333333333e+01 2.71885161111669e-08 9.49572007298382e-10
9.23766666666667e+01 2.42299635151242e-08 8.49529601855362e-10
9.30900000000000e+01 2.15933495438997e-08 7.60004528369917e-10
9.38033333333333e+01 1.92436420383215e-08 6.79893816852301e-10
9.45166666666667e+01 1.71496209127475e-08 6.08209843187568e-10
9.52300000000000e+01 1.52834633317890e-08 5.44068306242123e-10
9.59433333333333e+01 1.36203740353067e-08 4.86677451914610e-10
9.66566666666667e+01 1.21382558940861e-08 4.35328418214642e-10
9.73700000000000e+01 1.08174163039999e-08 3.89386583904517e-10
9.80833333333333e+01 9.64030553531534e-09 3.48283815812136e-10
9.87966666666667e+01 8.59128355664112e-09 3.11511523835684e-10
9.95100000000000e+01 7.65641222501310e-09 2.78614438890551e-10
1.00223333333333e+02 6.82327009326801e-09 2.49185038127651e-10
1.00936666666667e+02 6.08078737132029e-09 2.22858551611157e-10
1.01650000000000e+02 5.41909884317882e-09 1.99308490245619e-10
1.02363333333333e+02 4.82941278106571e-09 1.78242637878110e-10
1.03076666666667e+02 4.30389415171634e-09 1.59399463443888e-10
1.03790000000000e+02 3.83556049477279e-09 1.42544908669018e-10
1.04503333333333e+02 3.41818915140606e-09 1.27469507288387e-10
1.05216666666667e+02 3.04623459727341e-09 1.13985808666246e-10
1.05930000000000e+02 2.71475474701572e-09 1.01926070518091e-10
1.06643333333333e+02 2.41934529195749e-09 9.11401902509550e-11
1.07356666666667e+02 2.15608118938645e-09 8.14938550837599e-11
1.08070000000000e+02 1.92146450212188e-09 7.28668856115332e-11
1.08783333333333e+02 1.71237792364693e-09 6.51517509181058e-11
1.09496666666667e+02 1.52604336494216e-09 5.82522408594462e-11
1.10210000000000e+02 1.35998503620787e-09 5.20822773405593e-11
1.10923333333333e+02 1.21199655259668e-09 4.65648488656110e-11
1.11636666666667e+02 1.08011162248801e-09 4.16310579507325e-11
1.12350000000000e+02 9.62577917347638e-10 3.72192683634387e-11
1.13063333333333e+02 8.57833789621539e-10 3.32743409064320e-11
1.13776666666667e+02 7.64487526262372e-10 2.97469502144045e-11
1.14490000000000e+02 6.81298854250012e-10 2.65929732180222e-11
1.15203333333333e+02 6.07162461840236e-10 2.37729411811141e-11
1.15916666666667e+02 5.41093314471089e-10 2.12515498669943e-11
1.16630000000000e+02 4.82213564675898e-10 1.89972211359284e-11
1.17343333333333e+02 4.29740888652276e-10 1.69817101691517e-11
1.18056666666667e+02 3.82978093045874e-10 1.51797543871590e-11
1.18770000000000e+02 3.41303850002023e-10 1.35687592634382e-11
1.19483333333333e+02 3.04164441951699e-10 1.21285168723131e-11
1.20196666666667e+02 2.71066405424782e-10 1.08409543325964e-11
1.20910000000000e+02 2.41569973471247e-10 9.68990870992062e-12
1.21623333333333e+02 2.15283232735739e-10 8.66092539543797e-12
1.22336666666667e+02 1.91856916842273e-10 7.74107791357863e-12
1.23050000000000e+02 1.70979765046795e-10 6.91880669773519e-12
1.23763333333333e+02 1.52374386696101e-10 6.18377469720389e-12
1.24476666666667e+02 1.35793576052117e-10 5.52673833953636e-12
1.25190000000000e+02 1.21017027221487e-10 4.93943208650660e-12
1.25903333333333e+02 1.07848407077359e-10 4.41446505332811e-12
1.26616666666667e+02 9.61127469393366e-11 3.94522862784884e-12
1.27330000000000e+02 8.56541174537285e-11 3.52581382887133e-12
1.28043333333333e+02 7.63335568485118e-11 3.15093730779883e-12
1.28756666666667e+02 6.80272247980259e-11 2.81587522799380e-12
1.29470000000000e+02 6.06247567406444e-11 2.51640411972471e-12
1.30183333333333e+02 5.40277975266304e-11 2.24874792627704e-12
1.30896666666667e+02 4.81486947474526e-11 2.00953069023046e-12
1.31610000000000e+02 4.29093339482305e-11 1.79573423459570e-12
1.32323333333333e+02 3.82401007642231e-11 1.60466027742689e-12
1.33036666666667e+02 3.40789560762841e-11 1.43389658356000e-12
1.33750000000000e+02 3.03706115928496e-11 1.28128669198125e-12
1.34463333333333e+02 2.70657952646914e-11 1.14490281716078e-12
1.35176666666667e+02 2.41205966919961e-11 1.02302163937748e-12
1.35890000000000e+02 2.14958836144303e-11 9.14102654063266e-13
1.36603333333333e+02 1.91567819820071e-11 8.16768792846833e-13
1.37316666666667e+02 1.70722126427701e-11 7.29789111490865e-13
1.38030000000000e+02 1.52144783437288e-11 6.52063308840381e-13
1.38743333333333e+02 1.35588957323160e-11 5.82607871301450e-13
1.39456666666667e+02 1.20834674300027e-11 5.20543695720765e-13
1.40170000000000e+02 1.07685897181000e-11 4.65085022077542e-13
1.40883333333333e+02 9.59679207355878e-12 4.15529529066857e-13
1.41596666666667e+02 8.55250506698514e-12 3.71249486920446e-13
1.42310000000000e+02 7.62185346726560e-12 3.31683846995243e-13
1.43023333333333e+02 6.79247188866695e-12 2.96331163101202e-13
1.43736666666667e+02 6.05334051211092e-12 2.64743268726547e-13
1.44450000000000e+02 5.39463864788476e-12 2.36519624091101e-13
1.45163333333333e+02 4.80761425325145e-12 2.11302257961449e-13
1.45876666666667e+02 4.28446765813856e-12 1.88771249805570e-13
1.46590000000000e+02 3.81824791912413e-12 1.68640690805678e-13
1.47303333333333e+02 3.40276046583728e-12 1.50655070087889e-13
1.48016666666667e+02 3.03248480354104e-12 1.34586047129718e-13
1.48730000000000e+02 2.70250115410679e-12 1.20229566435424e-13
1.49443333333333e+02 2.40842508943692e-12 1.07403276154710e-13
1.50156666666667e+02 2.14634928244570e-12 9.59442226498676e-14
1.50870000000000e+02 1.91279158468704e-12 8.57067896559418e-14
1.51583333333333e+02 1.70464876081194e-12 7.65608546574645e-14
1.52296666666667e+02 1.51915526068782e-12 6.83901424128000e-14
1.53010000000000e+02 1.35384646955286e-12 6.10907532391907e-14
1.53723333333333e+02 1.20652596191691e-12 5.45698465059160e-14
1.54436666666667e+02 1.07523632101753e-12 4.87444649527951e-14
1.55150000000000e+02 9.58233127850585e-13 4.35404838528254e-14
1.55863333333333e+02 8.53961783943217e-13 3.88916710565328e-14
1.56576666666667e+02 7.61036857754665e-13 3.47388476132856e-14
1.57290000000000e+02 6.78223674515827e-13 3.10291375628327e-14
1.58003333333333e+02 6.04421911714912e-13 2.77152969281218e-14
1.58716666666667e+02 5.38650980756501e-13 2.47551145284021e-14
1.59430000000000e+02 4.80036996535069e-13 2.21108764720985e-14
1.60143333333333e+02 4.27801166551274e-13 1.97488872128652e-14
1.60856666666667e+02 3.81249444246336e-13 1.76390418833986e-14
1.61570000000000e+02 3.39763306267563e-13 1.57544440982556e-14
1.62283333333333e+02 3.02791534448796e-13 1.40710641460576e-14
1.62996666666667e+02 2.69842892579544e-13 1.25674337872080e-14
1.63710000000000e+02 2.40479598695772e-13 1.12243735127724e-14
1.64423333333333e+02 2.14311508481755e-13 1.00247486393445e-14
1.65136666666667e+02 1.90990931985853e-13 8.95325153164336e-15
1.65850000000000e+02 1.70208013408439e-13 7.99620699636237e-15
1.66563333333333e+02 1.51686614195922e-13 7.14139826044308e-15
1.67276666666667e+02 1.35180644382073e-13 6.37791159581814e-15
1.67990000000000e+02 1.20470792472922e-13 5.69599748180852e-15
1.68703333333333e+02 1.07361611558913e-13 5.08694645952495e-15
1.69416666666667e+02 9.56789226878388e-14 4.54297829183311e-15
1.70130000000000e+02 8.52675003275467e-14 4.05714292487211e-15
1.70843333333333e+02 7.59890099573262e-14 3.62323193446184e-15
1.71556666666667e+02 6.77201702103999e-14 3.23569946572929e-15
1.72270000000000e+02 6.03511146798751e-14 2.88959159341624e-15
1.72983333333333e+02 5.37839321751063e-14 2.58048316369184e-15
1.73696666666667e+02 4.79313659110471e-14 2.30442140830973e-15
1.74410000000000e+02 4.27156540195544e-14 2.05787556634959e-15
1.75123333333333e+02 3.80674963634998e-14 1.83769184370915e-15
1.75836666666667e+02 3.39251338406395e-14 1.64105320331330e-15
1.76550000000000e+02 3.02335277152198e-14 1.46544344079695e-15
1.77263333333333e+02 2.69436283436303e-14 1.30861506798201e-15
1.77976666666667e+02 2.40117235181912e-14 1.16856064169993e-15
1.78690000000000e+02 2.13988576105750e-14 1.04348714926454e-15
1.79403333333333e+02 1.90703139861794e-14 9.31793109984960e-16
1.80116666666667e+02 1.69951537707241e-14 8.32048133672880e-16
1.80830000000000e+02 1.51458047288071e-14 7.42974659077832e-16
1.81543333333333e+02 1.34976949241304e-14 6.63431629404616e-16
1.82256666666667e+02 1.20289262647781e-14 5.92399919802700e-16
1.82970000000000e+02 1.07199835177093e-14 5.28969319351375e-16
1.83683333333333e+02 9.55347501865636e-15 4.72326894416606e-16
1.84396666666667e+02 8.51390161192432e-15 4.21746601125032e-16
1.85110000000000e+02 7.58745069526709e-15 3.76580006219760e-16
1.85823333333333e+02 6.76181269802791e-15 3.36247992890964e-16
1.86536666666667e+02 6.02601753988435e-15 3.00233357105805e-16
1.87250000000000e+02 5.37028885893421e-15 2.68074194149249e-16
1.87963333333333e+02 4.78591411752521e-15 2.39357987417149e-16
1.88676666666667e+02 4.26512884998992e-15 2.13716331984145e-16
1.89390000000000e+02 3.80101348749251e-15 1.90820221487139e-16
1.90103333333333e+02 3.38740142077694e-15 1.70375835637708e-16
1.90816666666667e+02 3.01879707229754e-15 1.52120780176296e-16
1.91530000000000e+02 2.69030287040615e-15 1.35820728355349e-16
1.92243333333333e+02 2.39755417746927e-15 1.21266419279946e-16
1.92956666666667e+02 2.13666130244431e-15 1.08270978699464e-16
1.93670000000000e+02 1.90415781431248e-15 9.66675259794272e-17
1.94383333333333e+02 1.69695448512328e-15 8.63070354228698e-17
1.95096666666667e+02 1.51229824729110e-15 7.70564273779970e-17
1.95810000000000e+02 1.34773561062294e-15 6.87968632945461e-17
1.96523333333333e+02 1.20108006385893e-15 6.14222220499487e-17
1.97236666666667e+02 1.07038302521012e-15 5.48377400117204e-17
1.97950000000000e+02 9.53907949482184e-16 4.89587964321599e-17
1.98663333333333e+02 8.50107255348449e-16 4.37098280183661e-17
1.99376666666667e+02 7.57601764539670e-16 3.90233601635530e-17
2.00090000000000e+02 6.75162375256053e-16 3.48391417317513e-17
2.00803333333333e+02 6.01693731618674e-16 3.11033718862450e-17
2.01516666666667e+02 5.36219671010714e-16 2.77680100314385e-17
2.02230000000000e+02 4.77870252794169e-16 2.47901595329744e-17
2.02943333333333e+02 4.25870199779455e-16 2.21315170177262e-17
2.03656666666667e+02 3.79528598053820e-16 1.97578808815950e-17
2.04370000000000e+02 3.38229716101952e-16 1.76387123573000e-17
2.05083333333333e+02 3.01424823842332e-16 1.57467433028941e-17
2.05796666666667e+02 2.68624902307660e-16 1.40576261648794e-17
2.06510000000000e+02 2.39394145556257e-16 1.25496213822091e-17
2.07223333333333e+02 2.13344170302204e-16 1.12033180724980e-17
2.07936666666667e+02 1.90128855927657e-16 1.00013847574206e-17
2.08650000000000e+02 1.69439745233202e-16 8.92834675679864e-18
2.09363333333333e+02 1.51001946096331e-16 7.97038728983313e-18
2.10076666666667e+02 1.34570479303360e-16 7.11516997030751e-18
2.10790000000000e+02 1.19927023269443e-16 6.35168029607233e-18
2.11503333333333e+02 1.06877013290688e-16 5.67008402394551e-18
2.12216666666667e+02 9.52470565900140e-17 5.06160078028044e-18
2.12930000000000e+02 8.48826282787159e-17 4.51839119881633e-18
2.13643333333333e+02 7.56460182483405e-17 4.26553591675281e-18
