Energy (eV)          EEDF (eV^-(3/2))     First Anisotropy
4.89285714285714e-02 5.02146010882783e-02 3.55024884538711e-05
1.46785714285714e-01 4.95987497288364e-02 5.84617382037224e-05
2.44642857142857e-01 4.89904514085049e-02 7.67456089793630e-05
3.42500000000000e-01 4.83896134951774e-02 9.03767897331807e-05
4.40357142857143e-01 4.77961444929555e-02 1.01532861058743e-04
5.38214285714286e-01 4.72099540246891e-02 1.11043871387563e-04
6.36071428571429e-01 4.66309528236895e-02 1.19342706175306e-04
7.33928571428571e-01 4.60590527180393e-02 1.26692745488059e-04
8.31785714285714e-01 4.54941666171602e-02 1.33269961824536e-04
9.29642857142857e-01 4.49362084986050e-02 1.39199636043967e-04
1.02750000000000e+00 4.43850933949292e-02 1.44575173242990e-04
1.12535714285714e+00 4.38407373817343e-02 1.49468706345122e-04
1.22321428571429e+00 4.33030575631418e-02 1.53937508137484e-04
1.32107142857143e+00 4.27719720554649e-02 1.58028084693343e-04
1.41892857142857e+00 4.22473999878543e-02 1.61778907359150e-04
1.51678571428571e+00 4.17292614766500e-02 1.65222301973667e-04
1.61464285714286e+00 4.12174776148590e-02 1.68385792251135e-04
1.71250000000000e+00 4.07119704700089e-02 1.71293083504900e-04
1.81035714285714e+00 4.02126630618355e-02 1.73964797113269e-04
1.90821428571429e+00 3.97194793542250e-02 1.76419028501049e-04
2.00607142857143e+00 3.92323442412226e-02 1.78671779083831e-04
2.10392857142857e+00 3.87511835430640e-02 1.80737296301865e-04
2.20178571428571e+00 3.82759239870788e-02 1.82628344516359e-04
2.29964285714286e+00 3.78064931972446e-02 1.84356421365450e-04
2.39750000000000e+00 3.73428196894577e-02 1.85931935626702e-04
2.49535714285714e+00 3.68848328540950e-02 1.87364353280375e-04
2.59321428571429e+00 3.64324629475294e-02 1.88662317848902e-04
2.69107142857143e+00 3.59856410798632e-02 1.89833751100229e-04
2.78892857142857e+00 3.55442992095123e-02 1.90885938507346e-04
2.88678571428571e+00 3.51083701275940e-02 1.91825601940893e-04
2.98464285714286e+00 3.46777874480836e-02 1.92658960253840e-04
3.08250000000000e+00 3.42524856021245e-02 1.93391782729622e-04
3.18035714285714e+00 3.38323998234779e-02 1.94029435109049e-04
3.27821428571429e+00 3.34174661402286e-02 1.94576918892035e-04
3.37607142857143e+00 3.30076213638408e-02 1.95038905682621e-04
3.47392857142857e+00 3.26028030832322e-02 1.95419767803870e-04
3.57178571428571e+00 3.22029496514654e-02 1.95723605396487e-04
3.66964285714286e+00 3.18080001766051e-02 1.95954269137306e-04
3.76750000000000e+00 3.14178945157289e-02 1.96115381571570e-04
3.86535714285714e+00 3.10325732623923e-02 1.96210355986082e-04
3.96321428571429e+00 3.06519777387375e-02 1.96242412721013e-04
4.06107142857143e+00 3.02760499856410e-02 1.96214593835788e-04
4.15892857142857e+00 2.99047327566983e-02 1.96129776729997e-04
4.25678571428571e+00 2.95379695066240e-02 1.95990686549309e-04
4.35464285714286e+00 2.91757043828051e-02 1.95799906365052e-04
4.45250000000000e+00 2.88178822193276e-02 1.95559887402016e-04
4.55035714285714e+00 2.84644485259812e-02 1.95272958230217e-04
4.64821428571429e+00 2.81153494808463e-02 1.94941332675148e-04
4.74607142857143e+00 2.77705319213785e-02 1.94567117079904e-04
4.84392857142857e+00 2.74299433385151e-02 1.94152317325158e-04
4.94178571428571e+00 2.70935318664262e-02 1.93698845371883e-04
5.03964285714286e+00 2.67612462747334e-02 1.93208524388576e-04
5.13750000000000e+00 2.64330359627111e-02 1.92683094329178e-04
5.23535714285714e+00 2.61088509495330e-02 1.92124216988290e-04
5.33321428571429e+00 2.57886418673584e-02 1.91533480276376e-04
5.43107142857143e+00 2.54723599532372e-02 1.90912402210695e-04
5.52892857142857e+00 2.51599570434470e-02 1.90262434939185e-04
5.62678571428571e+00 2.48513855643591e-02 1.89584968566691e-04
5.72464285714286e+00 2.45465985252799e-02 1.88881333951635e-04
5.82250000000000e+00 2.42455495129100e-02 1.88152806052035e-04
5.92035714285714e+00 2.39481926826282e-02 1.87400606968068e-04
6.01821428571429e+00 2.36544827520703e-02 1.86625908442569e-04
6.11607142857143e+00 2.33643749937636e-02 1.85829834228771e-04
6.21392857142857e+00 2.30778252297496e-02 1.85013462589086e-04
6.31178571428571e+00 2.27947898233947e-02 1.84177828715029e-04
6.40964285714286e+00 2.25152256728109e-02 1.83323926338139e-04
6.50750000000000e+00 2.22390902056127e-02 1.82452709888517e-04
6.60535714285714e+00 2.19663413710881e-02 1.81565096456993e-04
6.70321428571429e+00 2.16969376342519e-02 1.80661967346977e-04
6.80107142857143e+00 2.14308379691328e-02 1.79744169562888e-04
6.89892857142857e+00 2.11680018537086e-02 1.78812517461037e-04
6.99678571428571e+00 2.09083892625307e-02 1.77867794376021e-04
7.09464285714286e+00 2.06519606606811e-02 1.76910753582392e-04
7.19250000000000e+00 2.03986769988452e-02 1.75942119768348e-04
7.29035714285714e+00 2.01484997062514e-02 1.74962590371380e-04
7.38821428571429e+00 1.99013906851756e-02 1.73972836586080e-04
7.48607142857143e+00 1.96573123048166e-02 1.72973504342569e-04
7.58392857142857e+00 1.94162273965493e-02 1.71965215451714e-04
7.68178571428571e+00 1.91780992472637e-02 1.70948568751754e-04
7.77964285714286e+00 1.89428915938147e-02 1.69924140694096e-04
7.87750000000000e+00 1.87105686184135e-02 1.68892486395504e-04
7.97535714285714e+00 1.84810949422439e-02 1.67854140587052e-04
8.07321428571428e+00 1.82544356203892e-02 1.66809618292068e-04
8.17107142857143e+00 1.80305561362401e-02 1.65759415492137e-04
8.26892857142857e+00 1.78094223970642e-02 1.64704009953035e-04
8.36678571428571e+00 1.75910007279742e-02 1.63643862064548e-04
8.46464285714286e+00 1.73752578668328e-02 1.62579415199060e-04
8.56250000000000e+00 1.71621609599570e-02 1.61511096490084e-04
8.66035714285714e+00 1.69516775563326e-02 1.60439317530105e-04
8.75821428571428e+00 1.67437756029375e-02 1.59364474839258e-04
8.85607142857143e+00 1.65384234396307e-02 1.58286950331237e-04
8.95392857142857e+00 1.63355897950306e-02 1.57207111927925e-04
9.05178571428571e+00 1.61352437810420e-02 1.56125314193616e-04
9.14964285714286e+00 1.59373548881796e-02 1.55041898551697e-04
9.24750000000000e+00 1.57418929815742e-02 1.53957193877505e-04
9.34535714285714e+00 1.55488282957213e-02 1.52871517025918e-04
9.44321428571429e+00 1.53581314301718e-02 1.51785173162308e-04
9.54107142857143e+00 1.51697733448599e-02 1.50698456095596e-04
9.63892857142857e+00 1.49837253562758e-02 1.49611648747376e-04
9.73678571428571e+00 1.47999591324932e-02 1.48525023642876e-04
9.83464285714286e+00 1.46184466888769e-02 1.47438843036829e-04
9.93250000000000e+00 1.44391603843782e-02 1.46353359375525e-04
1.00303571428571e+01 1.42620729167603e-02 1.45268815670121e-04
1.01282142857143e+01 1.40871573188022e-02 1.44185446012146e-04
1.02260714285714e+01 1.39143869526628e-02 1.43103475085205e-04
1.03239285714286e+01 1.37437355100820e-02 1.42023119090722e-04
1.04217857142857e+01 1.35751770037180e-02 1.40944586888907e-04
1.05196428571429e+01 1.34086857633918e-02 1.39868078314262e-04
1.06175000000000e+01 1.32442364369260e-02 1.38793785787195e-04
1.07153571428571e+01 1.30818039799611e-02 1.37721894283944e-04
1.08132142857143e+01 1.29213636583415e-02 1.36652581509659e-04
1.09110714285714e+01 1.27628910382695e-02 1.35586018204874e-04
1.10089285714286e+01 1.26063619885462e-02 1.34522368007778e-04
1.11067857142857e+01 1.24517526724366e-02 1.33461788929029e-04
1.12046428571429e+01 1.22990395442080e-02 1.32404431725279e-04
1.13025000000000e+01 1.21481993496329e-02 1.31350441300705e-04
1.14003571428571e+01 1.19992091170032e-02 1.30299956651675e-04
1.14982142857143e+01 1.18520461589731e-02 1.29253110993787e-04
1.15960714285714e+01 1.17066880638642e-02 1.28210032008052e-04
1.16939285714286e+01 1.15631126973936e-02 1.27170841693841e-04
1.17917857142857e+01 1.14212981954570e-02 1.26135657657377e-04
1.18896428571429e+01 1.12812229609408e-02 1.25104591641913e-04
1.19875000000000e+01 1.11428656639665e-02 1.24077750753440e-04
1.20853571428571e+01 1.10062052339377e-02 1.23055237390703e-04
1.21832142857143e+01 1.08712208609485e-02 1.22037149338915e-04
1.22810714285714e+01 1.07378919880830e-02 1.21023579969904e-04
1.23789285714286e+01 1.06061983127326e-02 1.20014618093150e-04
1.24767857142857e+01 1.04761197801766e-02 1.19010349086866e-04
1.25746428571429e+01 1.03476365806472e-02 1.18010853571269e-04
1.26725000000000e+01 1.02207291493777e-02 1.17016208485386e-04
1.27703571428571e+01 1.00953781595421e-02 1.16026487009354e-04
1.28682142857143e+01 9.97156452331832e-03 1.15041758633642e-04
1.29660714285714e+01 9.84926938504843e-03 1.14062089323367e-04
1.30639285714286e+01 9.72847412222849e-03 1.13087541372035e-04
1.31617857142857e+01 9.60916033978368e-03 1.12118174398269e-04
1.32596428571429e+01 9.49130986736837e-03 1.11154044148964e-04
1.33575000000000e+01 9.37490475926463e-03 1.10195203448798e-04
1.34553571428571e+01 9.25992728810007e-03 1.09241702119320e-04
1.35532142857143e+01 9.14635994563385e-03 1.08293587029942e-04
1.36510714285714e+01 9.03418543666743e-03 1.07350902233989e-04
1.37489285714286e+01 8.92338667977252e-03 1.06413688827875e-04
1.38467857142857e+01 8.81394680217466e-03 1.05481985832250e-04
1.39446428571429e+01 8.70584913727008e-03 1.04555829112602e-04
1.40425000000000e+01 8.59907722441247e-03 1.03635252219070e-04
1.41403571428571e+01 8.49361480331085e-03 1.02720286305281e-04
1.42382142857143e+01 8.38944581459409e-03 1.01810960165640e-04
1.43360714285714e+01 8.28655439437839e-03 1.00907300348776e-04
1.44339285714286e+01 8.18492487478576e-03 1.00009331023723e-04
1.45317857142857e+01 8.08454177936261e-03 9.91170747610073e-05
1.46296428571429e+01 7.98538982079681e-03 9.82305515591454e-05
1.47275000000000e+01 7.88745390062220e-03 9.73497795893650e-05
1.48253571428571e+01 7.79071910421320e-03 9.64747751160900e-05
1.49232142857143e+01 7.69517070117251e-03 9.56055525238811e-05
1.50210714285714e+01 7.60079414047528e-03 9.47421244125447e-05
1.51189285714286e+01 7.50757505082048e-03 9.38845014711870e-05
1.52167857142857e+01 7.41549923652151e-03 9.30326931721722e-05
1.53146428571429e+01 7.32455267540796e-03 9.21867068929900e-05
1.54125000000000e+01 7.23472151847104e-03 9.13465485781198e-05
1.55103571428571e+01 7.14599208538366e-03 9.05122226623443e-05
1.56082142857143e+01 7.05835086474732e-03 8.96837320898153e-05
1.57060714285714e+01 6.97178450974442e-03 8.88610783942172e-05
1.58039285714286e+01 6.88627983835661e-03 8.80442615809833e-05
1.59017857142857e+01 6.80182382967324e-03 8.72332807450515e-05
1.59996428571429e+01 6.71840362196322e-03 8.64281332785678e-05
1.60975000000000e+01 6.63600651227987e-03 8.56288154602372e-05
1.61953571428571e+01 6.55461995244487e-03 8.48353223821988e-05
1.62932142857143e+01 6.47423154918365e-03 8.40476479630637e-05
1.63910714285714e+01 6.39482906022656e-03 8.32657850157617e-05
1.64889285714286e+01 6.31640039442204e-03 8.24897251379369e-05
1.65867857142857e+01 6.23893360841572e-03 8.17194592628145e-05
1.66846428571429e+01 6.16241690487904e-03 8.09549769441208e-05
1.67825000000000e+01 6.08683863208783e-03 8.01962668817294e-05
1.68803571428571e+01 6.01218728031715e-03 7.94433168525062e-05
1.69782142857143e+01 5.93845148188863e-03 7.86961137187327e-05
1.70760714285714e+01 5.86562000766949e-03 7.79546434857234e-05
1.71739285714286e+01 5.79368176710275e-03 7.72188912002232e-05
1.72717857142857e+01 5.72262580521619e-03 7.64888414423578e-05
1.73696428571429e+01 5.65244130099522e-03 7.57644776800024e-05
1.74675000000000e+01 5.58311756694652e-03 7.50457827383107e-05
1.75653571428571e+01 5.51464404585753e-03 7.43327387347051e-05
1.76632142857143e+01 5.44701031077501e-03 7.36253270837638e-05
1.77610714285714e+01 5.38020606185727e-03 7.29235285463097e-05
1.78589285714286e+01 5.31422112633972e-03 7.22273231354683e-05
1.79567857142857e+01 5.24904545583788e-03 7.15366905566003e-05
1.80546428571429e+01 5.18466912485290e-03 7.08516096241599e-05
1.81525000000000e+01 5.12108233032919e-03 7.01720586816162e-05
1.82503571428571e+01 5.05827538873822e-03 6.94980155406410e-05
1.83482142857143e+01 4.99623873600385e-03 6.88294574832943e-05
1.84460714285714e+01 4.93496292466894e-03 6.81663613039454e-05
1.85439285714286e+01 4.87443862381096e-03 6.75087032226189e-05
1.86417857142857e+01 4.81465661660773e-03 6.68564592788564e-05
1.87396428571429e+01 4.75560779896489e-03 6.62096048047987e-05
1.88375000000000e+01 4.69728317907436e-03 6.55681148012062e-05
1.89353571428571e+01 4.63967387478720e-03 6.49319638807717e-05
1.90332142857143e+01 4.58277111349830e-03 6.43011262682323e-05
1.91310714285714e+01 4.52656622959338e-03 6.36755758362563e-05
1.92289285714286e+01 4.47105066432662e-03 6.30552860256390e-05
1.93267857142857e+01 4.41621596362146e-03 6.24402301982979e-05
1.94246428571429e+01 4.36205377681031e-03 6.18303811609859e-05
1.95225000000000e+01 4.30855585619893e-03 6.12257115023251e-05
1.96203571428571e+01 4.25571405469745e-03 6.06261935401152e-05
1.97182142857143e+01 4.20352032567472e-03 6.00317993198976e-05
1.98160714285714e+01 4.15196672065563e-03 5.94425006457211e-05
1.99139285714286e+01 4.10104538917063e-03 5.88582690067435e-05
2.00117857142857e+01 4.05074857676710e-03 5.82790758939031e-05
2.01096428571429e+01 4.00106862385229e-03 5.77048923692212e-05
2.02075000000000e+01 3.95199796526757e-03 5.71356893681891e-05
2.03053571428571e+01 3.90352912815034e-03 5.65714376508970e-05
2.04032142857143e+01 3.85565473176625e-03 5.60121077994356e-05
2.05010714285714e+01 3.80836748543061e-03 5.54576702443166e-05
2.05989285714286e+01 3.76166018833751e-03 5.49080951970373e-05
2.06967857142857e+01 3.71552572776035e-03 5.43633529344092e-05
2.07946428571429e+01 3.66995707798948e-03 5.38234134089385e-05
2.08925000000000e+01 3.62494729991938e-03 5.32882465203525e-05
2.09903571428571e+01 3.58048953911728e-03 5.27578220703590e-05
2.10882142857143e+01 3.53657702564006e-03 5.22321097592042e-05
2.11860714285714e+01 3.49320307215630e-03 5.17110792083761e-05
2.12839285714286e+01 3.45036107376148e-03 5.11946998986983e-05
2.13817857142857e+01 3.40804450634840e-03 5.06829414258235e-05
2.14796428571429e+01 3.36624692563200e-03 5.01757731476469e-05
2.15775000000000e+01 3.32496196675140e-03 4.96731644283084e-05
2.16753571428571e+01 3.28418334252399e-03 4.91750845963751e-05
2.17732142857143e+01 3.24390484325240e-03 4.86815029407921e-05
2.18710714285714e+01 3.20412033502652e-03 4.81923887304097e-05
2.19689285714286e+01 3.16482375952989e-03 4.77077111571968e-05
2.20667857142857e+01 3.12600913256307e-03 4.72274395659877e-05
2.21646428571429e+01 3.08767054314840e-03 4.67515431352848e-05
2.22625000000000e+01 3.04980215314848e-03 4.62799910966880e-05
2.23603571428571e+01 3.01239819568677e-03 4.58127526962862e-05
2.24582142857143e+01 2.97545297494892e-03 4.53497971901931e-05
2.25560714285714e+01 2.93896086464650e-03 4.48910938613601e-05
2.26539285714286e+01 2.90291630781862e-03 4.44366119675002e-05
2.27517857142857e+01 2.86731381549307e-03 4.39863209478223e-05
2.28496428571429e+01 2.83214796586455e-03 4.35401901339670e-05
2.29475000000000e+01 2.79741340393051e-03 4.30981889474602e-05
2.30453571428571e+01 2.76310484006141e-03 4.26602868641092e-05
2.31432142857143e+01 2.72921704979983e-03 4.22264534092683e-05
2.32410714285714e+01 2.69574487246969e-03 4.17966581723140e-05
2.33389285714286e+01 2.66268321097633e-03 4.13708707589215e-05
2.34367857142857e+01 2.63002703059179e-03 4.09490609772009e-05
2.35346428571429e+01 2.59777135820069e-03 4.05311985758297e-05
2.36325000000000e+01 2.56591128195373e-03 4.01172534218414e-05
2.37303571428571e+01 2.53444194997279e-03 3.97071954678173e-05
2.38282142857143e+01 2.50335857015054e-03 3.93009947470015e-05
2.39260714285714e+01 2.47265640889051e-03 3.88986213857674e-05
2.40239285714286e+01 2.44233079090826e-03 3.85000455598906e-05
2.41217857142857e+01 2.41237709812877e-03 3.81052376622395e-05
2.42196428571429e+01 2.38279076899427e-03 3.77141680654653e-05
2.43175000000000e+01 2.35356729813583e-03 3.73268072821789e-05
2.44153571428571e+01 2.32470223519974e-03 3.69431259347335e-05
2.45132142857143e+01 2.29619118464981e-03 3.65630947502796e-05
2.46110714285714e+01 2.26802980462537e-03 3.61866845715087e-05
2.47089285714286e+01 2.24021380674547e-03 3.58138663165927e-05
2.48067857142857e+01 2.21273895510756e-03 3.54446111303347e-05
2.49046428571429e+01 2.18560106565228e-03 3.50788901690522e-05
2.50025000000000e+01 2.15879600585291e-03 3.47166747449558e-05
2.51003571428571e+01 2.13231969365122e-03 3.43579362983357e-05
2.51982142857143e+01 2.10616809726406e-03 3.40026463926326e-05
2.52960714285714e+01 2.08033723414773e-03 3.36507767236835e-05
2.53939285714286e+01 2.05482317080671e-03 3.33022990830405e-05
2.54917857142857e+01 2.02962202188394e-03 3.29571854942770e-05
2.55896428571429e+01 2.00472994957784e-03 3.26154080179197e-05
2.56875000000000e+01 1.98014316334949e-03 3.22769388816599e-05
2.57853571428571e+01 1.95585791895717e-03 3.19417504547658e-05
2.58832142857143e+01 1.93187051826850e-03 3.16098152432168e-05
2.59810714285714e+01 1.90817730832079e-03 3.12811058976636e-05
2.60789285714286e+01 1.88477468113551e-03 3.09555951798365e-05
2.61767857142857e+01 1.86165907289143e-03 3.06332560855250e-05
2.62746428571429e+01 1.83882696338957e-03 3.03140616676451e-05
2.63725000000000e+01 1.81627487577767e-03 2.99979851537212e-05
2.64703571428571e+01 1.79399937567392e-03 2.96849999223535e-05
2.65682142857143e+01 1.77199707098551e-03 2.93750794984598e-05
2.66660714285714e+01 1.75026461105573e-03 2.90681975601230e-05
2.67639285714286e+01 1.72879868648493e-03 2.87643279078354e-05
2.68617857142857e+01 1.70759602837874e-03 2.84634445755021e-05
2.69596428571429e+01 1.68665340785704e-03 2.81655216699106e-05
2.70575000000000e+01 1.66596763579515e-03 2.78705334767689e-05
2.71553571428571e+01 1.64553556202817e-03 2.75784544390762e-05
2.72532142857143e+01 1.62535407517663e-03 2.72892591525023e-05
2.73510714285714e+01 1.60542010187191e-03 2.70029223712711e-05
2.74489285714286e+01 1.58573060658443e-03 2.67194189800056e-05
2.75467857142857e+01 1.56628259093976e-03 2.64387240939574e-05
2.76446428571429e+01 1.54707309326805e-03 2.61608129133202e-05
2.77425000000000e+01 1.52809918836134e-03 2.58856608189833e-05
2.78403571428571e+01 1.50935798675082e-03 2.56132433526516e-05
2.79382142857143e+01 1.49084663453992e-03 2.53435362123844e-05
2.80360714285714e+01 1.47256231270070e-03 2.50765152576461e-05
2.81339285714286e+01 1.45450223690955e-03 2.48121564835319e-05
2.82317857142857e+01 1.43666365692489e-03 2.45504361113068e-05
2.83296428571429e+01 1.41904385617371e-03 2.42913304561552e-05
2.84275000000000e+01 1.40164015152439e-03 2.40348160136768e-05
2.85253571428571e+01 1.38444989262985e-03 2.37808694416212e-05
2.86232142857143e+01 1.36747046176846e-03 2.35294675556033e-05
2.87210714285714e+01 1.35069927320458e-03 2.32805873334286e-05
2.88189285714286e+01 1.33413377303204e-03 2.30342058915018e-05
2.89167857142857e+01 1.31777143860766e-03 2.27903005666426e-05
2.90146428571429e+01 1.30160977817193e-03 2.25488487960008e-05
2.91125000000000e+01 1.28564633063649e-03 2.23098281952174e-05
2.92103571428571e+01 1.26987866498714e-03 2.20732165416462e-05
2.93082142857143e+01 1.25430438013253e-03 2.18389917702536e-05
2.94060714285714e+01 1.23892110432286e-03 2.16071319773213e-05
2.95039285714286e+01 1.22372649500117e-03 2.13776153988494e-05
2.96017857142857e+01 1.20871823828764e-03 2.11504204845134e-05
2.96996428571429e+01 1.19389404863143e-03 2.09255257886026e-05
2.97975000000000e+01 1.17925166861229e-03 2.07029100406714e-05
2.98953571428571e+01 1.16478886839763e-03 2.04825521301291e-05
2.99932142857143e+01 1.15050344559916e-03 2.02644311023317e-05
3.00910714285714e+01 1.13639322474417e-03 2.00485261617441e-05
3.01889285714286e+01 1.12245605713475e-03 1.98348166521704e-05
3.02867857142857e+01 1.10868982037801e-03 1.96232821236280e-05
3.03846428571429e+01 1.09509241806670e-03 1.94139022332730e-05
3.04825000000000e+01 1.08166177959411e-03 1.92066568092861e-05
3.05803571428571e+01 1.06839585966018e-03 1.90015258367200e-05
3.06782142857143e+01 1.05529263813597e-03 1.87984894537831e-05
3.07760714285714e+01 1.04235011958270e-03 1.85975279545354e-05
3.08739285714286e+01 1.02956633311865e-03 1.83986217707925e-05
