Energy (eV)          EEDF (eV^-(3/2))     First Anisotropy
1.11000000000000e-02 2.15819241806320e+00 2.48003869863312e-03
3.33000000000000e-02 2.08476757986508e+00 4.03916451925240e-03
5.55000000000000e-02 2.01384076122218e+00 5.18561327661793e-03
7.77000000000000e-02 1.94532697588397e+00 5.97214399166788e-03
9.99000000000000e-02 1.87914412895546e+00 6.56155470662719e-03
1.22100000000000e-01 1.81521291852913e+00 7.01813138647172e-03
1.44300000000000e-01 1.75345674066341e+00 7.37648649357546e-03
1.66500000000000e-01 1.69380159759402e+00 7.65829669637422e-03
1.88700000000000e-01 1.63617600906800e+00 7.87842642349808e-03
2.10900000000000e-01 1.58051092669436e+00 8.04770558764223e-03
2.33100000000000e-01 1.52673965120853e+00 8.17437339725722e-03
2.55300000000000e-01 1.47479775255177e+00 8.26490368390097e-03
2.77500000000000e-01 1.42462299266941e+00 8.32451121972897e-03
2.99700000000000e-01 1.37615525093573e+00 8.35747982879844e-03
3.21900000000000e-01 1.32933645211598e+00 8.36738455479127e-03
3.44100000000000e-01 1.28411049677913e+00 8.35724760999890e-03
3.66300000000000e-01 1.24042319407824e+00 8.32965119071078e-03
3.88500000000000e-01 1.19822219681764e+00 8.28682120489469e-03
4.10700000000000e-01 1.15745693872918e+00 8.23069079528664e-03
4.32900000000000e-01 1.11807857388260e+00 8.16294946480912e-03
4.55100000000000e-01 1.08003991815702e+00 8.08508171059518e-03
4.77300000000000e-01 1.04329539270386e+00 7.99839786103729e-03
4.99500000000000e-01 1.00780096933312e+00 7.90405901598008e-03
5.21700000000000e-01 9.73514117757701e-01 7.80309745670200e-03
5.43900000000000e-01 9.40393754632610e-01 7.69643352615872e-03
5.66100000000000e-01 9.08400194327866e-01 7.58488972366768e-03
5.88300000000000e-01 8.77495101376219e-01 7.46920257563941e-03
6.10500000000000e-01 8.47641444538649e-01 7.35003271180400e-03
6.32700000000000e-01 8.18803452432628e-01 7.22797347931141e-03
6.54900000000000e-01 7.90946570669977e-01 7.10355835482770e-03
6.77100000000000e-01 7.64037420452953e-01 6.97726736029549e-03
6.99300000000000e-01 7.38043758578952e-01 6.84953264652196e-03
7.21500000000000e-01 7.12934438805917e-01 6.72074337678691e-03
7.43700000000000e-01 6.88679374532148e-01 6.59125001779605e-03
7.65900000000000e-01 6.65249502745797e-01 6.46136812578212e-03
7.88100000000000e-01 6.42616749200859e-01 6.33138170010293e-03
8.10300000000000e-01 6.20753994777922e-01 6.20154616435198e-03
8.32500000000000e-01 5.99635042989373e-01 6.07209102507981e-03
8.54700000000000e-01 5.79234588590127e-01 5.94322225019564e-03
8.76900000000000e-01 5.59528187256260e-01 5.81512440257387e-03
8.99100000000000e-01 5.40492226295225e-01 5.68796255902052e-03
9.21300000000000e-01 5.22103896352544e-01 5.56188404032586e-03
9.43500000000000e-01 5.04341164081078e-01 5.43701997445293e-03
9.65700000000000e-01 4.87182745740139e-01 5.31348671184599e-03
9.87900000000000e-01 4.70608081692782e-01 5.19138710927189e-03
1.01010000000000e+00 4.54597311770750e-01 5.07081169644020e-03
1.03230000000000e+00 4.39131251477534e-01 4.95183973781618e-03
1.05450000000000e+00 4.24191369001035e-01 4.83454020048133e-03
1.07670000000000e+00 4.09759763008300e-01 4.71897263756598e-03
1.09890000000000e+00 3.95819141195700e-01 4.60518799563836e-03
1.12110000000000e+00 3.82352799568873e-01 4.49322935345312e-03
1.14330000000000e+00 3.69344602427588e-01 4.38313259861684e-03
1.16550000000000e+00 3.56778963031550e-01 4.27492704799232e-03
1.18770000000000e+00 3.44640824923994e-01 4.16863601702621e-03
1.20990000000000e+00 3.32915643890661e-01 4.06427734262902e-03
1.23210000000000e+00 3.21589370532572e-01 3.96186386374822e-03
1.25430000000000e+00 3.10648433431688e-01 3.86140386334929e-03
1.27650000000000e+00 3.00079722889311e-01 3.76290147514310e-03
1.29870000000000e+00 2.89870575217716e-01 3.66635705806678e-03
1.32090000000000e+00 2.80008757566213e-01 3.57176754123202e-03
1.34310000000000e+00 2.70482453263447e-01 3.47912674179459e-03
1.36530000000000e+00 2.61280247658370e-01 3.38842565796779e-03
1.38750000000000e+00 2.52391114442930e-01 3.29965273919651e-03
1.40970000000000e+00 2.43804402440078e-01 3.21279413532487e-03
1.43190000000000e+00 2.35509822841262e-01 3.12783392642571e-03
1.45410000000000e+00 2.27497436878134e-01 3.04475433481283e-03
1.47630000000000e+00 2.19757643913666e-01 2.96353592062440e-03
1.49850000000000e+00 2.12281169938435e-01 2.88415776224637e-03
1.52070000000000e+00 2.05059056458279e-01 2.80659762273737e-03
1.54290000000000e+00 1.98082649760007e-01 2.73083210331962e-03
1.56510000000000e+00 1.91343590542311e-01 2.65683678491209e-03
1.58730000000000e+00 1.84833803899446e-01 2.58458635860265e-03
1.60950000000000e+00 1.78545489645676e-01 2.51405474588381e-03
1.63170000000000e+00 1.72471112968907e-01 2.44521520941050e-03
1.65390000000000e+00 1.66603395402288e-01 2.37804045497908e-03
1.67610000000000e+00 1.60935306102970e-01 2.31250272537174e-03
1.69830000000000e+00 1.55460053427585e-01 2.24857388666092e-03
1.72050000000000e+00 1.50171076794326e-01 2.18622550752274e-03
1.74270000000000e+00 1.45062038821903e-01 2.12542893206713e-03
1.76490000000000e+00 1.40126817735932e-01 2.06615534665374e-03
1.78710000000000e+00 1.35359500033681e-01 2.00837584112816e-03
1.80930000000000e+00 1.30754373398360e-01 1.95206146488040e-03
1.83150000000000e+00 1.26305919854489e-01 1.89718327809893e-03
1.85370000000000e+00 1.22008809156121e-01 1.84371239856524e-03
1.87590000000000e+00 1.17857892400010e-01 1.79162004431003e-03
1.89810000000000e+00 1.13848195856073e-01 1.74087757242824e-03
1.92030000000000e+00 1.09974915007743e-01 1.69145651432945e-03
1.94250000000000e+00 1.06233408795078e-01 1.64332860768029e-03
1.96470000000000e+00 1.02619194053731e-01 1.59646582527735e-03
1.98690000000000e+00 9.91279401431120e-02 1.55084040107254e-03
2.00910000000000e+00 9.57554637573102e-02 1.50642485355709e-03
2.03130000000000e+00 9.24977239125521e-02 1.46319200669611e-03
2.05350000000000e+00 8.93508171051966e-02 1.42111500859248e-03
2.07570000000000e+00 8.63109726344618e-02 1.38016734804603e-03
2.09790000000000e+00 8.33745480842789e-02 1.34032286916329e-03
2.12010000000000e+00 8.05380249588596e-02 1.30155578416165e-03
2.14230000000000e+00 7.77980044667488e-02 1.26384068450239e-03
2.16450000000000e+00 7.51512034483092e-02 1.22715255047777e-03
2.18670000000000e+00 7.25944504417592e-02 1.19146675936867e-03
2.20890000000000e+00 7.01246818830498e-02 1.15675909228165e-03
2.23110000000000e+00 6.77389384350268e-02 1.12300573976653e-03
2.25330000000000e+00 6.54343614414810e-02 1.09018330630910e-03
2.27550000000000e+00 6.32081895018359e-02 1.05826881378675e-03
2.29770000000000e+00 6.10577551623705e-02 1.02723970396934e-03
2.31990000000000e+00 5.89804817200103e-02 9.97073840141479e-04
2.34210000000000e+00 5.69738801348590e-02 9.67749507917777e-04
2.36430000000000e+00 5.50355460477701e-02 9.39245415317315e-04
2.38650000000000e+00 5.31631568993842e-02 9.11540692159378e-04
2.40870000000000e+00 5.13544691471823e-02 8.84614888838120e-04
2.43090000000000e+00 4.96073155772179e-02 8.58447974529935e-04
2.45310000000000e+00 4.79196027073081e-02 8.33020334883633e-04
2.47530000000000e+00 4.62893082785720e-02 8.08312769240164e-04
2.49750000000000e+00 4.47144788323109e-02 7.84306487425225e-04
2.51970000000000e+00 4.31932273693259e-02 7.60983106155289e-04
2.54190000000000e+00 4.17237310888695e-02 7.38324645094707e-04
2.56410000000000e+00 4.03042292045208e-02 7.16313522598944e-04
2.58630000000000e+00 3.89330208343685e-02 6.94932551176508e-04
2.60850000000000e+00 3.76084629629725e-02 6.74164932699900e-04
2.63070000000000e+00 3.63289684726622e-02 6.53994253393770e-04
2.65290000000000e+00 3.50930042418136e-02 6.34404478626406e-04
2.67510000000000e+00 3.38990893078253e-02 6.15379947528882e-04
2.69730000000000e+00 3.27457930925931e-02 5.96905367464407e-04
2.71950000000000e+00 3.16317336883557e-02 5.78965808368765e-04
2.74170000000000e+00 3.05555762018596e-02 5.61546696981256e-04
2.76390000000000e+00 2.95160311548571e-02 5.44633810984061e-04
2.78610000000000e+00 2.85118529390217e-02 5.28213273066609e-04
2.80830000000000e+00 2.75418383234302e-02 5.12271544930398e-04
2.83050000000000e+00 2.66048250128214e-02 4.96795421248330e-04
2.85270000000000e+00 2.56996902549056e-02 4.81772023591722e-04
2.87490000000000e+00 2.48253494950557e-02 4.67188794337079e-04
2.89710000000000e+00 2.39807550767668e-02 4.53033490563639e-04
2.91930000000000e+00 2.31648949863288e-02 4.39294177952007e-04
2.94150000000000e+00 2.23767916402068e-02 4.25959224693200e-04
2.96370000000000e+00 2.16155007136764e-02 4.13017295416700e-04
2.98590000000000e+00 2.08801100093108e-02 4.00457345145410e-04
3.00810000000000e+00 2.01697383639637e-02 3.88268613284652e-04
3.03030000000000e+00 1.94835345929374e-02 3.76440617651786e-04
3.05250000000000e+00 1.88206764700735e-02 3.64963148552413e-04
3.07470000000000e+00 1.81803697425404e-02 3.53826262908523e-04
3.09690000000000e+00 1.75618471791406e-02 3.43020278443497e-04
3.11910000000000e+00 1.69643676509955e-02 3.32535767928363e-04
3.14130000000000e+00 1.63872152435063e-02 3.22363553493220e-04
3.16350000000000e+00 1.58296983985282e-02 3.12494701007430e-04
3.18570000000000e+00 1.52911490857277e-02 3.02920514531646e-04
3.20790000000000e+00 1.47709220021332e-02 2.93632530844495e-04
3.23010000000000e+00 1.42683937989163e-02 2.84622514046347e-04
3.25230000000000e+00 1.37829623344806e-02 2.75882450242285e-04
3.27450000000000e+00 1.33140459529607e-02 2.67404542306134e-04
3.29670000000000e+00 1.28610827872678e-02 2.59181204727077e-04
3.31890000000000e+00 1.24235300858470e-02 2.51205058540208e-04
3.34110000000000e+00 1.20008635623389e-02 2.43468926342071e-04
3.36330000000000e+00 1.15925767673668e-02 2.35965827392057e-04
3.38550000000000e+00 1.11981804816971e-02 2.28688972800325e-04
3.40770000000000e+00 1.08172021300442e-02 2.21631760802719e-04
3.42990000000000e+00 1.04491852148199e-02 2.14787772123003e-04
3.45210000000000e+00 1.00936887691460e-02 2.08150765422535e-04
3.47430000000000e+00 9.75028682847795e-03 2.01714672837411e-04
3.49650000000000e+00 9.41856792020286e-03 1.95473595602959e-04
3.51870000000000e+00 9.09813457060341e-03 1.89421799765289e-04
3.54090000000000e+00 8.78860282859499e-03 1.83553711979574e-04
3.56310000000000e+00 8.48960180566610e-03 1.77863915394597e-04
3.58530000000000e+00 8.20077323147066e-03 1.72347145622983e-04
3.60750000000000e+00 7.92177102453971e-03 1.66998286796491e-04
3.62970000000000e+00 7.65226087759813e-03 1.61812367705617e-04
3.65190000000000e+00 7.39191985698947e-03 1.56784558022759e-04
3.67410000000000e+00 7.14043601572893e-03 1.51910164608044e-04
3.69630000000000e+00 6.89750801972088e-03 1.47184627896933e-04
3.71850000000000e+00 6.66284478669292e-03 1.42603518368619e-04
3.74070000000000e+00 6.43616513741401e-03 1.38162533094223e-04
3.76290000000000e+00 6.21719745877859e-03 1.33857492363727e-04
3.78510000000000e+00 6.00567937835319e-03 1.29684336390561e-04
3.80730000000000e+00 5.80135744999525e-03 1.25639122092731e-04
3.82950000000000e+00 5.60398685016783e-03 1.21718019949326e-04
3.85170000000000e+00 5.41333108458603e-03 1.17917310931251e-04
3.87390000000000e+00 5.22916170484370e-03 1.14233383504995e-04
3.89610000000000e+00 5.05125803468106e-03 1.10662730708218e-04
3.91830000000000e+00 4.87940690556492e-03 1.07201947295954e-04
3.94050000000000e+00 4.71340240126495e-03 1.03847726956190e-04
3.96270000000000e+00 4.55304561111985e-03 1.00596859593590e-04
3.98490000000000e+00 4.39814439169765e-03 9.74462286801183e-05
4.00710000000000e+00 4.24851313656483e-03 9.43928086713238e-05
4.02930000000000e+00 4.10397255388807e-03 9.14336624870311e-05
4.05150000000000e+00 3.96434945160245e-03 8.85659390552023e-05
4.07370000000000e+00 3.82947652988843e-03 8.57868709177207e-05
4.09590000000000e+00 3.69919218070913e-03 8.30937718968599e-05
4.11810000000000e+00 3.57334029416764e-03 8.04840348212135e-05
4.14030000000000e+00 3.45177007145227e-03 7.79551293098537e-05
4.16250000000000e+00 3.33433584414579e-03 7.55045996135052e-05
4.18470000000000e+00 3.22089689968192e-03 7.31300625115299e-05
4.20690000000000e+00 3.11131731274007e-03 7.08292052635259e-05
4.22910000000000e+00 3.00546578237635e-03 6.85997836143551e-05
4.25130000000000e+00 2.90321547469553e-03 6.64396198514342e-05
4.27350000000000e+00 2.80444387087557e-03 6.43466009131264e-05
4.29570000000000e+00 2.70903262036256e-03 6.23186765470909e-05
4.31790000000000e+00 2.61686739906018e-03 6.03538575174616e-05
4.34010000000000e+00 2.52783777234381e-03 5.84502138597404e-05
4.36230000000000e+00 2.44183706273501e-03 5.66058731823071e-05
4.38450000000000e+00 2.35876222207797e-03 5.48190190134633e-05
4.40670000000000e+00 2.27851370806473e-03 5.30878891929435e-05
4.42890000000000e+00 2.20099536496106e-03 5.14107743068450e-05
4.45110000000000e+00 2.12611430839040e-03 4.97860161649411e-05
4.47330000000000e+00 2.05378081403745e-03 4.82120063193665e-05
4.49550000000000e+00 1.98390821013835e-03 4.66871846236759e-05
4.51770000000000e+00 1.91641277362842e-03 4.52100378312903e-05
4.53990000000000e+00 1.85121362982316e-03 4.37790982323733e-05
4.56210000000000e+00 1.78823265551219e-03 4.23929423281903e-05
4.58430000000000e+00 1.72739438535014e-03 4.10501895420216e-05
4.60650000000000e+00 1.66862592143221e-03 3.97495009657219e-05
4.62870000000000e+00 1.61185684594611e-03 3.84895781410298e-05
4.65090000000000e+00 1.55701913679571e-03 3.72691618747533e-05
4.67310000000000e+00 1.50404708609534e-03 3.60870310869772e-05
4.69530000000000e+00 1.45287722143693e-03 3.49420016914486e-05
4.71750000000000e+00 1.40344822983586e-03 3.38329255073166e-05
4.73970000000000e+00 1.35570088426424e-03 3.27586892014259e-05
4.76190000000000e+00 1.30957797268360e-03 3.17182132603708e-05
4.78410000000000e+00 1.26502422949207e-03 3.07104509915387e-05
4.80630000000000e+00 1.22198626930376e-03 2.97343875523900e-05
4.82850000000000e+00 1.18041252298107e-03 2.87890390072347e-05
4.85070000000000e+00 1.14025317584331e-03 2.78734514107827e-05
4.87290000000000e+00 1.10146010797753e-03 2.69866999177636e-05
4.89510000000000e+00 1.06398683658005e-03 2.61278879179237e-05
4.91730000000000e+00 1.02778846025961e-03 2.52961461957291e-05
4.93950000000000e+00 9.92821605235482e-04 2.44906321141131e-05
4.96170000000000e+00 9.59044373365877e-04 2.37105288216249e-05
4.98390000000000e+00 9.26416291944607e-04 2.29550444823526e-05
5.00610000000000e+00 8.94898265205684e-04 2.22234115280047e-05
5.02830000000000e+00 8.64452527477817e-04 2.15148859315537e-05
5.05050000000000e+00 8.35042597932661e-04 2.08287465018539e-05
5.07270000000000e+00 8.06633236872595e-04 2.01642941986652e-05
5.09490000000000e+00 7.79190403505655e-04 1.95208514675235e-05
5.11710000000000e+00 7.52681215157020e-04 1.88977615939179e-05
5.13930000000000e+00 7.27073907868190e-04 1.82943880762412e-05
5.16150000000000e+00 7.02337798336631e-04 1.77101140169992e-05
5.18370000000000e+00 6.78443247150291e-04 1.71443415317741e-05
5.20590000000000e+00 6.55361623272930e-04 1.65964911754497e-05
5.22810000000000e+00 6.33065269737715e-04 1.60660013852210e-05
5.25030000000000e+00 6.11527470507960e-04 1.55523279399203e-05
5.27250000000000e+00 5.90722418465321e-04 1.50549434352045e-05
5.29470000000000e+00 5.70625184487073e-04 1.45733367741601e-05
5.31690000000000e+00 5.51211687575425e-04 1.41070126728955e-05
5.33910000000000e+00 5.32458666003080e-04 1.36554911806965e-05
5.36130000000000e+00 5.14343649440461e-04 1.32183072143378e-05
5.38350000000000e+00 4.96844932031216e-04 1.27950101061496e-05
5.40570000000000e+00 4.79941546383724e-04 1.23851631654504e-05
5.42790000000000e+00 4.63613238447461e-04 1.19883432529676e-05
5.45010000000000e+00 4.47840443244092e-04 1.16041403678774e-05
5.47230000000000e+00 4.32604261424243e-04 1.12321572471033e-05
5.49450000000000e+00 4.17886436621830e-04 1.08720089765259e-05
5.51670000000000e+00 4.03669333578840e-04 1.05233226137612e-05
5.53890000000000e+00 3.89935917014333e-04 1.01857368221790e-05
5.56110000000000e+00 3.76669731212347e-04 9.85890151583660e-06
5.58330000000000e+00 3.63854880304259e-04 9.54247751501558e-06
5.60550000000000e+00 3.51476009221966e-04 9.23613621205625e-06
5.62770000000000e+00 3.39518285299069e-04 8.93955924719273e-06
5.64990000000000e+00 3.27967380498002e-04 8.65243819409964e-06
5.67210000000000e+00 3.16809454241834e-04 8.37447425486971e-06
5.69430000000000e+00 3.06031136830146e-04 8.10537796414872e-06
5.71650000000000e+00 2.95619513419131e-04 7.84486890216248e-06
5.73870000000000e+00 2.85562108546713e-04 7.59267541637665e-06
5.76090000000000e+00 2.75846871184138e-04 7.34853435153857e-06
5.78310000000000e+00 2.66462160296141e-04 7.11219078785625e-06
5.80530000000000e+00 2.57396730892372e-04 6.88339778707690e-06
5.82750000000000e+00 2.48639720553372e-04 6.66191614623450e-06
5.84970000000000e+00 2.40180636414955e-04 6.44751415884082e-06
5.87190000000000e+00 2.32009342595405e-04 6.23996738330215e-06
5.89410000000000e+00 2.24116048050408e-04 6.03905841834940e-06
5.91630000000000e+00 2.16491294841193e-04 5.84457668527513e-06
5.93850000000000e+00 2.09125946801786e-04 5.65631821677705e-06
5.96070000000000e+00 2.02011178591842e-04 5.47408545221292e-06
5.98290000000000e+00 1.95138465121903e-04 5.29768703907801e-06
6.00510000000000e+00 1.88499571338424e-04 5.12693764052050e-06
6.02730000000000e+00 1.82086542356335e-04 4.96165774871640e-06
6.04950000000000e+00 1.75891693927301e-04 4.80167350393021e-06
6.07170000000000e+00 1.69907603232265e-04 4.64681651909247e-06
6.09390000000000e+00 1.64127099987250e-04 4.49692370973024e-06
6.11610000000000e+00 1.58543257851743e-04 4.35183712909131e-06
6.13830000000000e+00 1.53149386129390e-04 4.21140380830742e-06
6.16050000000000e+00 1.47939021751035e-04 4.07547560144632e-06
6.18270000000000e+00 1.42905921530515e-04 3.94390903530632e-06
6.20490000000000e+00 1.38044054683922e-04 3.81656516381204e-06
6.22710000000000e+00 1.33347595603367e-04 3.69330942687358e-06
6.24930000000000e+00 1.28810916876597e-04 3.57401151357497e-06
6.27150000000000e+00 1.24428582544091e-04 3.45854522956275e-06
6.29370000000000e+00 1.20195341585560e-04 3.34678836850840e-06
6.31590000000000e+00 1.16106121628044e-04 3.23862258752176e-06
6.33810000000000e+00 1.12156022868075e-04 3.13393328639721e-06
6.36030000000000e+00 1.08340312200609e-04 3.03260949057709e-06
6.38250000000000e+00 1.04654417547705e-04 2.93454373771994e-06
6.40470000000000e+00 1.01093922380148e-04 2.83963196776533e-06
6.42690000000000e+00 9.76545604254568e-05 2.74777341638937e-06
6.44910000000000e+00 9.43322105559325e-05 2.65887051174867e-06
6.47130000000000e+00 9.11228918506206e-05 2.57282877441306e-06
6.49350000000000e+00 8.80227588252748e-05 2.48955672039067e-06
6.51570000000000e+00 8.50280968246041e-05 2.40896576715158e-06
6.53790000000000e+00 8.21353175712813e-05 2.33097014255917e-06
6.56010000000000e+00 7.93409548663815e-05 2.25548679662092e-06
6.58230000000000e+00 7.66416604360976e-05 2.18243531597283e-06
6.60450000000000e+00 7.40341999197568e-05 2.11173784101461e-06
6.62670000000000e+00 7.15154489943303e-05 2.04331898561464e-06
6.64890000000000e+00 6.90823896307930e-05 1.97710575930668e-06
6.67110000000000e+00 6.67321064778471e-05 1.91302749190250e-06
6.69330000000000e+00 6.44617833686771e-05 1.85101576044624e-06
6.71550000000000e+00 6.22686999465496e-05 1.79100431843945e-06
6.73770000000000e+00 6.01502284052150e-05 1.73292902726731e-06
6.75990000000000e+00 5.81038303402064e-05 1.67672778975875e-06
6.78210000000000e+00 5.61270537072605e-05 1.62234048581497e-06
6.80430000000000e+00 5.42175298842186e-05 1.56970891004331e-06
6.82650000000000e+00 5.23729708328852e-05 1.51877671133497e-06
6.84870000000000e+00 5.05911663574449e-05 1.46948933432660e-06
6.87090000000000e+00 4.88699814561516e-05 1.42179396268857e-06
6.89310000000000e+00 4.72073537631169e-05 1.37563946418326e-06
6.91530000000000e+00 4.56012910771331e-05 1.33097633743932e-06
6.93750000000000e+00 4.40498689745689e-05 1.28775666038901e-06
6.95970000000000e+00 4.25512285034777e-05 1.24593404031735e-06
6.98190000000000e+00 4.11035739561559e-05 1.20546356547366e-06
7.00410000000000e+00 3.97051707174823e-05 1.16630175819721e-06
