Energy (eV)          EEDF (eV^-(3/2))     First Anisotropy
2.89062500000000e-02 3.20928799515991e-02 1.50633123549022e-05
8.67187500000000e-02 3.19201567609947e-02 2.48905521473602e-05
1.44531250000000e-01 3.17483631629116e-02 3.29027316300923e-05
2.02343750000000e-01 3.15774941542884e-02 3.90167365806725e-05
2.60156250000000e-01 3.14075447590014e-02 4.41383675748463e-05
3.17968750000000e-01 3.12385100277107e-02 4.86093539507435e-05
3.75781250000000e-01 3.10703850377136e-02 5.26061777358349e-05
4.33593750000000e-01 3.09031648928020e-02 5.62351976363137e-05
4.91406250000000e-01 3.07368447231189e-02 5.95668128099945e-05
5.49218750000000e-01 3.05714196850168e-02 6.26506817932319e-05
6.07031250000000e-01 3.04068849609168e-02 6.55234920883935e-05
6.64843750000000e-01 3.02432357591679e-02 6.82133222351242e-05
7.22656250000000e-01 3.00804673139080e-02 7.07422696963899e-05
7.80468750000000e-01 2.99185748849243e-02 7.31281228325816e-05
8.38281250000000e-01 2.97575537575163e-02 7.53854721349360e-05
8.96093750000000e-01 2.95973992423574e-02 7.75264756602152e-05
9.53906250000000e-01 2.94381066753592e-02 7.95614022593676e-05
1.01171875000000e+00 2.92796714175351e-02 8.14990270061445e-05
1.06953125000000e+00 2.91220888548657e-02 8.33469253849526e-05
1.12734375000000e+00 2.89653543981638e-02 8.51116963500316e-05
1.18515625000000e+00 2.88094634829415e-02 8.67991342948152e-05
1.24296875000000e+00 2.86544115692765e-02 8.84143636038959e-05
1.30078125000000e+00 2.85001941416805e-02 8.99619453238439e-05
1.35859375000000e+00 2.83468067089674e-02 9.14459627356083e-05
1.41640625000000e+00 2.81942448041226e-02 9.28700907380996e-05
1.47421875000000e+00 2.80425039841727e-02 9.42376526532570e-05
1.53203125000000e+00 2.78915798300566e-02 9.55516671455868e-05
1.58984375000000e+00 2.77414679464963e-02 9.68148872912984e-05
1.64765625000000e+00 2.75921639618690e-02 9.80298333533847e-05
1.70546875000000e+00 2.74436635280801e-02 9.91988204658853e-05
1.76328125000000e+00 2.72959623204362e-02 1.00323982167018e-04
1.82109375000000e+00 2.71490560375193e-02 1.01407290521895e-04
1.87890625000000e+00 2.70029404010617e-02 1.02450573423668e-04
1.93671875000000e+00 2.68576111558211e-02 1.03455529545124e-04
1.99453125000000e+00 2.67130640694569e-02 1.04423741321822e-04
2.05234375000000e+00 2.65692949324068e-02 1.05356686276635e-04
2.11015625000000e+00 2.64262995577642e-02 1.06255746939323e-04
2.16796875000000e+00 2.62840737811565e-02 1.07122219570072e-04
2.22578125000000e+00 2.61426134606237e-02 1.07957321859887e-04
2.28359375000000e+00 2.60019144764976e-02 1.08762199751928e-04
2.34140625000000e+00 2.58619727312819e-02 1.09537933504491e-04
2.39921875000000e+00 2.57227841495332e-02 1.10285543096884e-04
2.45703125000000e+00 2.55843446777418e-02 1.11005993064081e-04
2.51484375000000e+00 2.54466502842140e-02 1.11700196832817e-04
2.57265625000000e+00 2.53096969589547e-02 1.12369020621123e-04
2.63046875000000e+00 2.51734807135503e-02 1.13013286954402e-04
2.68828125000000e+00 2.50379975810528e-02 1.13633777843540e-04
2.74609375000000e+00 2.49032436158644e-02 1.14231237664360e-04
2.80390625000000e+00 2.47692148936223e-02 1.14806375772347e-04
2.86171875000000e+00 2.46359075110844e-02 1.15359868882151e-04
2.91953125000000e+00 2.45033175860160e-02 1.15892363237473e-04
2.97734375000000e+00 2.43714412570765e-02 1.16404476593744e-04
3.03515625000000e+00 2.42402746837067e-02 1.16896800033179e-04
3.09296875000000e+00 2.41098140460175e-02 1.17369899629431e-04
3.15078125000000e+00 2.39800555446782e-02 1.17824317976989e-04
3.20859375000000e+00 2.38509954008059e-02 1.18260575598668e-04
3.26640625000000e+00 2.37226298558560e-02 1.18679172243030e-04
3.32421875000000e+00 2.35949551715117e-02 1.19080588082209e-04
3.38203125000000e+00 2.34679676295763e-02 1.19465284819463e-04
3.43984375000000e+00 2.33416635318640e-02 1.19833706714758e-04
3.49765625000000e+00 2.32160392000927e-02 1.20186281535742e-04
3.55546875000000e+00 2.30910909757766e-02 1.20523421440768e-04
3.61328125000000e+00 2.29668152201201e-02 1.20845523799925e-04
3.67109375000000e+00 2.28432083139112e-02 1.21152971959350e-04
3.72890625000000e+00 2.27202666574165e-02 1.21446135953622e-04
3.78671875000000e+00 2.25979866702765e-02 1.21725373170558e-04
3.84453125000000e+00 2.24763647914007e-02 1.21991028972334e-04
3.90234375000000e+00 2.23553974788648e-02 1.22243437276419e-04
3.96015625000000e+00 2.22350812098066e-02 1.22482921099486e-04
4.01796875000000e+00 2.21154124803243e-02 1.22709793067253e-04
4.07578125000000e+00 2.19963878053736e-02 1.22924355892845e-04
4.13359375000000e+00 2.18780037186670e-02 1.23126902826063e-04
4.19140625000000e+00 2.17602567725723e-02 1.23317718075713e-04
4.24921875000000e+00 2.16431435380123e-02 1.23497077207024e-04
4.30703125000000e+00 2.15266606043653e-02 1.23665247515969e-04
4.36484375000000e+00 2.14108045793652e-02 1.23822488382073e-04
4.42265625000000e+00 2.12955720890032e-02 1.23969051601287e-04
4.48046875000000e+00 2.11809597774293e-02 1.24105181700320e-04
4.53828125000000e+00 2.10669643068544e-02 1.24231116233700e-04
4.59609375000000e+00 2.09535823574537e-02 1.24347086064680e-04
4.65390625000000e+00 2.08408106272693e-02 1.24453315631139e-04
4.71171875000000e+00 2.07286458321146e-02 1.24550023197475e-04
4.76953125000000e+00 2.06170847054781e-02 1.24637421093332e-04
4.82734375000000e+00 2.05061239984290e-02 1.24715715940053e-04
4.88515625000000e+00 2.03957604795219e-02 1.24785108865672e-04
4.94296875000000e+00 2.02859909347031e-02 1.24845795709129e-04
5.00078125000000e+00 2.01768121672167e-02 1.24897967214339e-04
5.05859375000000e+00 2.00682209975119e-02 1.24941809214826e-04
5.11640625000000e+00 1.99602142631500e-02 1.24977502809442e-04
5.17421875000000e+00 1.98527888187125e-02 1.25005224529669e-04
5.23203125000000e+00 1.97459415357096e-02 1.25025146499086e-04
5.28984375000000e+00 1.96396693024889e-02 1.25037436585409e-04
5.34765625000000e+00 1.95339690241447e-02 1.25042258545538e-04
5.40546875000000e+00 1.94288376224282e-02 1.25039772163985e-04
5.46328125000000e+00 1.93242720356576e-02 1.25030133385120e-04
5.52109375000000e+00 1.92202692186291e-02 1.25013494439558e-04
5.57890625000000e+00 1.91168261425279e-02 1.24990003964948e-04
5.63671875000000e+00 1.90139397948405e-02 1.24959807121564e-04
5.69453125000000e+00 1.89116071792663e-02 1.24923045702930e-04
5.75234375000000e+00 1.88098253156312e-02 1.24879858241738e-04
5.81015625000000e+00 1.87085912398001e-02 1.24830380111334e-04
5.86796875000000e+00 1.86079020035906e-02 1.24774743622966e-04
5.92578125000000e+00 1.85077546746876e-02 1.24713078119074e-04
5.98359375000000e+00 1.84081463365578e-02 1.24645510062788e-04
6.04140625000000e+00 1.83090740883643e-02 1.24572163123798e-04
6.09921875000000e+00 1.82105350448826e-02 1.24493158260838e-04
6.15703125000000e+00 1.81125263364164e-02 1.24408613800902e-04
6.21484375000000e+00 1.80150451087140e-02 1.24318645515382e-04
6.27265625000000e+00 1.79180885228853e-02 1.24223366693298e-04
6.33046875000000e+00 1.78216537553190e-02 1.24122888211711e-04
6.38828125000000e+00 1.77257379976004e-02 1.24017318603442e-04
6.44609375000000e+00 1.76303384564297e-02 1.23906764122306e-04
6.50390625000000e+00 1.75354523535404e-02 1.23791328805933e-04
6.56171875000000e+00 1.74410769256189e-02 1.23671114536269e-04
6.61953125000000e+00 1.73472094242233e-02 1.23546221097858e-04
6.67734375000000e+00 1.72538471157041e-02 1.23416746234058e-04
6.73515625000000e+00 1.71609872811239e-02 1.23282785701246e-04
6.79296875000000e+00 1.70686272161790e-02 1.23144433321122e-04
6.85078125000000e+00 1.69767642311197e-02 1.23001781031170e-04
6.90859375000000e+00 1.68853956506730e-02 1.22854918933369e-04
6.96640625000000e+00 1.67945188139636e-02 1.22703935341247e-04
7.02421875000000e+00 1.67041310744375e-02 1.22548916825328e-04
7.08203125000000e+00 1.66142297997841e-02 1.22389948257060e-04
7.13984375000000e+00 1.65248123718599e-02 1.22227112851250e-04
7.19765625000000e+00 1.64358761866122e-02 1.22060492207115e-04
7.25546875000000e+00 1.63474186540032e-02 1.21890166348010e-04
7.31328125000000e+00 1.62594371979347e-02 1.21716213759804e-04
7.37109375000000e+00 1.61719292561730e-02 1.21538711428092e-04
7.42890625000000e+00 1.60848922802743e-02 1.21357734874163e-04
7.48671875000000e+00 1.59983237355104e-02 1.21173358189837e-04
7.54453125000000e+00 1.59122211007950e-02 1.20985654071259e-04
7.60234375000000e+00 1.58265818686103e-02 1.20794693851586e-04
7.66015625000000e+00 1.57414035449337e-02 1.20600547532684e-04
7.71796875000000e+00 1.56566836491656e-02 1.20403283815859e-04
7.77578125000000e+00 1.55724197140568e-02 1.20202970131635e-04
7.83359375000000e+00 1.54886092856369e-02 1.19999672668687e-04
7.89140625000000e+00 1.54052499231426e-02 1.19793456401860e-04
7.94921875000000e+00 1.53223391989467e-02 1.19584385119375e-04
8.00703125000000e+00 1.52398746984876e-02 1.19372521449243e-04
8.06484375000000e+00 1.51578540201987e-02 1.19157926884898e-04
8.12265625000000e+00 1.50762747754386e-02 1.18940661810100e-04
8.18046875000000e+00 1.49951345884216e-02 1.18720785523121e-04
8.23828125000000e+00 1.49144310961483e-02 1.18498356260237e-04
8.29609375000000e+00 1.48341619483370e-02 1.18273431218583e-04
8.35390625000000e+00 1.47543248073551e-02 1.18046066578313e-04
8.41171875000000e+00 1.46749173481511e-02 1.17816317524182e-04
8.46953125000000e+00 1.45959372581870e-02 1.17584238266567e-04
8.52734375000000e+00 1.45173822373706e-02 1.17349882061838e-04
8.58515625000000e+00 1.44392499979890e-02 1.17113301232225e-04
8.64296875000000e+00 1.43615382646415e-02 1.16874547185137e-04
8.70078125000000e+00 1.42842447741737e-02 1.16633670431960e-04
8.75859375000000e+00 1.42073672756114e-02 1.16390720606368e-04
8.81640625000000e+00 1.41309035300951e-02 1.16145746482123e-04
8.87421875000000e+00 1.40548513108148e-02 1.15898795990447e-04
8.93203125000000e+00 1.39792084029451e-02 1.15649916236916e-04
8.98984375000000e+00 1.39039726035809e-02 1.15399153517930e-04
9.04765625000000e+00 1.38291417216728e-02 1.15146553336760e-04
9.10546875000000e+00 1.37547135779639e-02 1.14892160419152e-04
9.16328125000000e+00 1.36806860049257e-02 1.14636018728614e-04
9.22109375000000e+00 1.36070568466956e-02 1.14378171481245e-04
9.27890625000000e+00 1.35338239590136e-02 1.14118661160220e-04
9.33671875000000e+00 1.34609852091602e-02 1.13857529529919e-04
9.39453125000000e+00 1.33885384758939e-02 1.13594817649712e-04
9.45234375000000e+00 1.33164816493900e-02 1.13330565887428e-04
9.51015625000000e+00 1.32448126311786e-02 1.13064813932433e-04
9.56796875000000e+00 1.31735293340839e-02 1.12797600808443e-04
9.62578125000000e+00 1.31026296821630e-02 1.12528964886042e-04
9.68359375000000e+00 1.30321116106459e-02 1.12258943894849e-04
9.74140625000000e+00 1.29619730658750e-02 1.11987574935443e-04
9.79921875000000e+00 1.28922120052456e-02 1.11714894490992e-04
9.85703125000000e+00 1.28228263971460e-02 1.11440938438608e-04
9.91484375000000e+00 1.27538142208990e-02 1.11165742060453e-04
9.97265625000000e+00 1.26851734667022e-02 1.10889340054563e-04
1.00304687500000e+01 1.26169021355701e-02 1.10611766545452e-04
1.00882812500000e+01 1.25489982392758e-02 1.10333055094445e-04
1.01460937500000e+01 1.24814598002928e-02 1.10053238709814e-04
1.02039062500000e+01 1.24142848517378e-02 1.09772349856670e-04
1.02617187500000e+01 1.23474714373130e-02 1.09490420466595e-04
1.03195312500000e+01 1.22810176112496e-02 1.09207481947133e-04
1.03773437500000e+01 1.22149214382507e-02 1.08923565191019e-04
1.04351562500000e+01 1.21491809934351e-02 1.08638700585222e-04
1.04929687500000e+01 1.20837943622816e-02 1.08352918019795e-04
1.05507812500000e+01 1.20187596405724e-02 1.08066246896513e-04
1.06085937500000e+01 1.19540749343387e-02 1.07778716137352e-04
1.06664062500000e+01 1.18897383598044e-02 1.07490354192767e-04
1.07242187500000e+01 1.18257480433325e-02 1.07201189049800e-04
1.07820312500000e+01 1.17621021213693e-02 1.06911248240021e-04
1.08398437500000e+01 1.16987987403911e-02 1.06620558847290e-04
1.08976562500000e+01 1.16358360568497e-02 1.06329147515363e-04
1.09554687500000e+01 1.15732122371186e-02 1.06037040455348e-04
1.10132812500000e+01 1.15109254574403e-02 1.05744263452988e-04
1.10710937500000e+01 1.14489739038723e-02 1.05450841875805e-04
1.11289062500000e+01 1.13873557722350e-02 1.05156800680100e-04
1.11867187500000e+01 1.13260692680586e-02 1.04862164417798e-04
1.12445312500000e+01 1.12651126065313e-02 1.04566957243170e-04
1.13023437500000e+01 1.12044840124471e-02 1.04271202919414e-04
1.13601562500000e+01 1.11441817201540e-02 1.03974924825089e-04
1.14179687500000e+01 1.10842039735028e-02 1.03678145960436e-04
1.14757812500000e+01 1.10245490257958e-02 1.03380888953592e-04
1.15335937500000e+01 1.09652151397360e-02 1.03083176066630e-04
1.15914062500000e+01 1.09062005873765e-02 1.02785029201514e-04
1.16492187500000e+01 1.08475036500703e-02 1.02486469905962e-04
1.17070312500000e+01 1.07891226184199e-02 1.02187519379130e-04
1.17648437500000e+01 1.07310557922279e-02 1.01888198477241e-04
1.18226562500000e+01 1.06733014804472e-02 1.01588527719091e-04
1.18804687500000e+01 1.06158580011320e-02 1.01288527291418e-04
1.19382812500000e+01 1.05587236813887e-02 1.00988217054229e-04
1.19960937500000e+01 1.05018968573270e-02 1.00687616545979e-04
1.20539062500000e+01 1.04453758740119e-02 1.00386744988644e-04
1.21117187500000e+01 1.03891590854149e-02 1.00085621292752e-04
1.21695312500000e+01 1.03332448543667e-02 9.97842640622797e-05
1.22273437500000e+01 1.02776315525090e-02 9.94826915994563e-05
1.22851562500000e+01 1.02223175602473e-02 9.91809219094877e-05
1.23429687500000e+01 1.01673012667040e-02 9.88789727051991e-05
1.24007812500000e+01 1.01125810696708e-02 9.85768614115895e-05
1.24585937500000e+01 1.00581553755626e-02 9.82746051702948e-05
1.25164062500000e+01 1.00040225993712e-02 9.79722208439671e-05
1.25742187500000e+01 9.95018116461848e-03 9.76697250205864e-05
1.26320312500000e+01 9.89662950331115e-03 9.73671340177174e-05
1.26898437500000e+01 9.84336605589474e-03 9.70644638866301e-05
1.27476562500000e+01 9.79038927120827e-03 9.67617304163803e-05
1.28054687500000e+01 9.73769760643909e-03 9.64589491378314e-05
1.28632812500000e+01 9.68528952707793e-03 9.61561353275735e-05
1.29210937500000e+01 9.63316350687422e-03 9.58533040118100e-05
1.29789062500000e+01 9.58131802779163e-03 9.55504699701480e-05
1.30367187500000e+01 9.52975157996386e-03 9.52476477393080e-05
1.30945312500000e+01 9.47846266165070e-03 9.49448516168139e-05
1.31523437500000e+01 9.42744977919426e-03 9.46420956646013e-05
1.32101562500000e+01 9.37671144697550e-03 9.43393937125325e-05
1.32679687500000e+01 9.32624618737092e-03 9.40367593618889e-05
1.33257812500000e+01 9.27605253070959e-03 9.37342059887928e-05
1.33835937500000e+01 9.22612901523029e-03 9.34317467475612e-05
1.34414062500000e+01 9.17647418703900e-03 9.31293945740247e-05
1.34992187500000e+01 9.12708660006650e-03 9.28271621887603e-05
1.35570312500000e+01 9.07796481602628e-03 9.25250621002787e-05
1.36148437500000e+01 9.02910740437268e-03 9.22231066081742e-05
1.36726562500000e+01 8.98051294225919e-03 9.19213078062126e-05
1.37304687500000e+01 8.93218001449703e-03 9.16196775853679e-05
1.37882812500000e+01 8.88410721351394e-03 9.13182276367936e-05
1.38460937500000e+01 8.83629313931318e-03 9.10169694547627e-05
1.39039062500000e+01 8.78873639943277e-03 9.07159143395630e-05
1.39617187500000e+01 8.74143560890491e-03 9.04150734003200e-05
1.40195312500000e+01 8.69438939021570e-03 9.01144575577989e-05
1.40773437500000e+01 8.64759637326497e-03 8.98140775471586e-05
1.41351562500000e+01 8.60105519532639e-03 8.95139439206427e-05
1.41929687500000e+01 8.55476450100782e-03 8.92140670502369e-05
1.42507812500000e+01 8.50872294221178e-03 8.89144571302786e-05
1.43085937500000e+01 8.46292917809626e-03 8.86151241800501e-05
1.43664062500000e+01 8.41738187503560e-03 8.83160780463053e-05
1.44242187500000e+01 8.37207970658170e-03 8.80173284057328e-05
1.44820312500000e+01 8.32702135342536e-03 8.77188847674319e-05
1.45398437500000e+01 8.28220550335790e-03 8.74207564753347e-05
1.45976562500000e+01 8.23763085123291e-03 8.71229527105598e-05
1.46554687500000e+01 8.19329609892823e-03 8.68254824937548e-05
1.47132812500000e+01 8.14919995530819e-03 8.65283546873931e-05
1.47710937500000e+01 8.10534113618596e-03 8.62315779980478e-05
1.48289062500000e+01 8.06171836428621e-03 8.59351609786146e-05
1.48867187500000e+01 8.01833036920784e-03 8.56391120304973e-05
1.49445312500000e+01 7.97517588738706e-03 8.53434394057767e-05
1.50023437500000e+01 7.93225366206051e-03 8.50481512093396e-05
1.50601562500000e+01 7.88956244322875e-03 8.47532554009668e-05
1.51179687500000e+01 7.84710098761977e-03 8.44587597973932e-05
1.51757812500000e+01 7.80486805865285e-03 8.41646720743431e-05
1.52335937500000e+01 7.76286242640250e-03 8.38709997685098e-05
1.52914062500000e+01 7.72108286756268e-03 8.35777502795487e-05
1.53492187500000e+01 7.67952816541116e-03 8.32849308720115e-05
1.54070312500000e+01 7.63819710977406e-03 8.29925486772405e-05
1.54648437500000e+01 7.59708849699063e-03 8.27006106952504e-05
1.55226562500000e+01 7.55620112987824e-03 8.24091237965829e-05
1.55804687500000e+01 7.51553381769741e-03 8.21180947241387e-05
1.56382812500000e+01 7.47508537611726e-03 8.18275300949769e-05
1.56960937500000e+01 7.43485462718089e-03 8.15374364020643e-05
1.57539062500000e+01 7.39484039927118e-03 8.12478200160279e-05
1.58117187500000e+01 7.35504152707661e-03 8.09586871868762e-05
1.58695312500000e+01 7.31545685155735e-03 8.06700440456818e-05
1.59273437500000e+01 7.27608521991150e-03 8.03818966062592e-05
1.59851562500000e+01 7.23692548554150e-03 8.00942507668035e-05
1.60429687500000e+01 7.19797650802076e-03 7.98071123115017e-05
1.61007812500000e+01 7.15923715306045e-03 7.95204869121317e-05
1.61585937500000e+01 7.12070629247645e-03 7.92343801296367e-05
1.62164062500000e+01 7.08238280415651e-03 7.89487974156619e-05
1.62742187500000e+01 7.04426557202755e-03 7.86637441140882e-05
1.63320312500000e+01 7.00635348602319e-03 7.83792254625394e-05
1.63898437500000e+01 6.96864544205139e-03 7.80952465938540e-05
1.64476562500000e+01 6.93114034196230e-03 7.78118125375502e-05
1.65054687500000e+01 6.89383709351633e-03 7.75289282212677e-05
1.65632812500000e+01 6.85673461035224e-03 7.72465984721775e-05
1.66210937500000e+01 6.81983181195563e-03 7.69648280183873e-05
1.66789062500000e+01 6.78312762362734e-03 7.66836214903175e-05
1.67367187500000e+01 6.74662097645227e-03 7.64029834220594e-05
1.67945312500000e+01 6.71031080726816e-03 7.61229182527136e-05
1.68523437500000e+01 6.67419605863470e-03 7.58434303277062e-05
1.69101562500000e+01 6.63827567880267e-03 7.55645239000994e-05
1.69679687500000e+01 6.60254862168336e-03 7.52862031318754e-05
1.70257812500000e+01 6.56701384681809e-03 7.50084720951758e-05
1.70835937500000e+01 6.53167031934788e-03 7.47313347735725e-05
1.71414062500000e+01 6.49651700998338e-03 7.44547950633053e-05
1.71992187500000e+01 6.46155289497481e-03 7.41788567744667e-05
1.72570312500000e+01 6.42677695608223e-03 7.39035236322165e-05
1.73148437500000e+01 6.39218818054581e-03 7.36287992779578e-05
1.73726562500000e+01 6.35778556105640e-03 7.33546872704823e-05
1.74304687500000e+01 6.32356809572614e-03 7.30811910871408e-05
1.74882812500000e+01 6.28953478805933e-03 7.28083141249636e-05
1.75460937500000e+01 6.25568464692337e-03 7.25360597017635e-05
1.76039062500000e+01 6.22201668651995e-03 7.22644310572526e-05
1.76617187500000e+01 6.18852992635625e-03 7.19934313541153e-05
1.77195312500000e+01 6.15522339121650e-03 7.17230636790819e-05
1.77773437500000e+01 6.12209611113347e-03 7.14533310439766e-05
1.78351562500000e+01 6.08914712136030e-03 7.11842363867561e-05
1.78929687500000e+01 6.05637546234238e-03 7.09157825725493e-05
1.79507812500000e+01 6.02378017968940e-03 7.06479723946642e-05
1.80085937500000e+01 5.99136032414753e-03 7.03808085755742e-05
1.80664062500000e+01 5.95911495157185e-03 7.01142937679065e-05
1.81242187500000e+01 5.92704312289877e-03 6.98484305554179e-05
1.81820312500000e+01 5.89514390411873e-03 6.95832214539491e-05
1.82398437500000e+01 5.86341636624901e-03 6.93186689123761e-05
