################################
# DATA CONSIDERED FOR THE TESTS#
################################

# elastic momentum transfer constant rate coefficient = 1.000000e-12 (m3s-1)
#                                     gas temperature = 300.000000 (K)
#                           mass of the heavy species = 40.000000 (uam)
#               decades of decay ensured for the eedf = 15 
#                 number of cells for the energy grid = 8900 

E/N(Td)              Te_th(eV)            Te_sim(eV)           RelError(Te)         RelError(EEDF)
0.00000000000000e+00 2.58519910116516e-02 2.58515298461177e-02 1.78386853735797e-05 1.98796876555620e-05 
1.00000000000000e+00 3.01268347033801e-02 3.01262978068393e-02 1.78212064443630e-05 1.98405045498548e-05 
2.00000000000000e+00 4.29513657785653e-02 4.29506024793716e-02 1.77712438220299e-05 1.97287062234401e-05 
3.00000000000000e+00 6.43255842372075e-02 6.43244383248366e-02 1.78142551594334e-05 1.98249292422926e-05 
4.00000000000000e+00 9.42494900793065e-02 9.42478053389110e-02 1.78753263710109e-05 1.99619482783888e-05 
5.00000000000000e+00 1.32723083304862e-01 1.32720719361522e-01 1.78110942078558e-05 1.98178573966053e-05 
6.00000000000000e+00 1.79746363913875e-01 1.79743156637140e-01 1.78433469539646e-05 1.98901358009929e-05 
7.00000000000000e+00 2.35319331906345e-01 2.35315132999852e-01 1.78434404795507e-05 1.98903447351345e-05 
8.00000000000000e+00 2.99441987282271e-01 2.99436680091280e-01 1.77236032901688e-05 1.96223914088531e-05 
9.00000000000000e+00 3.72114330041654e-01 3.72107655441103e-01 1.79369618752845e-05 2.01007164453897e-05 
1.00000000000000e+01 4.53336360184494e-01 4.53328241160104e-01 1.79094930460387e-05 2.00388218304618e-05 
1.10000000000000e+01 5.43108077710791e-01 5.43098358052340e-01 1.78963614241554e-05 2.00092506722205e-05 
1.20000000000000e+01 6.41429482620545e-01 6.41418006094451e-01 1.78921088055321e-05 1.99996937058487e-05 
1.30000000000000e+01 7.48300574913756e-01 7.48287264516420e-01 1.77875011484350e-05 1.97650490671281e-05 
1.40000000000000e+01 8.63721354590423e-01 8.63705974920152e-01 1.78062869344043e-05 1.98070720150214e-05 
1.50000000000000e+01 9.87691821650547e-01 9.87674216484768e-01 1.78245535636830e-05 1.98480037655492e-05 
1.60000000000000e+01 1.12021197609413e+00 1.12019198922754e+00 1.78420397350101e-05 1.98872121057144e-05 
1.70000000000000e+01 1.26128181792117e+00 1.26125929312199e+00 1.78586568498369e-05 1.99245143093242e-05 
1.80000000000000e+01 1.41090134713166e+00 1.41087620743061e+00 1.78181848809700e-05 1.98337252827042e-05 
1.90000000000000e+01 1.56907056372561e+00 1.56904257363171e+00 1.78386457249517e-05 1.98795885915902e-05 
2.00000000000000e+01 1.73578946770302e+00 1.73575847103157e+00 1.78573911345530e-05 1.99216741460201e-05 
2.10000000000000e+01 1.91105805906389e+00 1.91102397880592e+00 1.78331881684602e-05 1.98673391523830e-05 
2.20000000000000e+01 2.09487633780821e+00 2.09483893857260e+00 1.78527175732372e-05 1.99111692057882e-05 
2.30000000000000e+01 2.28724430393599e+00 2.28720350868037e+00 1.78359852284911e-05 1.98736424716825e-05 
2.40000000000000e+01 2.48816195744723e+00 2.48811760996654e+00 1.78233898935722e-05 1.98453965725907e-05 
2.50000000000000e+01 2.69762929834192e+00 2.69758116327042e+00 1.78434714983339e-05 1.98904469814557e-05 
2.60000000000000e+01 2.91564632662007e+00 2.91559408910755e+00 1.79162719570368e-05 2.00540799873261e-05 
2.70000000000000e+01 3.14221304228167e+00 3.14215662527412e+00 1.79545456644216e-05 2.01403739776690e-05 
2.80000000000000e+01 3.37732944532674e+00 3.37726893064031e+00 1.79179104104954e-05 2.00577647271249e-05 
2.90000000000000e+01 3.62099553575526e+00 3.62093100473971e+00 1.78213463429388e-05 1.98408165352690e-05 
3.00000000000000e+01 3.87321131356724e+00 3.87314205549654e+00 1.78813044495546e-05 1.99753902441431e-05 
3.10000000000000e+01 4.13397677876267e+00 4.13390287490205e+00 1.78771832968314e-05 1.99661280037794e-05 
3.20000000000000e+01 4.40329193134156e+00 4.40321346318716e+00 1.78203388794630e-05 1.98385570170829e-05 
3.30000000000000e+01 4.68115677130391e+00 4.68107302811919e+00 1.78894211004661e-05 1.99936454550101e-05 
3.40000000000000e+01 4.96757129864971e+00 4.96748236178271e+00 1.79034907918830e-05 2.00253008795800e-05 
3.50000000000000e+01 5.26253551337897e+00 5.26244146450963e+00 1.78713985121511e-05 1.99531357898911e-05 
3.60000000000000e+01 5.56604941549169e+00 5.56595033582166e+00 1.78007169244853e-05 1.97946153865863e-05 
3.70000000000000e+01 5.87811300498787e+00 5.87800818393905e+00 1.78324317221991e-05 1.98656720751214e-05 
3.80000000000000e+01 6.19872628186750e+00 6.19861580082472e+00 1.78231845957269e-05 1.98449207836846e-05 
3.90000000000000e+01 6.52788924613059e+00 6.52777318660158e+00 1.77790285087038e-05 1.97461444636252e-05 
4.00000000000000e+01 6.86560189777713e+00 6.86547954878611e+00 1.78205775465276e-05 1.98390831293760e-05 
4.10000000000000e+01 7.21186423680714e+00 7.21173567998435e+00 1.78257408302131e-05 1.98506762977302e-05 
4.20000000000000e+01 7.56667626322060e+00 7.56654157979743e+00 1.77995487691962e-05 1.97920007973890e-05 
4.30000000000000e+01 7.93003797701751e+00 7.92989645672803e+00 1.78461048854764e-05 1.98963085141659e-05 
4.40000000000000e+01 8.30194937819788e+00 8.30180110203510e+00 1.78604031448413e-05 1.99284318375640e-05 
4.50000000000000e+01 8.68241046676172e+00 8.68225551641551e+00 1.78464663471576e-05 1.98971585296365e-05 
4.60000000000000e+01 9.07142124270900e+00 9.07125969939299e+00 1.78079389865161e-05 1.98107791561706e-05 
4.70000000000000e+01 9.46898170603975e+00 9.46881285924750e+00 1.78315681123245e-05 1.98637512954028e-05 
4.80000000000000e+01 9.87509185675395e+00 9.87491578770580e+00 1.78296111773449e-05 1.98593442072944e-05 
4.90000000000000e+01 1.02897516948516e+01 1.02895684849592e+01 1.78050839158577e-05 1.98043910288740e-05 
5.00000000000000e+01 1.07129612203327e+01 1.07127701592120e+01 1.78345759669267e-05 1.98704473487038e-05 
