Energy (eV)          EEDF (eV^-(3/2))     First Anisotropy
7.10416666666667e-03 1.14119280734023e+00 8.60198197917753e-04
2.13125000000000e-02 1.12489353796856e+00 1.41504505314791e-03
3.55208333333333e-02 1.10882706547576e+00 1.85380378385115e-03
4.97291666666667e-02 1.09299006498475e+00 2.17860663848376e-03
6.39375000000000e-02 1.07737925900206e+00 2.44253176555178e-03
7.81458333333333e-02 1.06199141684512e+00 2.66587556993557e-03
9.23541666666667e-02 1.04682335402126e+00 2.85925471433013e-03
1.06562500000000e-01 1.03187193149302e+00 3.02914732626810e-03
1.20770833333333e-01 1.01713405500568e+00 3.17989372761713e-03
1.34979166666667e-01 1.00260667465036e+00 3.31459229137846e-03
1.49187500000000e-01 9.88286783966344e-01 3.43555908633926e-03
1.63395833333333e-01 9.74171419357379e-01 3.54458717001440e-03
1.77604166666667e-01 9.60257659739724e-01 3.64310359413003e-03
1.91812500000000e-01 9.46542625649119e-01 3.73226978652751e-03
2.06020833333333e-01 9.33023478687916e-01 3.81304855227102e-03
2.20229166666667e-01 9.19697421135693e-01 3.88625048739734e-03
2.34437500000000e-01 9.06561695156623e-01 3.95256708155694e-03
2.48645833333333e-01 8.93613582255807e-01 4.01259489880146e-03
2.62854166666667e-01 8.80850402873297e-01 4.06685369025599e-03
2.77062500000000e-01 8.68269515662817e-01 4.11580019753119e-03
2.91270833333333e-01 8.55868316963650e-01 4.15983881804713e-03
3.05479166666667e-01 8.43644240389480e-01 4.19933002239721e-03
3.19687500000000e-01 8.31594756162537e-01 4.23459706283967e-03
3.33895833333333e-01 8.19717370603464e-01 4.26593135566459e-03
3.48104166666667e-01 8.08009625721655e-01 4.29359689533475e-03
3.62312500000000e-01 7.96469098594975e-01 4.31783388828318e-03
3.76520833333333e-01 7.85093400878448e-01 4.33886174572202e-03
3.90729166666667e-01 7.73880178400182e-01 4.35688161375023e-03
4.04937500000000e-01 7.62827110580017e-01 4.37207850798646e-03
4.19145833333333e-01 7.51931909957156e-01 4.38462310405408e-03
4.33354166666667e-01 7.41192321794242e-01 4.39467329043119e-03
4.47562500000000e-01 7.30606123530159e-01 4.40237550410229e-03
4.61770833333333e-01 7.20171124326361e-01 4.40786586478977e-03
4.75979166666667e-01 7.09885164680722e-01 4.41127118121145e-03
4.90187500000000e-01 6.99746115910880e-01 4.41270983016285e-03
5.04395833333333e-01 6.89751879718820e-01 4.41229250875891e-03
5.18604166666667e-01 6.79900387815521e-01 4.41012291598571e-03
5.32812500000000e-01 6.70189601431987e-01 4.40629835578822e-03
5.47020833333333e-01 6.60617510901557e-01 4.40091025506247e-03
5.61229166666667e-01 6.51182135295945e-01 4.39404464255333e-03
5.75437500000000e-01 6.41881521961647e-01 4.38578257718149e-03
5.89645833333333e-01 6.32713746119378e-01 4.37620051605190e-03
6.03854166666667e-01 6.23676910511853e-01 4.36537066154528e-03
6.18062500000000e-01 6.14769144963608e-01 4.35336127458779e-03
6.32270833333333e-01 6.05988605996969e-01 4.34023694307929e-03
6.46479166666667e-01 5.97333476491699e-01 4.32605884020345e-03
6.60687500000000e-01 5.88801965266574e-01 4.31088495938581e-03
6.74895833333333e-01 5.80392306711269e-01 4.29477031452780e-03
6.89104166666667e-01 5.72102760457863e-01 4.27776713668671e-03
7.03312500000000e-01 5.63931610982732e-01 4.25992505417958e-03
7.17520833333333e-01 5.55877167253729e-01 4.24129124485411e-03
7.31729166666667e-01 5.47937762413454e-01 4.22191058884931e-03
7.45937500000000e-01 5.40111753400173e-01 4.20182580930023e-03
7.60145833333333e-01 5.32397520609714e-01 4.18107759008173e-03
7.74354166666667e-01 5.24793467590299e-01 4.15970469654251e-03
7.88562500000000e-01 5.17298020681370e-01 4.13774408727908e-03
8.02770833333333e-01 5.09909628689594e-01 4.11523100651192e-03
8.16979166666667e-01 5.02626762595054e-01 4.09219908098382e-03
8.31187500000000e-01 4.95447915206928e-01 4.06868041006943e-03
8.45395833333333e-01 4.88371600853051e-01 4.04470563917494e-03
8.59604166666667e-01 4.81396355097192e-01 4.02030403857045e-03
8.73812500000000e-01 4.74520734410651e-01 3.99550357698988e-03
8.88020833333333e-01 4.67743315874828e-01 3.97033098060553e-03
9.02229166666667e-01 4.61062696909293e-01 3.94481179794285e-03
9.16437500000000e-01 4.54477494958448e-01 3.91897046069875e-03
9.30645833333333e-01 4.47986347206563e-01 3.89283033159265e-03
9.44854166666667e-01 4.41587910316340e-01 3.86641375840018e-03
9.59062500000000e-01 4.35280860129841e-01 3.83974212473471e-03
9.73270833333333e-01 4.29063891395483e-01 3.81283588920988e-03
9.87479166666667e-01 4.22935717516779e-01 3.78571463085242e-03
1.00168750000000e+00 4.16895070266793e-01 3.75839709450705e-03
1.01589583333333e+00 4.10940699509305e-01 3.73090121266411e-03
1.03010416666667e+00 4.05071373026858e-01 3.70324415458830e-03
1.04431250000000e+00 3.99285876159513e-01 3.67544237519689e-03
1.05852083333333e+00 3.93583011544094e-01 3.64751160619641e-03
1.07272916666667e+00 3.87961599025315e-01 3.61946690958093e-03
1.08693750000000e+00 3.82420475249254e-01 3.59132273054653e-03
1.10114583333333e+00 3.76958493430057e-01 3.56309287621136e-03
1.11535416666667e+00 3.71574523258900e-01 3.53479056580156e-03
1.12956250000000e+00 3.66267450520748e-01 3.50642847795450e-03
1.14377083333333e+00 3.61036176870510e-01 3.47801872850460e-03
1.15797916666667e+00 3.55879619740594e-01 3.44957291553308e-03
1.17218750000000e+00 3.50796711979266e-01 3.42110216188760e-03
1.18639583333333e+00 3.45786401635920e-01 3.39261709249198e-03
1.20060416666667e+00 3.40847651867850e-01 3.36412787498815e-03
1.21481250000000e+00 3.35979440598719e-01 3.33564425814157e-03
1.22902083333333e+00 3.31180760312572e-01 3.30717554901559e-03
1.24322916666667e+00 3.26450617960401e-01 3.27873064979883e-03
1.25743750000000e+00 3.21788034637316e-01 3.25031809264383e-03
1.27164583333333e+00 3.17192045384995e-01 3.22194601695938e-03
1.28585416666667e+00 3.12661699098481e-01 3.19362220291209e-03
1.30006250000000e+00 3.08196058220807e-01 3.16535410315023e-03
1.31427083333333e+00 3.03794198553566e-01 3.13714882040064e-03
1.32847916666667e+00 2.99455209164310e-01 3.10901313805096e-03
1.34268750000000e+00 2.95178192097502e-01 3.08095354913545e-03
1.35689583333333e+00 2.90962262192878e-01 3.05297623437282e-03
1.37110416666667e+00 2.86806546993774e-01 3.02508709017068e-03
1.38531250000000e+00 2.82710186473354e-01 2.99729175518977e-03
1.39952083333333e+00 2.78672332860467e-01 2.96959558892083e-03
1.41372916666667e+00 2.74692150549160e-01 2.94200369739973e-03
1.42793750000000e+00 2.70768815839228e-01 2.91452095761849e-03
1.44214583333333e+00 2.66901516769266e-01 2.88715199671030e-03
1.45635416666667e+00 2.63089453027588e-01 2.85990121562138e-03
1.47056250000000e+00 2.59331835706219e-01 2.83277281159773e-03
1.48477083333333e+00 2.55627887140858e-01 2.80577075802477e-03
1.49897916666667e+00 2.51976840823373e-01 2.77889882626717e-03
1.51318750000000e+00 2.48377941168432e-01 2.75216060642836e-03
1.52739583333333e+00 2.44830443360090e-01 2.72555948787400e-03
1.54160416666667e+00 2.41333613266019e-01 2.69909867942242e-03
1.55581250000000e+00 2.37886727216010e-01 2.67278122854719e-03
1.57002083333333e+00 2.34489071854938e-01 2.64661000260054e-03
1.58422916666667e+00 2.31139944058820e-01 2.62058770751296e-03
1.59843750000000e+00 2.27838650724510e-01 2.59471690558749e-03
1.61264583333333e+00 2.24584508628774e-01 2.56899999742889e-03
1.62685416666667e+00 2.21376844346272e-01 2.54343923929132e-03
1.64106250000000e+00 2.18214994049800e-01 2.51803675959402e-03
1.65527083333333e+00 2.15098303375224e-01 2.49279454155486e-03
1.66947916666667e+00 2.12026127341462e-01 2.46771443930735e-03
1.68368750000000e+00 2.08997830160665e-01 2.44279819325268e-03
1.69789583333333e+00 2.06012785108778e-01 2.41804741338967e-03
1.71210416666667e+00 2.03070374447567e-01 2.39346359430925e-03
1.72631250000000e+00 2.00169989244183e-01 2.36904812948387e-03
1.74052083333333e+00 1.97311029247125e-01 2.34480229528150e-03
1.75472916666667e+00 1.94492902810337e-01 2.32072726493346e-03
1.76893750000000e+00 1.91715026721645e-01 2.29682412185074e-03
1.78314583333333e+00 1.88976826083893e-01 2.27309384430700e-03
1.79735416666667e+00 1.86277734241134e-01 2.24953731846502e-03
1.81156250000000e+00 1.83617192615454e-01 2.22615535079989e-03
1.82577083333333e+00 1.80994650593069e-01 2.20294865343352e-03
1.83997916666667e+00 1.78409565452619e-01 2.17991785629555e-03
1.85418750000000e+00 1.75861402209926e-01 2.15706351872548e-03
1.86839583333333e+00 1.73349633508843e-01 2.13438611543931e-03
1.88260416666667e+00 1.70873739551659e-01 2.11188604789342e-03
1.89681250000000e+00 1.68433207951352e-01 2.08956365513006e-03
1.91102083333333e+00 1.66027533627013e-01 2.06741920035535e-03
1.92522916666667e+00 1.63656218736334e-01 2.04545288156803e-03
1.93943750000000e+00 1.61318772534972e-01 2.02366484170649e-03
1.95364583333333e+00 1.59014711276347e-01 2.00205515581713e-03
1.96785416666667e+00 1.56743558146206e-01 1.98062384100350e-03
1.98206250000000e+00 1.54504843128721e-01 1.95937086592745e-03
1.99627083333333e+00 1.52298102910480e-01 1.93829613854634e-03
2.01047916666667e+00 1.50122880817107e-01 1.91739951543308e-03
2.02468750000000e+00 1.47978726685736e-01 1.89668081067931e-03
2.03889583333333e+00 1.45865196773032e-01 1.87613978417955e-03
2.05310416666667e+00 1.43781853693825e-01 1.85577615036819e-03
2.06731250000000e+00 1.41728266299647e-01 1.83558958656806e-03
2.08152083333333e+00 1.39704009590598e-01 1.81557972180003e-03
2.09572916666667e+00 1.37708664655980e-01 1.79574614497897e-03
2.10993750000000e+00 1.35741818558574e-01 1.77608841274693e-03
2.12414583333333e+00 1.33803064250199e-01 1.75660603878721e-03
2.13835416666667e+00 1.31892000514302e-01 1.73729850151737e-03
2.15256250000000e+00 1.30008231855689e-01 1.71816525144332e-03
2.16677083333333e+00 1.28151368419620e-01 1.69920570095698e-03
2.18097916666667e+00 1.26321025936325e-01 1.68041923156110e-03
2.19518750000000e+00 1.24516825615898e-01 1.66180520077766e-03
2.20939583333333e+00 1.22738394070799e-01 1.64336293240848e-03
2.22360416666667e+00 1.20985363262235e-01 1.62509172332434e-03
2.23781250000000e+00 1.19257370399979e-01 1.60699084995758e-03
2.25202083333333e+00 1.17554057868119e-01 1.58905955900629e-03
2.26622916666667e+00 1.15875073173276e-01 1.57129707381681e-03
2.28043750000000e+00 1.14220068849090e-01 1.55370260048886e-03
2.29464583333333e+00 1.12588702385091e-01 1.53627531900382e-03
2.30885416666667e+00 1.10980636176700e-01 1.51901438922778e-03
2.32306250000000e+00 1.09395537434166e-01 1.50191895665500e-03
2.33727083333333e+00 1.07833078114408e-01 1.48498814394154e-03
2.35147916666667e+00 1.06292934872776e-01 1.46822105655408e-03
2.36568750000000e+00 1.04774788976198e-01 1.45161678817535e-03
2.37989583333333e+00 1.03278326237890e-01 1.43517441262519e-03
2.39410416666667e+00 1.01803236970814e-01 1.41889298917816e-03
2.40831250000000e+00 1.00349215904838e-01 1.40277156765282e-03
2.42252083333333e+00 9.89159621241937e-02 1.38680918070320e-03
2.43672916666667e+00 9.75031790225794e-02 1.37100484882633e-03
2.45093750000000e+00 9.61105742241451e-02 1.35535758515579e-03
2.46514583333333e+00 9.47378595235728e-02 1.33986638810670e-03
2.47935416666667e+00 9.33847508427922e-02 1.32453024609314e-03
2.49356250000000e+00 9.20509681555932e-02 1.30934814204473e-03
2.50777083333333e+00 9.07362354302267e-02 1.29431904638928e-03
2.52197916666667e+00 8.94402805876809e-02 1.27944192149835e-03
2.53618750000000e+00 8.81628354297507e-02 1.26471572594430e-03
2.55039583333333e+00 8.69036355840506e-02 1.25013940780509e-03
2.56460416666667e+00 8.56624204638071e-02 1.23571190885520e-03
2.57881250000000e+00 8.44389331992173e-02 1.22143216857923e-03
2.59302083333333e+00 8.32329205847750e-02 1.20729911778428e-03
2.60722916666667e+00 8.20441330405309e-02 1.19331168255201e-03
2.62143750000000e+00 8.08723245465853e-02 1.17946878802371e-03
2.63564583333333e+00 7.97172525926283e-02 1.16576935230633e-03
2.64985416666667e+00 7.85786781406246e-02 1.15221229020020e-03
2.66406250000000e+00 7.74563655622892e-02 1.13879651676980e-03
2.67827083333333e+00 7.63500825907500e-02 1.12552094152986e-03
2.69247916666667e+00 7.52596002846119e-02 1.11238447196245e-03
2.70668750000000e+00 7.41846929682741e-02 1.09938601688649e-03
2.72089583333333e+00 7.31251381856255e-02 1.08652448091102e-03
2.73510416666667e+00 7.20807166654452e-02 1.07379876775437e-03
2.74931250000000e+00 7.10512122644255e-02 1.06120778342460e-03
2.76352083333333e+00 7.00364119228166e-02 1.04875043092765e-03
2.77772916666667e+00 6.90361056311181e-02 1.03642561340062e-03
2.79193750000000e+00 6.80500863756820e-02 1.02423223711430e-03
2.80614583333333e+00 6.70781500962233e-02 1.01216920642441e-03
2.82035416666667e+00 6.61200956537613e-02 1.00023542673009e-03
2.83456250000000e+00 6.51757247786806e-02 9.88429807309340e-04
2.84877083333333e+00 6.42448420300299e-02 9.76751256501963e-04
2.86297916666667e+00 6.33272547646708e-02 9.65198684503647e-04
2.87718750000000e+00 6.24227730876821e-02 9.53771006044100e-04
2.89139583333333e+00 6.15312098133710e-02 9.42467135791140e-04
2.90560416666667e+00 6.06523804355901e-02 9.31285990990000e-04
2.91981250000000e+00 5.97861030803740e-02 9.20226493993382e-04
2.93402083333333e+00 5.89321984685925e-02 9.09287567876498e-04
2.94822916666667e+00 5.80904898873945e-02 8.98468138930614e-04
2.96243750000000e+00 5.72608031449740e-02 8.87767139053769e-04
2.97664583333333e+00 5.64429665347956e-02 8.77183501566903e-04
2.99085416666667e+00 5.56368108081273e-02 8.66716163570265e-04
3.00506250000000e+00 5.48421691308363e-02 8.56364068202790e-04
3.01927083333333e+00 5.40588770491213e-02 8.46126160649949e-04
3.03347916666667e+00 5.32867724630956e-02 8.36001390371070e-04
3.04768750000000e+00 5.25256955855197e-02 8.25988713234993e-04
3.06189583333333e+00 5.17754889089761e-02 8.16087087710709e-04
3.07610416666667e+00 5.10359971804665e-02 8.06295476972949e-04
3.09031250000000e+00 5.03070673619914e-02 7.96612850921316e-04
3.10452083333333e+00 4.95885485991071e-02 7.87038182545305e-04
3.11872916666667e+00 4.88802921965012e-02 7.77570449915137e-04
3.13293750000000e+00 4.81821515803334e-02 7.68208638090926e-04
3.14714583333333e+00 4.74939822681173e-02 7.58951735654066e-04
3.16135416666667e+00 4.68156418452389e-02 7.49798736589809e-04
3.17556250000000e+00 4.61469899289782e-02 7.40748642092811e-04
3.18977083333333e+00 4.54878881396593e-02 7.31800457257176e-04
3.20397916666667e+00 4.48382000780790e-02 7.22953192856918e-04
3.21818750000000e+00 4.41977912911312e-02 7.14205867053794e-04
3.23239583333333e+00 4.35665292441728e-02 7.05557502238521e-04
3.24660416666667e+00 4.29442832993287e-02 6.97007126715039e-04
3.26081250000000e+00 4.23309246826462e-02 6.88553776316051e-04
3.27502083333333e+00 4.17263264576254e-02 6.80196491388504e-04
3.28922916666667e+00 4.11303635043687e-02 6.71934318387049e-04
3.30343750000000e+00 4.05429124881957e-02 6.63766311402491e-04
3.31764583333333e+00 3.99638518342887e-02 6.55691529284848e-04
3.33185416666667e+00 3.93930617076557e-02 6.47709037151037e-04
3.34606250000000e+00 3.88304239831398e-02 6.39817907831197e-04
3.36027083333333e+00 3.82758222211319e-02 6.32017219122896e-04
3.37447916666667e+00 3.77291416483189e-02 6.24306055217908e-04
3.38868750000000e+00 3.71902691290223e-02 6.16683508070972e-04
3.40289583333333e+00 3.66590931419353e-02 6.09148674779090e-04
3.41710416666667e+00 3.61355037616248e-02 6.01700658931888e-04
3.43131250000000e+00 3.56193926311408e-02 5.94338571907099e-04
3.44552083333333e+00 3.51106529397332e-02 5.87061530369204e-04
3.45972916666667e+00 3.46091794050815e-02 5.79868657547601e-04
3.47393750000000e+00 3.41148682471157e-02 5.72759084462897e-04
3.48814583333333e+00 3.36276171666727e-02 5.65731947539371e-04
3.50235416666667e+00 3.31473253284254e-02 5.58786389814953e-04
3.51656250000000e+00 3.26738933358616e-02 5.51921562102117e-04
3.53077083333333e+00 3.22072232108393e-02 5.45136620708940e-04
3.54497916666667e+00 3.17472183771902e-02 5.38430728584634e-04
3.55918750000000e+00 3.12937836368026e-02 5.31803056418707e-04
3.57339583333333e+00 3.08468251500398e-02 5.25252780465502e-04
3.58760416666667e+00 3.04062504199906e-02 5.18779083628881e-04
3.60181250000000e+00 2.99719682696085e-02 5.12381156503053e-04
3.61602083333333e+00 2.95438888229548e-02 5.06058195295805e-04
3.63022916666667e+00 2.91219234900733e-02 4.99809402855703e-04
3.64443750000000e+00 2.87059849451368e-02 4.93633989657704e-04
3.65864583333333e+00 2.82959871084817e-02 4.87531171820608e-04
3.67285416666667e+00 2.78918451320820e-02 4.81500172079874e-04
3.68706250000000e+00 2.74934753786588e-02 4.75540220721090e-04
3.70127083333333e+00 2.71007954044719e-02 4.69650553687278e-04
3.71547916666667e+00 2.67137239453714e-02 4.63830413500280e-04
3.72968750000000e+00 2.63321808968265e-02 4.58079050144903e-04
3.74389583333333e+00 2.59560872974420e-02 4.52395719261947e-04
3.75810416666667e+00 2.55853653155661e-02 4.46779683020972e-04
3.77231250000000e+00 2.52199382301962e-02 4.41230210957842e-04
3.78652083333333e+00 2.48597304151915e-02 4.35746578249499e-04
3.80072916666667e+00 2.45046673264134e-02 4.30328066540747e-04
3.81493750000000e+00 2.41546754834716e-02 4.24973964737681e-04
3.82914583333333e+00 2.38096824546009e-02 4.19683567360482e-04
3.84335416666667e+00 2.34696168443162e-02 4.14456175326733e-04
3.85756250000000e+00 2.31344082759590e-02 4.09291096703087e-04
3.87177083333333e+00 2.28039873772125e-02 4.04187645132528e-04
3.88597916666667e+00 2.24782857682497e-02 3.99145140576522e-04
3.90018750000000e+00 2.21572360450458e-02 3.94162910027209e-04
3.91439583333333e+00 2.18407717655041e-02 3.89240286005696e-04
3.92860416666667e+00 2.15288274380781e-02 3.84376607265263e-04
3.94281250000000e+00 2.12213385058160e-02 3.79571219466226e-04
3.95702083333333e+00 2.09182413330712e-02 3.74823473741982e-04
3.97122916666667e+00 2.06194731945806e-02 3.70132727365366e-04
3.98543750000000e+00 2.03249722602078e-02 3.65498344388198e-04
3.99964583333333e+00 2.00346775822145e-02 3.60919694271957e-04
4.01385416666667e+00 1.97485290847768e-02 3.56396152519291e-04
4.02806250000000e+00 1.94664675493961e-02 3.51927101280106e-04
4.04227083333333e+00 1.91884346027075e-02 3.47511928043930e-04
4.05647916666667e+00 1.89143727064172e-02 3.43150026238470e-04
4.07068750000000e+00 1.86442251433518e-02 3.38840795803982e-04
4.08489583333333e+00 1.83779360057805e-02 3.34583641944558e-04
4.09910416666667e+00 1.81154501857577e-02 3.30377975695427e-04
4.11331250000000e+00 1.78567133617817e-02 3.26223214467331e-04
4.12752083333333e+00 1.76016719876100e-02 3.22118780854045e-04
4.14172916666667e+00 1.73502732829901e-02 3.18064103170071e-04
4.15593750000000e+00 1.71024652209018e-02 3.14058615966662e-04
4.17014583333333e+00 1.68581965168432e-02 3.10101758892947e-04
4.18435416666667e+00 1.66174166199365e-02 3.06192977205633e-04
4.19856250000000e+00 1.63800757007263e-02 3.02331722258163e-04
4.21277083333333e+00 1.61461246409179e-02 2.98517450413013e-04
4.22697916666667e+00 1.59155150248419e-02 2.94749623524897e-04
4.24118750000000e+00 1.56881991277850e-02 2.91027709404459e-04
4.25539583333333e+00 1.54641299061611e-02 2.87351180779435e-04
4.26960416666667e+00 1.52432609893208e-02 2.83719515752731e-04
4.28381250000000e+00 1.50255466683907e-02 2.80132198242050e-04
4.29802083333333e+00 1.48109418868596e-02 2.76588716987635e-04
4.31222916666667e+00 1.45994022327189e-02 2.73088565986597e-04
4.32643750000000e+00 1.43908839277885e-02 2.69631244909727e-04
4.34064583333333e+00 1.41853438186998e-02 2.66216258153719e-04
4.35485416666667e+00 1.39827393693543e-02 2.62843115252980e-04
4.36906250000000e+00 1.37830286507149e-02 2.59511331274829e-04
4.38327083333333e+00 1.35861703321685e-02 2.56220425914187e-04
4.39747916666667e+00 1.33921236742910e-02 2.52969923884071e-04
4.41168750000000e+00 1.32008485190819e-02 2.49759355290304e-04
4.42589583333333e+00 1.30123052816927e-02 2.46588254766747e-04
4.44010416666667e+00 1.28264549434841e-02 2.43456161845597e-04
4.45431250000000e+00 1.26432590426858e-02 2.40362621312680e-04
4.46852083333333e+00 1.24626796664741e-02 2.37307182381418e-04
4.48272916666667e+00 1.22846794443105e-02 2.34289399043939e-04
