Energy (eV)          EEDF (eV^-(3/2))     First Anisotropy
1.82812500000000e-02 1.80807708773314e-01 1.19559949692272e-04
5.48437500000000e-02 1.78860847826896e-01 1.97026917679753e-04
9.14062500000000e-02 1.76934949855832e-01 2.59038911264100e-04
1.27968750000000e-01 1.75029789139677e-01 3.05510408406091e-04
1.64531250000000e-01 1.73145142388440e-01 3.43742597683501e-04
2.01093750000000e-01 1.71280788716423e-01 3.76512114954270e-04
2.37656250000000e-01 1.69436509616331e-01 4.05263855847998e-04
2.74218750000000e-01 1.67612088933663e-01 4.30875071368436e-04
3.10781250000000e-01 1.65807312841378e-01 4.53930667053853e-04
3.47343750000000e-01 1.64021969814833e-01 4.74846215185842e-04
3.83906250000000e-01 1.62255850606997e-01 4.93930941549525e-04
4.20468750000000e-01 1.60508748223917e-01 5.11423190962181e-04
4.57031250000000e-01 1.58780457900467e-01 5.27511854570684e-04
4.93593750000000e-01 1.57070777076345e-01 5.42350041767726e-04
5.30156250000000e-01 1.55379505372332e-01 5.56064192765050e-04
5.66718750000000e-01 1.53706444566806e-01 5.68760373373930e-04
6.03281250000000e-01 1.52051398572515e-01 5.80528755187044e-04
6.39843750000000e-01 1.50414173413589e-01 5.91446886180665e-04
6.76406250000000e-01 1.48794577202810e-01 6.01582130991074e-04
7.12968750000000e-01 1.47192420119118e-01 6.10993526575157e-04
7.49531250000000e-01 1.45607514385369e-01 6.19733217053450e-04
7.86093750000000e-01 1.44039674246321e-01 6.27847579688390e-04
8.22656250000000e-01 1.42488715946868e-01 6.35378120217601e-04
8.59218750000000e-01 1.40954457710499e-01 6.42362193272982e-04
8.95781250000000e-01 1.39436719717998e-01 6.48833588295678e-04
9.32343750000000e-01 1.37935324086366e-01 6.54823010713522e-04
9.68906250000000e-01 1.36450094847970e-01 6.60358480623460e-04
1.00546875000000e+00 1.34980857929927e-01 6.65465665816834e-04
1.04203125000000e+00 1.33527441133692e-01 6.70168162046619e-04
1.07859375000000e+00 1.32089674114885e-01 6.74487730526544e-04
1.11515625000000e+00 1.30667388363320e-01 6.78444500477384e-04
1.15171875000000e+00 1.29260417183258e-01 6.82057142892001e-04
1.18828125000000e+00 1.27868595673870e-01 6.85343020433832e-04
1.22484375000000e+00 1.26491760709909e-01 6.88318317415368e-04
1.26140625000000e+00 1.25129750922592e-01 6.90998153048715e-04
1.29796875000000e+00 1.23782406680684e-01 6.93396680568230e-04
1.33453125000000e+00 1.22449570071796e-01 6.95527174357650e-04
1.37109375000000e+00 1.21131084883871e-01 6.97402106840229e-04
1.40765625000000e+00 1.19826796586876e-01 6.99033216591407e-04
1.44421875000000e+00 1.18536552314693e-01 7.00431568891797e-04
1.48078125000000e+00 1.17260200847203e-01 7.01607609741422e-04
1.51734375000000e+00 1.15997592592559e-01 7.02571214195716e-04
1.55390625000000e+00 1.14748579569658e-01 7.03331729751799e-04
1.59046875000000e+00 1.13513015390793e-01 7.03898015404428e-04
1.62703125000000e+00 1.12290755244500e-01 7.04278476900514e-04
1.66359375000000e+00 1.11081655878581e-01 7.04481098645588e-04
1.70015625000000e+00 1.09885575583319e-01 7.04513472652270e-04
1.73671875000000e+00 1.08702374174867e-01 7.04382824867595e-04
1.77328125000000e+00 1.07531912978818e-01 7.04096039171182e-04
1.80984375000000e+00 1.06374054813953e-01 7.03659679298012e-04
1.84640625000000e+00 1.05228663976161e-01 7.03080008906948e-04
1.88296875000000e+00 1.04095606222537e-01 7.02363009988692e-04
1.91953125000000e+00 1.02974748755646e-01 7.01514399782969e-04
1.95609375000000e+00 1.01865960207960e-01 7.00539646354347e-04
1.99265625000000e+00 1.00769110626461e-01 6.99443982958215e-04
2.02921875000000e+00 9.96840714574092e-02 6.98232421313608e-04
2.06578125000000e+00 9.86107155312787e-02 6.96909763886058e-04
2.10234375000000e+00 9.75489170478500e-02 6.95480615272094e-04
2.13890625000000e+00 9.64985515614677e-02 6.93949392767276e-04
2.17546875000000e+00 9.54594959664546e-02 6.92320336190443e-04
2.21203125000000e+00 9.44316284826831e-02 6.90597517029478e-04
2.24859375000000e+00 9.34148286413027e-02 6.88784846966991e-04
2.28515625000000e+00 9.24089772706206e-02 6.86886085838426e-04
2.32171875000000e+00 9.14139564821343e-02 6.84904849069669e-04
2.35828125000000e+00 9.04296496567148e-02 6.82844614636740e-04
2.39484375000000e+00 8.94559414309387e-02 6.80708729586083e-04
2.43140625000000e+00 8.84927176835670e-02 6.78500416149952e-04
2.46796875000000e+00 8.75398655221699e-02 6.76222777488528e-04
2.50453125000000e+00 8.65972732698959e-02 6.73878803087372e-04
2.54109375000000e+00 8.56648304523823e-02 6.71471373835942e-04
2.57765625000000e+00 8.47424277848075e-02 6.69003266810955e-04
2.61421875000000e+00 8.38299571590831e-02 6.66477159786141e-04
2.65078125000000e+00 8.29273116311824e-02 6.63895635487937e-04
2.68734375000000e+00 8.20343854086071e-02 6.61261185615132e-04
2.72390625000000e+00 8.11510738379875e-02 6.58576214638953e-04
2.76046875000000e+00 8.02772733928174e-02 6.55843043398650e-04
2.79703125000000e+00 7.94128816613200e-02 6.53063912506285e-04
2.83359375000000e+00 7.85577973344454e-02 6.50240985573748e-04
2.87015625000000e+00 7.77119201939965e-02 6.47376352273335e-04
2.90671875000000e+00 7.68751511008837e-02 6.44472031242855e-04
2.94328125000000e+00 7.60473919835049e-02 6.41529972845274e-04
2.97984375000000e+00 7.52285458262515e-02 6.38552061791852e-04
3.01640625000000e+00 7.44185166581383e-02 6.35540119637420e-04
3.05296875000000e+00 7.36172095415546e-02 6.32495907155606e-04
3.08953125000000e+00 7.28245305611382e-02 6.29421126601242e-04
3.12609375000000e+00 7.20403868127675e-02 6.26317423866701e-04
3.16265625000000e+00 7.12646863926732e-02 6.23186390538417e-04
3.19921875000000e+00 7.04973383866672e-02 6.20029565859405e-04
3.23578125000000e+00 6.97382528594866e-02 6.16848438603183e-04
3.27234375000000e+00 6.89873408442536e-02 6.13644448864050e-04
3.30890625000000e+00 6.82445143320480e-02 6.10418989768552e-04
3.34546875000000e+00 6.75096862615924e-02 6.07173409112346e-04
3.38203125000000e+00 6.67827705090486e-02 6.03909010926585e-04
3.41859375000000e+00 6.60636818779233e-02 6.00627056977699e-04
3.45515625000000e+00 6.53523360890831e-02 5.97328768204008e-04
3.49171875000000e+00 6.46486497708767e-02 5.94015326092563e-04
3.52828125000000e+00 6.39525404493634e-02 5.90687873999320e-04
3.56484375000000e+00 6.32639265386469e-02 5.87347518415573e-04
3.60140625000000e+00 6.25827273313136e-02 5.83995330183346e-04
3.63796875000000e+00 6.19088629889731e-02 5.80632345662330e-04
3.67453125000000e+00 6.12422545329008e-02 5.77259567850795e-04
3.71109375000000e+00 6.05828238347820e-02 5.73877967462742e-04
3.74765625000000e+00 5.99304936075544e-02 5.70488483963321e-04
3.78421875000000e+00 5.92851873963502e-02 5.67092026564676e-04
3.82078125000000e+00 5.86468295695351e-02 5.63689475184039e-04
3.85734375000000e+00 5.80153453098445e-02 5.60281681365734e-04
3.89390625000000e+00 5.73906606056143e-02 5.56869469169045e-04
3.93046875000000e+00 5.67727022421068e-02 5.53453636023204e-04
3.96703125000000e+00 5.61613977929297e-02 5.50034953551194e-04
4.00359375000000e+00 5.55566756115472e-02 5.46614168363810e-04
4.04015625000000e+00 5.49584648228832e-02 5.43192002825095e-04
4.07671875000000e+00 5.43666953150148e-02 5.39769155790627e-04
4.11328125000000e+00 5.37812977309540e-02 5.36346303319773e-04
4.14984375000000e+00 5.32022034605201e-02 5.32924099362999e-04
4.18640625000000e+00 5.26293446322975e-02 5.29503176425345e-04
4.22296875000000e+00 5.20626541056813e-02 5.26084146207083e-04
4.25953125000000e+00 5.15020654630084e-02 5.22667600222514e-04
4.29609375000000e+00 5.09475130017729e-02 5.19254110397841e-04
4.33265625000000e+00 5.03989317269257e-02 5.15844229648904e-04
4.36921875000000e+00 4.98562573432570e-02 5.12438492439659e-04
4.40578125000000e+00 4.93194262478604e-02 5.09037415322196e-04
4.44234375000000e+00 4.87883755226789e-02 5.05641497459013e-04
4.47890625000000e+00 4.82630429271305e-02 5.02251221128251e-04
4.51546875000000e+00 4.77433668908135e-02 4.98867052212570e-04
4.55203125000000e+00 4.72292865062901e-02 4.95489440672344e-04
4.58859375000000e+00 4.67207415219482e-02 4.92118821003664e-04
4.62515625000000e+00 4.62176723349395e-02 4.88755612681880e-04
4.66171875000000e+00 4.57200199841939e-02 4.85400220591157e-04
4.69828125000000e+00 4.52277261435093e-02 4.82053035440536e-04
4.73484375000000e+00 4.47407331147155e-02 4.78714434167137e-04
4.77140625000000e+00 4.42589838209115e-02 4.75384780326860e-04
4.80796875000000e+00 4.37824217997767e-02 4.72064424473053e-04
4.84453125000000e+00 4.33109911969525e-02 4.68753704523656e-04
4.88109375000000e+00 4.28446367594965e-02 4.65452946117223e-04
4.91765625000000e+00 4.23833038294068e-02 4.62162462958177e-04
4.95421875000000e+00 4.19269383372155e-02 4.58882557151669e-04
4.99078125000000e+00 4.14754867956521e-02 4.55613519528509e-04
5.02734375000000e+00 4.10288962933743e-02 4.52355629960471e-04
5.06390625000000e+00 4.05871144887666e-02 4.49109157666243e-04
5.10046875000000e+00 4.01500896038062e-02 4.45874361508403e-04
5.13703125000000e+00 3.97177704179939e-02 4.42651490281745e-04
5.17359375000000e+00 3.92901062623513e-02 4.39440782993264e-04
5.21015625000000e+00 3.88670470134821e-02 4.36242469133999e-04
5.24671875000000e+00 3.84485430876975e-02 4.33056768943067e-04
5.28328125000000e+00 3.80345454352050e-02 4.29883893664166e-04
5.31984375000000e+00 3.76250055343593e-02 4.26724045794734e-04
5.35640625000000e+00 3.72198753859759e-02 4.23577419328103e-04
5.39296875000000e+00 3.68191075077051e-02 4.20444199988773e-04
5.42953125000000e+00 3.64226549284671e-02 4.17324565461085e-04
5.46609375000000e+00 3.60304711829468e-02 4.14218685611526e-04
5.50265625000000e+00 3.56425103061480e-02 4.11126722704788e-04
5.53921875000000e+00 3.52587268280061e-02 4.08048831613881e-04
5.57578125000000e+00 3.48790757680589e-02 4.04985160024436e-04
5.61234375000000e+00 3.45035126301748e-02 4.01935848633345e-04
5.64890625000000e+00 3.41319933973379e-02 3.98901031342032e-04
5.68546875000000e+00 3.37644745264887e-02 3.95880835444387e-04
5.72203125000000e+00 3.34009129434210e-02 3.92875381809594e-04
5.75859375000000e+00 3.30412660377334e-02 3.89884785060051e-04
5.79515625000000e+00 3.26854916578355e-02 3.86909153744415e-04
5.83171875000000e+00 3.23335481060072e-02 3.83948590506064e-04
5.86828125000000e+00 3.19853941335118e-02 3.81003192246953e-04
5.90484375000000e+00 3.16409889357617e-02 3.78073050287207e-04
5.94140625000000e+00 3.13002921475357e-02 3.75158250520374e-04
5.97796875000000e+00 3.09632638382483e-02 3.72258873564519e-04
6.01453125000000e+00 3.06298645072696e-02 3.69374994909455e-04
6.05109375000000e+00 3.03000550792960e-02 3.66506685059973e-04
6.08765625000000e+00 2.99737968997699e-02 3.63654009675320e-04
6.12421875000000e+00 2.96510517303498e-02 3.60817029705060e-04
6.16078125000000e+00 2.93317817444286e-02 3.57995801521348e-04
6.19734375000000e+00 2.90159495227000e-02 3.55190377047721e-04
6.23390625000000e+00 2.87035180487728e-02 3.52400803884593e-04
6.27046875000000e+00 2.83944507048331e-02 3.49627125431462e-04
6.30703125000000e+00 2.80887112673515e-02 3.46869381005952e-04
6.34359375000000e+00 2.77862639028389e-02 3.44127605959777e-04
6.38015625000000e+00 2.74870731636456e-02 3.41401831791692e-04
6.41671875000000e+00 2.71911039838074e-02 3.38692086257576e-04
6.45328125000000e+00 2.68983216749354e-02 3.35998393477683e-04
6.48984375000000e+00 2.66086919221509e-02 3.33320774041128e-04
6.52640625000000e+00 2.63221807800631e-02 3.30659245107709e-04
6.56296875000000e+00 2.60387546687908e-02 3.28013820507108e-04
6.59953125000000e+00 2.57583803700269e-02 3.25384510835590e-04
6.63609375000000e+00 2.54810250231447e-02 3.22771323550245e-04
6.67265625000000e+00 2.52066561213472e-02 3.20174263060808e-04
6.70921875000000e+00 2.49352415078565e-02 3.17593330819179e-04
6.74578125000000e+00 2.46667493721456e-02 3.15028525406683e-04
6.78234375000000e+00 2.44011482462096e-02 3.12479842619096e-04
6.81890625000000e+00 2.41384070008778e-02 3.09947275549528e-04
6.85546875000000e+00 2.38784948421653e-02 3.07430814669248e-04
6.89203125000000e+00 2.36213813076638e-02 3.04930447906430e-04
6.92859375000000e+00 2.33670362629712e-02 3.02446160722963e-04
6.96515625000000e+00 2.31154298981601e-02 2.99977936189291e-04
7.00171875000000e+00 2.28665327242836e-02 2.97525755057417e-04
7.03828125000000e+00 2.26203155699195e-02 2.95089595832048e-04
7.07484375000000e+00 2.23767495777510e-02 2.92669434839955e-04
7.11140625000000e+00 2.21358062011847e-02 2.90265246297617e-04
7.14796875000000e+00 2.18974572010049e-02 2.87877002377163e-04
7.18453125000000e+00 2.16616746420639e-02 2.85504673270691e-04
7.22109375000000e+00 2.14284308900075e-02 2.83148227252914e-04
7.25765625000000e+00 2.11976986080371e-02 2.80807630742308e-04
7.29421875000000e+00 2.09694507537047e-02 2.78482848360748e-04
7.33078125000000e+00 2.07436605757442e-02 2.76173842991587e-04
7.36734375000000e+00 2.05203016109357e-02 2.73880575836322e-04
7.40390625000000e+00 2.02993476810042e-02 2.71603006469873e-04
7.44046875000000e+00 2.00807728895511e-02 2.69341092894450e-04
7.47703125000000e+00 1.98645516190195e-02 2.67094791592092e-04
7.51359375000000e+00 1.96506585276912e-02 2.64864057575903e-04
7.55015625000000e+00 1.94390685467174e-02 2.62648844439997e-04
7.58671875000000e+00 1.92297568771795e-02 2.60449104408229e-04
7.62328125000000e+00 1.90226989871836e-02 2.58264788381673e-04
7.65984375000000e+00 1.88178706089845e-02 2.56095845984934e-04
7.69640625000000e+00 1.86152477361422e-02 2.53942225611319e-04
7.73296875000000e+00 1.84148066207076e-02 2.51803874466869e-04
7.76953125000000e+00 1.82165237704397e-02 2.49680738613292e-04
7.80609375000000e+00 1.80203759460517e-02 2.47572763009838e-04
7.84265625000000e+00 1.78263401584879e-02 2.45479891554112e-04
7.87921875000000e+00 1.76343936662290e-02 2.43402067121870e-04
7.91578125000000e+00 1.74445139726266e-02 2.41339231605831e-04
7.95234375000000e+00 1.72566788232669e-02 2.39291325953512e-04
7.98890625000000e+00 1.70708662033619e-02 2.37258290204121e-04
8.02546875000000e+00 1.68870543351700e-02 2.35240063524513e-04
8.06203125000000e+00 1.67052216754427e-02 2.33236584244252e-04
8.09859375000000e+00 1.65253469129003e-02 2.31247789889786e-04
8.13515625000000e+00 1.63474089657338e-02 2.29273617217784e-04
8.17171875000000e+00 1.61713869791344e-02 2.27314002247618e-04
8.20828125000000e+00 1.59972603228489e-02 2.25368880293013e-04
8.24484375000000e+00 1.58250085887620e-02 2.23438185992922e-04
8.28140625000000e+00 1.56546115885043e-02 2.21521853341615e-04
8.31796875000000e+00 1.54860493510863e-02 2.19619815718000e-04
8.35453125000000e+00 1.53193021205577e-02 2.17732005914193e-04
8.39109375000000e+00 1.51543503536918e-02 2.15858356163391e-04
8.42765625000000e+00 1.49911747176951e-02 2.13998798167003e-04
8.46421875000000e+00 1.48297560879417e-02 2.12153263121113e-04
8.50078125000000e+00 1.46700755457312e-02 2.10321681742258e-04
8.53734375000000e+00 1.45121143760721e-02 2.08503984292532e-04
8.57390625000000e+00 1.43558540654878e-02 2.06700100604090e-04
8.61046875000000e+00 1.42012762998471e-02 2.04909960102965e-04
8.64703125000000e+00 1.40483629622175e-02 2.03133491832300e-04
8.68359375000000e+00 1.38970961307421e-02 2.01370624475015e-04
8.72015625000000e+00 1.37474580765389e-02 1.99621286375819e-04
8.75671875000000e+00 1.35994312616230e-02 1.97885405562673e-04
8.79328125000000e+00 1.34529983368512e-02 1.96162909767734e-04
8.82984375000000e+00 1.33081421398884e-02 1.94453726447714e-04
8.86640625000000e+00 1.31648456931964e-02 1.92757782803711e-04
8.90296875000000e+00 1.30230922020439e-02 1.91075005800531e-04
8.93953125000000e+00 1.28828650525380e-02 1.89405322185485e-04
8.97609375000000e+00 1.27441478096775e-02 1.87748658506705e-04
9.01265625000000e+00 1.26069242154261e-02 1.86104941130970e-04
9.04921875000000e+00 1.24711781868071e-02 1.84474096261057e-04
9.08578125000000e+00 1.23368938140189e-02 1.82856049952621e-04
9.12234375000000e+00 1.22040553585693e-02 1.81250728130634e-04
9.15890625000000e+00 1.20726472514321e-02 1.79658056605381e-04
9.19546875000000e+00 1.19426540912215e-02 1.78077961088020e-04
9.23203125000000e+00 1.18140606423873e-02 1.76510367205725e-04
9.26859375000000e+00 1.16868518334294e-02 1.74955200516410e-04
9.30515625000000e+00 1.15610127551311e-02 1.73412386523066e-04
9.34171875000000e+00 1.14365286588119e-02 1.71881850687684e-04
9.37828125000000e+00 1.13133849545989e-02 1.70363518444799e-04
9.41484375000000e+00 1.11915672097167e-02 1.68857315214682e-04
9.45140625000000e+00 1.10710611467960e-02 1.67363166416142e-04
9.48796875000000e+00 1.09518526422001e-02 1.65880997478969e-04
9.52453125000000e+00 1.08339277243697e-02 1.64410733856035e-04
9.56109375000000e+00 1.07172725721853e-02 1.62952301035061e-04
9.59765625000000e+00 1.06018735133474e-02 1.61505624550043e-04
9.63421875000000e+00 1.04877170227741e-02 1.60070629992334e-04
9.67078125000000e+00 1.03747897210157e-02 1.58647243021442e-04
9.70734375000000e+00 1.02630783726869e-02 1.57235389375498e-04
9.74390625000000e+00 1.01525698849153e-02 1.55834994881400e-04
9.78046875000000e+00 1.00432513058073e-02 1.54445985464699e-04
9.81703125000000e+00 9.93510982292940e-03 1.53068287159191e-04
9.85359375000000e+00 9.82813276180728e-03 1.51701826116193e-04
9.89015625000000e+00 9.72230758443988e-03 1.50346528613550e-04
9.92671875000000e+00 9.61762188783003e-03 1.49002321064404e-04
9.96328125000000e+00 9.51406340253083e-03 1.47669130025666e-04
9.99984375000000e+00 9.41161999120755e-03 1.46346882206240e-04
1.00364062500000e+01 9.31027964721519e-03 1.45035504474998e-04
1.00729687500000e+01 9.21003049319119e-03 1.43734923868508e-04
1.01095312500000e+01 9.11086077966344e-03 1.42445067598518e-04
1.01460937500000e+01 9.01275888367315e-03 1.41165863059205e-04
1.01826562500000e+01 8.91571330741265e-03 1.39897237834193e-04
1.02192187500000e+01 8.81971267687779e-03 1.38639119703358e-04
1.02557812500000e+01 8.72474574053489e-03 1.37391436649401e-04
1.02923437500000e+01 8.63080136800204e-03 1.36154116864194e-04
1.03289062500000e+01 8.53786854874456e-03 1.34927088754959e-04
1.03654687500000e+01 8.44593639078455e-03 1.33710280950223e-04
1.04020312500000e+01 8.35499411942433e-03 1.32503622305535e-04
1.04385937500000e+01 8.26503107598362e-03 1.31307041909054e-04
1.04751562500000e+01 8.17603671655026e-03 1.30120469086903e-04
1.05117187500000e+01 8.08800061074452e-03 1.28943833408328e-04
1.05482812500000e+01 8.00091244049657e-03 1.27777064690734e-04
1.05848437500000e+01 7.91476199883720e-03 1.26620093004491e-04
1.06214062500000e+01 7.82953918870153e-03 1.25472848677577e-04
1.06579687500000e+01 7.74523402174558e-03 1.24335262300058e-04
1.06945312500000e+01 7.66183661717567e-03 1.23207264728411e-04
1.07310937500000e+01 7.57933720059030e-03 1.22088787089665e-04
1.07676562500000e+01 7.49772610283460e-03 1.20979760785406e-04
1.08042187500000e+01 7.41699375886709e-03 1.19880117495624e-04
1.08407812500000e+01 7.33713070663857e-03 1.18789789182392e-04
1.08773437500000e+01 7.25812758598322e-03 1.17708708093421e-04
1.09139062500000e+01 7.17997513752152e-03 1.16636806765468e-04
1.09504687500000e+01 7.10266420157503e-03 1.15574018027591e-04
1.09870312500000e+01 7.02618571709284e-03 1.14520275004278e-04
1.10235937500000e+01 6.95053072058962e-03 1.13475511118443e-04
1.10601562500000e+01 6.87569034509506e-03 1.12439660094299e-04
1.10967187500000e+01 6.80165581911464e-03 1.11412655960092e-04
1.11332812500000e+01 6.72841846560157e-03 1.10394433050711e-04
1.11698437500000e+01 6.65596970093985e-03 1.09384926010188e-04
1.12064062500000e+01 6.58430103393819e-03 1.08384069794079e-04
1.12429687500000e+01 6.51340406483490e-03 1.07391799671714e-04
1.12795312500000e+01 6.44327048431334e-03 1.06408051228358e-04
1.13160937500000e+01 6.37389207252811e-03 1.05432760367252e-04
1.13526562500000e+01 6.30526069814159e-03 1.04465863311541e-04
1.13892187500000e+01 6.23736831737099e-03 1.03507296606113e-04
1.14257812500000e+01 6.17020697304558e-03 1.02556997119321e-04
1.14623437500000e+01 6.10376879367405e-03 1.01614902044617e-04
1.14989062500000e+01 6.03804599252200e-03 1.00680948902087e-04
1.15354687500000e+01 5.97303086669929e-03 9.97550755398837e-05
