Energy (eV)          EEDF (eV^-(3/2))     First Anisotropy
4.16666666666667e-02 6.72186476088491e-02 4.83101562173727e-05
1.25000000000000e-01 6.63659942423019e-02 7.95352247325968e-05
2.08333333333333e-01 6.55241565881862e-02 1.04365377314061e-04
2.91666666666667e-01 6.46929974573769e-02 1.22849938684766e-04
3.75000000000000e-01 6.38723813931468e-02 1.37955741635932e-04
4.58333333333333e-01 6.30621746569495e-02 1.50814421622099e-04
5.41666666666667e-01 6.22622452110104e-02 1.62016513504183e-04
6.25000000000000e-01 6.14724626898704e-02 1.71921531264765e-04
7.08333333333333e-01 6.06926983808457e-02 1.80769817169924e-04
7.91666666666667e-01 5.99228252064344e-02 1.88732575946049e-04
8.75000000000000e-01 5.91627176996812e-02 1.95937522201919e-04
9.58333333333333e-01 5.84122519844469e-02 2.02483336694088e-04
1.04166666666667e+00 5.76713057576433e-02 2.08448410085600e-04
1.12500000000000e+00 5.69397582685262e-02 2.13896428779162e-04
1.20833333333333e+00 5.62174902898576e-02 2.18880099882030e-04
1.29166666666667e+00 5.55043841195673e-02 2.23443728965849e-04
1.37500000000000e+00 5.48003235416906e-02 2.27625057645904e-04
1.45833333333333e+00 5.41051938099073e-02 2.31456602831802e-04
1.54166666666667e+00 5.34188816435037e-02 2.34966660460458e-04
1.62500000000000e+00 5.27412751933186e-02 2.38180069700961e-04
1.70833333333333e+00 5.20722640252143e-02 2.41118801350117e-04
1.79166666666667e+00 5.14117391140893e-02 2.43802423141073e-04
1.87500000000000e+00 5.07595928134488e-02 2.46248470223445e-04
1.95833333333333e+00 5.01157188390950e-02 2.48472740748761e-04
2.04166666666667e+00 4.94800122618635e-02 2.50489539314461e-04
2.12500000000000e+00 4.88523694799852e-02 2.52311877169783e-04
2.20833333333333e+00 4.82326882031351e-02 2.53951635692564e-04
2.29166666666667e+00 4.76208674443281e-02 2.55419705630178e-04
2.37500000000000e+00 4.70168074945279e-02 2.56726104455237e-04
2.45833333333333e+00 4.64204099071251e-02 2.57880073554199e-04
2.54166666666667e+00 4.58315774892864e-02 2.58890163527787e-04
2.62500000000000e+00 4.52502142784332e-02 2.59764307483607e-04
2.70833333333333e+00 4.46762255271844e-02 2.60509882153492e-04
2.79166666666667e+00 4.41095176943644e-02 2.61133763085453e-04
2.87500000000000e+00 4.35499984230773e-02 2.61642372809227e-04
2.95833333333333e+00 4.29975765261297e-02 2.62041721028535e-04
3.04166666666667e+00 4.24521619768454e-02 2.62337441962731e-04
3.12500000000000e+00 4.19136658885276e-02 2.62534827354323e-04
3.20833333333333e+00 4.13820005003667e-02 2.62638853877849e-04
3.29166666666667e+00 4.08570791681684e-02 2.62654209362522e-04
3.37500000000000e+00 4.03388163450442e-02 2.62585316220951e-04
3.45833333333333e+00 3.98271275677995e-02 2.62436350707806e-04
3.54166666666667e+00 3.93219294476571e-02 2.62211261924297e-04
3.62500000000000e+00 3.88231396520451e-02 2.61913788952666e-04
3.70833333333333e+00 3.83306768914605e-02 2.61547474729198e-04
3.79166666666667e+00 3.78444609102455e-02 2.61115680195384e-04
3.87500000000000e+00 3.73644124693700e-02 2.60621597156243e-04
3.95833333333333e+00 3.68904533337588e-02 2.60068258484660e-04
4.04166666666667e+00 3.64225062631675e-02 2.59458548909020e-04
4.12500000000000e+00 3.59604949958708e-02 2.58795214881364e-04
4.20833333333333e+00 3.55043442364422e-02 2.58080872216597e-04
4.29166666666667e+00 3.50539796467638e-02 2.57318014486776e-04
4.37500000000000e+00 3.46093278305459e-02 2.56509020744878e-04
4.45833333333333e+00 3.41703163215469e-02 2.55656161329519e-04
4.54166666666667e+00 3.37368735747424e-02 2.54761604516216e-04
4.62500000000000e+00 3.33089289516127e-02 2.53827422668716e-04
4.70833333333333e+00 3.28864127087899e-02 2.52855596705594e-04
4.79166666666667e+00 3.24692559894050e-02 2.51848021455662e-04
4.87500000000000e+00 3.20573908090880e-02 2.50806510633119e-04
4.95833333333333e+00 3.16507500450294e-02 2.49732800311141e-04
5.04166666666667e+00 3.12492674275188e-02 2.48628553295941e-04
5.12500000000000e+00 3.08528775266098e-02 2.47495363206349e-04
5.20833333333333e+00 3.04615157415810e-02 2.46334757199164e-04
5.29166666666667e+00 3.00751182926779e-02 2.45148199587594e-04
5.37500000000000e+00 2.96936222083980e-02 2.43937095227919e-04
5.45833333333333e+00 2.93169653153391e-02 2.42702791673399e-04
5.54166666666667e+00 2.89450862301508e-02 2.41446582202074e-04
5.62500000000000e+00 2.85779243474016e-02 2.40169708659447e-04
5.70833333333333e+00 2.82154198298011e-02 2.38873363170718e-04
5.79166666666667e+00 2.78575136003654e-02 2.37558690700563e-04
5.87500000000000e+00 2.75041473308318e-02 2.36226791463059e-04
5.95833333333333e+00 2.71552634322420e-02 2.34878722288910e-04
6.04166666666667e+00 2.68108050473237e-02 2.33515498809702e-04
6.12500000000000e+00 2.64707160394211e-02 2.32138097519353e-04
6.20833333333333e+00 2.61349409834269e-02 2.30747456869263e-04
6.29166666666667e+00 2.58034251583806e-02 2.29344479147814e-04
6.37500000000000e+00 2.54761145368869e-02 2.27930032258105e-04
6.45833333333333e+00 2.51529557763827e-02 2.26504950596708e-04
6.54166666666667e+00 2.48338962119534e-02 2.25070036683242e-04
6.62500000000000e+00 2.45188838462108e-02 2.23626062704705e-04
6.70833333333333e+00 2.42078673408854e-02 2.22173771220880e-04
6.79166666666667e+00 2.39007960098572e-02 2.20713876586918e-04
6.87500000000000e+00 2.35976198094708e-02 2.19247066303891e-04
6.95833333333333e+00 2.32982893304392e-02 2.17774001584372e-04
7.04166666666667e+00 2.30027557910888e-02 2.16295318602076e-04
7.12500000000000e+00 2.27109710280876e-02 2.14811629680099e-04
7.20833333333333e+00 2.24228874886509e-02 2.13323523743055e-04
7.29166666666667e+00 2.21384582239958e-02 2.11831567421030e-04
7.37500000000000e+00 2.18576368804634e-02 2.10336306100765e-04
7.45833333333333e+00 2.15803776920139e-02 2.08838264285305e-04
7.54166666666667e+00 2.13066354738886e-02 2.07337946574277e-04
7.62500000000000e+00 2.10363656141052e-02 2.05835838598472e-04
7.70833333333333e+00 2.07695240662332e-02 2.04332407303747e-04
7.79166666666667e+00 2.05060673432584e-02 2.02828101825554e-04
7.87500000000000e+00 2.02459525094340e-02 2.01323354323675e-04
7.95833333333333e+00 1.99891371733256e-02 1.99818580203841e-04
8.04166666666667e+00 1.97355794818741e-02 1.98314178901271e-04
8.12500000000000e+00 1.94852381125862e-02 1.96810534629305e-04
8.20833333333333e+00 1.92380722668380e-02 1.95308016549660e-04
8.29166666666667e+00 1.89940416641332e-02 1.93806979477198e-04
8.37500000000000e+00 1.87531065346157e-02 1.92307764553910e-04
8.45833333333333e+00 1.85152276126238e-02 1.90810699376693e-04
8.54166666666667e+00 1.82803661311377e-02 1.89316098633509e-04
8.62500000000000e+00 1.80484838146005e-02 1.87824264712275e-04
8.70833333333333e+00 1.78195428727127e-02 1.86335487793477e-04
8.79166666666667e+00 1.75935059950652e-02 1.84850046426274e-04
8.87500000000000e+00 1.73703363442538e-02 1.83368208080330e-04
8.95833333333333e+00 1.71499975499059e-02 1.81890229209246e-04
9.04166666666667e+00 1.69324537034933e-02 1.80416355773843e-04
9.12500000000000e+00 1.67176693517281e-02 1.78946823743748e-04
9.20833333333333e+00 1.65056094908119e-02 1.77481859136592e-04
9.29166666666667e+00 1.62962395614247e-02 1.76021678494648e-04
9.37500000000000e+00 1.60895254423882e-02 1.74566489341967e-04
9.45833333333333e+00 1.58854334451306e-02 1.73116490203461e-04
9.54166666666667e+00 1.56839303088457e-02 1.71671871040117e-04
9.62500000000000e+00 1.54849831944128e-02 1.70232813666661e-04
9.70833333333333e+00 1.52885596790682e-02 1.68799491753976e-04
9.79166666666667e+00 1.50946277517304e-02 1.67372071227421e-04
9.87500000000000e+00 1.49031558071644e-02 1.65950710649282e-04
9.95833333333333e+00 1.47141126408533e-02 1.64535561207395e-04
1.00416666666667e+01 1.45274674444838e-02 1.63126766963636e-04
1.01250000000000e+01 1.43431898008846e-02 1.61724465790010e-04
1.02083333333333e+01 1.41612496763908e-02 1.60328788293524e-04
1.02916666666667e+01 1.39816174218878e-02 1.58939858614638e-04
1.03750000000000e+01 1.38042637625347e-02 1.57557795920927e-04
1.04583333333333e+01 1.36291597931828e-02 1.56182712287508e-04
1.05416666666667e+01 1.34562769787012e-02 1.54814714049309e-04
1.06250000000000e+01 1.32855871442130e-02 1.53453903090950e-04
1.07083333333333e+01 1.31170624706798e-02 1.52100374822022e-04
1.07916666666667e+01 1.29506754951014e-02 1.50754219453946e-04
1.08750000000000e+01 1.27863991012351e-02 1.49415523218488e-04
1.09583333333333e+01 1.26242065153407e-02 1.48084366433739e-04
1.10416666666667e+01 1.24640713062678e-02 1.46760824710657e-04
1.11250000000000e+01 1.23059673766311e-02 1.45444970104967e-04
1.12083333333333e+01 1.21498689587099e-02 1.44136869269844e-04
1.12916666666667e+01 1.19957506144364e-02 1.42836584596775e-04
1.13750000000000e+01 1.18435872270003e-02 1.41544175305184e-04
1.14583333333333e+01 1.16933539968979e-02 1.40259695677979e-04
1.15416666666667e+01 1.15450264418329e-02 1.38983196140945e-04
1.16250000000000e+01 1.13985803887261e-02 1.37714724294100e-04
1.17083333333333e+01 1.12539919699091e-02 1.36454323226365e-04
1.17916666666667e+01 1.11112376229475e-02 1.35202032537393e-04
1.18750000000000e+01 1.09702940830337e-02 1.33957889314315e-04
1.19583333333333e+01 1.08311383793202e-02 1.32721926521946e-04
1.20416666666667e+01 1.06937478346740e-02 1.31494173970649e-04
1.21250000000000e+01 1.05581000584319e-02 1.30274659241833e-04
1.22083333333333e+01 1.04241729428684e-02 1.29063406150258e-04
1.22916666666667e+01 1.02919446628898e-02 1.27860435661247e-04
1.23750000000000e+01 1.01613936691328e-02 1.26665766768022e-04
1.24583333333333e+01 1.00324986845612e-02 1.25479415022842e-04
1.25416666666667e+01 9.90523870410828e-03 1.24301393406596e-04
1.26250000000000e+01 9.77959298809964e-03 1.23131713160894e-04
1.27083333333333e+01 9.65554105897500e-03 1.21970382384851e-04
1.27916666666667e+01 9.53306270088479e-03 1.20817406859901e-04
1.28750000000000e+01 9.41213795342043e-03 1.19672790839296e-04
1.29583333333333e+01 9.29274710845679e-03 1.18536535707546e-04
1.30416666666667e+01 9.17487070970920e-03 1.17408640763065e-04
1.31250000000000e+01 9.05848954675505e-03 1.16289103967558e-04
1.32083333333333e+01 8.94358465199249e-03 1.15177920665227e-04
1.32916666666667e+01 8.83013730016349e-03 1.14075084325715e-04
1.33750000000000e+01 8.71812900265163e-03 1.12980587255660e-04
1.34583333333333e+01 8.60754150455293e-03 1.11894419374924e-04
1.35416666666667e+01 8.49835678416991e-03 1.10816568922084e-04
1.36250000000000e+01 8.39055704757141e-03 1.09747023130322e-04
1.37083333333333e+01 8.28412472577152e-03 1.08685767058051e-04
1.37916666666667e+01 8.17904247419910e-03 1.07632784259079e-04
1.38750000000000e+01 8.07529316750638e-03 1.06588057424810e-04
1.39583333333333e+01 7.97285989685200e-03 1.05551567266783e-04
1.40416666666667e+01 7.87172596935013e-03 1.04523293153464e-04
1.41250000000000e+01 7.77187490311522e-03 1.03503213720641e-04
1.42083333333333e+01 7.67329042464544e-03 1.02491305803484e-04
1.42916666666667e+01 7.57595646825505e-03 1.01487545041816e-04
1.43750000000000e+01 7.47985717134347e-03 1.00491906460431e-04
1.44583333333333e+01 7.38497687187549e-03 9.95043634484185e-05
1.45416666666667e+01 7.29130010780013e-03 9.85248883346289e-05
1.46250000000000e+01 7.19881161253299e-03 9.75534529395625e-05
1.47083333333333e+01 7.10749631252957e-03 9.65900275997677e-05
1.47916666666667e+01 7.01733932669378e-03 9.56345817151281e-05
1.48750000000000e+01 6.92832596206282e-03 9.46870842738529e-05
1.49583333333333e+01 6.84044171147044e-03 9.37475029198949e-05
1.50416666666667e+01 6.75367225294756e-03 9.28158044735595e-05
1.51250000000000e+01 6.66800344559991e-03 9.18919554310262e-05
1.52083333333333e+01 6.58342132735790e-03 9.09759210728276e-05
1.52916666666667e+01 6.49991211437170e-03 9.00676659592028e-05
1.53750000000000e+01 6.41746219707235e-03 8.91671544055032e-05
1.54583333333333e+01 6.33605813800497e-03 8.82743496298424e-05
1.55416666666667e+01 6.25568667122055e-03 8.73892142245397e-05
1.56250000000000e+01 6.17633469851156e-03 8.65117106086696e-05
1.57083333333333e+01 6.09798928732556e-03 8.56418002130997e-05
1.57916666666667e+01 6.02063767015553e-03 8.47794439292816e-05
1.58750000000000e+01 5.94426724094164e-03 8.39246025401307e-05
1.59583333333333e+01 5.86886555306230e-03 8.30772359407546e-05
1.60416666666667e+01 5.79442031872475e-03 8.22373035657569e-05
1.61250000000000e+01 5.72091940552505e-03 8.14047647995817e-05
1.62083333333333e+01 5.64835083451377e-03 8.05795782313125e-05
1.62916666666667e+01 5.57670277958829e-03 7.97617020615977e-05
1.63750000000000e+01 5.50596356420358e-03 7.89510944935058e-05
1.64583333333333e+01 5.43612165950972e-03 7.81477130198535e-05
1.65416666666667e+01 5.36716568374734e-03 7.73515148108068e-05
1.66250000000000e+01 5.29908439910201e-03 7.65624570862392e-05
1.67083333333333e+01 5.23186670991102e-03 7.57804964341135e-05
1.67916666666667e+01 5.16550166206306e-03 7.50055891797407e-05
1.68750000000000e+01 5.09997843998962e-03 7.42376917405869e-05
1.69583333333333e+01 5.03528636493832e-03 7.34767599743056e-05
1.70416666666667e+01 4.97141489437805e-03 7.27227495305831e-05
1.71250000000000e+01 4.90835361912086e-03 7.19756161892734e-05
1.72083333333333e+01 4.84609226165951e-03 7.12353152367485e-05
1.72916666666667e+01 4.78462067557888e-03 7.05018018012126e-05
1.73750000000000e+01 4.72392884280237e-03 6.97750311749986e-05
1.74583333333333e+01 4.66400687199127e-03 6.90549582179584e-05
1.75416666666667e+01 4.60484499796330e-03 6.83415376770771e-05
1.76250000000000e+01 4.54643357905770e-03 6.76347244937210e-05
1.77083333333333e+01 4.48876309559420e-03 6.69344732328533e-05
1.77916666666667e+01 4.43182414929939e-03 6.62407383877291e-05
1.78750000000000e+01 4.37560746078503e-03 6.55534746728493e-05
1.79583333333333e+01 4.32010386806442e-03 6.48726364778376e-05
1.80416666666667e+01 4.26530432598719e-03 6.41981781579572e-05
1.81250000000000e+01 4.21119990382571e-03 6.35300543134711e-05
1.82083333333333e+01 4.15778178384675e-03 6.28682192670899e-05
1.82916666666667e+01 4.10504126075513e-03 6.22126273410037e-05
1.83750000000000e+01 4.05296973938338e-03 6.15632331233156e-05
1.84583333333333e+01 4.00155873331658e-03 6.09199909680046e-05
1.85416666666667e+01 3.95079986434541e-03 6.02828552591368e-05
1.86250000000000e+01 3.90068486025435e-03 5.96517806650123e-05
1.87083333333333e+01 3.85120555349770e-03 5.90267216596344e-05
1.87916666666667e+01 3.80235388066245e-03 5.84076327747268e-05
1.88750000000000e+01 3.75412188035051e-03 5.77944688421898e-05
1.89583333333333e+01 3.70650169190410e-03 5.71871845361239e-05
1.90416666666667e+01 3.65948555487872e-03 5.65857346132479e-05
1.91250000000000e+01 3.61306580701514e-03 5.59900741442229e-05
1.92083333333333e+01 3.56723488301239e-03 5.54001580753238e-05
1.92916666666667e+01 3.52198531401103e-03 5.48159414578195e-05
1.93750000000000e+01 3.47730972565100e-03 5.42373796687089e-05
1.94583333333333e+01 3.43320083689029e-03 5.36644279911625e-05
1.95416666666667e+01 3.38965145949880e-03 5.30970418333980e-05
1.96250000000000e+01 3.34665449619819e-03 5.25351769393365e-05
1.97083333333333e+01 3.30420293952458e-03 5.19787889869866e-05
1.97916666666667e+01 3.26228987133317e-03 5.14278337973228e-05
1.98750000000000e+01 3.22090846101631e-03 5.08822675353438e-05
1.99583333333333e+01 3.18005196440881e-03 5.03420463256080e-05
2.00416666666667e+01 3.13971372330317e-03 4.98071264515880e-05
2.01250000000000e+01 3.09988716374271e-03 4.92774645475938e-05
2.02083333333333e+01 3.06056579496759e-03 4.87530172306999e-05
2.02916666666667e+01 3.02174320894107e-03 4.82337412910403e-05
2.03750000000000e+01 2.98341307871406e-03 4.77195938750223e-05
2.04583333333333e+01 2.94556915741062e-03 4.72105321329298e-05
2.05416666666667e+01 2.90820527776500e-03 4.67065134005860e-05
2.06250000000000e+01 2.87131535055479e-03 4.62074953742719e-05
2.07083333333333e+01 2.83489336362415e-03 4.57134357733185e-05
2.07916666666667e+01 2.79893338143187e-03 4.52242925135417e-05
2.08750000000000e+01 2.76342954354991e-03 4.47400238742645e-05
2.09583333333333e+01 2.72837606372313e-03 4.42605881752400e-05
2.10416666666667e+01 2.69376722942825e-03 4.37859439422465e-05
2.11250000000000e+01 2.65959740043496e-03 4.33160500665846e-05
2.12083333333333e+01 2.62586100790078e-03 4.28508654957000e-05
2.12916666666667e+01 2.59255255394088e-03 4.23903493913153e-05
2.13750000000000e+01 2.55966661024904e-03 4.19344612817500e-05
2.14583333333333e+01 2.52719781722634e-03 4.14831607656499e-05
2.15416666666667e+01 2.49514088356177e-03 4.10364076630060e-05
2.16250000000000e+01 2.46349058491045e-03 4.05941621606313e-05
2.17083333333333e+01 2.43224176305485e-03 4.01563845284242e-05
2.17916666666667e+01 2.40138932549616e-03 3.97230352636040e-05
2.18750000000000e+01 2.37092824418725e-03 3.92940752296699e-05
2.19583333333333e+01 2.34085355472526e-03 3.88694653846538e-05
2.20416666666667e+01 2.31116035595356e-03 3.84491669188883e-05
2.21250000000000e+01 2.28184380874717e-03 3.80331413877498e-05
2.22083333333333e+01 2.25289913523547e-03 3.76213504513776e-05
2.22916666666667e+01 2.22432161841470e-03 3.72137560062820e-05
2.23750000000000e+01 2.19610660098350e-03 3.68103203121526e-05
2.24583333333333e+01 2.16824948459472e-03 3.64110057425525e-05
2.25416666666667e+01 2.14074572947824e-03 3.60157749106458e-05
2.26250000000000e+01 2.11359085332457e-03 3.56245907903537e-05
2.27083333333333e+01 2.08678043056459e-03 3.52374164775447e-05
2.27916666666667e+01 2.06031009200259e-03 3.48542153101531e-05
2.28750000000000e+01 2.03417552374584e-03 3.44749509839457e-05
2.29583333333333e+01 2.00837246651129e-03 3.40995873237525e-05
2.30416666666667e+01 1.98289671526861e-03 3.37280883982367e-05
2.31250000000000e+01 1.95774411821382e-03 3.33604186305196e-05
2.32083333333333e+01 1.93291057610184e-03 3.29965425790183e-05
2.32916666666667e+01 1.90839204189954e-03 3.26364250471158e-05
2.33750000000000e+01 1.88418451980140e-03 3.22800311888772e-05
2.34583333333333e+01 1.86028406458706e-03 3.19273262990822e-05
2.35416666666667e+01 1.83668678128409e-03 3.15782759180283e-05
2.36250000000000e+01 1.81338882422402e-03 3.12328459325632e-05
2.37083333333333e+01 1.79038639642386e-03 3.08910023749192e-05
2.37916666666667e+01 1.76767574925850e-03 3.05527115228718e-05
2.38750000000000e+01 1.74525318155528e-03 3.02179399963029e-05
2.39583333333333e+01 1.72311503899873e-03 2.98866545644566e-05
2.40416666666667e+01 1.70125771381228e-03 2.95588222416641e-05
2.41250000000000e+01 1.67967764388988e-03 2.92344103796455e-05
2.42083333333333e+01 1.65837131222297e-03 2.89133864828250e-05
2.42916666666667e+01 1.63733524659140e-03 2.85957182998275e-05
2.43750000000000e+01 1.61656601873046e-03 2.82813739117074e-05
2.44583333333333e+01 1.59606024377933e-03 2.79703215549797e-05
2.45416666666667e+01 1.57581457998098e-03 2.76625297090802e-05
2.46250000000000e+01 1.55582572788316e-03 2.73579671807099e-05
2.47083333333333e+01 1.53609042980745e-03 2.70566029342491e-05
2.47916666666667e+01 1.51660546955802e-03 2.67584061753655e-05
2.48750000000000e+01 1.49736767165510e-03 2.64633464316505e-05
2.49583333333333e+01 1.47837390082393e-03 2.61713933901002e-05
2.50416666666667e+01 1.45962106171213e-03 2.58825169770464e-05
2.51250000000000e+01 1.44110609815432e-03 2.55966874352502e-05
2.52083333333333e+01 1.42282599268021e-03 2.53138751681538e-05
2.52916666666667e+01 1.40477776624037e-03 2.50340508162984e-05
2.53750000000000e+01 1.38695847750074e-03 2.47571853310346e-05
2.54583333333333e+01 1.36936522236909e-03 2.44832498252545e-05
2.55416666666667e+01 1.35199513372909e-03 2.42122156464584e-05
2.56250000000000e+01 1.33484538076333e-03 2.39440544472349e-05
2.57083333333333e+01 1.31791316849762e-03 2.36787380421963e-05
2.57916666666667e+01 1.30119573754298e-03 2.34162384778433e-05
2.58750000000000e+01 1.28469036344620e-03 2.31565280999628e-05
2.59583333333333e+01 1.26839435625106e-03 2.28995794165027e-05
2.60416666666667e+01 1.25230506024832e-03 2.26453651643789e-05
2.61250000000000e+01 1.23641985335241e-03 2.23938583739277e-05
2.62083333333333e+01 1.22073614667920e-03 2.21450322374685e-05
2.62916666666667e+01 1.20525138430354e-03 2.18988601731919e-05
