Energy (eV)          EEDF (eV^-(3/2))     First Anisotropy
2.31481481481481e-02 1.62705631941974e-01 1.16839292026185e-04
6.94444444444444e-02 1.60638570705961e-01 1.92355992178165e-04
1.15740740740741e-01 1.58597770037152e-01 2.52402740354221e-04
1.62037037037037e-01 1.56582896311395e-01 2.97100904075315e-04
2.08333333333333e-01 1.54593620150669e-01 3.33626254604842e-04
2.54629629629630e-01 1.52629616353859e-01 3.64715922257671e-04
3.00925925925926e-01 1.50690563846139e-01 3.91798297005197e-04
3.47222222222222e-01 1.48776145646241e-01 4.15742997498412e-04
3.93518518518518e-01 1.46886048791688e-01 4.37131398144796e-04
4.39814814814815e-01 1.45019964292170e-01 4.56377643658982e-04
4.86111111111111e-01 1.43177587092278e-01 4.73790683449769e-04
5.32407407407407e-01 1.41358616006917e-01 4.89609239198048e-04
5.78703703703704e-01 1.39562753674393e-01 5.04022952312683e-04
6.25000000000000e-01 1.37789706517591e-01 5.17185893711620e-04
6.71296296296296e-01 1.36039184685439e-01 5.29225578055050e-04
7.17592592592593e-01 1.34310902009278e-01 5.40249196597667e-04
7.63888888888889e-01 1.32604575953865e-01 5.50348058321664e-04
8.10185185185185e-01 1.30919927578044e-01 5.59600836257172e-04
8.56481481481481e-01 1.29256681481922e-01 5.68075992618051e-04
9.02777777777778e-01 1.27614565762612e-01 5.75833623645361e-04
9.49074074074074e-01 1.25993311975375e-01 5.82926889098732e-04
9.95370370370370e-01 1.24392655083862e-01 5.89403135544556e-04
1.04166666666667e+00 1.22812333415743e-01 5.95304787967393e-04
1.08796296296296e+00 1.21252088638015e-01 6.00670073552544e-04
1.13425925925926e+00 1.19711665673476e-01 6.05533605928091e-04
1.18055555555556e+00 1.18190812700181e-01 6.09926863480968e-04
1.22685185185185e+00 1.16689281107917e-01 6.13878597020026e-04
1.27314814814815e+00 1.15206825419728e-01 6.17415160455357e-04
1.31944444444444e+00 1.13743203289788e-01 6.20560788948800e-04
1.36574074074074e+00 1.12298175462076e-01 6.23337845438648e-04
1.41203703703704e+00 1.10871505698229e-01 6.25767021375574e-04
1.45833333333333e+00 1.09462960772102e-01 6.27867508758795e-04
1.50462962962963e+00 1.08072310430054e-01 6.29657158466870e-04
1.55092592592593e+00 1.06699327324435e-01 6.31152607618641e-04
1.59722222222222e+00 1.05343787014125e-01 6.32369395178503e-04
1.64351851851852e+00 1.04005467892119e-01 6.33322063953283e-04
1.68981481481481e+00 1.02684151175397e-01 6.34024245153421e-04
1.73611111111111e+00 1.01379620868099e-01 6.34488742479618e-04
1.78240740740741e+00 1.00091663703062e-01 6.34727598775642e-04
1.82870370370370e+00 9.88200691302316e-02 6.34752155131732e-04
1.87500000000000e+00 9.75646292812885e-02 6.34573111509542e-04
1.92129629629630e+00 9.63251389149704e-02 6.34200572833480e-04
1.96759259259259e+00 9.51013954106155e-02 6.33644094125948e-04
2.01388888888889e+00 9.38931987091561e-02 6.32912721679644e-04
2.06018518518519e+00 9.27003512994351e-02 6.32015026061730e-04
2.10648148148148e+00 9.15226581851855e-02 6.30959139683767e-04
2.15277777777778e+00 9.03599268360831e-02 6.29752784374754e-04
2.19907407407407e+00 8.92119671734471e-02 6.28403296347610e-04
2.24537037037037e+00 8.80785915385424e-02 6.26917655429259e-04
2.29166666666667e+00 8.69596146464097e-02 6.25302504973301e-04
2.33796296296296e+00 8.58548535758932e-02 6.23564173214349e-04
2.38425925925926e+00 8.47641277202236e-02 6.21708693247936e-04
2.43055555555556e+00 8.36872587718890e-02 6.19741817944522e-04
2.47685185185185e+00 8.26240706929570e-02 6.17669040068935e-04
2.52314814814815e+00 8.15743896732689e-02 6.15495605367011e-04
2.56944444444444e+00 8.05380441151392e-02 6.13226524578846e-04
2.61574074074074e+00 7.95148646048688e-02 6.10866589946813e-04
2.66203703703704e+00 7.85046838731048e-02 6.08420385353847e-04
2.70833333333333e+00 7.75073367795185e-02 6.05892295665673e-04
2.75462962962963e+00 7.65226602853842e-02 6.03286520491684e-04
2.80092592592593e+00 7.55504934159946e-02 6.00607081598199e-04
2.84722222222222e+00 7.45906772487418e-02 5.97857832315097e-04
2.89351851851852e+00 7.36430548732383e-02 5.95042466588990e-04
2.93981481481481e+00 7.27074713759334e-02 5.92164524709750e-04
2.98611111111111e+00 7.17837738144562e-02 5.89227403740760e-04
3.03240740740741e+00 7.08718111832136e-02 5.86234362909409e-04
3.07870370370370e+00 6.99714343981680e-02 5.83188528614498e-04
3.12500000000000e+00 6.90824962721556e-02 5.80092903417478e-04
3.17129629629630e+00 6.82048514821576e-02 5.76950369908659e-04
3.21759259259259e+00 6.73383565569646e-02 5.73763696468768e-04
3.26388888888889e+00 6.64828698426665e-02 5.70535542912078e-04
3.31018518518519e+00 6.56382514876802e-02 5.67268463488853e-04
3.35648148148148e+00 6.48043634196269e-02 5.63964914029152e-04
3.40277777777778e+00 6.39810693152399e-02 5.60627254948217e-04
3.44907407407407e+00 6.31682345856522e-02 5.57257754053347e-04
3.49537037037037e+00 6.23657263541623e-02 5.53858592853140e-04
3.54166666666667e+00 6.15734134275364e-02 5.50431868612026e-04
3.58796296296296e+00 6.07911662837570e-02 5.46979598116050e-04
3.63425925925926e+00 6.00188570419297e-02 5.43503721419818e-04
3.68055555555556e+00 5.92563594479915e-02 5.40006103425134e-04
3.72685185185185e+00 5.85035488538644e-02 5.36488539068181e-04
3.77314814814815e+00 5.77603021909821e-02 5.32952755036803e-04
3.81944444444444e+00 5.70264979563116e-02 5.29400411379784e-04
3.86574074074074e+00 5.63020161923113e-02 5.25833106169470e-04
3.91203703703704e+00 5.55867384616405e-02 5.22252376893567e-04
3.95833333333333e+00 5.48805478335192e-02 5.18659701760017e-04
4.00462962962963e+00 5.41833288644365e-02 5.15056503910615e-04
4.05092592592593e+00 5.34949675739950e-02 5.11444152241164e-04
4.09722222222222e+00 5.28153514332582e-02 5.07823963675586e-04
4.14351851851852e+00 5.21443693395681e-02 5.04197205473139e-04
4.18981481481481e+00 5.14819116034163e-02 5.00565095820048e-04
4.23611111111111e+00 5.08278699303670e-02 4.96928807408553e-04
4.28240740740741e+00 5.01821373986867e-02 4.93289468228793e-04
4.32870370370370e+00 4.95446084465657e-02 4.89648162311465e-04
4.37500000000000e+00 4.89151788547240e-02 4.86005932999737e-04
4.42129629629630e+00 4.82937457250160e-02 4.82363783319482e-04
4.46759259259259e+00 4.76802074693673e-02 4.78722677623982e-04
4.51388888888889e+00 4.70744637875620e-02 4.75083543284107e-04
4.56018518518519e+00 4.64764156550088e-02 4.71447270917697e-04
4.60648148148148e+00 4.58859653064326e-02 4.67814717215063e-04
4.65277777777778e+00 4.53030162160272e-02 4.64186705371500e-04
4.69907407407407e+00 4.47274730855699e-02 4.60564025491837e-04
4.74537037037037e+00 4.41592418287325e-02 4.56947437195781e-04
4.79166666666667e+00 4.35982295520802e-02 4.53337669726033e-04
4.83796296296296e+00 4.30443445446706e-02 4.49735423171550e-04
4.88425925925926e+00 4.24974962583978e-02 4.46141369739620e-04
4.93055555555556e+00 4.19575952966565e-02 4.42556153774503e-04
4.97685185185185e+00 4.14245533996281e-02 4.38980394035624e-04
5.02314814814815e+00 4.08982834266294e-02 4.35414683909721e-04
5.06944444444444e+00 4.03786993451142e-02 4.31859591607403e-04
5.11574074074074e+00 3.98657162165219e-02 4.28315662277539e-04
5.16203703703704e+00 3.93592501793639e-02 4.24783418158999e-04
5.20833333333333e+00 3.88592184385646e-02 4.21263358719910e-04
5.25462962962963e+00 3.83655392518404e-02 4.17755962624031e-04
5.30092592592593e+00 3.78781319134966e-02 4.14261687642775e-04
5.34722222222222e+00 3.73969167449925e-02 4.10780971500104e-04
5.39351851851852e+00 3.69218150782484e-02 4.07314232764456e-04
5.43981481481481e+00 3.64527492455111e-02 4.03861870711314e-04
5.48611111111111e+00 3.59896425665834e-02 4.00424267064368e-04
5.53240740740741e+00 3.55324193337447e-02 3.97001786032876e-04
5.57870370370370e+00 3.50810048019378e-02 3.93594774342658e-04
5.62500000000000e+00 3.46353251764801e-02 3.90203562862731e-04
5.67129629629630e+00 3.41953075986074e-02 3.86828466446507e-04
5.71759259259259e+00 3.37608801367294e-02 3.83469784589677e-04
5.76388888888889e+00 3.33319717715790e-02 3.80127802131934e-04
5.81018518518519e+00 3.29085123869017e-02 3.76802789065416e-04
5.85648148148148e+00 3.24904327579314e-02 3.73495001984782e-04
5.90277777777778e+00 3.20776645379256e-02 3.70204684053604e-04
5.94907407407407e+00 3.16701402491567e-02 3.66932064968098e-04
5.99537037037037e+00 3.12677932718239e-02 3.63677362316715e-04
6.04166666666667e+00 3.08705578311382e-02 3.60440781383399e-04
6.08796296296296e+00 3.04783689892486e-02 3.57222515666748e-04
6.13425925925926e+00 3.00911626320088e-02 3.54022747439171e-04
6.18055555555556e+00 2.97088754604444e-02 3.50841647528269e-04
6.22685185185185e+00 2.93314449803521e-02 3.47679376535495e-04
6.27314814814815e+00 2.89588094902623e-02 3.44536084759142e-04
6.31944444444444e+00 2.85909080731877e-02 3.41411912117044e-04
6.36574074074074e+00 2.82276805866173e-02 3.38306989292387e-04
6.41203703703704e+00 2.78690676509657e-02 3.35221437644743e-04
6.45833333333333e+00 2.75150106415982e-02 3.32155369121419e-04
6.50462962962963e+00 2.71654516792004e-02 3.29108887335730e-04
6.55092592592593e+00 2.68203336186961e-02 3.26082087348086e-04
6.59722222222222e+00 2.64796000420520e-02 3.23075056047998e-04
6.64351851851852e+00 2.61431952469551e-02 3.20087872570803e-04
6.68981481481481e+00 2.58110642392697e-02 3.17120608066330e-04
6.73611111111111e+00 2.54831527240063e-02 3.14173326670954e-04
6.78240740740741e+00 2.51594070949813e-02 3.11246085398349e-04
6.82870370370370e+00 2.48397744275297e-02 3.08338934031683e-04
6.87500000000000e+00 2.45242024698144e-02 3.05451916040333e-04
6.92129629629630e+00 2.42126396329015e-02 3.02585068359937e-04
6.96759259259259e+00 2.39050349841585e-02 2.99738421700690e-04
7.01388888888889e+00 2.36013382371357e-02 2.96912000886691e-04
7.06018518518519e+00 2.33014997446805e-02 2.94105824627866e-04
7.10648148148148e+00 2.30054704907862e-02 2.91319906349070e-04
7.15277777777778e+00 2.27132020813278e-02 2.88554254070579e-04
7.19907407407407e+00 2.24246467374121e-02 2.85808870290663e-04
7.24537037037037e+00 2.21397572875347e-02 2.83083752768842e-04
7.29166666666667e+00 2.18584871586848e-02 2.80378894311491e-04
7.33796296296296e+00 2.15807903702998e-02 2.77694283022242e-04
7.38425925925926e+00 2.13066215252137e-02 2.75029902580119e-04
7.43055555555556e+00 2.10359358033790e-02 2.72385732019895e-04
7.47685185185185e+00 2.07686889545102e-02 2.69761746442465e-04
7.52314814814815e+00 2.05048372897774e-02 2.67157916891625e-04
7.56944444444444e+00 2.02443376757446e-02 2.64574210233284e-04
7.61574074074074e+00 1.99871475272923e-02 2.62010589827490e-04
7.66203703703704e+00 1.97332247996397e-02 2.59467015404641e-04
7.70833333333333e+00 1.94825279824949e-02 2.56943442944175e-04
7.75462962962963e+00 1.92350160932429e-02 2.54439825310670e-04
7.80092592592593e+00 1.89906486692847e-02 2.51956112052074e-04
7.84722222222222e+00 1.87493857626968e-02 2.49492249589777e-04
7.89351851851852e+00 1.85111879324528e-02 2.47048181432344e-04
7.93981481481481e+00 1.82760162389050e-02 2.44623847971185e-04
7.98611111111111e+00 1.80438322373958e-02 2.42219187059229e-04
8.03240740740741e+00 1.78145979710990e-02 2.39834133888921e-04
8.07870370370370e+00 1.75882759656953e-02 2.37468620872832e-04
8.12500000000000e+00 1.73648292232238e-02 2.35122578192002e-04
8.17129629629630e+00 1.71442212152067e-02 2.32795933606392e-04
8.21759259259259e+00 1.69264158777741e-02 2.30488612610954e-04
8.26388888888889e+00 1.67113776046939e-02 2.28200538612792e-04
8.31018518518519e+00 1.64990712423521e-02 2.25931632740271e-04
8.35648148148148e+00 1.62894620839856e-02 2.23681814342728e-04
8.40277777777778e+00 1.60825158632557e-02 2.21451000872631e-04
8.44907407407407e+00 1.58781987494051e-02 2.19239107770334e-04
8.49537037037037e+00 1.56764773417088e-02 2.17046048938033e-04
8.54166666666667e+00 1.54773186632997e-02 2.14871736563179e-04
8.58796296296296e+00 1.52806901567241e-02 2.12716081247108e-04
8.63425925925926e+00 1.50865596776920e-02 2.10578992152269e-04
8.68055555555556e+00 1.48948954905134e-02 2.08460376825139e-04
8.72685185185185e+00 1.47056662628929e-02 2.06360141628916e-04
8.77314814814815e+00 1.45188410601577e-02 2.04278191631197e-04
8.81944444444444e+00 1.43343893408555e-02 2.02214430494179e-04
8.86574074074074e+00 1.41522809517458e-02 2.00168760885392e-04
8.91203703703704e+00 1.39724861222538e-02 1.98141084367486e-04
8.95833333333333e+00 1.37949754602252e-02 1.96131301290469e-04
9.00462962962963e+00 1.36197199471058e-02 1.94139311181705e-04
9.05092592592593e+00 1.34466909326126e-02 1.92165012586712e-04
9.09722222222222e+00 1.32758601308261e-02 1.90208303168238e-04
9.14351851851852e+00 1.31071996148054e-02 1.88269079821195e-04
9.18981481481481e+00 1.29406818125901e-02 1.86347238513751e-04
9.23611111111111e+00 1.27762795026788e-02 1.84442674643973e-04
9.28240740740741e+00 1.26139658090448e-02 1.82555282936183e-04
9.32870370370370e+00 1.24537141972814e-02 1.80684957339638e-04
9.37500000000000e+00 1.22954984702503e-02 1.78831591367398e-04
9.42129629629630e+00 1.21392927632923e-02 1.76995077949846e-04
9.46759259259259e+00 1.19850715406717e-02 1.75175309516673e-04
9.51388888888889e+00 1.18328095907415e-02 1.73372178092963e-04
9.56018518518519e+00 1.16824820223147e-02 1.71585575153334e-04
9.60648148148148e+00 1.15340642605823e-02 1.69815391932179e-04
9.65277777777778e+00 1.13875320426328e-02 1.68061519326854e-04
9.69907407407407e+00 1.12428614139532e-02 1.66323847803031e-04
9.74537037037037e+00 1.11000287245012e-02 1.64602267689664e-04
9.79166666666667e+00 1.09590106243988e-02 1.62896669044625e-04
9.83796296296296e+00 1.08197840606994e-02 1.61206941722628e-04
9.88425925925926e+00 1.06823262730460e-02 1.59532975455671e-04
9.93055555555556e+00 1.05466147903777e-02 1.57874659719520e-04
9.97685185185185e+00 1.04126274272459e-02 1.56231884004011e-04
1.00231481481481e+01 1.02803422797847e-02 1.54604537723078e-04
1.00694444444444e+01 1.01497377225363e-02 1.52992510163320e-04
1.01157407407407e+01 1.00207924047791e-02 1.51395690630661e-04
1.01620370370370e+01 9.89348524703778e-03 1.49813968436686e-04
1.02083333333333e+01 9.76779543763685e-03 1.48247232923982e-04
1.02546296296296e+01 9.64370242929852e-03 1.46695373490734e-04
1.03009259259259e+01 9.52118593578378e-03 1.45158279614481e-04
1.03472222222222e+01 9.40022592857606e-03 1.43635840875117e-04
1.03935185185185e+01 9.28080263360703e-03 1.42127946977072e-04
1.04398148148148e+01 9.16289652802403e-03 1.40634487770764e-04
1.04861111111111e+01 9.04648833699856e-03 1.39155353273296e-04
1.05324074074074e+01 8.93155903057528e-03 1.37690433688454e-04
1.05787037037037e+01 8.81808982056109e-03 1.36239619426002e-04
1.06250000000000e+01 8.70606215745371e-03 1.34802800815920e-04
1.06712962962963e+01 8.59545772843417e-03 1.33379869047834e-04
1.07175925925926e+01 8.48625845126807e-03 1.31970715570728e-04
1.07638888888889e+01 8.37844647448548e-03 1.30575231476877e-04
1.08101851851852e+01 8.27200417340687e-03 1.29193308472300e-04
1.08564814814815e+01 8.16691414726189e-03 1.27824838571170e-04
1.09027777777778e+01 8.06315921634478e-03 1.26469714110738e-04
1.09490740740741e+01 7.96072241920588e-03 1.25127827765705e-04
1.09953703703704e+01 7.85958700987886e-03 1.23799072562046e-04
1.10416666666667e+01 7.75973645514313e-03 1.22483341890306e-04
1.10879629629630e+01 7.66115443182109e-03 1.21180529518380e-04
1.11342592592593e+01 7.56382482410965e-03 1.19890529603808e-04
1.11805555555556e+01 7.46773172094569e-03 1.18613236705567e-04
1.12268518518519e+01 7.37285941340499e-03 1.17348545795400e-04
1.12731481481481e+01 7.27919239213422e-03 1.16096352268731e-04
1.13194444444444e+01 7.18671534481528e-03 1.14856551954984e-04
1.13657407407407e+01 7.09541315366255e-03 1.13629041127561e-04
1.14120370370370e+01 7.00527089295128e-03 1.12413716513530e-04
1.14583333333333e+01 6.91627382657756e-03 1.11210475302718e-04
1.15046296296296e+01 6.82840740564938e-03 1.10019215156461e-04
1.15509259259259e+01 6.74165726610817e-03 1.08839834215976e-04
1.15972222222222e+01 6.65600922638068e-03 1.07672231110346e-04
1.16435185185185e+01 6.57144928506058e-03 1.06516304964155e-04
1.16898148148148e+01 6.48796361861959e-03 1.05371955404738e-04
1.17361111111111e+01 6.40553857914769e-03 1.04239082569105e-04
1.17824074074074e+01 6.32416069212196e-03 1.03117587110536e-04
1.18287037037037e+01 6.24381665420386e-03 1.02007370204824e-04
1.18750000000000e+01 6.16449333106445e-03 1.00908333352342e-04
1.19212962962963e+01 6.08617775588664e-03 9.98203790008492e-05
1.19675925925926e+01 6.00885712527822e-03 9.87434101372227e-05
1.20138888888889e+01 5.93251879916529e-03 9.76773298686495e-05
1.20601851851852e+01 5.85715029805724e-03 9.66220420665490e-05
1.21064814814815e+01 5.78273930100662e-03 9.55774511560253e-05
1.21527777777778e+01 5.70927364359502e-03 9.45434621200766e-05
1.21990740740741e+01 5.63674131594439e-03 9.35199805035575e-05
1.22453703703704e+01 5.56513046075379e-03 9.25069124168727e-05
1.22916666666667e+01 5.49442937136094e-03 9.15041645394289e-05
1.23379629629630e+01 5.42462648982854e-03 9.05116441228516e-05
1.23842592592593e+01 5.35571040505475e-03 8.95292589939814e-05
1.24305555555556e+01 5.28766985090779e-03 8.85569175576319e-05
1.24768518518519e+01 5.22049370438417e-03 8.75945287991301e-05
1.25231481481481e+01 5.15417098379039e-03 8.66420022866945e-05
1.25694444444444e+01 5.08869084694753e-03 8.56992481734858e-05
1.26157407407407e+01 5.02404258941909e-03 8.47661771995439e-05
1.26620370370370e+01 4.96021564276091e-03 8.38427006935991e-05
1.27083333333333e+01 4.89719957279351e-03 8.29287305745803e-05
1.27546296296296e+01 4.83498407789636e-03 8.20241793529986e-05
1.28009259259259e+01 4.77355898732378e-03 8.11289601321290e-05
1.28472222222222e+01 4.71291425954228e-03 8.02429866090354e-05
1.28935185185185e+01 4.65303998058905e-03 7.93661730754359e-05
1.29398148148148e+01 4.59392636245118e-03 7.84984344184021e-05
1.29861111111111e+01 4.53556374146564e-03 7.76396861208943e-05
1.30324074074074e+01 4.47794257673946e-03 7.67898442621615e-05
1.30787037037037e+01 4.42105344858999e-03 7.59488255179889e-05
1.31250000000000e+01 4.36488705700511e-03 7.51165470234779e-05
1.31712962962963e+01 4.30943422053891e-03 7.42929267887018e-05
1.32175925925926e+01 4.25468587355045e-03 7.34778834200047e-05
1.32638888888889e+01 4.20063306599425e-03 7.26713358342317e-05
1.33101851851852e+01 4.14726696152892e-03 7.18732036887765e-05
1.33564814814815e+01 4.09457883607258e-03 7.10834072362468e-05
1.34027777777778e+01 4.04256007637669e-03 7.03018673238090e-05
1.34490740740741e+01 3.99120217861801e-03 6.95285053924300e-05
1.34953703703704e+01 3.94049674700839e-03 6.87632434760054e-05
1.35416666666667e+01 3.89043549242231e-03 6.80060042003836e-05
1.35879629629630e+01 3.84101023104175e-03 6.72567107822935e-05
1.36342592592593e+01 3.79221288301839e-03 6.65152870281617e-05
1.36805555555556e+01 3.74403547115271e-03 6.57816573328512e-05
1.37268518518519e+01 3.69647011958991e-03 6.50557466783006e-05
1.37731481481481e+01 3.64950905253241e-03 6.43374806320932e-05
1.38194444444444e+01 3.60314459296864e-03 6.36267853458865e-05
1.38657407407407e+01 3.55736916141813e-03 6.29235875537920e-05
1.39120370370370e+01 3.51217527469240e-03 6.22278145707256e-05
1.39583333333333e+01 3.46755554467163e-03 6.15393942906231e-05
1.40046296296296e+01 3.42350267709691e-03 6.08582551845905e-05
1.40509259259259e+01 3.38000947037774e-03 6.01843262989881e-05
1.40972222222222e+01 3.33706881441482e-03 5.95175372534528e-05
1.41435185185185e+01 3.29467368943764e-03 5.88578182388538e-05
1.41898148148148e+01 3.25281716485699e-03 5.82051000151734e-05
1.42361111111111e+01 3.21149239813191e-03 5.75593139093394e-05
1.42824074074074e+01 3.17069263365115e-03 5.69203918130004e-05
1.43287037037037e+01 3.13041120162876e-03 5.62882661802359e-05
1.43750000000000e+01 3.09064151701374e-03 5.56628699323052e-05
1.44212962962963e+01 3.05137707868262e-03 5.50441367365066e-05
1.44675925925926e+01 3.01261146756180e-03 5.44320008152990e-05
1.45138888888889e+01 2.97433834640086e-03 5.38263967506472e-05
1.45601851851852e+01 2.93655145845971e-03 5.32272597727320e-05
1.46064814814815e+01 2.89924462648576e-03 5.26345256594106e-05
