Energy (eV)          EEDF (eV^-(3/2))     First Anisotropy
1.30434782608696e-02 4.89669957663556e-01 3.79321567853717e-04
3.91304347826087e-02 4.82365658576773e-01 6.23793098592017e-04
6.52173913043478e-02 4.75170316114462e-01 8.16685016071304e-04
9.13043478260870e-02 4.68082304985155e-01 9.59158039213130e-04
1.17391304347826e-01 4.61100024168336e-01 1.07466249953752e-03
1.43478260869565e-01 4.54221896470594e-01 1.17217451174744e-03
1.69565217391304e-01 4.47446368320093e-01 1.25639375700245e-03
1.95652173913043e-01 4.40771909214358e-01 1.33019050929152e-03
2.21739130434783e-01 4.34197011566374e-01 1.39548952102840e-03
2.47826086956522e-01 4.27720190207055e-01 1.45366594115303e-03
2.73913043478261e-01 4.21339982181633e-01 1.50574852396122e-03
3.00000000000000e-01 4.15054946305611e-01 1.55253432223496e-03
3.26086956521739e-01 4.08863662938549e-01 1.59465814391859e-03
3.52173913043478e-01 4.02764733575327e-01 1.63263697632138e-03
3.78260869565217e-01 3.96756780609091e-01 1.66689966495125e-03
4.04347826086957e-01 3.90838446948870e-01 1.69780746565670e-03
4.30434782608696e-01 3.85008395777783e-01 1.72566870674858e-03
4.56521739130435e-01 3.79265310191838e-01 1.75074952001499e-03
4.82608695652174e-01 3.73607892956944e-01 1.77328186653057e-03
5.08695652173913e-01 3.68034866165570e-01 1.79346965610074e-03
5.34782608695652e-01 3.62544970994754e-01 1.81149349039681e-03
5.60869565217391e-01 3.57136967378336e-01 1.82751439558665e-03
5.86956521739130e-01 3.51809633767387e-01 1.84167679758970e-03
6.13043478260870e-01 3.46561766816341e-01 1.85411092391318e-03
6.39130434782609e-01 3.41392181138717e-01 1.86493475840998e-03
6.65217391304348e-01 3.36299709038267e-01 1.87425565816898e-03
6.91304347826087e-01 3.31283200220847e-01 1.88217169040671e-03
7.17391304347826e-01 3.26341521566245e-01 1.88877275526468e-03
7.43478260869565e-01 3.21473556842358e-01 1.89414153334977e-03
7.69565217391304e-01 3.16678206481298e-01 1.89835429051793e-03
7.95652173913043e-01 3.11954387304279e-01 1.90148156674862e-03
8.21739130434783e-01 3.07301032302312e-01 1.90358876843180e-03
8.47826086956522e-01 3.02717090371102e-01 1.90473668129832e-03
8.73913043478261e-01 2.98201526096526e-01 1.90498191611417e-03
9.00000000000000e-01 2.93753319498955e-01 1.90437729861651e-03
9.26086956521739e-01 2.89371465823634e-01 1.90297221146759e-03
9.52173913043478e-01 2.85054975293911e-01 1.90081289613456e-03
9.78260869565217e-01 2.80802872906593e-01 1.89794271976971e-03
1.00434782608696e+00 2.76614198193617e-01 1.89440241097883e-03
1.03043478260870e+00 2.72488005037978e-01 1.89023027781509e-03
1.05652173913043e+00 2.68423361384710e-01 1.88546239160896e-03
1.08260869565217e+00 2.64419349114106e-01 1.88013274783041e-03
1.10869565217391e+00 2.60475063837401e-01 1.87427344108251e-03
1.13478260869565e+00 2.56589614584814e-01 1.86791479143964e-03
1.16086956521739e+00 2.52762123712853e-01 1.86108545719215e-03
1.18695652173913e+00 2.48991726701481e-01 1.85381257273730e-03
1.21304347826087e+00 2.45277571862549e-01 1.84612184011662e-03
1.23913043478261e+00 2.41618820244368e-01 1.83803761183188e-03
1.26521739130435e+00 2.38014645438336e-01 1.82958299956964e-03
1.29130434782609e+00 2.34464233305767e-01 1.82077994222187e-03
1.31739130434783e+00 2.30966781881100e-01 1.81164926776340e-03
1.34347826086957e+00 2.27521501187240e-01 1.80221078085758e-03
1.36956521739130e+00 2.24127612979274e-01 1.79248331413258e-03
1.39565217391304e+00 2.20784350647190e-01 1.78248477508336e-03
1.42173913043478e+00 2.17490959039526e-01 1.77223221799263e-03
1.44782608695652e+00 2.14246694222498e-01 1.76174188305708e-03
1.47391304347826e+00 2.11050823382952e-01 1.75102923235638e-03
1.50000000000000e+00 2.07902624659935e-01 1.74010900986498e-03
1.52608695652174e+00 2.04801386917958e-01 1.72899526894946e-03
1.55217391304348e+00 2.01746409670175e-01 1.71770141088498e-03
1.57826086956522e+00 1.98737002839526e-01 1.70624022231965e-03
1.60434782608696e+00 1.95772486662430e-01 1.69462389597159e-03
1.63043478260870e+00 1.92852191532904e-01 1.68286407617660e-03
1.65652173913043e+00 1.89975457797598e-01 1.67097187888240e-03
1.68260869565217e+00 1.87141635661033e-01 1.65895791018924e-03
1.70869565217391e+00 1.84350085036787e-01 1.64683230565123e-03
1.73478260869565e+00 1.81600175353842e-01 1.63460474598865e-03
1.76086956521739e+00 1.78891285463652e-01 1.62228447167304e-03
1.78695652173913e+00 1.76222803498047e-01 1.60988031717098e-03
1.81304347826087e+00 1.73594126686118e-01 1.59740072333810e-03
1.83913043478261e+00 1.71004661263325e-01 1.58485374892713e-03
1.86521739130435e+00 1.68453822335802e-01 1.57224710068195e-03
1.89130434782609e+00 1.65941033707052e-01 1.55958814312752e-03
1.91739130434783e+00 1.63465727789316e-01 1.54688390767116e-03
1.94347826086957e+00 1.61027345473899e-01 1.53414111924742e-03
1.96956521739130e+00 1.58625335967087e-01 1.52136620404343e-03
1.99565217391304e+00 1.56259156703863e-01 1.50856529670280e-03
2.02173913043478e+00 1.53928273224001e-01 1.49574426406891e-03
2.04782608695652e+00 1.51632159016598e-01 1.48290871126870e-03
2.07391304347826e+00 1.49370295436229e-01 1.47006398740398e-03
2.10000000000000e+00 1.47142171584530e-01 1.45721520683078e-03
2.12608695652174e+00 1.44947284162826e-01 1.44436725233528e-03
2.15217391304348e+00 1.42785137400647e-01 1.43152478601256e-03
2.17826086956522e+00 1.40655242902865e-01 1.41869226043974e-03
2.20434782608696e+00 1.38557119569690e-01 1.40587392074111e-03
2.23043478260870e+00 1.36490293486921e-01 1.39307382242072e-03
2.25652173913043e+00 1.34454297791213e-01 1.38029583454255e-03
2.28260869565217e+00 1.32448672592585e-01 1.36754364270885e-03
2.30869565217391e+00 1.30472964869586e-01 1.35482076523750e-03
2.33478260869565e+00 1.28526728341362e-01 1.34213055560373e-03
2.36086956521739e+00 1.26609523392687e-01 1.32947620471611e-03
2.38695652173913e+00 1.24720916973810e-01 1.31686075564587e-03
2.41304347826087e+00 1.22860482478934e-01 1.30428710546769e-03
2.43913043478261e+00 1.21027799673756e-01 1.29175800696339e-03
2.46521739130435e+00 1.19222454599776e-01 1.27927608207693e-03
2.49130434782609e+00 1.17444039458824e-01 1.26684382326148e-03
2.51739130434783e+00 1.15692152543102e-01 1.25446359471970e-03
2.54347826086956e+00 1.13966398143721e-01 1.24213764473018e-03
2.56956521739130e+00 1.12266386440961e-01 1.22986810658663e-03
2.59565217391304e+00 1.10591733436764e-01 1.21765699946224e-03
2.62173913043478e+00 1.08942060867321e-01 1.20550623973049e-03
2.64782608695652e+00 1.07316996098739e-01 1.19341764157057e-03
2.67391304347826e+00 1.05716172061950e-01 1.18139291752383e-03
2.70000000000000e+00 1.04139227169153e-01 1.16943368891491e-03
2.72608695652174e+00 1.02585805214612e-01 1.15754148518710e-03
2.75217391304348e+00 1.01055555317376e-01 1.14571774820925e-03
2.77826086956522e+00 9.95481318194813e-02 1.13396383688975e-03
2.80434782608696e+00 9.80631942246240e-02 1.12228102625097e-03
2.83043478260870e+00 9.66004071206920e-02 1.11067051650435e-03
2.85652173913043e+00 9.51594400885879e-02 1.09913343306116e-03
2.88260869565217e+00 9.37399676431636e-02 1.08767082652659e-03
2.90869565217391e+00 9.23416691591998e-02 1.07628368109666e-03
2.93478260869565e+00 9.09642287846275e-02 1.06497291441251e-03
2.96086956521739e+00 8.96073353836733e-02 1.05373937740146e-03
2.98695652173913e+00 8.82706824661250e-02 1.04258386205872e-03
3.01304347826087e+00 8.69539681047261e-02 1.03150710117449e-03
3.03913043478261e+00 8.56568948804699e-02 1.02050976805061e-03
3.06521739130435e+00 8.43791698150047e-02 1.00959248372292e-03
3.09130434782609e+00 8.31205042919822e-02 9.98755816583921e-04
3.11739130434783e+00 8.18806140044485e-02 9.88000282000860e-04
3.14347826086957e+00 8.06592188902338e-02 9.77326349027658e-04
3.16956521739130e+00 7.94560430570624e-02 9.66734439941573e-04
3.19565217391304e+00 7.82708147319735e-02 9.56224929783977e-04
3.22173913043478e+00 7.71032661995638e-02 9.45798152605040e-04
3.24782608695652e+00 7.59531337306666e-02 9.35454400931772e-04
3.27391304347826e+00 7.48201575337387e-02 9.25193925247557e-04
3.30000000000000e+00 7.37040816958301e-02 9.15016939808356e-04
3.32608695652174e+00 7.26046541146513e-02 9.04923621418094e-04
3.35217391304348e+00 7.15216264550345e-02 8.94914111425707e-04
3.37826086956522e+00 7.04547540797742e-02 8.84988517943776e-04
3.40434782608696e+00 6.94037960040875e-02 8.75146914556852e-04
3.43043478260870e+00 6.83685148408742e-02 8.65389345476140e-04
3.45652173913043e+00 6.73486767381049e-02 8.55715824905296e-04
3.48260869565217e+00 6.63440513350797e-02 8.46126336422683e-04
3.50869565217391e+00 6.53544117101143e-02 8.36620837794589e-04
3.53478260869565e+00 6.43795343208725e-02 8.27199260317304e-04
3.56086956521739e+00 6.34191989623632e-02 8.17861508174373e-04
3.58695652173913e+00 6.24731887169436e-02 8.08607462934605e-04
3.61304347826087e+00 6.15412898974509e-02 7.99436982877726e-04
3.63913043478261e+00 6.06232920068771e-02 7.90349902334119e-04
3.66521739130435e+00 5.97189876905864e-02 7.81346035891609e-04
3.69130434782609e+00 5.88281726821070e-02 7.72425177710007e-04
3.71739130434783e+00 5.79506457644291e-02 7.63587100850620e-04
3.74347826086957e+00 5.70862087243308e-02 7.54831561213330e-04
3.76956521739130e+00 5.62346663007057e-02 7.46158296844235e-04
3.79565217391304e+00 5.53958261474228e-02 7.37567027260913e-04
3.82173913043478e+00 5.45694987896687e-02 7.29057457139178e-04
3.84782608695652e+00 5.37554975746867e-02 7.20629275618359e-04
3.87391304347826e+00 5.29536386361419e-02 7.12282155626432e-04
3.90000000000000e+00 5.21637408523908e-02 7.04015757334447e-04
3.92608695652174e+00 5.13856257995135e-02 6.95829727046875e-04
3.95217391304348e+00 5.06191177190335e-02 6.87723698201604e-04
3.97826086956522e+00 4.98640434703865e-02 6.79697292520936e-04
4.00434782608696e+00 4.91202324976412e-02 6.71750118889024e-04
4.03043478260870e+00 4.83875167907969e-02 6.63881776442164e-04
4.05652173913043e+00 4.76657308424215e-02 6.56091853892727e-04
4.08260869565217e+00 4.69547116157330e-02 6.48379928872659e-04
4.10869565217391e+00 4.62542985076092e-02 6.40745570833165e-04
4.13478260869565e+00 4.55643333072322e-02 6.33188340378288e-04
4.16086956521739e+00 4.48846601654789e-02 6.25707788616381e-04
4.18695652173913e+00 4.42151255595676e-02 6.18303459882145e-04
4.21304347826087e+00 4.35555782536125e-02 6.10974891081533e-04
4.23913043478261e+00 4.29058692692739e-02 6.03721611053121e-04
4.26521739130435e+00 4.22658518519678e-02 5.96543143124603e-04
4.29130434782609e+00 4.16353814332399e-02 5.89439004469910e-04
4.31739130434783e+00 4.10143156026288e-02 5.82408705482588e-04
4.34347826086957e+00 4.04025140753664e-02 5.75451752177792e-04
4.36956521739130e+00 3.97998386564864e-02 5.68567645562157e-04
4.39565217391304e+00 3.92061532138533e-02 5.61755881020815e-04
4.42173913043478e+00 3.86213236472876e-02 5.55015950574979e-04
4.44782608695652e+00 3.80452178543271e-02 5.48347342265527e-04
4.47391304347826e+00 3.74777057043749e-02 5.41749539554474e-04
4.50000000000000e+00 3.69186590091876e-02 5.35222023447603e-04
4.52608695652174e+00 3.63679514902099e-02 5.28764271618108e-04
4.55217391304348e+00 3.58254587549681e-02 5.22375758925125e-04
4.57826086956522e+00 3.52910582641669e-02 5.16055958033878e-04
4.60434782608696e+00 3.47646293075896e-02 5.09804338542625e-04
4.63043478260870e+00 3.42460529767267e-02 5.03620368892043e-04
4.65652173913043e+00 3.37352121345844e-02 4.97503515793506e-04
4.68260869565217e+00 3.32319913925916e-02 4.91453243673743e-04
4.70869565217391e+00 3.27362770844372e-02 4.85469016471693e-04
4.73478260869565e+00 3.22479572372615e-02 4.79550297083069e-04
4.76086956521739e+00 3.17669215495279e-02 4.73696546819987e-04
4.78695652173913e+00 3.12930613660171e-02 4.67907227102332e-04
4.81304347826087e+00 3.08262696503352e-02 4.62181798918750e-04
4.83913043478261e+00 3.03664409637126e-02 4.56519722301510e-04
4.86521739130435e+00 2.99134714411034e-02 4.50920457919092e-04
4.89130434782609e+00 2.94672587649483e-02 4.45383466553307e-04
4.91739130434783e+00 2.90277021448650e-02 4.39908208589834e-04
4.94347826086956e+00 2.85947022948012e-02 4.34494145518248e-04
4.96956521739130e+00 2.81681614079962e-02 4.29140739424839e-04
4.99565217391304e+00 2.77479831375256e-02 4.23847452499180e-04
5.02173913043478e+00 2.73340725744616e-02 4.18613748447136e-04
5.04782608695652e+00 2.69263362239776e-02 4.13439091999433e-04
5.07391304347826e+00 2.65246819867119e-02 4.08322948434068e-04
5.10000000000000e+00 2.61290191378921e-02 4.03264784907730e-04
5.12608695652174e+00 2.57392583045280e-02 3.98264069797379e-04
5.15217391304348e+00 2.53553114482928e-02 3.93320272971316e-04
5.17826086956522e+00 2.49770918426348e-02 3.88432866128672e-04
5.20434782608696e+00 2.46045140554254e-02 3.83601322148322e-04
5.23043478260869e+00 2.42374939295965e-02 3.78825116290876e-04
5.25652173913043e+00 2.38759485620447e-02 3.74103725751185e-04
5.28260869565217e+00 2.35197962870126e-02 3.69436629223365e-04
5.30869565217391e+00 2.31689566575821e-02 3.64823308034028e-04
5.33478260869565e+00 2.28233504255362e-02 3.60263245710176e-04
5.36086956521739e+00 2.24828995254442e-02 3.55755927558649e-04
5.38695652173913e+00 2.21475270569722e-02 3.51300841734761e-04
5.41304347826087e+00 2.18171572656593e-02 3.46897478825263e-04
5.43913043478261e+00 2.14917155276769e-02 3.42545331441975e-04
5.46521739130435e+00 2.11711283329211e-02 3.38243895229750e-04
5.49130434782609e+00 2.08553232666598e-02 3.33992668463984e-04
5.51739130434783e+00 2.05442289949403e-02 3.29791151658393e-04
5.54347826086956e+00 2.02377752484265e-02 3.25638848515898e-04
5.56956521739130e+00 1.99358928048793e-02 3.21535265540133e-04
5.59565217391304e+00 1.96385134751836e-02 3.17479911657276e-04
5.62173913043478e+00 1.93455700878992e-02 3.13472299113137e-04
5.64782608695652e+00 1.90569964725344e-02 3.09511943098372e-04
5.67391304347826e+00 1.87727274461684e-02 3.05598361383978e-04
5.70000000000000e+00 1.84926987986827e-02 3.01731075167798e-04
5.72608695652174e+00 1.82168472767930e-02 2.97909608590828e-04
5.75217391304348e+00 1.79451105717043e-02 2.94133488876927e-04
5.77826086956522e+00 1.76774273031342e-02 2.90402246518659e-04
5.80434782608696e+00 1.74137370068671e-02 2.86715414801124e-04
5.83043478260870e+00 1.71539801210556e-02 2.83072530568077e-04
5.85652173913043e+00 1.68980979714422e-02 2.79473133883633e-04
5.88260869565217e+00 1.66460327594443e-02 2.75916767703219e-04
5.90869565217391e+00 1.63977275490603e-02 2.72402978596759e-04
5.93478260869565e+00 1.61531262527591e-02 2.68931316423039e-04
5.96086956521739e+00 1.59121736200734e-02 2.65501334012627e-04
5.98695652173913e+00 1.56748152250845e-02 2.62112587850635e-04
6.01304347826087e+00 1.54409974529487e-02 2.58764637763348e-04
6.03913043478261e+00 1.52106674889776e-02 2.55457046612769e-04
6.06521739130435e+00 1.49837733066757e-02 2.52189380941338e-04
6.09130434782609e+00 1.47602636548748e-02 2.48961210670318e-04
6.11739130434783e+00 1.45400880472818e-02 2.45772108805790e-04
6.14347826086957e+00 1.43231967510435e-02 2.42621652047517e-04
6.16956521739130e+00 1.41095407744616e-02 2.39509420498584e-04
6.19565217391304e+00 1.38990718569882e-02 2.36434997382573e-04
6.22173913043478e+00 1.36917424582947e-02 2.33397969618616e-04
6.24782608695652e+00 1.34875057465413e-02 2.30397927541958e-04
6.27391304347826e+00 1.32863155888008e-02 2.27434464631960e-04
6.30000000000000e+00 1.30881265406098e-02 2.24507178055254e-04
6.32608695652174e+00 1.28928938347666e-02 2.21615668314541e-04
6.35217391304348e+00 1.27005733724630e-02 2.18759539317652e-04
6.37826086956522e+00 1.25111217121046e-02 2.15938398477820e-04
6.40434782608696e+00 1.23244960604070e-02 2.13151856368946e-04
6.43043478260870e+00 1.21406542627042e-02 2.10399527218077e-04
6.45652173913043e+00 1.19595547925771e-02 2.07681028654356e-04
6.48260869565217e+00 1.17811567433313e-02 2.04995981464649e-04
6.50869565217391e+00 1.16054198187338e-02 2.02344010058835e-04
6.53478260869565e+00 1.14323043231075e-02 1.99724742228567e-04
6.56086956521739e+00 1.12617711531758e-02 1.97137808912242e-04
6.58695652173913e+00 1.10937817892076e-02 1.94582844634663e-04
6.61304347826087e+00 1.09282982855576e-02 1.92059487275248e-04
6.63913043478261e+00 1.07652832628611e-02 1.89567377842018e-04
6.66521739130435e+00 1.06046998995700e-02 1.87106160887105e-04
6.69130434782609e+00 1.04465119229183e-02 1.84675484284015e-04
6.71739130434783e+00 1.02906836014529e-02 1.82274999010413e-04
6.74347826086956e+00 1.01371797369424e-02 1.79904359540838e-04
6.76956521739130e+00 9.98596565574939e-03 1.77563223632611e-04
6.79565217391304e+00 9.83700720168202e-03 1.75251252117176e-04
6.82173913043478e+00 9.69027072826032e-03 1.72968109271286e-04
6.84782608695652e+00 9.54572309047552e-03 1.70713462611259e-04
6.87391304347826e+00 9.40333163795016e-03 1.68486982692566e-04
6.90000000000000e+00 9.26306420754496e-03 1.66288343460688e-04
6.92608695652174e+00 9.12488911548852e-03 1.64117221997742e-04
6.95217391304348e+00 8.98877515102390e-03 1.61973298553624e-04
6.97826086956522e+00 8.85469156857149e-03 1.59856256598436e-04
7.00434782608696e+00 8.72260808137149e-03 1.57765782574311e-04
7.03043478260870e+00 8.59249485462642e-03 1.55701566213892e-04
7.05652173913043e+00 8.46432249821224e-03 1.53663300356025e-04
7.08260869565217e+00 8.33806206059506e-03 1.51650680766238e-04
7.10869565217391e+00 8.21368502227624e-03 1.49663406437854e-04
7.13478260869565e+00 8.09116328883043e-03 1.47701179415074e-04
7.16086956521739e+00 7.97046918508469e-03 1.45763704620489e-04
7.18695652173913e+00 7.85157544885291e-03 1.43850690139804e-04
7.21304347826087e+00 7.73445522428595e-03 1.41961847052011e-04
7.23913043478261e+00 7.61908205630202e-03 1.40096889263716e-04
7.26521739130435e+00 7.50542988459763e-03 1.38255533778380e-04
7.29130434782609e+00 7.39347303729567e-03 1.36437500533280e-04
7.31739130434783e+00 7.28318622561648e-03 1.34642512240435e-04
7.34347826086957e+00 7.17454453815288e-03 1.32870294641228e-04
7.36956521739130e+00 7.06752343480295e-03 1.31120576349857e-04
7.39565217391304e+00 6.96209874167144e-03 1.29393088700663e-04
7.42173913043478e+00 6.85824664559718e-03 1.27687565988915e-04
7.44782608695652e+00 6.75594368835776e-03 1.26003745320499e-04
7.47391304347826e+00 6.65516676179138e-03 1.24341366465423e-04
7.50000000000000e+00 6.55589310256559e-03 1.22700172085532e-04
7.52608695652174e+00 6.45810028664151e-03 1.21079907552391e-04
7.55217391304348e+00 6.36176622473168e-03 1.19480320958533e-04
7.57826086956522e+00 6.26686915679779e-03 1.17901163143235e-04
7.60434782608696e+00 6.17338764751812e-03 1.16342187514420e-04
7.63043478260870e+00 6.08130058143518e-03 1.14803150255571e-04
7.65652173913043e+00 5.99058715782770e-03 1.13283810191324e-04
7.68260869565217e+00 5.90122688637426e-03 1.11783928656444e-04
7.70869565217391e+00 5.81319958251502e-03 1.10303269691557e-04
7.73478260869565e+00 5.72648536255311e-03 1.08841599914203e-04
7.76086956521739e+00 5.64106463950601e-03 1.07398688393069e-04
7.78695652173913e+00 5.55691811867192e-03 1.05974306833129e-04
7.81304347826087e+00 5.47402679295025e-03 1.04568229451967e-04
7.83913043478261e+00 5.39237193887267e-03 1.03180232859063e-04
7.86521739130435e+00 5.31193511236509e-03 1.01810096230929e-04
7.89130434782609e+00 5.23269814427738e-03 1.00457601192459e-04
7.91739130434783e+00 5.15464313658643e-03 9.91225317011070e-05
7.94347826086956e+00 5.07775245834502e-03 9.78046742125813e-05
7.96956521739130e+00 5.00200874141145e-03 9.65038175669804e-05
7.99565217391304e+00 4.92739487681713e-03 9.52197528777022e-05
8.02173913043478e+00 4.85389401089418e-03 9.39522736882106e-05
8.04782608695652e+00 4.78148954119585e-03 9.27011758627689e-05
8.07391304347826e+00 4.71016511302177e-03 9.14662574798989e-05
8.10000000000000e+00 4.63990461571617e-03 9.02473189806924e-05
8.12608695652174e+00 4.57069217877072e-03 8.90441630382194e-05
8.15217391304348e+00 4.50251216858239e-03 8.78565945587721e-05
8.17826086956522e+00 4.43534918458601e-03 8.66844206930399e-05
8.20434782608696e+00 4.36918805602644e-03 8.55274507085662e-05
8.23043478260869e+00 4.30401383852494e-03 8.43854961246066e-05
