Energy (eV)          EEDF (eV^-(3/2))     First Anisotropy
5.64285714285714e-02 3.18111360063353e-01 4.39830404373941e-04
1.69285714285714e-01 3.02793036564710e-01 7.11189137009994e-04
2.82142857142857e-01 2.88212351089320e-01 8.99690054856019e-04
3.95000000000000e-01 2.74333783446386e-01 1.02099187689695e-03
5.07857142857143e-01 2.61123523904434e-01 1.10534536149441e-03
6.20714285714286e-01 2.48549390740258e-01 1.16496252799608e-03
7.33571428571429e-01 2.36580751947873e-01 1.20653308665090e-03
8.46428571428571e-01 2.25188450573186e-01 1.23430103988813e-03
9.59285714285714e-01 2.14344733684390e-01 1.25120252978676e-03
1.07214285714286e+00 2.04023184720834e-01 1.25938765859321e-03
1.18500000000000e+00 1.94198659303202e-01 1.26049476712972e-03
1.29785714285714e+00 1.84847223766600e-01 1.25580900858096e-03
1.41071428571429e+00 1.75946096950361e-01 1.24636074839135e-03
1.52357142857143e+00 1.67473594645530e-01 1.23299007407465e-03
1.63642857142857e+00 1.59409076941552e-01 1.21639099030493e-03
1.74928571428571e+00 1.51732897757027e-01 1.19714280099306e-03
1.86214285714286e+00 1.44426357010898e-01 1.17573305123472e-03
1.97500000000000e+00 1.37471655188343e-01 1.15257475370628e-03
2.08785714285714e+00 1.30851849847174e-01 1.12801959237967e-03
2.20071428571429e+00 1.24550814391608e-01 1.10236822607167e-03
2.31357142857143e+00 1.18553198760876e-01 1.07587846663120e-03
2.42642857142857e+00 1.12844392114110e-01 1.04877186362851e-03
2.53928571428571e+00 1.07410487151672e-01 1.02123907002609e-03
2.65214285714286e+00 1.02238246247143e-01 9.93444251524815e-04
2.76500000000000e+00 9.73150692587822e-02 9.65528761461161e-04
2.87785714285714e+00 9.26289627702335e-02 9.37614221330696e-04
2.99071428571429e+00 8.81685108958982e-02 9.09805119009054e-04
3.10357142857143e+00 8.39228474573123e-02 8.82191019678394e-04
3.21642857142857e+00 7.98816295535572e-02 8.54848459613938e-04
3.32928571428571e+00 7.60350123206031e-02 8.27842575841729e-04
3.44214285714286e+00 7.23736249535514e-02 8.01228508644638e-04
3.55500000000000e+00 6.88885479107495e-02 7.75052624318952e-04
3.66785714285714e+00 6.55712911503853e-02 7.49353579865111e-04
3.78071428571429e+00 6.24137734599095e-02 7.24163251009863e-04
3.89357142857143e+00 5.94083027618292e-02 6.99507546599450e-04
4.00642857142857e+00 5.65475573983580e-02 6.75407125970461e-04
4.11928571428571e+00 5.38245682703236e-02 6.51878031596304e-04
4.23214285714286e+00 5.12327018624728e-02 6.28932244024223e-04
4.34500000000000e+00 4.87656441020987e-02 6.06578176378360e-04
4.45785714285714e+00 4.64173849576120e-02 5.84821112207455e-04
4.57071428571429e+00 4.41822038043161e-02 5.63663592324321e-04
4.68357142857143e+00 4.20546554839313e-02 5.43105758945623e-04
4.79642857142857e+00 4.00295570533238e-02 5.23145662664329e-04
4.90928571428571e+00 3.81019751438178e-02 5.03779535980440e-04
5.02214285714286e+00 3.62672139445103e-02 4.85002034483915e-04
5.13500000000000e+00 3.45208037738250e-02 4.66806454045598e-04
5.24785714285714e+00 3.28584901792189e-02 4.49184924164503e-04
5.36071428571429e+00 3.12762235769297e-02 4.32128579208522e-04
5.47357142857143e+00 2.97701493840757e-02 4.15627711333408e-04
5.58642857142857e+00 2.83365986367708e-02 3.99671907356430e-04
5.69928571428571e+00 2.69720790433959e-02 3.84250170884308e-04
5.81214285714286e+00 2.56732664778834e-02 3.69351029446123e-04
5.92500000000000e+00 2.44369968885347e-02 3.54962631291713e-04
6.03785714285714e+00 2.32602585829411e-02 3.41072831266706e-04
6.15071428571428e+00 2.21401848936367e-02 3.27669266309592e-04
6.26357142857143e+00 2.10740471929300e-02 3.14739422545396e-04
6.37642857142857e+00 2.00592482507948e-02 3.02270695044642e-04
6.48928571428571e+00 1.90933159023492e-02 2.90250440725156e-04
6.60214285714286e+00 1.81738970259192e-02 2.78666023898202e-04
6.71500000000000e+00 1.72987518147786e-02 2.67504857256585e-04
6.82785714285714e+00 1.64657483163213e-02 2.56754437667204e-04
6.94071428571428e+00 1.56728572399192e-02 2.46402376908874e-04
7.05357142857143e+00 1.49181470123088e-02 2.36436428470888e-04
7.16642857142857e+00 1.41997790752860e-02 2.26844510957122e-04
7.27928571428571e+00 1.35160034033994e-02 2.17614728263675e-04
7.39214285714286e+00 1.28651542410188e-02 2.08735386063148e-04
7.50500000000000e+00 1.22456460470249e-02 2.00195006344523e-04
7.61785714285714e+00 1.16559696294733e-02 1.91982339480000e-04
7.73071428571428e+00 1.10946884699999e-02 1.84086373818943e-04
7.84357142857143e+00 1.05604352236429e-02 1.76496343470175e-04
7.95642857142857e+00 1.00519083898871e-02 1.69201734564966e-04
8.06928571428571e+00 9.56786913992068e-03 1.62192290046399e-04
8.18214285714286e+00 9.10713829891120e-03 1.55458012610790e-04
8.29500000000000e+00 8.66859347510174e-03 1.48989166921324e-04
8.40785714285714e+00 8.25116632376431e-03 1.42776280690867e-04
8.52071428571429e+00 7.85383994520824e-03 1.36810144589609e-04
8.63357142857143e+00 7.47564640707490e-03 1.31081811381585e-04
8.74642857142857e+00 7.11566438766379e-03 1.25582594451879e-04
8.85928571428571e+00 6.77301693011361e-03 1.20304065722465e-04
8.97214285714286e+00 6.44686930616471e-03 1.15238052673781e-04
9.08500000000000e+00 6.13642698376246e-03 1.10376635200750e-04
9.19785714285714e+00 5.84093369034464e-03 1.05712142006810e-04
9.31071428571429e+00 5.55966957087323e-03 1.01237146483134e-04
9.42357142857143e+00 5.29194943391199e-03 9.69444623249028e-05
9.53642857142857e+00 5.03712108327756e-03 9.28271389757433e-05
9.64928571428571e+00 4.79456372832510e-03 8.88784568815327e-05
9.76214285714286e+00 4.56368647171407e-03 8.50919223456759e-05
9.87500000000000e+00 4.34392687062799e-03 8.14612624649880e-05
9.98785714285714e+00 4.13474956585770e-03 7.79804199149640e-05
1.01007142857143e+01 3.93564497805344e-03 7.46435477046526e-05
1.02135714285714e+01 3.74612806465843e-03 7.14450034227571e-05
1.03264285714286e+01 3.56573714295671e-03 6.83793441312538e-05
1.04392857142857e+01 3.39403276015914e-03 6.54413213654723e-05
1.05521428571429e+01 3.23059662339766e-03 6.26258747804605e-05
1.06650000000000e+01 3.07503058534983e-03 5.99281273794136e-05
1.07778571428571e+01 2.92695566815116e-03 5.73433800969391e-05
1.08907142857143e+01 2.78601114597305e-03 5.48671063822525e-05
1.10035714285714e+01 2.65185366076909e-03 5.24949470691522e-05
1.11164285714286e+01 2.52415639099414e-03 5.02227050014479e-05
1.12292857142857e+01 2.40260825159287e-03 4.80463404427972e-05
1.13421428571429e+01 2.28691313651788e-03 4.59619653825499e-05
1.14550000000000e+01 2.17678920043311e-03 4.39658390388144e-05
1.15678571428571e+01 2.07196816805347e-03 4.20543629915194e-05
1.16807142857143e+01 1.97219468442436e-03 4.02240763813037e-05
1.17935714285714e+01 1.87722568923238e-03 3.84716513656899e-05
1.19064285714286e+01 1.78682982809845e-03 3.67938884663433e-05
1.20192857142857e+01 1.70078688644109e-03 3.51877125068609e-05
1.21321428571429e+01 1.61888725324103e-03 3.36501678468857e-05
1.22450000000000e+01 1.54093141242437e-03 3.21784144829710e-05
1.23578571428571e+01 1.46672945413681e-03 3.07697239416314e-05
1.24707142857143e+01 1.39610061463634e-03 2.94214752600380e-05
1.25835714285714e+01 1.32887283353736e-03 2.81311511826771e-05
1.26964285714286e+01 1.26488233691561e-03 2.68963343211879e-05
1.28092857142857e+01 1.20397323665872e-03 2.57147037541549e-05
1.29221428571429e+01 1.14599715085742e-03 2.45840311780558e-05
1.30350000000000e+01 1.09081284367243e-03 2.35021776836501e-05
1.31478571428571e+01 1.03828587948570e-03 2.24670904195505e-05
1.32607142857143e+01 9.88288297085086e-04 2.14767993438352e-05
1.33735714285714e+01 9.40698296343456e-04 2.05294141499944e-05
1.34864285714286e+01 8.95399943005901e-04 1.96231211924550e-05
1.35992857142857e+01 8.52282885144430e-04 1.87561807374495e-05
1.37121428571429e+01 8.11242084428510e-04 1.79269239277169e-05
1.38250000000000e+01 7.72177561135071e-04 1.71337501974671e-05
1.39378571428571e+01 7.34994149397765e-04 1.63751246294843e-05
1.40507142857143e+01 6.99601266496547e-04 1.56495753912433e-05
1.41635714285714e+01 6.65912691124611e-04 1.49556913082306e-05
1.42764285714286e+01 6.33846354349285e-04 1.42921194534904e-05
1.43892857142857e+01 6.03324138937300e-04 1.36575629764337e-05
1.45021428571429e+01 5.74271689118775e-04 1.30507787494893e-05
1.46150000000000e+01 5.46618230047362e-04 1.24705753383509e-05
1.47278571428571e+01 5.20296394589088e-04 1.19158109455243e-05
1.48407142857143e+01 4.95242059961168e-04 1.13853914206395e-05
1.49535714285714e+01 4.71394190809528e-04 1.08782683768615e-05
1.50664285714286e+01 4.48694691193591e-04 1.03934373295360e-05
1.51792857142857e+01 4.27088262558492e-04 9.92993601005246e-06
1.52921428571429e+01 4.06522269065681e-04 9.48684256407011e-06
1.54050000000000e+01 3.86946609768319e-04 9.06327398200766e-06
1.55178571428571e+01 3.68313596025643e-04 8.65838451995408e-06
1.56307142857143e+01 3.50577835833496e-04 8.27136417493567e-06
1.57435714285714e+01 3.33696122765959e-04 7.90143724117928e-06
1.58564285714286e+01 3.17627331172330e-04 7.54786088916821e-06
1.59692857142857e+01 3.02332315654768e-04 7.20992387258744e-06
1.60821428571429e+01 2.87773815735116e-04 6.88694516214850e-06
1.61950000000000e+01 2.73916365354920e-04 6.57827274595817e-06
1.63078571428571e+01 2.60726206116644e-04 6.28328242924282e-06
1.64207142857143e+01 2.48171205384696e-04 6.00137667723337e-06
1.65335714285714e+01 2.36220777684572e-04 5.73198351928356e-06
1.66464285714286e+01 2.24845810498152e-04 5.47455547378210e-06
1.67592857142857e+01 2.14018593116218e-04 5.22856856616009e-06
1.68721428571429e+01 2.03712749151733e-04 4.99352130090771e-06
1.69850000000000e+01 1.93903172466672e-04 4.76893375291668e-06
1.70978571428571e+01 1.84565965768105e-04 4.55434666243131e-06
1.72107142857143e+01 1.75678382621348e-04 4.34932056366268e-06
1.73235714285714e+01 1.67218771819630e-04 4.15343495934488e-06
1.74364285714286e+01 1.59166524845228e-04 3.96628751310677e-06
1.75492857142857e+01 1.51502025512112e-04 3.78749330946269e-06
1.76621428571429e+01 1.44206602191927e-04 3.61668408507698e-06
1.77750000000000e+01 1.37262482451332e-04 3.45350754546885e-06
1.78878571428571e+01 1.30652749592351e-04 3.29762668697848e-06
1.80007142857143e+01 1.24361301596710e-04 3.14871914464024e-06
1.81135714285714e+01 1.18372811752406e-04 3.00647657431602e-06
1.82264285714286e+01 1.12672691455427e-04 2.87060404950802e-06
1.83392857142857e+01 1.07247054566970e-04 2.74081950719573e-06
1.84521428571429e+01 1.02082683594122e-04 2.61685317589145e-06
1.85650000000000e+01 9.71669975742682e-05 2.49844706484164e-06
1.86778571428571e+01 9.24880213153303e-05 2.38535445876304e-06
1.87907142857143e+01 8.80343563281083e-05 2.27733943231228e-06
1.89035714285714e+01 8.37951529585639e-05 2.17417638997765e-06
1.90164285714286e+01 7.97600840513003e-05 2.07564961774952e-06
1.91292857142857e+01 7.59193197214043e-05 1.98155287027864e-06
1.92421428571429e+01 7.22635034137356e-05 1.89168894715616e-06
1.93550000000000e+01 6.87837291661228e-05 1.80586931293372e-06
1.94678571428571e+01 6.54715198380127e-05 1.72391372227755e-06
1.95807142857143e+01 6.23188065306620e-05 1.64564986003111e-06
1.96935714285714e+01 5.93179088626808e-05 1.57091300006414e-06
1.98064285714286e+01 5.64615163239136e-05 1.49954567339397e-06
1.99192857142857e+01 5.37426704186386e-05 1.43139736196180e-06
2.00321428571429e+01 5.11547477179416e-05 1.36632418585609e-06
2.01450000000000e+01 4.86914437629316e-05 1.30418862181338e-06
2.02578571428571e+01 4.63467576550849e-05 1.24485922617299e-06
2.03707142857143e+01 4.41149774859787e-05 1.18821036902059e-06
2.04835714285714e+01 4.19906663763828e-05 1.13412198216634e-06
2.05964285714286e+01 3.99686492750547e-05 1.08247931431822e-06
2.07092857142857e+01 3.80440003193657e-05 1.03317270478029e-06
2.08221428571429e+01 3.62120308380900e-05 9.86097353285640e-07
2.09350000000000e+01 3.44682779555845e-05 9.41153112187695e-07
2.10478571428571e+01 3.28084936847965e-05 8.98244282358523e-07
2.11607142857143e+01 3.12286346117900e-05 8.57279417438543e-07
2.12735714285714e+01 2.97248520141590e-05 8.18171138244168e-07
2.13864285714286e+01 2.82934825148438e-05 7.80835952696756e-07
2.14992857142857e+01 2.69310391356783e-05 7.45194089114513e-07
2.16121428571429e+01 2.56342028045820e-05 7.11169327290627e-07
2.17250000000000e+01 2.43998142878700e-05 6.78688845549651e-07
2.18378571428571e+01 2.32248664701869e-05 6.47683070803575e-07
2.19507142857143e+01 2.21064970514119e-05 6.18085534813000e-07
2.20635714285714e+01 2.10419815523706e-05 5.89832737887663e-07
2.21764285714286e+01 2.00287266979857e-05 5.62864016786245e-07
2.22892857142857e+01 1.90642640847205e-05 5.37121422246861e-07
2.24021428571429e+01 1.81462441685352e-05 5.12549595304348e-07
2.25150000000000e+01 1.72724305533881e-05 4.89095655023317e-07
2.26278571428571e+01 1.64406945268574e-05 4.66709088609997e-07
2.27407142857143e+01 1.56490098897784e-05 4.45341646116532e-07
2.28535714285714e+01 1.48954480055737e-05 4.24947240581512e-07
2.29664285714286e+01 1.41781731157388e-05 4.05481851341276e-07
2.30792857142857e+01 1.34954378574473e-05 3.86903434276461e-07
2.31921428571429e+01 1.28455790076403e-05 3.69171831439962e-07
2.33050000000000e+01 1.22270134396065e-05 3.52248688839171e-07
2.34178571428571e+01 1.16382342551866e-05 3.36097376076006e-07
2.35307142857143e+01 1.10778071243441e-05 3.20682909374561e-07
2.36435714285714e+01 1.05443667809765e-05 3.05971878573500e-07
2.37564285714286e+01 1.00366137064551e-05 2.91932376498269e-07
2.38692857142857e+01 9.55331095681898e-06 2.78533933323909e-07
2.39821428571429e+01 9.09328115002776e-06 2.65747450663397e-07
2.40950000000000e+01 8.65540360346256e-06 2.53545141479376e-07
2.42078571428571e+01 8.23861159620378e-06 2.41900471429681e-07
2.43207142857143e+01 7.84188977759831e-06 2.30788102704523e-07
2.44335714285714e+01 7.46427168690412e-06 2.20183840750248e-07
2.45464285714286e+01 7.10483740537606e-06 2.10064582770248e-07
2.46592857142857e+01 6.76271131042457e-06 2.00408269814786e-07
2.47721428571429e+01 6.43705994290145e-06 1.91193838787889e-07
2.48850000000000e+01 6.12708998063053e-06 1.82401178612242e-07
2.49978571428571e+01 5.83204630056833e-06 1.74011087490212e-07
2.51107142857143e+01 5.55121014418733e-06 1.66005231992904e-07
2.52235714285714e+01 5.28389736180596e-06 1.58366108247575e-07
2.53364285714286e+01 5.02945675037419e-06 1.51077004446483e-07
2.54492857142857e+01 4.78726846376819e-06 1.44121965935094e-07
2.55621428571429e+01 4.55674250304942e-06 1.37485760317635e-07
2.56750000000000e+01 4.33731728185754e-06 1.31153845531004e-07
2.57878571428571e+01 4.12845825474380e-06 1.25112338750203e-07
2.59007142857143e+01 3.92965661835280e-06 1.19347986631950e-07
2.60135714285714e+01 3.74042806870002e-06 1.13848137081561e-07
2.61264285714286e+01 3.56031162440723e-06 1.08600711998784e-07
2.62392857142857e+01 3.38886850143444e-06 1.03594181876425e-07
2.63521428571429e+01 3.22568104434016e-06 9.88175404632346e-08
2.64650000000000e+01 3.07035171067740e-06 9.42602815455469e-08
2.65778571428571e+01 2.92250210007805e-06 8.99123763556797e-08
2.66907142857143e+01 2.78177203475810e-06 8.57642519579764e-08
2.68035714285714e+01 2.64781867987244e-06 8.18067707392925e-08
2.69164285714286e+01 2.52031571042851e-06 7.80312106223668e-08
2.70292857142857e+01 2.39895251476582e-06 7.44292466094123e-08
2.71421428571429e+01 2.28343343799939e-06 7.09929324068219e-08
2.72550000000000e+01 2.17347706304387e-06 6.77146835619363e-08
2.73678571428571e+01 2.06881552336083e-06 6.45872610697041e-08
2.74807142857143e+01 1.96919385200804e-06 6.16037556923241e-08
2.75935714285714e+01 1.87436935899099e-06 5.87575730787513e-08
2.77064285714286e+01 1.78411104148506e-06 5.60424194165133e-08
2.78192857142857e+01 1.69819902001680e-06 5.34522880381226e-08
2.79321428571429e+01 1.61642400290092e-06 5.09814461093272e-08
2.80450000000000e+01 1.53858677725757e-06 4.86244223963160e-08
2.81578571428571e+01 1.46449772254556e-06 4.63759953835801e-08
2.82707142857143e+01 1.39397634972766e-06 4.42311819109205e-08
2.83835714285714e+01 1.32685086053303e-06 4.21852263891467e-08
2.84964285714286e+01 1.26295772992964e-06 4.02335904067768e-08
2.86092857142857e+01 1.20214130702283e-06 3.83719430214834e-08
2.87221428571429e+01 1.14425343593268e-06 3.65961511262437e-08
2.88350000000000e+01 1.08915309547224e-06 3.49022705852852e-08
2.89478571428571e+01 1.03670605480428e-06 3.32865376306690e-08
2.90607142857143e+01 9.86784547198712e-07 3.17453606363456e-08
2.91735714285714e+01 9.39266958058322e-07 3.02753123104920e-08
2.92864285714286e+01 8.94037529335215e-07 2.88731221744212e-08
2.93992857142857e+01 8.50986077024342e-07 2.75356695324756e-08
2.95121428571429e+01 8.10007722784394e-07 2.62599765063308e-08
2.96250000000000e+01 7.71002638857543e-07 2.50432016184503e-08
2.97378571428571e+01 7.33875804326810e-07 2.38826335686028e-08
2.98507142857143e+01 6.98536774157244e-07 2.27756852844832e-08
2.99635714285714e+01 6.64899458365431e-07 2.17198882744112e-08
3.00764285714286e+01 6.32881912765467e-07 2.07128871896501e-08
3.01892857142857e+01 6.02406138994429e-07 1.97524347386459e-08
3.03021428571429e+01 5.73397894528141e-07 1.88363866547958e-08
3.04150000000000e+01 5.45786512104270e-07 1.79626970559179e-08
3.05278571428571e+01 5.19504727189063e-07 1.71294139462945e-08
3.06407142857143e+01 4.94488514473855e-07 1.63346749175233e-08
3.07535714285714e+01 4.70676931560050e-07 1.55767030673541e-08
3.08664285714286e+01 4.48011970821291e-07 1.48538030715848e-08
3.09792857142857e+01 4.26438417849487e-07 1.41643575081147e-08
3.10921428571429e+01 4.05903716965960e-07 1.35068232243553e-08
3.12050000000000e+01 3.86357843387374e-07 1.28797279840043e-08
3.13178571428571e+01 3.67753181097668e-07 1.22816672188258e-08
3.14307142857143e+01 3.50044407098794e-07 1.17113009244718e-08
3.15435714285714e+01 3.33188380762708e-07 1.11673507134902e-08
3.16564285714286e+01 3.17144038960004e-07 1.06485969799154e-08
3.17692857142857e+01 3.01872295859301e-07 1.01538762444750e-08
3.18821428571429e+01 2.87335947723300e-07 9.68207853425743e-09
3.19950000000000e+01 2.73499582412617e-07 9.23214496159966e-09
3.21078571428571e+01 2.60329492936914e-07 8.80306538012928e-09
3.22207142857143e+01 2.47793595512586e-07 8.39387614506424e-09
3.23335714285714e+01 2.35861351240048e-07 8.00365798678196e-09
3.24464285714286e+01 2.24503691862250e-07 7.63153396561580e-09
3.25592857142857e+01 2.13692948836365e-07 7.27666755598368e-09
3.26721428571429e+01 2.03402785939439e-07 6.93826075751297e-09
3.27850000000000e+01 1.93608135204553e-07 6.61555234821754e-09
3.28978571428571e+01 1.84285135727472e-07 6.30781619424489e-09
3.30107142857143e+01 1.75411075657407e-07 6.01435963501633e-09
3.31235714285714e+01 1.66964336755787e-07 5.73452194993864e-09
3.32364285714286e+01 1.58924341838679e-07 5.46767288416749e-09
3.33492857142857e+01 1.51271504569162e-07 5.21321126695389e-09
3.34621428571429e+01 1.43987181749245e-07 4.97056365089837e-09
3.35750000000000e+01 1.37053627968019e-07 4.73918305248359e-09
3.36878571428571e+01 1.30453952285473e-07 4.51854773400491e-09
3.38007142857143e+01 1.24172077166245e-07 4.30816003997550e-09
3.39135714285714e+01 1.18192699235100e-07 4.10754529224084e-09
3.40264285714286e+01 1.12501252070072e-07 3.91625072797177e-09
3.41392857142857e+01 1.07083870662208e-07 3.73384450391550e-09
3.42521428571429e+01 1.01927357643290e-07 3.55991471668937e-09
3.43650000000000e+01 9.70191511805639e-08 3.39406849527566e-09
3.44778571428571e+01 9.23472943149801e-08 3.23593112375913e-09
3.45907142857143e+01 8.79004058893907e-08 3.08514520339358e-09
3.47035714285714e+01 8.36676527689341e-08 2.94136985690073e-09
3.48164285714286e+01 7.96387235014071e-08 2.80427996386924e-09
3.49292857142857e+01 7.58038031594934e-08 2.67356544355968e-09
3.50421428571429e+01 7.21535494335618e-08 2.54893054992562e-09
3.51550000000000e+01 6.86790699038936e-08 2.43009321810142e-09
3.52678571428571e+01 6.53719003364185e-08 2.31678443294889e-09
3.53807142857143e+01 6.22239841021230e-08 2.20874762597799e-09
3.54935714285714e+01 5.92276525129392e-08 2.10573810263144e-09
3.56064285714286e+01 5.63756061753263e-08 2.00752249210352e-09
