Energy (eV)          EEDF (eV^-(3/2))     First Anisotropy
2.13125000000000e-01 3.55717854640657e-02 4.63420657580672e-05
6.39375000000000e-01 3.40687970004562e-02 7.51599408951992e-05
1.06562500000000e+00 3.26293132019161e-02 9.56706367779555e-05
1.49187500000000e+00 3.12506508525821e-02 1.09242708978305e-04
1.91812500000000e+00 2.99302401085367e-02 1.19001544171429e-04
2.34437500000000e+00 2.86656197075859e-02 1.26197569017948e-04
2.77062500000000e+00 2.74544323814351e-02 1.31511187131562e-04
3.19687500000000e+00 2.62944204617118e-02 1.35372043904192e-04
3.62312500000000e+00 2.51834216716429e-02 1.38076552113252e-04
4.04937500000000e+00 2.41193650955442e-02 1.39841534932833e-04
4.47562500000000e+00 2.31002673186071e-02 1.40832285094010e-04
4.90187500000000e+00 2.21242287297890e-02 1.41178707893443e-04
5.32812500000000e+00 2.11894299809140e-02 1.40985289626378e-04
5.75437500000000e+00 2.02941285953854e-02 1.40337600545450e-04
6.18062500000000e+00 1.94366557201872e-02 1.39306727665401e-04
6.60687500000000e+00 1.86154130151214e-02 1.37952407235003e-04
7.03312500000000e+00 1.78288696734819e-02 1.36325305884433e-04
7.45937500000000e+00 1.70755595686109e-02 1.34468724667710e-04
7.88562500000000e+00 1.63540785210214e-02 1.32419900093185e-04
8.31187500000000e+00 1.56630816809883e-02 1.30211016396214e-04
8.73812500000000e+00 1.50012810217319e-02 1.27870006223682e-04
9.16437500000000e+00 1.43674429385197e-02 1.25421193181371e-04
9.59062500000000e+00 1.37603859492120e-02 1.22885814099725e-04
1.00168750000000e+01 1.31789784919640e-02 1.20282448365251e-04
1.04431250000000e+01 1.26221368159805e-02 1.17627374428095e-04
1.08693750000000e+01 1.20888229613908e-02 1.14934868513899e-04
1.12956250000000e+01 1.15780428244786e-02 1.12217456934919e-04
1.17218750000000e+01 1.10888443046599e-02 1.09486130756079e-04
1.21481250000000e+01 1.06203155297558e-02 1.06750529625976e-04
1.25743750000000e+01 1.01715831562514e-02 1.04019100129010e-04
1.30006250000000e+01 9.74181074137219e-03 1.01299232915031e-04
1.34268750000000e+01 9.33019718394455e-03 9.85973820212282e-05
1.38531250000000e+01 8.93597523113295e-03 9.59191691500766e-05
1.42793750000000e+01 8.55841004827109e-03 9.32694751587139e-05
1.47056250000000e+01 8.19679784912082e-03 9.06525206143395e-05
1.51318750000000e+01 7.85046458400582e-03 8.80719369515175e-05
1.55581250000000e+01 7.51876468337450e-03 8.55308295118334e-05
1.59843750000000e+01 7.20107985445027e-03 8.30318335400394e-05
1.64106250000000e+01 6.89681792872606e-03 8.05771640430125e-05
1.68368750000000e+01 6.60541175815476e-03 7.81686602804188e-05
1.72631250000000e+01 6.32631815797818e-03 7.58078255427533e-05
1.76893750000000e+01 6.05901689422384e-03 7.34958627785294e-05
1.81156250000000e+01 5.80300971398228e-03 7.12337065541283e-05
1.85418750000000e+01 5.55781941665744e-03 6.90220517642362e-05
1.89681250000000e+01 5.32298896445872e-03 6.68613794555191e-05
1.93943750000000e+01 5.09808063047684e-03 6.47519800794147e-05
1.98206250000000e+01 4.88267518275533e-03 6.26939744501537e-05
2.02468750000000e+01 4.67637110283697e-03 6.06873326501457e-05
2.06731250000000e+01 4.47878383732833e-03 5.87318910957462e-05
2.10993750000000e+01 4.28954508108737e-03 5.68273679513433e-05
2.15256250000000e+01 4.10830209069810e-03 5.49733770580336e-05
2.19518750000000e+01 3.93471702695241e-03 5.31694405243779e-05
2.23781250000000e+01 3.76846632511350e-03 5.14150001103720e-05
2.28043750000000e+01 3.60924009178723e-03 4.97094275215137e-05
2.32306250000000e+01 3.45674152727686e-03 4.80520337173460e-05
2.36568750000000e+01 3.31068637234477e-03 4.64420773278962e-05
2.40831250000000e+01 3.17080237834962e-03 4.48787722617795e-05
2.45093750000000e+01 3.03682879977149e-03 4.33612945812040e-05
2.49356250000000e+01 2.90851590817896e-03 4.18887887115832e-05
2.53618750000000e+01 2.78562452673217e-03 4.04603730467653e-05
2.57881250000000e+01 2.66792558435419e-03 3.90751450049423e-05
2.62143750000000e+01 2.55519968873968e-03 3.77321855850101e-05
2.66406250000000e+01 2.44723671740485e-03 3.64305634684095e-05
2.70668750000000e+01 2.34383542601652e-03 3.51693387072562e-05
2.74931250000000e+01 2.24480307327019e-03 3.39475660357743e-05
2.79193750000000e+01 2.14995506161778e-03 3.27642978386423e-05
2.83456250000000e+01 2.05911459317552e-03 3.16185868067980e-05
2.87718750000000e+01 1.97211234017048e-03 3.05094883085006e-05
2.91981250000000e+01 1.88878612931143e-03 2.94360625009507e-05
2.96243750000000e+01 1.80898063949585e-03 2.83973762055342e-05
3.00506250000000e+01 1.73254711228942e-03 2.73925045677179e-05
3.04768750000000e+01 1.65934307463841e-03 2.64205325207863e-05
3.09031250000000e+01 1.58923207329815e-03 2.54805560709445e-05
3.13293750000000e+01 1.52208342048248e-03 2.45716834197929e-05
3.17556250000000e+01 1.45777195026004e-03 2.36930359388085e-05
3.21818750000000e+01 1.39617778524342e-03 2.28437490092125e-05
3.26081250000000e+01 1.33718611313621e-03 2.20229727394646e-05
3.30343750000000e+01 1.28068697272145e-03 2.12298725715872e-05
3.34606250000000e+01 1.22657504889251e-03 2.04636297865734e-05
3.38868750000000e+01 1.17474947634443e-03 1.97234419182679e-05
3.43131250000000e+01 1.12511365155974e-03 1.90085230843207e-05
3.47393750000000e+01 1.07757505273826e-03 1.83181042420885e-05
3.51656250000000e+01 1.03204506733532e-03 1.76514333766996e-05
3.55918750000000e+01 9.88438826886873e-04 1.70077756278924e-05
3.60181250000000e+01 9.46675048813599e-04 1.63864133616815e-05
3.64443750000000e+01 9.06675884909163e-04 1.57866461923992e-05
3.68706250000000e+01 8.68366776230180e-04 1.52077909601938e-05
3.72968750000000e+01 8.31676314117412e-04 1.46491816686372e-05
3.77231250000000e+01 7.96536107089129e-04 1.41101693867031e-05
3.81493750000000e+01 7.62880653358529e-04 1.35901221190171e-05
3.85756250000000e+01 7.30647218737587e-04 1.30884246479482e-05
3.90018750000000e+01 6.99775719699737e-04 1.26044783508080e-05
3.94281250000000e+01 6.70208611383433e-04 1.21377009951430e-05
3.98543750000000e+01 6.41890780327796e-04 1.16875265148518e-05
4.02806250000000e+01 6.14769441740438e-04 1.12534047696184e-05
4.07068750000000e+01 5.88794041105942e-04 1.08348012899396e-05
4.11331250000000e+01 5.63916159951615e-04 1.04311970098223e-05
4.15593750000000e+01 5.40089425594844e-04 1.00420879890441e-05
4.19856250000000e+01 5.17269424703837e-04 9.66698512670143e-06
4.24118750000000e+01 4.95413620510612e-04 9.30541386761288e-06
4.28381250000000e+01 4.74481273521930e-04 8.95691390300440e-06
4.32643750000000e+01 4.54433365580368e-04 8.62103886676890e-06
4.36906250000000e+01 4.35232527133983e-04 8.29735602847499e-06
4.41168750000000e+01 4.16842967579000e-04 7.98544598418510e-06
4.45431250000000e+01 3.99230408545677e-04 7.68490234604308e-06
4.49693750000000e+01 3.82362020002991e-04 7.39533143149644e-06
4.53956250000000e+01 3.66206359063055e-04 7.11635195293177e-06
4.58218750000000e+01 3.50733311371170e-04 6.84759470842313e-06
4.62481250000000e+01 3.35914034972302e-04 6.58870227421919e-06
4.66743750000000e+01 3.21720906549306e-04 6.33932869952870e-06
4.71006250000000e+01 3.08127469932722e-04 6.09913920410197e-06
4.75268750000000e+01 2.95108386786141e-04 5.86780987904948e-06
4.79531250000000e+01 2.82639389375228e-04 5.64502739128693e-06
4.83793750000000e+01 2.70697235332362e-04 5.43048869194899e-06
4.88056250000000e+01 2.59259664332571e-04 5.22390072906986e-06
4.92318750000000e+01 2.48305356600003e-04 5.02498016478962e-06
4.96581250000000e+01 2.37813893167604e-04 4.83345309730850e-06
5.00843750000000e+01 2.27765717815899e-04 4.64905478777772e-06
5.05106250000000e+01 2.18142100619960e-04 4.47152939228618e-06
5.09368750000000e+01 2.08925103036586e-04 4.30062969907315e-06
5.13631250000000e+01 2.00097544466637e-04 4.13611687107313e-06
5.17893750000000e+01 1.91642970230180e-04 3.97776019387539e-06
5.22156250000000e+01 1.83545620894760e-04 3.82533682915970e-06
5.26418750000000e+01 1.75790402899619e-04 3.67863157365175e-06
5.30681250000000e+01 1.68362860421109e-04 3.53743662362318e-06
5.34943750000000e+01 1.61249148426858e-04 3.40155134494692e-06
5.39206250000000e+01 1.54436006868454e-04 3.27078204870386e-06
5.43468750000000e+01 1.47910735964548e-04 3.14494177232437e-06
5.47731250000000e+01 1.41661172528303e-04 3.02385006623707e-06
5.51993750000000e+01 1.35675667295060e-04 2.90733278598665e-06
5.56256250000000e+01 1.29943063207966e-04 2.79522188977410e-06
5.60518750000000e+01 1.24452674621076e-04 2.68735524136441e-06
5.64781250000000e+01 1.19194267381177e-04 2.58357641829921e-06
5.69043750000000e+01 1.14158039751196e-04 2.48373452534631e-06
5.73306250000000e+01 1.09334604139642e-04 2.38768401311222e-06
5.77568750000000e+01 1.04714969602016e-04 2.29528450173876e-06
5.81831250000000e+01 1.00290525081578e-04 2.20640060960103e-06
5.86093750000000e+01 9.60530233582279e-05 2.12090178692032e-06
5.90356250000000e+01 9.19945656755866e-05 2.03866215420265e-06
5.94618750000000e+01 8.81075870176124e-05 1.95956034541084e-06
5.98881250000000e+01 8.43848420073172e-05 1.88347935577645e-06
6.03143750000000e+01 8.08193914012929e-05 1.81030639415582e-06
6.07406250000000e+01 7.74045891548744e-05 1.73993273983350e-06
6.11668750000000e+01 7.41340700338292e-05 1.67225360367528e-06
6.15931250000000e+01 7.10017377494806e-05 1.60716799353262e-06
6.20193750000000e+01 6.80017535951498e-05 1.54457858379986e-06
6.24456250000000e+01 6.51285255627323e-05 1.48439158902545e-06
6.28718750000000e+01 6.23766979191256e-05 1.42651664147884e-06
6.32981250000000e+01 5.97411412230752e-05 1.37086667257489e-06
6.37243750000000e+01 5.72169427638314e-05 1.31735779805829e-06
6.41506250000000e+01 5.47993974037953e-05 1.26590920685135e-06
6.45768750000000e+01 5.24839988080832e-05 1.21644305346907e-06
6.50031250000000e+01 5.02664310446615e-05 1.16888435390687e-06
6.54293750000000e+01 4.81425605393955e-05 1.12316088490726e-06
6.58556250000000e+01 4.61084283710154e-05 1.07920308651286e-06
6.62818750000000e+01 4.41602428916373e-05 1.03694396781494e-06
6.67081250000000e+01 4.22943726590838e-05 9.96319015807583e-07
6.71343750000000e+01 4.05073396678308e-05 9.57266107259367e-07
6.75606250000000e+01 3.87958128659606e-05 9.19725423516045e-07
6.79868750000000e+01 3.71566019460402e-05 8.83639368148993e-07
6.84131250000000e+01 3.55866513983479e-05 8.48952487366206e-07
6.88393750000000e+01 3.40830348153648e-05 8.15611393104006e-07
6.92656250000000e+01 3.26429494369143e-05 7.83564688719478e-07
6.96918750000000e+01 3.12637109257824e-05 7.52762897205326e-07
7.01181250000000e+01 2.99427483640793e-05 7.23158391850528e-07
7.05443750000000e+01 2.86775994610158e-05 6.94705329272000e-07
7.09706250000000e+01 2.74659059631630e-05 6.67359584744129e-07
7.13968750000000e+01 2.63054092586379e-05 6.41078689754822e-07
7.18231250000000e+01 2.51939461670225e-05 6.15821771718459e-07
7.22493750000000e+01 2.41294449071686e-05 5.91549495777842e-07
7.26756250000000e+01 2.31099212353718e-05 5.68224008629004e-07
7.31018750000000e+01 2.21334747467158e-05 5.45808884304353e-07
7.35281250000000e+01 2.11982853326945e-05 5.24269071851395e-07
7.39543750000000e+01 2.03026097885064e-05 5.03570844845972e-07
7.43806250000000e+01 1.94447785636991e-05 4.83681752680468e-07
7.48068750000000e+01 1.86231926501065e-05 4.64570573569204e-07
7.52331250000000e+01 1.78363206012772e-05 4.46207269214769e-07
7.56593750000000e+01 1.70826956778395e-05 4.28562941080654e-07
7.60856250000000e+01 1.63609131134803e-05 4.11609788217038e-07
7.65118750000000e+01 1.56696274964436e-05 3.95321066588189e-07
7.69381250000000e+01 1.50075502616658e-05 3.79671049851385e-07
7.73643750000000e+01 1.43734472888740e-05 3.64634991538701e-07
7.77906250000000e+01 1.37661366021712e-05 3.50189088594522e-07
7.82168750000000e+01 1.31844861668173e-05 3.36310446222975e-07
7.86431250000000e+01 1.26274117791029e-05 3.22977044000901e-07
7.90693750000000e+01 1.20938750453798e-05 3.10167703213290e-07
7.94956250000000e+01 1.15828814464821e-05 2.97862055369449e-07
7.99218750000000e+01 1.10934784839301e-05 2.86040511859475e-07
8.03481250000000e+01 1.06247539044610e-05 2.74684234711784e-07
8.07743750000000e+01 1.01758339995777e-05 2.63775108413765e-07
8.12006250000000e+01 9.74588197694485e-06 2.53295712758746e-07
8.16268750000000e+01 9.33409640059778e-06 2.43229296683667e-07
8.20531250000000e+01 8.93970969705552e-06 2.33559753062989e-07
8.24793750000000e+01 8.56198672455433e-06 2.24271594425419e-07
8.29056250000000e+01 8.20022340273420e-06 2.15349929561168e-07
8.33318750000000e+01 7.85374540022426e-06 2.06780440988485e-07
8.37581250000000e+01 7.52190687768059e-06 1.98549363249204e-07
8.41843750000000e+01 7.20408928393362e-06 1.90643462004056e-07
8.46106250000000e+01 6.89970020300098e-06 1.83050013899449e-07
8.50368750000000e+01 6.60817224981667e-06 1.75756787178359e-07
8.54631250000000e+01 6.32896201261817e-06 1.68752023008858e-07
8.58893750000000e+01 6.06154904002013e-06 1.62024417504732e-07
8.63156250000000e+01 5.80543487088640e-06 1.55563104413451e-07
8.67418750000000e+01 5.56014210519229e-06 1.49357638447604e-07
8.71681250000000e+01 5.32521351414487e-06 1.43397979236723e-07
8.75943750000000e+01 5.10021118790280e-06 1.37674475877187e-07
8.80206250000000e+01 4.88471571930689e-06 1.32177852058657e-07
8.84468750000000e+01 4.67832542209986e-06 1.26899191746241e-07
8.88731250000000e+01 4.48065558217816e-06 1.21829925398279e-07
8.92993750000000e+01 4.29133774048003e-06 1.16961816700349e-07
8.97256250000000e+01 4.11001900617320e-06 1.12286949796739e-07
9.01518750000000e+01 3.93636139886192e-06 1.07797717001307e-07
9.05781250000000e+01 3.77004121858730e-06 1.03486806970252e-07
9.10043750000000e+01 3.61074844244650e-06 9.93471933199248e-08
9.14306250000000e+01 3.45818614670616e-06 9.53721236734393e-08
9.18568750000000e+01 3.31206995333284e-06 9.15551091203439e-08
9.22831250000000e+01 3.17212749990879e-06 8.78899140742208e-08
9.27093750000000e+01 3.03809793194497e-06 8.43705465135870e-08
9.31356250000000e+01 2.90973141664505e-06 8.09912485919881e-08
9.35618750000000e+01 2.78678867721389e-06 7.77464876036829e-08
9.39881250000000e+01 2.66904054684266e-06 7.46309472917890e-08
9.44143750000000e+01 2.55626754153895e-06 7.16395194862306e-08
9.48406250000000e+01 2.44825945100594e-06 6.87672960592805e-08
9.52668750000000e+01 2.34481494680770e-06 6.60095611869174e-08
9.56931250000000e+01 2.24574120709050e-06 6.33617839046542e-08
9.61193750000000e+01 2.15085355716043e-06 6.08196109468819e-08
9.65456250000000e+01 2.05997512524748e-06 5.83788598591787e-08
9.69718750000000e+01 1.97293651281432e-06 5.60355123734145e-08
9.73981250000000e+01 1.88957547879530e-06 5.37857080358370e-08
9.78243750000000e+01 1.80973663717710e-06 5.16257380786877e-08
9.82506250000000e+01 1.73327116735720e-06 4.95520395262421e-08
9.86768750000000e+01 1.66003653674045e-06 4.75611895264867e-08
9.91031250000000e+01 1.58989623505653e-06 4.56498998999739e-08
9.95293750000000e+01 1.52271951990303e-06 4.38150118977004e-08
9.99556250000000e+01 1.45838117304007e-06 4.20534911601534e-08
1.00381875000000e+02 1.39676126698183e-06 4.03624228699532e-08
1.00808125000000e+02 1.33774494145028e-06 3.87390070907998e-08
1.01234375000000e+02 1.28122218927417e-06 3.71805542856965e-08
1.01660625000000e+02 1.22708765133425e-06 3.56844810076864e-08
1.02086875000000e+02 1.17524042017257e-06 3.42483057565763e-08
1.02513125000000e+02 1.12558385189974e-06 3.28696449953740e-08
1.02939375000000e+02 1.07802538604945e-06 3.15462093203883e-08
1.03365625000000e+02 1.03247637304464e-06 3.02757997791677e-08
1.03791875000000e+02 9.88851908953578e-07 2.90563043306693e-08
1.04218125000000e+02 9.47070677227846e-07 2.78856944422554e-08
1.04644375000000e+02 9.07054797127278e-07 2.67620218183161e-08
1.05070625000000e+02 8.68729678549294e-07 2.56834152555115e-08
1.05496875000000e+02 8.32023882992000e-07 2.46480776198093e-08
1.05923125000000e+02 7.96868990391935e-07 2.36542829406783e-08
1.06349375000000e+02 7.63199471588206e-07 2.27003736179637e-08
1.06775625000000e+02 7.30952566175314e-07 2.17847577371462e-08
1.07201875000000e+02 7.00068165516972e-07 2.09059064888416e-08
1.07628125000000e+02 6.70488700702847e-07 2.00623516885519e-08
1.08054375000000e+02 6.42159035239395e-07 1.92526833928318e-08
1.08480625000000e+02 6.15026362274743e-07 1.84755476081799e-08
1.08906875000000e+02 5.89040106166052e-07 1.77296440890935e-08
1.09333125000000e+02 5.64151828205890e-07 1.70137242218708e-08
1.09759375000000e+02 5.40315136331868e-07 1.63265889908657e-08
1.10185625000000e+02 5.17485598651254e-07 1.56670870240267e-08
1.10611875000000e+02 4.95620660619374e-07 1.50341127146712e-08
1.11038125000000e+02 4.74679565717396e-07 1.44266044165614e-08
1.11464375000000e+02 4.54623279481679e-07 1.38435427094578e-08
1.11890625000000e+02 4.35414416743035e-07 1.32839487324347e-08
1.12316875000000e+02 4.17017171940305e-07 1.27468825823441e-08
1.12743125000000e+02 3.99397252378351e-07 1.22314417749140e-08
1.13169375000000e+02 3.82521814306032e-07 1.17367597660603e-08
1.13595625000000e+02 3.66359401695047e-07 1.12620045310878e-08
1.14021875000000e+02 3.50879887605501e-07 1.08063771995391e-08
1.14448125000000e+02 3.36054418028911e-07 1.03691107435397e-08
1.14874375000000e+02 3.21855358103973e-07 9.94946871756673e-09
1.15300625000000e+02 3.08256240604831e-07 9.54674404764894e-09
1.15726875000000e+02 2.95231716605841e-07 9.16025786808103e-09
1.16153125000000e+02 2.82757508230850e-07 8.78935840381022e-09
1.16579375000000e+02 2.70810363398936e-07 8.43341989672051e-09
1.17005625000000e+02 2.59368012482231e-07 8.09184157411022e-09
1.17431875000000e+02 2.48409126795060e-07 7.76404665772279e-09
1.17858125000000e+02 2.37913278837003e-07 7.44948141175383e-09
1.18284375000000e+02 2.27860904215776e-07 7.14761422831772e-09
1.18710625000000e+02 2.18233265178957e-07 6.85793474891526e-09
1.19136875000000e+02 2.09012415686585e-07 6.57995302049997e-09
1.19563125000000e+02 2.00181167959514e-07 6.31319868479443e-09
1.19989375000000e+02 1.91723060441175e-07 6.05722019955993e-09
1.20415625000000e+02 1.83622327113031e-07 5.81158409057287e-09
1.20841875000000e+02 1.75863868106519e-07 5.57587423310878e-09
1.21268125000000e+02 1.68433221556706e-07 5.34969116178136e-09
1.21694375000000e+02 1.61316536645191e-07 5.13265140762864e-09
1.22120625000000e+02 1.54500547782008e-07 4.92438686138070e-09
1.22546875000000e+02 1.47972549878395e-07 4.72454416188465e-09
1.22973125000000e+02 1.41720374664354e-07 4.53278410870230e-09
1.23399375000000e+02 1.35732368006841e-07 4.34878109793392e-09
1.23825625000000e+02 1.29997368186314e-07 4.17222258035798e-09
1.24251875000000e+02 1.24504685091153e-07 4.00280854101212e-09
1.24678125000000e+02 1.19244080291150e-07 3.84025099937483e-09
1.25104375000000e+02 1.14205747952956e-07 3.68427352933910e-09
1.25530625000000e+02 1.09380296561875e-07 3.53461079820142e-09
1.25956875000000e+02 1.04758731415970e-07 3.39100812391934e-09
1.26383125000000e+02 1.00332437859824e-07 3.25322104991975e-09
1.26809375000000e+02 9.60931652267104e-08 3.12101493676817e-09
1.27235625000000e+02 9.20330114592521e-08 2.99416457003583e-09
1.27661875000000e+02 8.81444083798840e-08 2.87245378372738e-09
1.28088125000000e+02 8.44201075836761e-08 2.75567509865687e-09
1.28514375000000e+02 8.08531669272160e-08 2.64362937518320e-09
1.28940625000000e+02 7.74369375883657e-08 2.53612547973968e-09
1.29366875000000e+02 7.41650516727746e-08 2.43297996461388e-09
1.29793125000000e+02 7.10314103440440e-08 2.33401676045550e-09
1.30219375000000e+02 6.80301724554196e-08 2.23906688101021e-09
1.30645625000000e+02 6.51557436618207e-08 2.14796813959709e-09
1.31071875000000e+02 6.24027659919109e-08 2.06056487686609e-09
1.31498125000000e+02 5.97661078607720e-08 1.97670769939018e-09
1.31924375000000e+02 5.72408545045658e-08 1.89625322866421e-09
1.32350625000000e+02 5.48222988193520e-08 1.81906386009899e-09
1.32776875000000e+02 5.25059325869881e-08 1.74500753161574e-09
1.33203125000000e+02 5.02874380717537e-08 1.67395750146111e-09
1.33629375000000e+02 4.81626799720372e-08 1.60579213487791e-09
1.34055625000000e+02 4.61276977120814e-08 1.54039469928126e-09
1.34481875000000e+02 4.41786980594212e-08 1.47765316760319e-09
