Energy (eV)          EEDF (eV^-(3/2))     First Anisotropy
4.26923076923077e-04 6.87006955234340e+01 3.90055416313346e-02
1.28076923076923e-03 6.77947873650992e+01 6.42004051361945e-02
2.13461538461538e-03 6.69008247848041e+01 8.42003774340358e-02
2.98846153846154e-03 6.60186502670219e+01 9.90630898383009e-02
3.84230769230769e-03 6.51481083682345e+01 1.11187519198235e-01
4.69615384615385e-03 6.42890456990835e+01 1.21489422457673e-01
5.55000000000000e-03 6.34413108905951e+01 1.30447034780162e-01
6.40384615384615e-03 6.26047545692371e+01 1.38351711012117e-01
7.25769230769231e-03 6.17792293329898e+01 1.45398363046854e-01
8.11153846153846e-03 6.09645897225076e+01 1.51725927308686e-01
8.96538461538462e-03 6.01606921960561e+01 1.57438114238248e-01
9.81923076923077e-03 5.93673951058280e+01 1.62615107591674e-01
1.06730769230769e-02 5.85845586729267e+01 1.67320642596259e-01
1.15269230769231e-02 5.78120449561226e+01 1.71606528121705e-01
1.23807692307692e-02 5.70497178370819e+01 1.75515664942440e-01
1.32346153846154e-02 5.62974429961972e+01 1.79084134011166e-01
1.40884615384615e-02 5.55550878774240e+01 1.82342684239837e-01
1.49423076923077e-02 5.48225216796092e+01 1.85317820444475e-01
1.57961538461538e-02 5.40996153199945e+01 1.88032616178579e-01
1.66500000000000e-02 5.33862414238477e+01 1.90507332736225e-01
1.75038461538462e-02 5.26822742905761e+01 1.92759898484072e-01
1.83576923076923e-02 5.19875898821971e+01 1.94806285570173e-01
1.92115384615385e-02 5.13020657915907e+01 1.96660809927546e-01
2.00653846153846e-02 5.06255812301725e+01 1.98336373031164e-01
2.09192307692308e-02 4.99580169979513e+01 1.99844658835398e-01
2.17730769230769e-02 4.92992554706591e+01 2.01196295751161e-01
2.26269230769231e-02 4.86491805713678e+01 2.02400991123574e-01
2.34807692307692e-02 4.80076777556091e+01 2.03467643526412e-01
2.43346153846154e-02 4.73746339909838e+01 2.04404437840192e-01
2.51884615384615e-02 4.67499377322713e+01 2.05218925552252e-01
2.60423076923077e-02 4.61334789082494e+01 2.05918093543593e-01
2.68961538461538e-02 4.55251488961599e+01 2.06508423180472e-01
2.77500000000000e-02 4.49248405083995e+01 2.06995941358101e-01
2.86038461538462e-02 4.43324479680882e+01 2.07386264858321e-01
2.94576923076923e-02 4.37478668957110e+01 2.07684639046367e-01
3.03115384615385e-02 4.31709942856925e+01 2.07895971820623e-01
3.11653846153846e-02 4.26017284930510e+01 2.08024863486795e-01
3.20192307692308e-02 4.20399692108986e+01 2.08075633189791e-01
3.28730769230769e-02 4.14856174571566e+01 2.08052342350259e-01
3.37269230769231e-02 4.09385755529122e+01 2.07958815586342e-01
3.45807692307692e-02 4.03987471082959e+01 2.07798659249244e-01
3.54346153846154e-02 3.98660370053981e+01 2.07575278337446e-01
3.62884615384615e-02 3.93403513786918e+01 2.07291891422139e-01
3.71423076923077e-02 3.88215976021859e+01 2.06951544237044e-01
3.79961538461539e-02 3.83096842695579e+01 2.06557121958738e-01
3.88500000000000e-02 3.78045211814561e+01 2.06111360320548e-01
3.97038461538462e-02 3.73060193263288e+01 2.05616855734652e-01
4.05576923076923e-02 3.68140908678942e+01 2.05076074494453e-01
4.14115384615385e-02 3.63286491266266e+01 2.04491361197615e-01
4.22653846153846e-02 3.58496085674089e+01 2.03864946435005e-01
4.31192307692308e-02 3.53768847816410e+01 2.03198953861091e-01
4.39730769230769e-02 3.49103944750869e+01 2.02495406671810e-01
4.48269230769231e-02 3.44500554505732e+01 2.01756233607523e-01
4.56807692307692e-02 3.39957865954439e+01 2.00983274368568e-01
4.65346153846154e-02 3.35475078672112e+01 2.00178284838852e-01
4.73884615384615e-02 3.31051402776642e+01 1.99342941710212e-01
4.82423076923077e-02 3.26686058813023e+01 1.98478846863254e-01
4.90961538461539e-02 3.22378277593284e+01 1.97587531430078e-01
4.99500000000000e-02 3.18127300082931e+01 1.96670459554002e-01
5.08038461538462e-02 3.13932377245945e+01 1.95729031907657e-01
5.16576923076923e-02 3.09792769933375e+01 1.94764588956121e-01
5.25115384615385e-02 3.05707748733181e+01 1.93778414020286e-01
5.33653846153846e-02 3.01676593860997e+01 1.92771736123977e-01
5.42192307692308e-02 2.97698595014618e+01 1.91745732675103e-01
5.50730769230769e-02 2.93773051266954e+01 1.90701531962025e-01
5.59269230769231e-02 2.89899270924966e+01 1.89640215526830e-01
5.67807692307692e-02 2.86076571420789e+01 1.88562820301551e-01
5.76346153846154e-02 2.82304279191102e+01 1.87470340783920e-01
5.84884615384615e-02 2.78581729546373e+01 1.86363730925980e-01
5.93423076923077e-02 2.74908266569649e+01 1.85243905984145e-01
6.01961538461539e-02 2.71283242985545e+01 1.84111744261598e-01
6.10500000000000e-02 2.67706020061179e+01 1.82968088738193e-01
6.19038461538462e-02 2.64175967479071e+01 1.81813748624668e-01
6.27576923076923e-02 2.60692463240219e+01 1.80649500818024e-01
6.36115384615385e-02 2.57254893540762e+01 1.79476091292710e-01
6.44653846153846e-02 2.53862652677182e+01 1.78294236404509e-01
6.53192307692308e-02 2.50515142926595e+01 1.77104624139854e-01
6.61730769230769e-02 2.47211774454050e+01 1.75907915287631e-01
6.70269230769231e-02 2.43951965196331e+01 1.74704744576383e-01
6.78807692307692e-02 2.40735140768497e+01 1.73495721682502e-01
6.87346153846154e-02 2.37560734362426e+01 1.72281432317952e-01
6.95884615384615e-02 2.34428186638461e+01 1.71062439142087e-01
7.04423076923077e-02 2.31336945638056e+01 1.69839282683897e-01
7.12961538461539e-02 2.28286466675616e+01 1.68612482219241e-01
7.21500000000000e-02 2.25276212253134e+01 1.67382536594846e-01
7.30038461538462e-02 2.22305651955154e+01 1.66149925025806e-01
7.38576923076923e-02 2.19374262365366e+01 1.64915107844867e-01
7.47115384615385e-02 2.16481526964588e+01 1.63678527229106e-01
7.55653846153846e-02 2.13626936049290e+01 1.62440607882802e-01
7.64192307692308e-02 2.10809986632493e+01 1.61201757700990e-01
7.72730769230769e-02 2.08030182364195e+01 1.59962368393063e-01
7.81269230769231e-02 2.05287033435091e+01 1.58722816099170e-01
7.89807692307692e-02 2.02580056496818e+01 1.57483461923480e-01
7.98346153846154e-02 1.99908774576618e+01 1.56244652545996e-01
8.06884615384615e-02 1.97272716987168e+01 1.55006720712650e-01
8.15423076923077e-02 1.94671419251741e+01 1.53769985747209e-01
8.23961538461539e-02 1.92104423014470e+01 1.52534754041510e-01
8.32500000000000e-02 1.89571275967283e+01 1.51301319515870e-01
8.41038461538462e-02 1.87071531762694e+01 1.50069964070406e-01
8.49576923076923e-02 1.84604749942486e+01 1.48840958008807e-01
8.58115384615385e-02 1.82170495852950e+01 1.47614560454485e-01
8.66653846153846e-02 1.79768340575275e+01 1.46391019741186e-01
8.75192307692308e-02 1.77397860843162e+01 1.45170573797262e-01
8.83730769230769e-02 1.75058638974892e+01 1.43953450506218e-01
8.92269230769231e-02 1.72750262793239e+01 1.42739868069308e-01
9.00807692307692e-02 1.70472325557669e+01 1.41530035309434e-01
9.09346153846154e-02 1.68224425892546e+01 1.40324152043459e-01
9.17884615384615e-02 1.66006167711891e+01 1.39122409364850e-01
9.26423076923077e-02 1.63817160155566e+01 1.37924989948984e-01
9.34961538461539e-02 1.61657017514573e+01 1.36732068346914e-01
9.43500000000000e-02 1.59525359168782e+01 1.35543811260412e-01
9.52038461538462e-02 1.57421809514307e+01 1.34360377814749e-01
9.60576923076923e-02 1.55345997902756e+01 1.33181919813906e-01
9.69115384615385e-02 1.53297558570610e+01 1.32008581994118e-01
9.77653846153846e-02 1.51276130579969e+01 1.30840502260937e-01
9.86192307692308e-02 1.49281357749878e+01 1.29677811925124e-01
9.94730769230769e-02 1.47312888598525e+01 1.28520635923051e-01
1.00326923076923e-01 1.45370376276468e+01 1.27369093030651e-01
1.01180769230769e-01 1.43453478511370e+01 1.26223296074718e-01
1.02034615384615e-01 1.41561857541860e+01 1.25083352155050e-01
1.02888461538462e-01 1.39695180060391e+01 1.23949362860377e-01
1.03742307692308e-01 1.37853117143935e+01 1.22821424302829e-01
1.04596153846154e-01 1.36035344228148e+01 1.21699627408263e-01
1.05450000000000e-01 1.34241541017661e+01 1.20584058218527e-01
1.06303846153846e-01 1.32471391440609e+01 1.19474797872957e-01
1.07157692307692e-01 1.30724583592953e+01 1.18371922835337e-01
1.08011538461538e-01 1.29000809683523e+01 1.17275505101321e-01
1.08865384615385e-01 1.27299765970464e+01 1.16185612200889e-01
1.09719230769231e-01 1.25621152735999e+01 1.15102307444088e-01
1.10573076923077e-01 1.23964674204989e+01 1.14025650178720e-01
1.11426923076923e-01 1.22330038502479e+01 1.12955695759149e-01
1.12280769230769e-01 1.20716957602251e+01 1.11892495737053e-01
1.13134615384615e-01 1.19125147276106e+01 1.10836097990626e-01
1.13988461538462e-01 1.17554327043765e+01 1.09786546893439e-01
1.14842307692308e-01 1.16004220115412e+01 1.08743883302133e-01
1.15696153846154e-01 1.14474553367321e+01 1.07708144760247e-01
1.16550000000000e-01 1.12965057269039e+01 1.06679365713571e-01
1.17403846153846e-01 1.11475465844220e+01 1.05657577469558e-01
1.18257692307692e-01 1.10005516623761e+01 1.04642808354249e-01
1.19111538461538e-01 1.08554950599569e+01 1.03635083854602e-01
1.19965384615385e-01 1.07123512171794e+01 1.02634426597715e-01
1.20819230769231e-01 1.05710949125389e+01 1.01640856525431e-01
1.21673076923077e-01 1.04317012563818e+01 1.00654391080065e-01
1.22526923076923e-01 1.02941456872573e+01 9.96750451589780e-02
1.23380769230769e-01 1.01584039675884e+01 9.87028312479723e-02
1.24234615384615e-01 1.00244521794033e+01 9.77377595060806e-02
1.25088461538462e-01 9.89226672011994e+00 9.67798378829211e-02
1.25942307692308e-01 9.76182429777056e+00 9.58290720913726e-02
1.26796153846154e-01 9.63310192876905e+00 9.48854657541081e-02
1.27650000000000e-01 9.50607693196770e+00 9.39490205605909e-02
1.28503846153846e-01 9.38072692529898e+00 9.30197362186669e-02
1.29357692307692e-01 9.25702982183218e+00 9.20976105655393e-02
1.30211538461538e-01 9.13496382588215e+00 9.11826396675866e-02
1.31065384615385e-01 9.01450742862070e+00 9.02748177895629e-02
1.31919230769231e-01 8.89563940594849e+00 8.93741375212199e-02
1.32773076923077e-01 8.77833881307423e+00 8.84805899138274e-02
1.33626923076923e-01 8.66258498139109e+00 8.75941644307789e-02
1.34480769230769e-01 8.54835751483410e+00 8.67148490427013e-02
1.35334615384615e-01 8.43563628628787e+00 8.58426302838423e-02
1.36188461538462e-01 8.32440143403931e+00 8.49774933351114e-02
1.37042307692308e-01 8.21463335780113e+00 8.41194219909371e-02
1.37896153846154e-01 8.10631271670508e+00 8.32683987664488e-02
1.38750000000000e-01 7.99942042443056e+00 8.24244050138329e-02
1.39603846153846e-01 7.89393764633472e+00 8.15874208731124e-02
1.40457692307692e-01 7.78984579613414e+00 8.07574253519040e-02
1.41311538461538e-01 7.68712653263016e+00 7.99343963964949e-02
1.42165384615385e-01 7.58576175605201e+00 7.91183108578109e-02
1.43019230769231e-01 7.48573360615631e+00 7.83091445846197e-02
1.43873076923077e-01 7.38702445777667e+00 7.75068725253261e-02
1.44726923076923e-01 7.28961691815752e+00 7.67114686796447e-02
1.45580769230769e-01 7.19349382388902e+00 7.59229061673381e-02
1.46434615384615e-01 7.09863823788385e+00 7.51411572659244e-02
1.47288461538462e-01 7.00503344639231e+00 7.43661934701758e-02
1.48142307692308e-01 6.91266295568616e+00 7.35979854579202e-02
1.48996153846154e-01 6.82151049027838e+00 7.28365031694355e-02
1.49850000000000e-01 6.73155998891666e+00 7.20817158947357e-02
1.50703846153846e-01 6.64279560213705e+00 7.13335922269051e-02
1.51557692307692e-01 6.55520168947154e+00 7.05921001200697e-02
1.52411538461538e-01 6.46876281669234e+00 6.98572069405508e-02
1.53265384615385e-01 6.38346375276061e+00 6.91288794330938e-02
1.54119230769231e-01 6.29928946814828e+00 6.84070837902211e-02
1.54973076923077e-01 6.21622513117298e+00 6.76917857289470e-02
1.55826923076923e-01 6.13425610572746e+00 6.69829504458625e-02
1.56680769230769e-01 6.05336794870025e+00 6.62805426672927e-02
1.57534615384615e-01 5.97354640743162e+00 6.55845266744635e-02
1.58388461538462e-01 5.89477741720172e+00 6.48948663464954e-02
1.59242307692308e-01 5.81704709846193e+00 6.42115251275699e-02
1.60096153846154e-01 5.74034175527034e+00 6.35344660862762e-02
1.60950000000000e-01 5.66464787198759e+00 6.28636519816841e-02
1.61803846153846e-01 5.58995211119549e+00 6.21990452207307e-02
1.62657692307692e-01 5.51624131134715e+00 6.15406079006826e-02
1.63511538461538e-01 5.44350248444803e+00 6.08883018462034e-02
1.64365384615385e-01 5.37172281350718e+00 6.02420885775852e-02
1.65219230769231e-01 5.30088965106765e+00 5.96019293627707e-02
1.66073076923077e-01 5.23099051618046e+00 5.89677852756171e-02
1.66926923076923e-01 5.16201309247426e+00 5.83396171553533e-02
1.67780769230769e-01 5.09394522598483e+00 5.77173856434183e-02
1.68634615384615e-01 5.02677492301416e+00 5.71010512000903e-02
1.69488461538462e-01 4.96049034801681e+00 5.64905741357222e-02
1.70342307692308e-01 4.89507982128593e+00 5.58859145804110e-02
1.71196153846154e-01 4.83053181758831e+00 5.52870325286669e-02
1.72050000000000e-01 4.76683496343296e+00 5.46938878897682e-02
1.72903846153846e-01 4.70397803530311e+00 5.41064404496933e-02
1.73757692307692e-01 4.64194995767873e+00 5.35246499023922e-02
1.74611538461538e-01 4.58073980108509e+00 5.29484758767437e-02
1.75465384615385e-01 4.52033677996188e+00 5.23778779075725e-02
1.76319230769231e-01 4.46073025138436e+00 5.18128154749033e-02
1.77173076923077e-01 4.40190971255968e+00 5.12532480484697e-02
1.78026923076923e-01 4.34386479918801e+00 5.06991350517676e-02
1.78880769230769e-01 4.28658528363617e+00 5.01504358892218e-02
1.79734615384615e-01 4.23006107313585e+00 4.96071099569579e-02
1.80588461538462e-01 4.17428220800510e+00 4.90691166655443e-02
1.81442307692308e-01 4.11923885971284e+00 4.85364154126335e-02
1.82296153846154e-01 4.06492132969446e+00 4.80089656167425e-02
1.83150000000000e-01 4.01132004708961e+00 4.74867267558257e-02
1.84003846153846e-01 3.95842556724209e+00 4.69696583337588e-02
1.84857692307692e-01 3.90622857003587e+00 4.64577199034195e-02
1.85711538461538e-01 3.85471985825288e+00 4.59508710863239e-02
1.86565384615385e-01 3.80389035579019e+00 4.54490715466855e-02
1.87419230769231e-01 3.75373110655257e+00 4.49522810211522e-02
1.88273076923077e-01 3.70423327237731e+00 4.44604593529697e-02
1.89126923076923e-01 3.65538813164439e+00 4.39735664604749e-02
1.89980769230769e-01 3.60718707773960e+00 4.34915623571683e-02
1.90834615384615e-01 3.55962161753831e+00 4.30144071584524e-02
1.91688461538462e-01 3.51268336990884e+00 4.25420610981847e-02
1.92542307692308e-01 3.46636406409254e+00 4.20744845043782e-02
1.93396153846154e-01 3.42065553868043e+00 4.16116378248345e-02
1.94250000000000e-01 3.37554973973651e+00 4.11534816568023e-02
1.95103846153846e-01 3.33103871952639e+00 4.06999767177423e-02
1.95957692307692e-01 3.28711463511689e+00 4.02510838623834e-02
1.96811538461538e-01 3.24376974699427e+00 3.98067640970038e-02
1.97665384615385e-01 3.20099641757151e+00 3.93669785565155e-02
1.98519230769231e-01 3.15878711023319e+00 3.89316885270537e-02
1.99373076923077e-01 3.11713438761273e+00 3.85008554722714e-02
2.00226923076923e-01 3.07603091041496e+00 3.80744410059626e-02
2.01080769230769e-01 3.03546943612277e+00 3.76524069068902e-02
2.01934615384615e-01 2.99544281772121e+00 3.72347151227402e-02
2.02788461538462e-01 2.95594400243805e+00 3.68213277821454e-02
2.03642307692308e-01 2.91696603038719e+00 3.64122071733277e-02
2.04496153846154e-01 2.87850203368755e+00 3.60073157635871e-02
2.05350000000000e-01 2.84054523490401e+00 3.56066162221657e-02
2.06203846153846e-01 2.80308894597074e+00 3.52100713949235e-02
2.07057692307692e-01 2.76612656701280e+00 3.48176443169276e-02
2.07911538461538e-01 2.72965158518323e+00 3.44292982228026e-02
2.08765384615385e-01 2.69365757341286e+00 3.40449965266618e-02
2.09619230769231e-01 2.65813818958892e+00 3.36647028392931e-02
2.10473076923077e-01 2.62308717512316e+00 3.32883809884535e-02
2.11326923076923e-01 2.58849835395495e+00 3.29159949952058e-02
2.12180769230769e-01 2.55436563146302e+00 3.25475090848534e-02
2.13034615384615e-01 2.52068299339171e+00 3.21828876889933e-02
2.13888461538462e-01 2.48744450479120e+00 3.18220954542008e-02
2.14742307692308e-01 2.45464430888080e+00 3.14650972234007e-02
2.15596153846154e-01 2.42227662629255e+00 3.11118580506997e-02
2.16450000000000e-01 2.39033575377442e+00 3.07623432190418e-02
2.17303846153846e-01 2.35881606327919e+00 3.04165182183818e-02
2.18157692307692e-01 2.32771200097276e+00 3.00743487549465e-02
2.19011538461538e-01 2.29701808625564e+00 2.97358007586883e-02
2.19865384615385e-01 2.26672891071518e+00 2.94008403658279e-02
2.20719230769231e-01 2.23683913742120e+00 2.90694339319352e-02
2.21573076923077e-01 2.20734349973438e+00 2.87415480476097e-02
2.22426923076923e-01 2.17823680046292e+00 2.84171495181215e-02
2.23280769230769e-01 2.14951391094673e+00 2.80962053714409e-02
2.24134615384615e-01 2.12116977015383e+00 2.77786828590057e-02
2.24988461538462e-01 2.09319938378859e+00 2.74645494619450e-02
2.25842307692308e-01 2.06559782333893e+00 2.71537728749131e-02
2.26696153846154e-01 2.03836022542839e+00 2.68463210173847e-02
2.27550000000000e-01 2.01148179073639e+00 2.65421620473025e-02
2.28403846153846e-01 1.98495778322768e+00 2.62412643423272e-02
2.29257692307692e-01 1.95878352931778e+00 2.59435965066233e-02
2.30111538461538e-01 1.93295441704956e+00 2.56491273761694e-02
2.30965384615385e-01 1.90746589521489e+00 2.53578260036453e-02
2.31819230769231e-01 1.88231347275176e+00 2.50696616683874e-02
2.32673076923077e-01 1.85749271775183e+00 2.47846038885152e-02
2.33526923076923e-01 1.83299925674722e+00 2.45026224034653e-02
2.34380769230769e-01 1.80882877393991e+00 2.42236871798529e-02
2.35234615384615e-01 1.78497701044136e+00 2.39477684113882e-02
2.36088461538462e-01 1.76143976352200e+00 2.36748365232803e-02
2.36942307692308e-01 1.73821288581246e+00 2.34048621582718e-02
2.37796153846154e-01 1.71529228474946e+00 2.31378161852298e-02
2.38650000000000e-01 1.69267392167618e+00 2.28736697096999e-02
2.39503846153846e-01 1.67035381119070e+00 2.26123940578453e-02
2.40357692307692e-01 1.64832802044387e+00 2.23539607813787e-02
2.41211538461538e-01 1.62659266844626e+00 2.20983416612996e-02
2.42065384615385e-01 1.60514392533166e+00 2.18455086948534e-02
2.42919230769231e-01 1.58397801184200e+00 2.15954341030990e-02
2.43773076923077e-01 1.56309119849999e+00 2.13480903402867e-02
2.44626923076923e-01 1.54247980500638e+00 2.11034500789138e-02
2.45480769230769e-01 1.52214019959140e+00 2.08614862139674e-02
2.46334615384615e-01 1.50206879837497e+00 2.06221718622879e-02
2.47188461538462e-01 1.48226206473513e+00 2.03854803656380e-02
2.48042307692308e-01 1.46271650863802e+00 2.01513852786742e-02
2.48896153846154e-01 1.44342868616499e+00 1.99198603754683e-02
2.49750000000000e-01 1.42439519876225e+00 1.96908796576682e-02
2.50603846153846e-01 1.40561269269036e+00 1.94644173407694e-02
2.51457692307692e-01 1.38707785843329e+00 1.92404478576664e-02
2.52311538461538e-01 1.36878743011534e+00 1.90189458612242e-02
2.53165384615385e-01 1.35073818488321e+00 1.87998862130636e-02
2.54019230769231e-01 1.33292694246670e+00 1.85832439893001e-02
2.54873076923077e-01 1.31535056448845e+00 1.83689944877920e-02
2.55726923076923e-01 1.29800595395470e+00 1.81571132153776e-02
2.56580769230769e-01 1.28089005470956e+00 1.79475758909095e-02
2.57434615384615e-01 1.26399985089658e+00 1.77403584442829e-02
2.58288461538462e-01 1.24733236642730e+00 1.75354370185188e-02
2.59142307692308e-01 1.23088466441913e+00 1.73327879594330e-02
2.59996153846154e-01 1.21465384679225e+00 1.71323878205742e-02
2.60850000000000e-01 1.19863705364340e+00 1.69342133695261e-02
2.61703846153846e-01 1.18283146278084e+00 1.67382415761944e-02
2.62557692307692e-01 1.16723428922713e+00 1.65444496153265e-02
2.63411538461538e-01 1.15184278472839e+00 1.63528148682320e-02
2.64265384615385e-01 1.13665423723588e+00 1.61633149131571e-02
2.65119230769231e-01 1.12166597053170e+00 1.59759275296233e-02
2.65973076923077e-01 1.10687534365261e+00 1.57906307040244e-02
2.66826923076923e-01 1.09227975045990e+00 1.56074026187424e-02
2.67680769230769e-01 1.07787661918019e+00 1.54262216542823e-02
2.68534615384615e-01 1.06366341195230e+00 1.52470663881133e-02
2.69388461538462e-01 1.04963762438005e+00 1.50699155960338e-02
