Energy (eV)          EEDF (eV^-(3/2))     First Anisotropy
5.15625000000000e-03 4.25953537344317e-01 1.98806292538316e-04
1.54687500000000e-02 4.23661181091575e-01 3.28506702536726e-04
2.57812500000000e-02 4.21381161623488e-01 4.34251951626770e-04
3.60937500000000e-02 4.19113412547345e-01 5.14945046447612e-04
4.64062500000000e-02 4.16857867827561e-01 5.82540775710029e-04
5.67187500000000e-02 4.14614461783906e-01 6.41549293788686e-04
6.70312500000000e-02 4.12383129089613e-01 6.94299815076348e-04
7.73437500000000e-02 4.10163804769482e-01 7.42196064038430e-04
8.76562500000000e-02 4.07956424197988e-01 7.86167169924336e-04
9.79687500000000e-02 4.05760923097402e-01 8.26868526685069e-04
1.08281250000000e-01 4.03577237535917e-01 8.64784336239369e-04
1.18593750000000e-01 4.01405303925788e-01 9.00285179222676e-04
1.28906250000000e-01 3.99245059021482e-01 9.33662697902102e-04
1.39218750000000e-01 3.97096439917833e-01 9.65151662935284e-04
1.49531250000000e-01 3.94959384048213e-01 9.94944639456341e-04
1.59843750000000e-01 3.92833829182707e-01 1.02320208930081e-03
1.70156250000000e-01 3.90719713426306e-01 1.05005954054876e-03
1.80468750000000e-01 3.88616975217100e-01 1.07563280639928e-03
1.90781250000000e-01 3.86525553324486e-01 1.10002186786730e-03
2.01093750000000e-01 3.84445386847389e-01 1.12331381772178e-03
2.11406250000000e-01 3.82376415212483e-01 1.14558513013980e-03
2.21718750000000e-01 3.80318578172431e-01 1.16690343652526e-03
2.32031250000000e-01 3.78271815804128e-01 1.18732893335117e-03
2.42343750000000e-01 3.76236068506960e-01 1.20691551154489e-03
2.52656250000000e-01 3.74211277001063e-01 1.22571167221332e-03
2.62968750000000e-01 3.72197382325601e-01 1.24376127635631e-03
2.73281250000000e-01 3.70194325837049e-01 1.26110416411087e-03
2.83593750000000e-01 3.68202049207482e-01 1.27777667038568e-03
2.93906250000000e-01 3.66220494422881e-01 1.29381205742654e-03
3.04218750000000e-01 3.64249603781439e-01 1.30924088019334e-03
3.14531250000000e-01 3.62289319891885e-01 1.32409129695012e-03
3.24843750000000e-01 3.60339585671809e-01 1.33838933484434e-03
3.35156250000000e-01 3.58400344346004e-01 1.35215911824750e-03
3.45468750000000e-01 3.56471539444808e-01 1.36542306608609e-03
3.55781250000000e-01 3.54553114802464e-01 1.37820206319264e-03
3.66093750000000e-01 3.52645014555481e-01 1.39051560976716e-03
3.76406250000000e-01 3.50747183141010e-01 1.40238195229558e-03
3.86718750000000e-01 3.48859565295225e-01 1.41381819868236e-03
3.97031250000000e-01 3.46982106051712e-01 1.42484041988039e-03
4.07343750000000e-01 3.45114750739871e-01 1.43546373991921e-03
4.17656250000000e-01 3.43257444983324e-01 1.44570241592333e-03
4.27968750000000e-01 3.41410134698329e-01 1.45556990945938e-03
4.38281250000000e-01 3.39572766092208e-01 1.46507895034342e-03
4.48593750000000e-01 3.37745285661778e-01 1.47424159386880e-03
4.58906250000000e-01 3.35927640191795e-01 1.48306927227223e-03
4.69218750000000e-01 3.34119776753406e-01 1.49157284113845e-03
4.79531250000000e-01 3.32321642702601e-01 1.49976262134489e-03
4.89843750000000e-01 3.30533185678687e-01 1.50764843706475e-03
5.00156250000000e-01 3.28754353602762e-01 1.51523965027612e-03
5.10468750000000e-01 3.26985094676196e-01 1.52254519216623e-03
5.20781250000000e-01 3.25225357379122e-01 1.52957359176988e-03
5.31093750000000e-01 3.23475090468941e-01 1.53633300213613e-03
5.41406250000000e-01 3.21734242978824e-01 1.54283122428386e-03
5.51718750000000e-01 3.20002764216234e-01 1.54907572917185e-03
5.62031250000000e-01 3.18280603761441e-01 1.55507367788307e-03
5.72343750000000e-01 3.16567711466063e-01 1.56083194020128e-03
5.82656250000000e-01 3.14864037451602e-01 1.56635711173398e-03
5.92968750000000e-01 3.13169532107988e-01 1.57165552972127e-03
6.03281250000000e-01 3.11484146092142e-01 1.57673328765358e-03
6.13593750000000e-01 3.09807830326531e-01 1.58159624880660e-03
6.23906250000000e-01 3.08140535997745e-01 1.58625005879245e-03
6.34218750000000e-01 3.06482214555073e-01 1.59070015721426e-03
6.44531250000000e-01 3.04832817709090e-01 1.59495178850150e-03
6.54843750000000e-01 3.03192297430250e-01 1.59901001199739e-03
6.65156250000000e-01 3.01560605947487e-01 1.60287971136097e-03
6.75468750000000e-01 2.99937695746827e-01 1.60656560334121e-03
6.85781250000000e-01 2.98323519569999e-01 1.61007224597477e-03
6.96093750000000e-01 2.96718030413065e-01 1.61340404625249e-03
7.06406250000000e-01 2.95121181525047e-01 1.61656526729814e-03
7.16718750000000e-01 2.93532926406567e-01 1.61956003509739e-03
7.27031250000000e-01 2.91953218808493e-01 1.62239234481103e-03
7.37343750000000e-01 2.90382012730593e-01 1.62506606670450e-03
7.47656250000000e-01 2.88819262420193e-01 1.62758495172172e-03
7.57968750000000e-01 2.87264922370847e-01 1.62995263673009e-03
7.68281250000000e-01 2.85718947321013e-01 1.63217264946070e-03
7.78593750000000e-01 2.84181292252731e-01 1.63424841316470e-03
7.88906250000000e-01 2.82651912390315e-01 1.63618325100669e-03
7.99218750000000e-01 2.81130763199049e-01 1.63798039021326e-03
8.09531250000000e-01 2.79617800383890e-01 1.63964296599315e-03
8.19843750000000e-01 2.78112979888177e-01 1.64117402524495e-03
8.30156250000000e-01 2.76616257892349e-01 1.64257653006651e-03
8.40468750000000e-01 2.75127590812669e-01 1.64385336107908e-03
8.50781250000000e-01 2.73646935299956e-01 1.64500732057811e-03
8.61093750000000e-01 2.72174248238321e-01 1.64604113552231e-03
8.71406250000000e-01 2.70709486743909e-01 1.64695746037064e-03
8.81718750000000e-01 2.69252608163658e-01 1.64775887977740e-03
8.92031250000000e-01 2.67803570074050e-01 1.64844791115409e-03
9.02343750000000e-01 2.66362330279876e-01 1.64902700710580e-03
9.12656250000000e-01 2.64928846813013e-01 1.64949855775017e-03
9.22968750000000e-01 2.63503077931195e-01 1.64986489292609e-03
9.33281250000000e-01 2.62084982116801e-01 1.65012828429758e-03
9.43593750000000e-01 2.60674518075648e-01 1.65029094736067e-03
9.53906250000000e-01 2.59271644735783e-01 1.65035504335768e-03
9.64218750000000e-01 2.57876321246291e-01 1.65032268110427e-03
9.74531250000000e-01 2.56488506976106e-01 1.65019591873493e-03
9.84843750000000e-01 2.55108161512826e-01 1.64997676537058e-03
9.95156250000000e-01 2.53735244661534e-01 1.64966718271308e-03
1.00546875000000e+00 2.52369716443634e-01 1.64926908657075e-03
1.01578125000000e+00 2.51011537095681e-01 1.64878434831821e-03
1.02609375000000e+00 2.49660667068224e-01 1.64821479629423e-03
1.03640625000000e+00 2.48317067024658e-01 1.64756221714136e-03
1.04671875000000e+00 2.46980697840075e-01 1.64682835708951e-03
1.05703125000000e+00 2.45651520600125e-01 1.64601492318684e-03
1.06734375000000e+00 2.44329496599884e-01 1.64512358448087e-03
1.07765625000000e+00 2.43014587342726e-01 1.64415597315210e-03
1.08796875000000e+00 2.41706754539205e-01 1.64311368560226e-03
1.09828125000000e+00 2.40405960105934e-01 1.64199828350024e-03
1.10859375000000e+00 2.39112166164482e-01 1.64081129478685e-03
1.11890625000000e+00 2.37825335040266e-01 1.63955421464090e-03
1.12921875000000e+00 2.36545429261460e-01 1.63822850640864e-03
1.13953125000000e+00 2.35272411557898e-01 1.63683560249779e-03
1.14984375000000e+00 2.34006244859990e-01 1.63537690523837e-03
1.16015625000000e+00 2.32746892297647e-01 1.63385378771170e-03
1.17046875000000e+00 2.31494317199201e-01 1.63226759454873e-03
1.18078125000000e+00 2.30248483090342e-01 1.63061964269953e-03
1.19109375000000e+00 2.29009353693052e-01 1.62891122217509e-03
1.20140625000000e+00 2.27776892924552e-01 1.62714359676285e-03
1.21171875000000e+00 2.26551064896251e-01 1.62531800471687e-03
1.22203125000000e+00 2.25331833912696e-01 1.62343565942363e-03
1.23234375000000e+00 2.24119164470540e-01 1.62149775004512e-03
1.24265625000000e+00 2.22913021257502e-01 1.61950544213973e-03
1.25296875000000e+00 2.21713369151345e-01 1.61745987826233e-03
1.26328125000000e+00 2.20520173218846e-01 1.61536217854367e-03
1.27359375000000e+00 2.19333398714782e-01 1.61321344125059e-03
1.28390625000000e+00 2.18153011080922e-01 1.61101474332793e-03
1.29421875000000e+00 2.16978975945014e-01 1.60876714092245e-03
1.30453125000000e+00 2.15811259119788e-01 1.60647166988980e-03
1.31484375000000e+00 2.14649826601961e-01 1.60412934628514e-03
1.32515625000000e+00 2.13494644571244e-01 1.60174116683814e-03
1.33546875000000e+00 2.12345679389361e-01 1.59930810941293e-03
1.34578125000000e+00 2.11202897599066e-01 1.59683113345373e-03
1.35609375000000e+00 2.10066265923168e-01 1.59431118041635e-03
1.36640625000000e+00 2.08935751263568e-01 1.59174917418655e-03
1.37671875000000e+00 2.07811320700288e-01 1.58914602148569e-03
1.38703125000000e+00 2.06692941490518e-01 1.58650261226383e-03
1.39734375000000e+00 2.05580581067658e-01 1.58381982008116e-03
1.40765625000000e+00 2.04474207040373e-01 1.58109850247811e-03
1.41796875000000e+00 2.03373787191649e-01 1.57833950133456e-03
1.42828125000000e+00 2.02279289477853e-01 1.57554364321796e-03
1.43859375000000e+00 2.01190682027803e-01 1.57271173972190e-03
1.44890625000000e+00 2.00107933141837e-01 1.56984458779500e-03
1.45921875000000e+00 1.99031011290892e-01 1.56694297005972e-03
1.46953125000000e+00 1.97959885115585e-01 1.56400765512270e-03
1.47984375000000e+00 1.96894523425299e-01 1.56103939787594e-03
1.49015625000000e+00 1.95834895197277e-01 1.55803893978972e-03
1.50046875000000e+00 1.94780969575718e-01 1.55500700919761e-03
1.51078125000000e+00 1.93732715870875e-01 1.55194432157320e-03
1.52109375000000e+00 1.92690103558167e-01 1.54885157979955e-03
1.53140625000000e+00 1.91653102277285e-01 1.54572947443108e-03
1.54171875000000e+00 1.90621681831313e-01 1.54257868394860e-03
1.55203125000000e+00 1.89595812185842e-01 1.53939987500750e-03
1.56234375000000e+00 1.88575463468104e-01 1.53619370267930e-03
1.57265625000000e+00 1.87560605966093e-01 1.53296081068663e-03
1.58296875000000e+00 1.86551210127707e-01 1.52970183163245e-03
1.59328125000000e+00 1.85547246559884e-01 1.52641738722309e-03
1.60359375000000e+00 1.84548686027747e-01 1.52310808848548e-03
1.61390625000000e+00 1.83555499453751e-01 1.51977453597900e-03
1.62421875000000e+00 1.82567657916840e-01 1.51641732000168e-03
1.63453125000000e+00 1.81585132651602e-01 1.51303702079143e-03
1.64484375000000e+00 1.80607895047430e-01 1.50963420872208e-03
1.65515625000000e+00 1.79635916647694e-01 1.50620944449451e-03
1.66546875000000e+00 1.78669169148906e-01 1.50276327932332e-03
1.67578125000000e+00 1.77707624399902e-01 1.49929625511858e-03
1.68609375000000e+00 1.76751254401016e-01 1.49580890466304e-03
1.69640625000000e+00 1.75800031303272e-01 1.49230175178557e-03
1.70671875000000e+00 1.74853927407565e-01 1.48877531153011e-03
1.71703125000000e+00 1.73912915163861e-01 1.48523009032041e-03
1.72734375000000e+00 1.72976967170391e-01 1.48166658612113e-03
1.73765625000000e+00 1.72046056172854e-01 1.47808528859490e-03
1.74796875000000e+00 1.71120155063626e-01 1.47448667925582e-03
1.75828125000000e+00 1.70199236880964e-01 1.47087123161946e-03
1.76859375000000e+00 1.69283274808229e-01 1.46723941134948e-03
1.77890625000000e+00 1.68372242173099e-01 1.46359167640020e-03
1.78921875000000e+00 1.67466112446797e-01 1.45992847715663e-03
1.79953125000000e+00 1.66564859243312e-01 1.45625025657126e-03
1.80984375000000e+00 1.65668456318638e-01 1.45255745029728e-03
1.82015625000000e+00 1.64776877570006e-01 1.44885048681924e-03
1.83046875000000e+00 1.63890097035124e-01 1.44512978758056e-03
1.84078125000000e+00 1.63008088891421e-01 1.44139576710828e-03
1.85109375000000e+00 1.62130827455296e-01 1.43764883313509e-03
1.86140625000000e+00 1.61258287181370e-01 1.43388938671897e-03
1.87171875000000e+00 1.60390442661740e-01 1.43011782235933e-03
1.88203125000000e+00 1.59527268625242e-01 1.42633452811154e-03
1.89234375000000e+00 1.58668739936716e-01 1.42253988569878e-03
1.90265625000000e+00 1.57814831596267e-01 1.41873427062098e-03
1.91296875000000e+00 1.56965518738546e-01 1.41491805226201e-03
1.92328125000000e+00 1.56120776632022e-01 1.41109159399477e-03
1.93359375000000e+00 1.55280580678260e-01 1.40725525328319e-03
1.94390625000000e+00 1.54444906411206e-01 1.40340938178262e-03
1.95421875000000e+00 1.53613729496479e-01 1.39955432543864e-03
1.96453125000000e+00 1.52787025730653e-01 1.39569042458286e-03
1.97484375000000e+00 1.51964771040563e-01 1.39181801402715e-03
1.98515625000000e+00 1.51146941482594e-01 1.38793742315630e-03
1.99546875000000e+00 1.50333513241992e-01 1.38404897601820e-03
2.00578125000000e+00 1.49524462632165e-01 1.38015299141255e-03
2.01609375000000e+00 1.48719766093996e-01 1.37624978297763e-03
2.02640625000000e+00 1.47919400195156e-01 1.37233965927531e-03
2.03671875000000e+00 1.47123341629422e-01 1.36842292387468e-03
2.04703125000000e+00 1.46331567215999e-01 1.36449987543364e-03
2.05734375000000e+00 1.45544053898842e-01 1.36057080777887e-03
2.06765625000000e+00 1.44760778745988e-01 1.35663600998453e-03
2.07796875000000e+00 1.43981718948889e-01 1.35269576644924e-03
2.08828125000000e+00 1.43206851821744e-01 1.34875035697151e-03
2.09859375000000e+00 1.42436154800838e-01 1.34480005682372e-03
2.10890625000000e+00 1.41669605443893e-01 1.34084513682493e-03
2.11921875000000e+00 1.40907181429402e-01 1.33688586341197e-03
2.12953125000000e+00 1.40148860555992e-01 1.33292249870938e-03
2.13984375000000e+00 1.39394620741767e-01 1.32895530059775e-03
2.15015625000000e+00 1.38644440023671e-01 1.32498452278099e-03
2.16046875000000e+00 1.37898296556847e-01 1.32101041485254e-03
2.17078125000000e+00 1.37156168613998e-01 1.31703322235992e-03
2.18109375000000e+00 1.36418034584761e-01 1.31305318686816e-03
2.19140625000000e+00 1.35683872975070e-01 1.30907054602228e-03
2.20171875000000e+00 1.34953662406536e-01 1.30508553360852e-03
2.21203125000000e+00 1.34227381615820e-01 1.30109837961434e-03
2.22234375000000e+00 1.33505009454019e-01 1.29710931028742e-03
2.23265625000000e+00 1.32786524886044e-01 1.29311854819347e-03
2.24296875000000e+00 1.32071906990014e-01 1.28912631227327e-03
2.25328125000000e+00 1.31361134956639e-01 1.28513281789828e-03
2.26359375000000e+00 1.30654188088623e-01 1.28113827692538e-03
2.27390625000000e+00 1.29951045800054e-01 1.27714289775111e-03
2.28421875000000e+00 1.29251687615808e-01 1.27314688536433e-03
2.29453125000000e+00 1.28556093170952e-01 1.26915044139803e-03
2.30484375000000e+00 1.27864242210151e-01 1.26515376418037e-03
2.31515625000000e+00 1.27176114587079e-01 1.26115704878514e-03
2.32546875000000e+00 1.26491690263831e-01 1.25716048708053e-03
2.33578125000000e+00 1.25810949310340e-01 1.25316426777771e-03
2.34609375000000e+00 1.25133871903796e-01 1.24916857647853e-03
2.35640625000000e+00 1.24460438328071e-01 1.24517359572209e-03
2.36671875000000e+00 1.23790628973143e-01 1.24117950503064e-03
2.37703125000000e+00 1.23124424334524e-01 1.23718648095470e-03
2.38734375000000e+00 1.22461805012696e-01 1.23319469711747e-03
2.39765625000000e+00 1.21802751712540e-01 1.22920432425845e-03
2.40796875000000e+00 1.21147245242781e-01 1.22521553027628e-03
2.41828125000000e+00 1.20495266515425e-01 1.22122848027086e-03
2.42859375000000e+00 1.19846796545201e-01 1.21724333658480e-03
2.43890625000000e+00 1.19201816449015e-01 1.21326025884402e-03
2.44921875000000e+00 1.18560307445395e-01 1.20927940399799e-03
2.45953125000000e+00 1.17922250853944e-01 1.20530092635895e-03
2.46984375000000e+00 1.17287628094799e-01 1.20132497764081e-03
2.48015625000000e+00 1.16656420688087e-01 1.19735170699725e-03
2.49046875000000e+00 1.16028610253390e-01 1.19338126105895e-03
2.50078125000000e+00 1.15404178509206e-01 1.18941378397058e-03
2.51109375000000e+00 1.14783107272421e-01 1.18544941742719e-03
2.52140625000000e+00 1.14165378457774e-01 1.18148830070965e-03
2.53171875000000e+00 1.13550974077336e-01 1.17753057071973e-03
2.54203125000000e+00 1.12939876239984e-01 1.17357636201474e-03
2.55234375000000e+00 1.12332067150877e-01 1.16962580684151e-03
2.56265625000000e+00 1.11727529110943e-01 1.16567903516970e-03
2.57296875000000e+00 1.11126244516362e-01 1.16173617472463e-03
2.58328125000000e+00 1.10528195858049e-01 1.15779735101978e-03
2.59359375000000e+00 1.09933365721151e-01 1.15386268738844e-03
2.60390625000000e+00 1.09341736784534e-01 1.14993230501527e-03
2.61421875000000e+00 1.08753291820285e-01 1.14600632296710e-03
2.62453125000000e+00 1.08168013693203e-01 1.14208485822301e-03
2.63484375000000e+00 1.07585885360304e-01 1.13816802570447e-03
2.64515625000000e+00 1.07006889870326e-01 1.13425593830480e-03
2.65546875000000e+00 1.06431010363233e-01 1.13034870691782e-03
2.66578125000000e+00 1.05858230069724e-01 1.12644644046668e-03
2.67609375000000e+00 1.05288532310747e-01 1.12254924593170e-03
2.68640625000000e+00 1.04721900497009e-01 1.11865722837809e-03
2.69671875000000e+00 1.04158318128498e-01 1.11477049098318e-03
2.70703125000000e+00 1.03597768794001e-01 1.11088913506307e-03
2.71734375000000e+00 1.03040236170622e-01 1.10701326009917e-03
2.72765625000000e+00 1.02485704023313e-01 1.10314296376415e-03
2.73796875000000e+00 1.01934156204396e-01 1.09927834194731e-03
2.74828125000000e+00 1.01385576653097e-01 1.09541948877996e-03
2.75859375000000e+00 1.00839949395076e-01 1.09156649666022e-03
2.76890625000000e+00 1.00297258541961e-01 1.08771945627743e-03
2.77921875000000e+00 9.97574882908873e-02 1.08387845663617e-03
2.78953125000000e+00 9.92206229240366e-02 1.08004358508001e-03
2.79984375000000e+00 9.86866468081790e-02 1.07621492731491e-03
2.81015625000000e+00 9.81555443942182e-02 1.07239256743214e-03
2.82046875000000e+00 9.76273002167387e-02 1.06857658793097e-03
2.83078125000000e+00 9.71018988935550e-02 1.06476706974094e-03
2.84109375000000e+00 9.65793251252641e-02 1.06096409224393e-03
2.85140625000000e+00 9.60595636948000e-02 1.05716773329593e-03
2.86171875000000e+00 9.55425994669902e-02 1.05337806924818e-03
2.87203125000000e+00 9.50284173881155e-02 1.04959517496825e-03
2.88234375000000e+00 9.45170024854712e-02 1.04581912386086e-03
2.89265625000000e+00 9.40083398669315e-02 1.04204998788844e-03
2.90296875000000e+00 9.35024147205152e-02 1.03828783759094e-03
2.91328125000000e+00 9.29992123139552e-02 1.03453274210583e-03
2.92359375000000e+00 9.24987179942689e-02 1.03078476918764e-03
2.93390625000000e+00 9.20009171873318e-02 1.02704398522718e-03
2.94421875000000e+00 9.15057953974532e-02 1.02331045527069e-03
2.95453125000000e+00 9.10133382069536e-02 1.01958424303845e-03
2.96484375000000e+00 9.05235312757455e-02 1.01586541094323e-03
2.97515625000000e+00 9.00363603409153e-02 1.01215402010840e-03
2.98546875000000e+00 8.95518112163084e-02 1.00845013038596e-03
2.99578125000000e+00 8.90698697921157e-02 1.00475380037421e-03
3.00609375000000e+00 8.85905220344630e-02 1.00106508743521e-03
3.01640625000000e+00 8.81137539850024e-02 9.97384047711809e-04
3.02671875000000e+00 8.76395517605055e-02 9.93710736144657e-04
3.03703125000000e+00 8.71679015524595e-02 9.90045206488960e-04
3.04734375000000e+00 8.66987896266648e-02 9.86387511330753e-04
3.05765625000000e+00 8.62322023228354e-02 9.82737702103383e-04
3.06796875000000e+00 8.57681260542007e-02 9.79095829103307e-04
3.07828125000000e+00 8.53065473071102e-02 9.75461941505802e-04
3.08859375000000e+00 8.48474526406400e-02 9.71836087380815e-04
3.09890625000000e+00 8.43908286862012e-02 9.68218313708066e-04
3.10921875000000e+00 8.39366621471505e-02 9.64608666392273e-04
3.11953125000000e+00 8.34849397984034e-02 9.61007190277917e-04
3.12984375000000e+00 8.30356484860490e-02 9.57413929164034e-04
3.14015625000000e+00 8.25887751269666e-02 9.53828925818889e-04
3.15046875000000e+00 8.21443067084454e-02 9.50252221994036e-04
3.16078125000000e+00 8.17022302878046e-02 9.46683858438536e-04
3.17109375000000e+00 8.12625329920176e-02 9.43123874912800e-04
3.18140625000000e+00 8.08252020173365e-02 9.39572310202360e-04
3.19171875000000e+00 8.03902246289192e-02 9.36029202131508e-04
3.20203125000000e+00 7.99575881604589e-02 9.32494587576533e-04
3.21234375000000e+00 7.95272800138152e-02 9.28968502478810e-04
3.22265625000000e+00 7.90992876586471e-02 9.25450981857853e-04
3.23296875000000e+00 7.86735986320481e-02 9.21942059824272e-04
3.24328125000000e+00 7.82502005381836e-02 9.18441769592265e-04
3.25359375000000e+00 7.78290810479295e-02 9.14950143492050e-04
