Energy (eV)          EEDF (eV^-(3/2))     First Anisotropy
3.89062500000000e-02 5.79447091767672e-02 3.83308871449698e-05
1.16718750000000e-01 5.73228686853851e-02 6.31679177328783e-05
1.94531250000000e-01 5.67077015486573e-02 8.30523241652625e-05
2.72343750000000e-01 5.60991361507170e-02 9.79554449264795e-05
3.50156250000000e-01 5.54971016442297e-02 1.10217793373065e-04
4.27968750000000e-01 5.49015279421641e-02 1.20729415698899e-04
5.05781250000000e-01 5.43123457096351e-02 1.29953446655039e-04
5.83593750000000e-01 5.37294863558328e-02 1.38171058649435e-04
6.61406250000000e-01 5.31528820260374e-02 1.45569713560819e-04
7.39218750000000e-01 5.25824655937202e-02 1.52282595566581e-04
8.17031250000000e-01 5.20181706527283e-02 1.58408801785781e-04
8.94843750000000e-01 5.14599315095546e-02 1.64024710660198e-04
9.72656250000000e-01 5.09076831756895e-02 1.69190850281137e-04
1.05046875000000e+00 5.03613613600552e-02 1.73956280711777e-04
1.12828125000000e+00 4.98209024615214e-02 1.78361514824239e-04
1.20609375000000e+00 4.92862435615006e-02 1.82440535914149e-04
1.28390625000000e+00 4.87573224166235e-02 1.86222233667743e-04
1.36171875000000e+00 4.82340774514931e-02 1.89731452418800e-04
1.43953125000000e+00 4.77164477515160e-02 1.92989773262746e-04
1.51734375000000e+00 4.72043730558108e-02 1.96016108787602e-04
1.59515625000000e+00 4.66977937501931e-02 1.98827162925131e-04
1.67296875000000e+00 4.61966508602348e-02 2.01437791806561e-04
1.75078125000000e+00 4.57008860443992e-02 2.03861290694481e-04
1.82859375000000e+00 4.52104415872486e-02 2.06109624854112e-04
1.90640625000000e+00 4.47252603927252e-02 2.08193617316067e-04
1.98421875000000e+00 4.42452859775043e-02 2.10123103071368e-04
2.06203125000000e+00 4.37704624644190e-02 2.11907056827734e-04
2.13984375000000e+00 4.33007345759544e-02 2.13553699723815e-04
2.21765625000000e+00 4.28360476278129e-02 2.15070589135517e-04
2.29546875000000e+00 4.23763475225481e-02 2.16464694776336e-04
2.37328125000000e+00 4.19215807432664e-02 2.17742463596428e-04
2.45109375000000e+00 4.14716943473974e-02 2.18909875458280e-04
2.52890625000000e+00 4.10266359605299e-02 2.19972491164233e-04
2.60671875000000e+00 4.05863537703151e-02 2.20935494100539e-04
2.68453125000000e+00 4.01507965204343e-02 2.21803726521003e-04
2.76234375000000e+00 3.97199135046322e-02 2.22581721303538e-04
2.84015625000000e+00 3.92936545608136e-02 2.23273729862803e-04
2.91796875000000e+00 3.88719700652038e-02 2.23883746782719e-04
2.99578125000000e+00 3.84548109265715e-02 2.24415531636394e-04
3.07359375000000e+00 3.80421285805136e-02 2.24872628383816e-04
3.15140625000000e+00 3.76338749838020e-02 2.25258382674460e-04
3.22921875000000e+00 3.72300026087897e-02 2.25575957330514e-04
3.30703125000000e+00 3.68304644378786e-02 2.25828346244253e-04
3.38484375000000e+00 3.64352139580453e-02 2.26018386887956e-04
3.46265625000000e+00 3.60442051554267e-02 2.26148771605936e-04
3.54046875000000e+00 3.56573925099625e-02 2.26222057833862e-04
3.61828125000000e+00 3.52747309900966e-02 2.26240677370446e-04
3.69609375000000e+00 3.48961760475343e-02 2.26206944809393e-04
3.77390625000000e+00 3.45216836120562e-02 2.26123065225165e-04
3.85171875000000e+00 3.41512100863875e-02 2.25991141193870e-04
3.92953125000000e+00 3.37847123411229e-02 2.25813179220158e-04
4.00734375000000e+00 3.34221477097053e-02 2.25591095632178e-04
4.08515625000000e+00 3.30634739834589e-02 2.25326721998970e-04
4.16296875000000e+00 3.27086494066752e-02 2.25021810118131e-04
4.24078125000000e+00 3.23576326717521e-02 2.24678036616018e-04
4.31859375000000e+00 3.20103829143848e-02 2.24297007197777e-04
4.39640625000000e+00 3.16668597088087e-02 2.23880260580244e-04
4.47421875000000e+00 3.13270230630930e-02 2.23429272137131e-04
4.55203125000000e+00 3.09908334144851e-02 2.22945457282672e-04
4.62984375000000e+00 3.06582516248047e-02 2.22430174617065e-04
4.70765625000000e+00 3.03292389758876e-02 2.21884728854609e-04
4.78546875000000e+00 3.00037571650780e-02 2.21310373553262e-04
4.86328125000000e+00 2.96817683007697e-02 2.20708313662373e-04
4.94109375000000e+00 2.93632348979947e-02 2.20079707903757e-04
5.01890625000000e+00 2.90481198740594e-02 2.19425670999731e-04
5.09671875000000e+00 2.87363865442275e-02 2.18747275760366e-04
5.17453125000000e+00 2.84279986174491e-02 2.18045555041146e-04
5.25234375000000e+00 2.81229201921363e-02 2.17321503581088e-04
5.33015625000000e+00 2.78211157519831e-02 2.16576079730451e-04
5.40796875000000e+00 2.75225501618311e-02 2.15810207076321e-04
5.48578125000000e+00 2.72271886635788e-02 2.15024775973743e-04
5.56359375000000e+00 2.69349968721355e-02 2.14220644989181e-04
5.64140625000000e+00 2.66459407714182e-02 2.13398642262643e-04
5.71921875000000e+00 2.63599867103915e-02 2.12559566794258e-04
5.79703125000000e+00 2.60771013991499e-02 2.11704189660540e-04
5.87484375000000e+00 2.57972519050426e-02 2.10833255165140e-04
5.95265625000000e+00 2.55204056488395e-02 2.09947481928591e-04
6.03046875000000e+00 2.52465304009382e-02 2.09047563921046e-04
6.10828125000000e+00 2.49755942776121e-02 2.08134171441794e-04
6.18609375000000e+00 2.47075657372988e-02 2.07207952049004e-04
6.26390625000000e+00 2.44424135769275e-02 2.06269531442845e-04
6.34171875000000e+00 2.41801069282872e-02 2.05319514304973e-04
6.41953125000000e+00 2.39206152544327e-02 2.04358485097074e-04
6.49734375000000e+00 2.36639083461293e-02 2.03387008820930e-04
6.57515625000000e+00 2.34099563183368e-02 2.02405631742426e-04
6.65296875000000e+00 2.31587296067295e-02 2.01414882081595e-04
6.73078125000000e+00 2.29101989642547e-02 2.00415270670672e-04
6.80859375000000e+00 2.26643354577281e-02 1.99407291582115e-04
6.88640625000000e+00 2.24211104644652e-02 1.98391422728253e-04
6.96421875000000e+00 2.21804956689493e-02 1.97368126434142e-04
7.04203125000000e+00 2.19424630595349e-02 1.96337849985200e-04
7.11984375000000e+00 2.17069849251868e-02 1.95301026150982e-04
7.19765625000000e+00 2.14740338522540e-02 1.94258073686389e-04
7.27546875000000e+00 2.12435827212786e-02 1.93209397811575e-04
7.35328125000000e+00 2.10156047038380e-02 1.92155390671621e-04
7.43109375000000e+00 2.07900732594221e-02 1.91096431777070e-04
7.50890625000000e+00 2.05669621323437e-02 1.90032888426373e-04
7.58671875000000e+00 2.03462453486812e-02 1.88965116111096e-04
7.66453125000000e+00 2.01278972132555e-02 1.87893458904810e-04
7.74234375000000e+00 1.99118923066382e-02 1.86818249836466e-04
7.82015625000000e+00 1.96982054821925e-02 1.85739811249046e-04
7.89796875000000e+00 1.94868118631458e-02 1.84658455144225e-04
7.97578125000000e+00 1.92776868396935e-02 1.83574483513677e-04
8.05359375000000e+00 1.90708060661340e-02 1.82488188657693e-04
8.13140625000000e+00 1.88661454580343e-02 1.81399853491736e-04
8.20921875000000e+00 1.86636811894267e-02 1.80309751841477e-04
8.28703125000000e+00 1.84633896900343e-02 1.79218148726844e-04
8.36484375000000e+00 1.82652476425278e-02 1.78125300635625e-04
8.44265625000000e+00 1.80692319798103e-02 1.77031455787051e-04
8.52046875000000e+00 1.78753198823322e-02 1.75936854385849e-04
8.59828125000000e+00 1.76834887754347e-02 1.74841728867190e-04
8.67609375000000e+00 1.74937163267216e-02 1.73746304132910e-04
8.75390625000000e+00 1.73059804434593e-02 1.72650797779390e-04
8.83171875000000e+00 1.71202592700051e-02 1.71555420317507e-04
8.90953125000000e+00 1.69365311852628e-02 1.70460375384934e-04
8.98734375000000e+00 1.67547748001654e-02 1.69365859951135e-04
9.06515625000000e+00 1.65749689551852e-02 1.68272064515363e-04
9.14296875000000e+00 1.63970927178706e-02 1.67179173297972e-04
9.22078125000000e+00 1.62211253804089e-02 1.66087364425283e-04
9.29859375000000e+00 1.60470464572159e-02 1.64996810108322e-04
9.37640625000000e+00 1.58748356825508e-02 1.63907676815604e-04
9.45421875000000e+00 1.57044730081570e-02 1.62820125440262e-04
9.53203125000000e+00 1.55359386009281e-02 1.61734311461747e-04
9.60984375000000e+00 1.53692128405990e-02 1.60650385102252e-04
9.68765625000000e+00 1.52042763174619e-02 1.59568491478139e-04
9.76546875000000e+00 1.50411098301065e-02 1.58488770746531e-04
9.84328125000000e+00 1.48796943831848e-02 1.57411358247253e-04
9.92109375000000e+00 1.47200111851994e-02 1.56336384640300e-04
9.99890625000000e+00 1.45620416463163e-02 1.55263976038998e-04
1.00767187500000e+01 1.44057673762004e-02 1.54194254139034e-04
1.01545312500000e+01 1.42511701818747e-02 1.53127336343530e-04
1.02323437500000e+01 1.40982320656021e-02 1.52063335884214e-04
1.03101562500000e+01 1.39469352227907e-02 1.51002361938934e-04
1.03879687500000e+01 1.37972620399203e-02 1.49944519745620e-04
1.04657812500000e+01 1.36491950924925e-02 1.48889910712781e-04
1.05435937500000e+01 1.35027171430019e-02 1.47838632526704e-04
1.06214062500000e+01 1.33578111389295e-02 1.46790779255462e-04
1.06992187500000e+01 1.32144602107572e-02 1.45746441449828e-04
1.07770312500000e+01 1.30726476700044e-02 1.44705706241228e-04
1.08548437500000e+01 1.29323570072848e-02 1.43668657436812e-04
1.09326562500000e+01 1.27935718903845e-02 1.42635375611746e-04
1.10104687500000e+01 1.26562761623606e-02 1.41605938198846e-04
1.10882812500000e+01 1.25204538396605e-02 1.40580419575610e-04
1.11660937500000e+01 1.23860891102609e-02 1.39558891148764e-04
1.12439062500000e+01 1.22531663318271e-02 1.38541421436366e-04
1.13217187500000e+01 1.21216700298920e-02 1.37528076147593e-04
1.13995312500000e+01 1.19915848960546e-02 1.36518918260274e-04
1.14773437500000e+01 1.18628957861977e-02 1.35514008096216e-04
1.15551562500000e+01 1.17355877187250e-02 1.34513403394434e-04
1.16329687500000e+01 1.16096458728171e-02 1.33517159382340e-04
1.17107812500000e+01 1.14850555867058e-02 1.32525328844927e-04
1.17885937500000e+01 1.13618023559676e-02 1.31537962192061e-04
1.18664062500000e+01 1.12398718318347e-02 1.30555107523906e-04
1.19442187500000e+01 1.11192498195250e-02 1.29576810694537e-04
1.20220312500000e+01 1.09999222765893e-02 1.28603115373846e-04
1.20998437500000e+01 1.08818753112765e-02 1.27634063107737e-04
1.21776562500000e+01 1.07650951809167e-02 1.26669693376688e-04
1.22554687500000e+01 1.06495682903208e-02 1.25710043652729e-04
1.23332812500000e+01 1.05352811901984e-02 1.24755149454887e-04
1.24110937500000e+01 1.04222205755915e-02 1.23805044403144e-04
1.24889062500000e+01 1.03103732843258e-02 1.22859760270938e-04
1.25667187500000e+01 1.01997262954788e-02 1.21919327036273e-04
1.26445312500000e+01 1.00902667278630e-02 1.20983772931471e-04
1.27223437500000e+01 9.98198183852742e-03 1.20053124491599e-04
1.28001562500000e+01 9.87485902127323e-03 1.19127406601608e-04
1.28779687500000e+01 9.76888580518664e-03 1.18206642542254e-04
1.29557812500000e+01 9.66404985318692e-03 1.17290854034798e-04
1.30335937500000e+01 9.56033896059016e-03 1.16380061284512e-04
1.31114062500000e+01 9.45774105368849e-03 1.15474283023088e-04
1.31892187500000e+01 9.35624418834444e-03 1.14573536549926e-04
1.32670312500000e+01 9.25583654860049e-03 1.13677837772340e-04
1.33448437500000e+01 9.15650644530342e-03 1.12787201244731e-04
1.34226562500000e+01 9.05824231474357e-03 1.11901640206740e-04
1.35004687500000e+01 8.96103271730859e-03 1.11021166620422e-04
1.35782812500000e+01 8.86486633615169e-03 1.10145791206471e-04
1.36560937500000e+01 8.76973197587414e-03 1.09275523479499e-04
1.37339062500000e+01 8.67561856122197e-03 1.08410371782420e-04
1.38117187500000e+01 8.58251513579658e-03 1.07550343319942e-04
1.38895312500000e+01 8.49041086077929e-03 1.06695444191226e-04
1.39673437500000e+01 8.39929501366947e-03 1.05845679421699e-04
1.40451562500000e+01 8.30915698703626e-03 1.05001052994063e-04
1.41229687500000e+01 8.21998628728372e-03 1.04161567878517e-04
1.42007812500000e+01 8.13177253342915e-03 1.03327226062196e-04
1.42785937500000e+01 8.04450545589460e-03 1.02498028577893e-04
1.43564062500000e+01 7.95817489531133e-03 1.01673975532043e-04
1.44342187500000e+01 7.87277080133703e-03 1.00855066132001e-04
1.45120312500000e+01 7.78828323148586e-03 1.00041298712635e-04
1.45898437500000e+01 7.70470234997091e-03 9.92326707622428e-05
1.46676562500000e+01 7.62201842655920e-03 9.84291789478296e-05
1.47454687500000e+01 7.54022183543890e-03 9.76308191397466e-05
1.48232812500000e+01 7.45930305409868e-03 9.68375864357103e-05
1.49010937500000e+01 7.37925266221922e-03 9.60494751842241e-05
1.49789062500000e+01 7.30006134057642e-03 9.52664790074135e-05
1.50567187500000e+01 7.22171986995656e-03 9.44885908232890e-05
1.51345312500000e+01 7.14421913008300e-03 9.37158028674595e-05
1.52123437500000e+01 7.06755009855442e-03 9.29481067142925e-05
1.52901562500000e+01 6.99170384979447e-03 9.21854932975589e-05
1.53679687500000e+01 6.91667155401267e-03 9.14279529305614e-05
1.54457812500000e+01 6.84244447617649e-03 9.06754753257585e-05
1.55235937500000e+01 6.76901397499442e-03 8.99280496139044e-05
1.56014062500000e+01 6.69637150191000e-03 8.91856643627067e-05
1.56792187500000e+01 6.62450860010662e-03 8.84483075950266e-05
1.57570312500000e+01 6.55341690352297e-03 8.77159668066287e-05
1.58348437500000e+01 6.48308813587915e-03 8.69886289834850e-05
1.59126562500000e+01 6.41351410971312e-03 8.62662806186495e-05
1.59904687500000e+01 6.34468672542754e-03 8.55489077287192e-05
1.60682812500000e+01 6.27659797034688e-03 8.48364958698818e-05
1.61460937500000e+01 6.20923991778458e-03 8.41290301535678e-05
1.62239062500000e+01 6.14260472612024e-03 8.34264952617087e-05
1.63017187500000e+01 6.07668463788674e-03 8.27288754616223e-05
1.63795312500000e+01 6.01147197886714e-03 8.20361546205269e-05
1.64573437500000e+01 5.94695915720127e-03 8.13483162196961e-05
1.65351562500000e+01 5.88313866250190e-03 8.06653433682609e-05
1.66129687500000e+01 5.82000306498039e-03 7.99872188166640e-05
1.66907812500000e+01 5.75754501458178e-03 7.93139249697889e-05
1.67685937500000e+01 5.69575724012909e-03 7.86454438997567e-05
1.68464062500000e+01 5.63463254847682e-03 7.79817573584013e-05
1.69242187500000e+01 5.57416382367357e-03 7.73228467894356e-05
1.70020312500000e+01 5.51434402613360e-03 7.66686933403212e-05
1.70798437500000e+01 5.45516619181735e-03 7.60192778738389e-05
1.71576562500000e+01 5.39662343142064e-03 7.53745809793605e-05
1.72354687500000e+01 5.33870892957267e-03 7.47345829838515e-05
1.73132812500000e+01 5.28141594404263e-03 7.40992639625900e-05
1.73910937500000e+01 5.22473780495472e-03 7.34686037496208e-05
1.74689062500000e+01 5.16866791401173e-03 7.28425819479462e-05
1.75467187500000e+01 5.11319974372682e-03 7.22211779394631e-05
1.76245312500000e+01 5.05832683666369e-03 7.16043708946444e-05
1.77023437500000e+01 5.00404280468474e-03 7.09921397819820e-05
1.77801562500000e+01 4.95034132820745e-03 7.03844633771865e-05
1.78579687500000e+01 4.89721615546865e-03 6.97813202721592e-05
1.79357812500000e+01 4.84466110179667e-03 6.91826888837443e-05
1.80135937500000e+01 4.79267004889141e-03 6.85885474622294e-05
1.80914062500000e+01 4.74123694411201e-03 6.79988740996634e-05
1.81692187500000e+01 4.69035579977225e-03 6.74136467379503e-05
1.82470312500000e+01 4.64002069244348e-03 6.68328431767292e-05
1.83248437500000e+01 4.59022576226500e-03 6.62564410810635e-05
1.84026562500000e+01 4.54096521226192e-03 6.56844179889268e-05
1.84804687500000e+01 4.49223330767026e-03 6.51167513185015e-05
1.85582812500000e+01 4.44402437526934e-03 6.45534183752821e-05
1.86360937500000e+01 4.39633280272132e-03 6.39943963589980e-05
1.87139062500000e+01 4.34915303791782e-03 6.34396623703653e-05
1.87917187500000e+01 4.30247958833357e-03 6.28891934176527e-05
1.88695312500000e+01 4.25630702038699e-03 6.23429664230774e-05
1.89473437500000e+01 4.21062995880761e-03 6.18009582290440e-05
1.90251562500000e+01 4.16544308601032e-03 6.12631456042045e-05
1.91029687500000e+01 4.12074114147630e-03 6.07295052493742e-05
1.91807812500000e+01 4.07651892114061e-03 6.02000138032839e-05
1.92585937500000e+01 4.03277127678635e-03 5.96746478481802e-05
1.93364062500000e+01 3.98949311544530e-03 5.91533839152835e-05
1.94142187500000e+01 3.94667939880506e-03 5.86361984900902e-05
1.94920312500000e+01 3.90432514262246e-03 5.81230680175374e-05
1.95698437500000e+01 3.86242541614331e-03 5.76139689070370e-05
1.96476562500000e+01 3.82097534152842e-03 5.71088775373680e-05
1.97254687500000e+01 3.77997009328568e-03 5.66077702614330e-05
1.98032812500000e+01 3.73940489770834e-03 5.61106234108886e-05
1.98810937500000e+01 3.69927503231922e-03 5.56174133006521e-05
1.99589062500000e+01 3.65957582532101e-03 5.51281162332860e-05
2.00367187500000e+01 3.62030265505229e-03 5.46427085032582e-05
2.01145312500000e+01 3.58145094944958e-03 5.41611664010832e-05
2.01923437500000e+01 3.54301618551504e-03 5.36834662173522e-05
2.02701562500000e+01 3.50499388878988e-03 5.32095842466493e-05
2.03479687500000e+01 3.46737963283354e-03 5.27394967913577e-05
2.04257812500000e+01 3.43016903870830e-03 5.22731801653618e-05
2.05035937500000e+01 3.39335777446954e-03 5.18106106976415e-05
2.05814062500000e+01 3.35694155466141e-03 5.13517647357615e-05
2.06592187500000e+01 3.32091613981793e-03 5.08966186492668e-05
2.07370312500000e+01 3.28527733596947e-03 5.04451488329771e-05
2.08148437500000e+01 3.25002099415445e-03 4.99973317101841e-05
2.08926562500000e+01 3.21514300993639e-03 4.95531437357619e-05
2.09704687500000e+01 3.18063932292604e-03 4.91125613991780e-05
2.10482812500000e+01 3.14650591630871e-03 4.86755612274210e-05
2.11260937500000e+01 3.11273881637661e-03 4.82421197878397e-05
2.12039062500000e+01 3.07933409206627e-03 4.78122136908972e-05
2.12817187500000e+01 3.04628785450092e-03 4.73858195928422e-05
2.13595312500000e+01 3.01359625653769e-03 4.69629141983004e-05
2.14373437500000e+01 2.98125549231981e-03 4.65434742627828e-05
2.15151562500000e+01 2.94926179683349e-03 4.61274765951211e-05
2.15929687500000e+01 2.91761144546964e-03 4.57148980598258e-05
2.16707812500000e+01 2.88630075359026e-03 4.53057155793677e-05
2.17485937500000e+01 2.85532607609945e-03 4.48999061363909e-05
2.18264062500000e+01 2.82468380701912e-03 4.44974467758562e-05
2.19042187500000e+01 2.79437037906915e-03 4.40983146071148e-05
2.19820312500000e+01 2.76438226325209e-03 4.37024868059079e-05
2.20598437500000e+01 2.73471596844236e-03 4.33099406163097e-05
2.21376562500000e+01 2.70536804097982e-03 4.29206533526041e-05
2.22154687500000e+01 2.67633506426765e-03 4.25346024010961e-05
2.22932812500000e+01 2.64761365837469e-03 4.21517652218638e-05
2.23710937500000e+01 2.61920047964188e-03 4.17721193504507e-05
2.24489062500000e+01 2.59109222029304e-03 4.13956423994965e-05
2.25267187500000e+01 2.56328560804978e-03 4.10223120603163e-05
2.26045312500000e+01 2.53577740575055e-03 4.06521061044197e-05
2.26823437500000e+01 2.50856441097380e-03 4.02850023849775e-05
2.27601562500000e+01 2.48164345566511e-03 3.99209788382350e-05
2.28379687500000e+01 2.45501140576844e-03 3.95600134848712e-05
2.29157812500000e+01 2.42866516086124e-03 3.92020844313142e-05
2.29935937500000e+01 2.40260165379350e-03 3.88471698709995e-05
2.30714062500000e+01 2.37681785033069e-03 3.84952480855791e-05
2.31492187500000e+01 2.35131074880053e-03 3.81462974460921e-05
2.32270312500000e+01 2.32607737974356e-03 3.78002964140840e-05
2.33048437500000e+01 2.30111480556739e-03 3.74572235426786e-05
2.33826562500000e+01 2.27642012020478e-03 3.71170574776104e-05
2.34604687500000e+01 2.25199044877528e-03 3.67797769582127e-05
2.35382812500000e+01 2.22782294725056e-03 3.64453608183636e-05
2.36160937500000e+01 2.20391480212332e-03 3.61137879873903e-05
2.36939062500000e+01 2.18026323007973e-03 3.57850374909359e-05
2.37717187500000e+01 2.15686547767546e-03 3.54590884517846e-05
2.38495312500000e+01 2.13371882101504e-03 3.51359200906501e-05
2.39273437500000e+01 2.11082056543485e-03 3.48155117269293e-05
2.40051562500000e+01 2.08816804518935e-03 3.44978427794162e-05
2.40829687500000e+01 2.06575862314076e-03 3.41828927669806e-05
2.41607812500000e+01 2.04358969045208e-03 3.38706413092172e-05
2.42385937500000e+01 2.02165866628332e-03 3.35610681270534e-05
2.43164062500000e+01 1.99996299749110e-03 3.32541530433343e-05
2.43942187500000e+01 1.97850015833140e-03 3.29498759833658e-05
2.44720312500000e+01 1.95726765016550e-03 3.26482169754288e-05
2.45498437500000e+01 1.93626300116915e-03 3.23491561512729e-05
