Energy (eV)          EEDF (eV^-(3/2))     First Anisotropy
6.18918918918919e-04 2.32267288235952e+01 1.28509034308594e-02
1.85675675675676e-03 2.30111109134967e+01 2.11932448606567e-02
3.09459459459459e-03 2.27974946232929e+01 2.79053897388763e-02
4.33243243243243e-03 2.25858613722268e+01 3.29609932985625e-02
5.57027027027027e-03 2.23761927506781e+01 3.71414477992215e-02
6.80810810810811e-03 2.21684705206642e+01 4.07432457227959e-02
8.04594594594595e-03 2.19626766134968e+01 4.39203441303968e-02
9.28378378378378e-03 2.17587931284162e+01 4.67660214369844e-02
1.05216216216216e-02 2.15568023304291e+01 4.93423436906013e-02
1.17594594594595e-02 2.13566866499212e+01 5.16933198944932e-02
1.29972972972973e-02 2.11584286785012e+01 5.38516321780904e-02
1.42351351351351e-02 2.09620111720360e+01 5.58424224472578e-02
1.54729729729730e-02 2.07674170439916e+01 5.76855781911672e-02
1.67108108108108e-02 2.05746293687401e+01 5.93971897486788e-02
1.79486486486486e-02 2.03836313765544e+01 6.09905210852028e-02
1.91864864864865e-02 2.01944064526240e+01 6.24766793404753e-02
2.04243243243243e-02 2.00069381380829e+01 6.38650913985871e-02
2.16621621621622e-02 1.98212101259455e+01 6.51638515081005e-02
2.29000000000000e-02 1.96372062599934e+01 6.63799800410870e-02
2.41378378378378e-02 1.94549105353341e+01 6.75196205103820e-02
2.53756756756757e-02 1.92743070943648e+01 6.85881915841142e-02
2.66135135135135e-02 1.90953802279186e+01 6.95905062637872e-02
2.78513513513514e-02 1.89181143720146e+01 7.05308667688860e-02
2.90891891891892e-02 1.87424941066827e+01 7.14131404378470e-02
3.03270270270270e-02 1.85685041561134e+01 7.22408217298604e-02
3.15648648648649e-02 1.83961293857742e+01 7.30170830983240e-02
3.28027027027027e-02 1.82253548012238e+01 7.37448167955959e-02
3.40405405405405e-02 1.80561655480754e+01 7.44266700895845e-02
3.52783783783784e-02 1.78885469090088e+01 7.50650747184349e-02
3.65162162162162e-02 1.77224843041285e+01 7.56622718179500e-02
3.77540540540541e-02 1.75579632884694e+01 7.62203333210484e-02
3.89918918918919e-02 1.73949695508330e+01 7.67411799934287e-02
4.02297297297297e-02 1.72334889135670e+01 7.72265972420449e-02
4.14675675675676e-02 1.70735073302739e+01 7.76782488095050e-02
4.27054054054054e-02 1.69150108846597e+01 7.80976884419910e-02
4.39432432432432e-02 1.67579857902257e+01 7.84863703620205e-02
4.51810810810811e-02 1.66024183878653e+01 7.88456583364545e-02
4.64189189189189e-02 1.64482951458459e+01 7.91768336634838e-02
4.76567567567568e-02 1.62956026577551e+01 7.94811023737779e-02
4.88945945945946e-02 1.61443276413910e+01 7.97596013723399e-02
5.01324324324324e-02 1.59944569383614e+01 8.00134041565243e-02
5.13702702702703e-02 1.58459775119297e+01 8.02435258111022e-02
5.26081081081081e-02 1.56988764468641e+01 8.04509274803863e-02
5.38459459459459e-02 1.55531409475796e+01 8.06365205109838e-02
5.50837837837838e-02 1.54087583370655e+01 8.08011699572443e-02
5.63216216216216e-02 1.52657160564272e+01 8.09456979514926e-02
5.75594594594595e-02 1.51240016631335e+01 8.10708867584634e-02
5.87972972972973e-02 1.49836028299708e+01 8.11774813576455e-02
6.00351351351351e-02 1.48445073445518e+01 8.12661920029430e-02
6.12729729729730e-02 1.47067031074771e+01 8.13376964593871e-02
6.25108108108108e-02 1.45701781320410e+01 8.13926420427959e-02
6.37486486486487e-02 1.44349205426215e+01 8.14316475919711e-02
6.49864864864865e-02 1.43009185736758e+01 8.14553050827032e-02
6.62243243243243e-02 1.41681605692215e+01 8.14641812845357e-02
6.74621621621622e-02 1.40366349813072e+01 8.14588192870569e-02
6.87000000000000e-02 1.39063303690326e+01 8.14397397430756e-02
6.99378378378378e-02 1.37772353980148e+01 8.14074421972328e-02
7.11756756756757e-02 1.36493388387872e+01 8.13624062308220e-02
7.24135135135135e-02 1.35226295664246e+01 8.13050925184903e-02
7.36513513513514e-02 1.33970965591251e+01 8.12359438986895e-02
7.48891891891892e-02 1.32727288972717e+01 8.11553861993209e-02
7.61270270270270e-02 1.31495157628879e+01 8.10638291559345e-02
7.73648648648649e-02 1.30274464382838e+01 8.09616672677016e-02
7.86027027027027e-02 1.29065103051413e+01 8.08492804529467e-02
7.98405405405405e-02 1.27866968439644e+01 8.07270348179453e-02
8.10783783783784e-02 1.26679956326663e+01 8.05952833022315e-02
8.23162162162162e-02 1.25503963461506e+01 8.04543662789938e-02
8.35540540540541e-02 1.24338887550479e+01 8.03046121959140e-02
8.47918918918919e-02 1.23184627248415e+01 8.01463380288643e-02
8.60297297297297e-02 1.22041082153174e+01 7.99798498388449e-02
8.72675675675676e-02 1.20908152793534e+01 7.98054432958279e-02
8.85054054054054e-02 1.19785740620674e+01 7.96234040464939e-02
8.97432432432432e-02 1.18673748002679e+01 7.94340081976088e-02
9.09810810810811e-02 1.17572078211948e+01 7.92375227071358e-02
9.22189189189189e-02 1.16480635420804e+01 7.90342057499471e-02
9.34567567567568e-02 1.15399324690142e+01 7.88243071316530e-02
9.46945945945946e-02 1.14328051961295e+01 7.86080685501131e-02
9.59324324324324e-02 1.13266724050600e+01 7.83857239699504e-02
9.71702702702703e-02 1.12215248637627e+01 7.81574999169692e-02
9.84081081081081e-02 1.11173534260748e+01 7.79236157539391e-02
9.96459459459459e-02 1.10141490306486e+01 7.76842840174248e-02
1.00883783783784e-01 1.09119027000911e+01 7.74397105934021e-02
1.02121621621622e-01 1.08106055405186e+01 7.71900949791599e-02
1.03359459459459e-01 1.07102487406115e+01 7.69356304573270e-02
1.04597297297297e-01 1.06108235716148e+01 7.66765046317603e-02
1.05835135135135e-01 1.05123213842540e+01 7.64128994166928e-02
1.07072972972973e-01 1.04147336103292e+01 7.61449910114838e-02
1.08310810810811e-01 1.03180517611795e+01 7.58729504414952e-02
1.09548648648649e-01 1.02222674269460e+01 7.55969436272784e-02
1.10786486486486e-01 1.01273722758406e+01 7.53171314611719e-02
1.12024324324324e-01 1.00333580540983e+01 7.50336702832264e-02
1.13262162162162e-01 9.94021658320772e+00 7.47467118378693e-02
1.14500000000000e-01 9.84793976126996e+00 7.44564032192190e-02
1.15737837837838e-01 9.75651956159632e+00 7.41628873355983e-02
1.16975675675676e-01 9.66594803201126e+00 7.38663029449946e-02
1.18213513513514e-01 9.57621729416141e+00 7.35667846987098e-02
1.19451351351351e-01 9.48731954342967e+00 7.32644635521951e-02
1.20689189189189e-01 9.39924704643973e+00 7.29594667022544e-02
1.21927027027027e-01 9.31199214221615e+00 7.26519175149828e-02
1.23164864864865e-01 9.22554724090110e+00 7.23419359303520e-02
1.24402702702703e-01 9.13990482309424e+00 7.20296384752170e-02
1.25640540540541e-01 9.05505743920001e+00 7.17151382847201e-02
1.26878378378378e-01 8.97099770931258e+00 7.13985454615599e-02
1.28116216216216e-01 8.88771832095826e+00 7.10799670019951e-02
1.29354054054054e-01 8.80521203008924e+00 7.07595067140642e-02
1.30591891891892e-01 8.72347165990518e+00 7.04372655739467e-02
1.31829729729730e-01 8.64249010022844e+00 7.01133417239233e-02
1.33067567567568e-01 8.56226030688732e+00 6.97878304786319e-02
1.34305405405405e-01 8.48277530157900e+00 6.94608246424936e-02
1.35543243243243e-01 8.40402816982036e+00 6.91324144298470e-02
1.36781081081081e-01 8.32601206180111e+00 6.88026873783999e-02
1.38018918918919e-01 8.24872019129888e+00 6.84717286659248e-02
1.39256756756757e-01 8.17214583508795e+00 6.81396210981514e-02
1.40494594594595e-01 8.09628233235649e+00 6.78064451764778e-02
1.41732432432432e-01 8.02112308412604e+00 6.74722790927027e-02
1.42970270270270e-01 7.94666155309769e+00 6.71371990065415e-02
1.44208108108108e-01 7.87289126181255e+00 6.68012789630892e-02
1.45445945945946e-01 7.79980579336991e+00 6.64645908045179e-02
1.46683783783784e-01 7.72739879043756e+00 6.61272044485539e-02
1.47921621621622e-01 7.65566395470005e+00 6.57891878690051e-02
1.49159459459459e-01 7.58459504631037e+00 6.54506070838802e-02
1.50397297297297e-01 7.51418588372445e+00 6.51115264045099e-02
1.51635135135135e-01 7.44443034202199e+00 6.47720083532164e-02
1.52872972972973e-01 7.37532235352464e+00 6.44321135758421e-02
1.54110810810811e-01 7.30685590688088e+00 6.40919010926794e-02
1.55348648648649e-01 7.23902504654384e+00 6.37514282750074e-02
1.56586486486486e-01 7.17182387225325e+00 6.34107508287779e-02
1.57824324324324e-01 7.10524653886177e+00 6.30699230194462e-02
1.59062162162162e-01 7.03928725479876e+00 6.27289975912000e-02
1.60300000000000e-01 6.97394028260279e+00 6.23880256815885e-02
1.61537837837838e-01 6.90919993807396e+00 6.20470570486824e-02
1.62775675675676e-01 6.84506058977978e+00 6.17061400451666e-02
1.64013513513514e-01 6.78151665856562e+00 6.13653215991528e-02
1.65251351351351e-01 6.71856261737583e+00 6.10246474179686e-02
1.66489189189189e-01 6.65619298984532e+00 6.06841619098340e-02
1.67727027027027e-01 6.59440235075844e+00 6.03439081013715e-02
1.68964864864865e-01 6.53318532526255e+00 6.00039278440494e-02
1.70202702702703e-01 6.47253658840052e+00 5.96642617869318e-02
1.71440540540541e-01 6.41245086464810e+00 5.93249493557081e-02
1.72678378378378e-01 6.35292292773204e+00 5.89860289380955e-02
1.73916216216216e-01 6.29394759933655e+00 5.86475378085065e-02
1.75154054054054e-01 6.23551974949864e+00 5.83095120489141e-02
1.76391891891892e-01 6.17763429587753e+00 5.79719867370711e-02
1.77629729729730e-01 6.12028620331242e+00 5.76349959186992e-02
1.78867567567568e-01 6.06347048338515e+00 5.72985725855314e-02
1.80105405405405e-01 6.00718219423729e+00 5.69627488445062e-02
1.81343243243243e-01 5.95141643938015e+00 5.66275558457328e-02
1.82581081081081e-01 5.89616836803504e+00 5.62930237069704e-02
1.83818918918919e-01 5.84143317445390e+00 5.59591816857215e-02
1.85056756756757e-01 5.78720609750086e+00 5.56260581514020e-02
1.86294594594595e-01 5.73348242023892e+00 5.52936806071092e-02
1.87532432432432e-01 5.68025746951921e+00 5.49620756673043e-02
1.88770270270270e-01 5.62752661579947e+00 5.46312692103582e-02
1.90008108108108e-01 5.57528527206116e+00 5.43012863104911e-02
1.91245945945946e-01 5.52352889409607e+00 5.39721511665365e-02
1.92483783783784e-01 5.47225297988033e+00 5.36438872574282e-02
1.93721621621622e-01 5.42145306918342e+00 5.33165173148772e-02
1.94959459459459e-01 5.37112474317994e+00 5.29900633010836e-02
1.96197297297297e-01 5.32126362426982e+00 5.26645465486956e-02
1.97435135135135e-01 5.27186537507896e+00 5.23399876962433e-02
1.98672972972973e-01 5.22292569870537e+00 5.20164066206485e-02
1.99910810810811e-01 5.17444033813574e+00 5.16938225800750e-02
2.01148648648649e-01 5.12640507587546e+00 5.13722541872647e-02
2.02386486486486e-01 5.07881573358178e+00 5.10517193875486e-02
2.03624324324324e-01 5.03166817188651e+00 5.07322355874900e-02
2.04862162162162e-01 4.98495828947276e+00 5.04138195937954e-02
2.06100000000000e-01 4.93868202328581e+00 5.00964875495195e-02
2.07337837837838e-01 4.89283534798883e+00 4.97802550655159e-02
2.08575675675676e-01 4.84741427561293e+00 4.94651371946071e-02
2.09813513513514e-01 4.80241485521035e+00 4.91511484100929e-02
2.11051351351351e-01 4.75783317268057e+00 4.88383027241877e-02
2.12289189189189e-01 4.71366534991622e+00 4.85266136303361e-02
2.13527027027027e-01 4.66990754498335e+00 4.82160940429989e-02
2.14764864864865e-01 4.62655595161326e+00 4.79067564188025e-02
2.16002702702703e-01 4.58360679887145e+00 4.75986127316506e-02
2.17240540540541e-01 4.54105635082981e+00 4.72916744518658e-02
2.18478378378378e-01 4.49890090639666e+00 4.69859526554094e-02
2.19716216216216e-01 4.45713679852580e+00 4.66814579694596e-02
2.20954054054054e-01 4.41576039437016e+00 4.63782005156562e-02
2.22191891891892e-01 4.37476809480696e+00 4.60761900219212e-02
2.23429729729730e-01 4.33415633412461e+00 4.57754357985736e-02
2.24667567567568e-01 4.29392157971278e+00 4.54759467181937e-02
2.25905405405405e-01 4.25406033189685e+00 4.51777313164624e-02
2.27143243243243e-01 4.21456912320470e+00 4.48807977408932e-02
2.28381081081081e-01 4.17544451849714e+00 4.45851536973834e-02
2.29618918918919e-01 4.13668311452397e+00 4.42908065535428e-02
2.30856756756757e-01 4.09828153962778e+00 4.39977633158521e-02
2.32094594594595e-01 4.06023645345105e+00 4.37060306383263e-02
2.33332432432432e-01 4.02254454664535e+00 4.34156148033392e-02
2.34570270270270e-01 3.98520254071163e+00 4.31265218136180e-02
2.35808108108108e-01 3.94820718732784e+00 4.28387573444323e-02
2.37045945945946e-01 3.91155526845648e+00 4.25523266937807e-02
2.38283783783784e-01 3.87524359593354e+00 4.22672348767570e-02
2.39521621621622e-01 3.83926901119139e+00 4.19834866039691e-02
2.40759459459459e-01 3.80362838498398e+00 4.17010862631704e-02
2.41997297297297e-01 3.76831861723194e+00 4.14200380044059e-02
2.43235135135135e-01 3.73333663639825e+00 4.11403456950427e-02
2.44472972972973e-01 3.69867939957841e+00 4.08620128729252e-02
2.45710810810811e-01 3.66434389211566e+00 4.05850428337686e-02
2.46948648648649e-01 3.63032712733886e+00 4.03094386106252e-02
2.48186486486486e-01 3.59662614630274e+00 4.00352029563374e-02
2.49424324324324e-01 3.56323801763803e+00 3.97623384224139e-02
2.50662162162162e-01 3.53015983697126e+00 3.94908473167488e-02
2.51900000000000e-01 3.49738872699979e+00 3.92207316595953e-02
2.53137837837838e-01 3.46492183713145e+00 3.89519932645712e-02
2.54375675675676e-01 3.43275634323658e+00 3.86846337191549e-02
2.55613513513514e-01 3.40088944740253e+00 3.84186543679543e-02
2.56851351351351e-01 3.36931837778894e+00 3.81540563858390e-02
2.58089189189189e-01 3.33804038808805e+00 3.78908407382042e-02
2.59327027027027e-01 3.30705275758666e+00 3.76290081396075e-02
2.60564864864865e-01 3.27635279082839e+00 3.73685591289084e-02
2.61802702702703e-01 3.24593781737925e+00 3.71094940507617e-02
2.63040540540541e-01 3.21580519159539e+00 3.68518130397098e-02
2.64278378378378e-01 3.18595229248374e+00 3.65955160880313e-02
2.65516216216216e-01 3.15637652319967e+00 3.63406030084051e-02
2.66754054054054e-01 3.12707531109745e+00 3.60870733950598e-02
2.67991891891892e-01 3.09804610741366e+00 3.58349266935242e-02
2.69229729729730e-01 3.06928638704544e+00 3.55841621830964e-02
2.70467567567568e-01 3.04079364833099e+00 3.53347789617194e-02
2.71705405405405e-01 3.01256541291536e+00 3.50867760089812e-02
2.72943243243243e-01 2.98459922528258e+00 3.48401521510515e-02
2.74181081081081e-01 2.95689265279625e+00 3.45949060241865e-02
2.75418918918919e-01 2.92944328540252e+00 3.43510361395224e-02
2.76656756756757e-01 2.90224873542045e+00 3.41085408664794e-02
2.77894594594595e-01 2.87530663733444e+00 3.38674184365466e-02
2.79132432432432e-01 2.84861464758837e+00 3.36276669290781e-02
2.80370270270270e-01 2.82217044445762e+00 3.33892843291082e-02
2.81608108108108e-01 2.79597172761793e+00 3.31522684947445e-02
2.82845945945946e-01 2.77001621817615e+00 3.29166171232345e-02
2.84083783783784e-01 2.74430165839444e+00 3.26823278104671e-02
2.85321621621622e-01 2.71882581149398e+00 3.24493980354402e-02
2.86559459459459e-01 2.69358646146039e+00 3.22178251467952e-02
2.87797297297297e-01 2.66858141292079e+00 3.19876064165699e-02
2.89035135135135e-01 2.64380849074176e+00 3.17587390095787e-02
2.90272972972973e-01 2.61926554005278e+00 3.15312199515512e-02
2.91510810810811e-01 2.59495042598730e+00 3.13050461844738e-02
2.92748648648649e-01 2.57086103349716e+00 3.10802145519079e-02
2.93986486486487e-01 2.54699526716859e+00 3.08567217862333e-02
2.95224324324324e-01 2.52335105110427e+00 3.06345645586537e-02
2.96462162162162e-01 2.49992632854829e+00 3.04137394504392e-02
2.97700000000000e-01 2.47671906190311e+00 3.01942429230169e-02
2.98937837837838e-01 2.45372723248659e+00 2.99760713694684e-02
3.00175675675676e-01 2.43094884035633e+00 2.97592211006585e-02
3.01413513513514e-01 2.40838190413581e+00 2.95436883331603e-02
3.02651351351351e-01 2.38602446090131e+00 2.93294692357943e-02
3.03889189189189e-01 2.36387456583187e+00 2.91165599026282e-02
3.05127027027027e-01 2.34193029222071e+00 2.89049563248939e-02
3.06364864864865e-01 2.32018973124702e+00 2.86946544389314e-02
3.07602702702703e-01 2.29865099180987e+00 2.84856501130897e-02
3.08840540540541e-01 2.27731220036382e+00 2.82779391363045e-02
3.10078378378378e-01 2.25617150081062e+00 2.80715172614336e-02
3.11316216216216e-01 2.23522705417234e+00 2.78663801799013e-02
3.12554054054054e-01 2.21447703859801e+00 2.76625234953311e-02
3.13791891891892e-01 2.19391964914928e+00 2.74599427682062e-02
3.15029729729730e-01 2.17355309764326e+00 2.72586335035034e-02
3.16267567567568e-01 2.15337561249718e+00 2.70585911398880e-02
3.17505405405405e-01 2.13338543862473e+00 2.68598110900852e-02
3.18743243243243e-01 2.11358083713061e+00 2.66622887170724e-02
3.19981081081081e-01 2.09396008531322e+00 2.64660193093224e-02
3.21218918918919e-01 2.07452147646309e+00 2.62709981224179e-02
3.22456756756757e-01 2.05526331971438e+00 2.60772203673807e-02
3.23694594594595e-01 2.03618393989792e+00 2.58846812123608e-02
3.24932432432432e-01 2.01728167739543e+00 2.56933757725325e-02
3.26170270270270e-01 1.99855488804131e+00 2.55032991472758e-02
3.27408108108108e-01 1.98000194284017e+00 2.53144463980452e-02
3.28645945945946e-01 1.96162122796561e+00 2.51268125253541e-02
3.29883783783784e-01 1.94341114457263e+00 2.49403925071178e-02
3.31121621621622e-01 1.92537010865862e+00 2.47551812877624e-02
3.32359459459459e-01 1.90749655092553e+00 2.45711737686771e-02
3.33597297297297e-01 1.88978891668608e+00 2.43883648428794e-02
3.34835135135135e-01 1.87224566559956e+00 2.42067493742324e-02
3.36072972972973e-01 1.85486527166773e+00 2.40263221758335e-02
3.37310810810811e-01 1.83764622305843e+00 2.38470780457752e-02
3.38548648648649e-01 1.82058702197409e+00 2.36690117568674e-02
3.39786486486486e-01 1.80368618452152e+00 2.34921180476200e-02
3.41024324324324e-01 1.78694224062218e+00 2.33163916545775e-02
3.42262162162162e-01 1.77035373376520e+00 2.31418272927981e-02
3.43500000000000e-01 1.75391922100065e+00 2.29684196355631e-02
3.44737837837838e-01 1.73763727277377e+00 2.27961633477335e-02
3.45975675675676e-01 1.72150647280060e+00 2.26250530760604e-02
3.47213513513514e-01 1.70552541794482e+00 2.24550834406701e-02
3.48451351351351e-01 1.68969271813216e+00 2.22862490652296e-02
3.49689189189189e-01 1.67400699611924e+00 2.21185445586130e-02
3.50927027027027e-01 1.65846688748481e+00 2.19519644958454e-02
3.52164864864865e-01 1.64307104047377e+00 2.17865034492369e-02
3.53402702702703e-01 1.62781811587960e+00 2.16221559792428e-02
3.54640540540541e-01 1.61270678692789e+00 2.14589166264203e-02
3.55878378378378e-01 1.59773573919469e+00 2.12967799395846e-02
3.57116216216216e-01 1.58290367039012e+00 2.11357404585906e-02
3.58354054054054e-01 1.56820929034788e+00 2.09757926964346e-02
3.59591891891892e-01 1.55365132087851e+00 2.08169311683170e-02
3.60829729729730e-01 1.53922849565819e+00 2.06591503830242e-02
3.62067567567568e-01 1.52493956011863e+00 2.05024448353380e-02
3.63305405405405e-01 1.51078327136921e+00 2.03468090323186e-02
3.64543243243243e-01 1.49675839799433e+00 2.01922374771320e-02
3.65781081081081e-01 1.48286372004154e+00 2.00387246522415e-02
3.67018918918919e-01 1.46909802888337e+00 1.98862650465416e-02
3.68256756756757e-01 1.45546012711228e+00 1.97348531472347e-02
3.69494594594595e-01 1.44194882843646e+00 1.95844834405545e-02
3.70732432432432e-01 1.42856295757671e+00 1.94351504046766e-02
3.71970270270270e-01 1.41530135019274e+00 1.92868485339860e-02
3.73208108108108e-01 1.40216285269546e+00 1.91395723240321e-02
3.74445945945946e-01 1.38914632223371e+00 1.89933162558968e-02
3.75683783783784e-01 1.37625062656562e+00 1.88480748212567e-02
3.76921621621622e-01 1.36347464396013e+00 1.87038425148034e-02
3.78159459459459e-01 1.35081726309942e+00 1.85606138275543e-02
3.79397297297297e-01 1.33827738300878e+00 1.84183832695212e-02
3.80635135135135e-01 1.32585391288061e+00 1.82771453555764e-02
3.81872972972973e-01 1.31354577206038e+00 1.81368945907657e-02
3.83110810810811e-01 1.30135188992541e+00 1.79976254937269e-02
3.84348648648649e-01 1.28927120579185e+00 1.78593325895448e-02
3.85586486486486e-01 1.27730266882234e+00 1.77220104034363e-02
3.86824324324324e-01 1.26544523795927e+00 1.75856534819302e-02
3.88062162162162e-01 1.25369788175982e+00 1.74502563795918e-02
3.89300000000000e-01 1.24205957838114e+00 1.73158136452237e-02
3.90537837837838e-01 1.23052931546635e+00 1.71823198437477e-02
