Energy(eV)           EEDF(eV^-(3/2))      First Anisotropy
5.00000000000000e-03 4.55832047235436e-01 5.18831566905946e-01 
1.50000000000000e-02 4.03948890544842e-01 4.04886116661544e-01 
2.50000000000000e-02 3.74854823903127e-01 2.42454501232527e-01 
3.50000000000000e-02 3.55457990298336e-01 1.69726295415008e-01 
4.50000000000000e-02 3.40909564820126e-01 1.30939813019892e-01 
5.50000000000000e-02 3.29270027694358e-01 1.06699696164865e-01 
6.50000000000000e-02 3.19569625587153e-01 9.00790468960225e-02 
7.50000000000000e-02 3.11254218315153e-01 7.79607696978690e-02 
8.50000000000000e-02 3.03977471647579e-01 6.87285980675229e-02 
9.50000000000000e-02 2.97508498701649e-01 6.14589546036034e-02 
1.05000000000000e-01 2.91685680726858e-01 5.55851010313752e-02 
1.15000000000000e-01 2.86391478495374e-01 5.07397087277436e-02 
1.25000000000000e-01 2.81537738981310e-01 4.66741257721870e-02 
1.35000000000000e-01 2.77056653340936e-01 4.32139738946941e-02 
1.45000000000000e-01 2.72894944202371e-01 4.02333140173050e-02 
1.55000000000000e-01 2.69009990537475e-01 3.76389034105004e-02 
1.65000000000000e-01 2.65367163520271e-01 3.53602228712863e-02 
1.75000000000000e-01 2.61937945963218e-01 3.33429469135213e-02 
1.85000000000000e-01 2.58698574137566e-01 3.15445447484666e-02 
1.95000000000000e-01 2.55629037013525e-01 2.99312422194922e-02 
2.05000000000000e-01 2.52712325693668e-01 2.84758772910314e-02 
2.15000000000000e-01 2.49933861555318e-01 2.71563566547582e-02 
2.25000000000000e-01 2.47281054362716e-01 2.59545255589239e-02 
2.35000000000000e-01 2.44742956443534e-01 2.48553272465130e-02 
2.45000000000000e-01 2.42309988913414e-01 2.38461689334930e-02 
2.55000000000000e-01 2.39973722656835e-01 2.29164374267007e-02 
2.65000000000000e-01 2.37726701428074e-01 2.20571247235267e-02 
2.75000000000000e-01 2.35562297712130e-01 2.12605355127408e-02 
2.85000000000000e-01 2.33474594325525e-01 2.05200564036145e-02 
2.95000000000000e-01 2.31458286431407e-01 1.98299721975267e-02 
3.05000000000000e-01 2.29508599886020e-01 1.91853183790393e-02 
3.15000000000000e-01 2.27621222755599e-01 1.85817617592939e-02 
3.25000000000000e-01 2.25792247534161e-01 1.80155031951984e-02 
3.35000000000000e-01 2.24018122116559e-01 1.74831977623031e-02 
3.45000000000000e-01 2.22295607981701e-01 1.69818888333570e-02 
3.55000000000000e-01 2.20621744349888e-01 1.65089533157070e-02 
3.65000000000000e-01 2.18993817318559e-01 1.60620559038999e-02 
3.75000000000000e-01 2.17409333169108e-01 1.56391106619833e-02 
3.85000000000000e-01 2.15865995186163e-01 1.52382486008282e-02 
3.95000000000000e-01 2.14361683448942e-01 1.48577901865482e-02 
4.05000000000000e-01 2.12894437148853e-01 1.44962219265782e-02 
4.15000000000000e-01 2.11462439063627e-01 1.41521763447243e-02 
4.25000000000000e-01 2.10064001879908e-01 1.38244147863166e-02 
4.35000000000000e-01 2.08697556106363e-01 1.35118125975144e-02 
4.45000000000000e-01 2.07361639360405e-01 1.32133463048818e-02 
4.55000000000000e-01 2.06054886845387e-01 1.29280824871715e-02 
4.65000000000000e-01 2.04776022862971e-01 1.26551680843125e-02 
4.75000000000000e-01 2.03523853228524e-01 1.23938219315974e-02 
4.85000000000000e-01 2.02297258476652e-01 1.21433273420686e-02 
4.95000000000000e-01 2.01095187760111e-01 1.19030255887376e-02 
5.05000000000000e-01 1.99916653358904e-01 1.16723101618010e-02 
5.15000000000000e-01 1.98760725727750e-01 1.14506216954252e-02 
5.25000000000000e-01 1.97626529019819e-01 1.12374434747502e-02 
5.35000000000000e-01 1.96513237032800e-01 1.10322974471373e-02 
5.45000000000000e-01 1.95420069530392e-01 1.08347406728458e-02 
5.55000000000000e-01 1.94346288898231e-01 1.06443621596804e-02 
5.65000000000000e-01 1.93291197098455e-01 1.04607800339938e-02 
5.75000000000000e-01 1.92254132891433e-01 1.02836390070775e-02 
5.85000000000000e-01 1.91234469297040e-01 1.01126081015702e-02 
5.95000000000000e-01 1.90231611271118e-01 9.94737860726888e-03 
6.05000000000000e-01 1.89244993575586e-01 9.78766223979036e-03 
6.15000000000000e-01 1.88274078823160e-01 9.63318947897765e-03 
6.25000000000000e-01 1.87318355679791e-01 9.48370806690468e-03 
6.35000000000000e-01 1.86377337209779e-01 9.33898164788102e-03 
6.45000000000000e-01 1.85450559350214e-01 9.19878853503503e-03 
6.55000000000000e-01 1.84537579502772e-01 9.06292058994090e-03 
6.65000000000000e-01 1.83637975232226e-01 8.93118220338246e-03 
6.75000000000000e-01 1.82751343062096e-01 8.80338936676120e-03 
6.85000000000000e-01 1.81877297358874e-01 8.67936882488193e-03 
6.95000000000000e-01 1.81015469297120e-01 8.55895730191111e-03 
7.05000000000000e-01 1.80165505898492e-01 8.44200079324828e-03 
7.15000000000000e-01 1.79327069138470e-01 8.32835391684592e-03 
7.25000000000000e-01 1.78499835115123e-01 8.21787931823442e-03 
7.35000000000000e-01 1.77683493274823e-01 8.11044712414388e-03 
7.45000000000000e-01 1.76877745690294e-01 8.00593444014702e-03 
7.55000000000000e-01 1.76082306386794e-01 7.90422488824327e-03 
7.65000000000000e-01 1.75296900712645e-01 7.80520818072505e-03 
7.75000000000000e-01 1.74521264750649e-01 7.70877972705059e-03 
7.85000000000000e-01 1.73755144767235e-01 7.61484027077819e-03 
7.95000000000000e-01 1.72998296696493e-01 7.52329555391035e-03 
8.05000000000000e-01 1.72250485656453e-01 7.43405600627106e-03 
8.15000000000000e-01 1.71511485495239e-01 7.34703645775867e-03 
8.25000000000000e-01 1.70781078364901e-01 7.26215587153162e-03 
8.35000000000000e-01 1.70059054320932e-01 7.17933709637755e-03 
8.45000000000000e-01 1.69345210945626e-01 7.09850663667355e-03 
8.55000000000000e-01 1.68639352993598e-01 7.01959443849348e-03 
8.65000000000000e-01 1.67941292057927e-01 6.94253369055986e-03 
8.75000000000000e-01 1.67250846255486e-01 6.86726063885021e-03 
8.85000000000000e-01 1.66567839930157e-01 6.79371441377585e-03 
8.95000000000000e-01 1.65892103372731e-01 6.72183686895381e-03 
9.05000000000000e-01 1.65223472556366e-01 6.65157243066858e-03 
9.15000000000000e-01 1.64561788886597e-01 6.58286795721330e-03 
9.25000000000000e-01 1.63906898964924e-01 6.51567260735716e-03 
9.35000000000000e-01 1.63258654365125e-01 6.44993771725472e-03 
9.45000000000000e-01 1.62616911421473e-01 6.38561668517543e-03 
9.55000000000000e-01 1.61981531028090e-01 6.32266486347677e-03 
9.65000000000000e-01 1.61352378448777e-01 6.26103945730039e-03 
9.75000000000000e-01 1.60729323136630e-01 6.20069942950149e-03 
9.85000000000000e-01 1.60112238562877e-01 6.14160541137068e-03 
9.95000000000000e-01 1.59501002054356e-01 6.08371961874535e-03 
1.00500000000000e+00 1.58895494639128e-01 6.02700577312959e-03 
1.01500000000000e+00 1.58295600899730e-01 5.97142902747844e-03 
1.02500000000000e+00 1.57701208833632e-01 5.91695589632762e-03 
1.03500000000000e+00 1.57112209720465e-01 5.86355418997722e-03 
1.04500000000000e+00 1.56528497995637e-01 5.81119295245527e-03 
1.05500000000000e+00 1.55949971129974e-01 5.75984240300934e-03 
1.06500000000000e+00 1.55376529515035e-01 5.70947388089812e-03 
1.07500000000000e+00 1.54808076353794e-01 5.66005979326406e-03 
1.08500000000000e+00 1.54244517556382e-01 5.61157356589112e-03 
1.09500000000000e+00 1.53685761640616e-01 5.56398959666124e-03 
1.10500000000000e+00 1.53131719637050e-01 5.51728321153730e-03 
1.11500000000000e+00 1.52582304998308e-01 5.47143062291824e-03 
1.12500000000000e+00 1.52037433512466e-01 5.42640889021631e-03 
1.13500000000000e+00 1.51497023220265e-01 5.38219588251759e-03 
1.14500000000000e+00 1.50960994335963e-01 5.33877024320076e-03 
1.15500000000000e+00 1.50429269171625e-01 5.29611135639499e-03 
1.16500000000000e+00 1.49901772064684e-01 5.25419931516516e-03 
1.17500000000000e+00 1.49378429308592e-01 5.21301489132292e-03 
1.18500000000000e+00 1.48859169086419e-01 5.17253950676713e-03 
1.19500000000000e+00 1.48343921407238e-01 5.13275520626480e-03 
1.20500000000000e+00 1.47832618045166e-01 5.09364463158593e-03 
1.21500000000000e+00 1.47325192480921e-01 5.05519099691751e-03 
1.22500000000000e+00 1.46821579845783e-01 5.01737806548247e-03 
1.23500000000000e+00 1.46321716867825e-01 4.98019012729348e-03 
1.24500000000000e+00 1.45825541820324e-01 4.94361197798110e-03 
1.25500000000000e+00 1.45332994472229e-01 4.90762889863494e-03 
1.26500000000000e+00 1.44844016040597e-01 4.87222663659997e-03 
1.27500000000000e+00 1.44358549144909e-01 4.83739138717715e-03 
1.28500000000000e+00 1.43876537763162e-01 4.80310977617901e-03 
1.29500000000000e+00 1.43397927189673e-01 4.76936884329551e-03 
1.30500000000000e+00 1.42922663994502e-01 4.73615602622296e-03 
1.31500000000000e+00 1.42450695984428e-01 4.70345914551737e-03 
1.32500000000000e+00 1.41981972165399e-01 4.67126639013590e-03 
1.33500000000000e+00 1.41516442706401e-01 4.63956630362722e-03 
1.34500000000000e+00 1.41054058904674e-01 4.60834777093827e-03 
1.35500000000000e+00 1.40594773152213e-01 4.57760000580509e-03 
1.36500000000000e+00 1.40138538903512e-01 4.54731253870064e-03 
1.37500000000000e+00 1.39685310644473e-01 4.51747520530510e-03 
1.38500000000000e+00 1.39235043862451e-01 4.48807813547822e-03 
1.39500000000000e+00 1.38787695017378e-01 4.45911174270702e-03 
1.40500000000000e+00 1.38343221513910e-01 4.43056671400141e-03 
1.41500000000000e+00 1.37901581674577e-01 4.40243400022078e-03 
1.42500000000000e+00 1.37462734713866e-01 4.37470480680810e-03 
1.43500000000000e+00 1.37026640713216e-01 4.34737058491036e-03 
1.44500000000000e+00 1.36593260596884e-01 4.32042302286884e-03 
1.45500000000000e+00 1.36162556108642e-01 4.29385403806118e-03 
1.46500000000000e+00 1.35734489789272e-01 4.26765576907614e-03 
1.47500000000000e+00 1.35309024954827e-01 4.24182056820738e-03 
1.48500000000000e+00 1.34886125675630e-01 4.21634099425180e-03 
1.49500000000000e+00 1.34465756755976e-01 4.19120980559573e-03 
1.50500000000000e+00 1.34047883714511e-01 4.16641995357681e-03 
1.51500000000000e+00 1.33632472765261e-01 4.14196457611038e-03 
1.52500000000000e+00 1.33219490799289e-01 4.11783699156579e-03 
1.53500000000000e+00 1.32808905366948e-01 4.09403069288272e-03 
1.54500000000000e+00 1.32400684660712e-01 4.07053934191492e-03 
1.55500000000000e+00 1.31994797498565e-01 4.04735676399329e-03 
1.56500000000000e+00 1.31591213307914e-01 4.02447694269822e-03 
1.57500000000000e+00 1.31189902110025e-01 4.00189401483036e-03 
1.58500000000000e+00 1.30790834504948e-01 3.97960226557081e-03 
1.59500000000000e+00 1.30393981656911e-01 3.95759612382529e-03 
1.60500000000000e+00 1.29999315280183e-01 3.93587015774244e-03 
1.61500000000000e+00 1.29606807625363e-01 3.91441907039783e-03 
1.62500000000000e+00 1.29216431466103e-01 3.89323769563715e-03 
1.63500000000000e+00 1.28828160086235e-01 3.87232099407303e-03 
1.64500000000000e+00 1.28441967267288e-01 3.85166404922810e-03 
1.65500000000000e+00 1.28057827276389e-01 3.83126206381590e-03 
1.66500000000000e+00 1.27675714854525e-01 3.81111035615903e-03 
1.67500000000000e+00 1.27295605205158e-01 3.79120435673355e-03 
1.68500000000000e+00 1.26917473983179e-01 3.77153960483628e-03 
1.69500000000000e+00 1.26541297284190e-01 3.75211174537204e-03 
1.70500000000000e+00 1.26167051634104e-01 3.73291652575325e-03 
1.71500000000000e+00 1.25794713979040e-01 3.71394979290673e-03 
1.72500000000000e+00 1.25424261675523e-01 3.69520749038607e-03 
1.73500000000000e+00 1.25055672480963e-01 3.67668565558379e-03 
1.74500000000000e+00 1.24688924544406e-01 3.65838041703849e-03 
1.75500000000000e+00 1.24323996397555e-01 3.64028799183576e-03 
1.76500000000000e+00 1.23960866946039e-01 3.62240468309669e-03 
1.77500000000000e+00 1.23599515460936e-01 3.60472687755076e-03 
1.78500000000000e+00 1.23239921570529e-01 3.58725104319099e-03 
1.79500000000000e+00 1.22882065252297e-01 3.56997372700771e-03 
1.80500000000000e+00 1.22525926825127e-01 3.55289155279742e-03 
1.81500000000000e+00 1.22171486941738e-01 3.53600121904378e-03 
1.82500000000000e+00 1.21818726581318e-01 3.51929949686865e-03 
1.83500000000000e+00 1.21467627042364e-01 3.50278322805070e-03 
1.84500000000000e+00 1.21118169935708e-01 3.48644932310814e-03 
1.85500000000000e+00 1.20770337177742e-01 3.47029475944297e-03 
1.86500000000000e+00 1.20424110983820e-01 3.45431657954573e-03 
1.87500000000000e+00 1.20079473861833e-01 3.43851188925770e-03 
1.88500000000000e+00 1.19736408605968e-01 3.42287785608734e-03 
1.89500000000000e+00 1.19394898290616e-01 3.40741170758233e-03 
1.90500000000000e+00 1.19054926264452e-01 3.39211072975014e-03 
1.91500000000000e+00 1.18716476144666e-01 3.37697226552990e-03 
1.92500000000000e+00 1.18379531811346e-01 3.36199371331239e-03 
1.93500000000000e+00 1.18044077402003e-01 3.34717252550493e-03 
1.94500000000000e+00 1.17710097306245e-01 3.33250620713980e-03 
1.95500000000000e+00 1.17377576160575e-01 3.31799231452760e-03 
1.96500000000000e+00 1.17046498843339e-01 3.30362845395053e-03 
1.97500000000000e+00 1.16716850469785e-01 3.28941228039434e-03 
1.98500000000000e+00 1.16388616387260e-01 3.27534149632075e-03 
1.99500000000000e+00 1.16061782170521e-01 3.26141385047551e-03 
2.00500000000000e+00 1.15736333617165e-01 3.24762713673293e-03 
2.01500000000000e+00 1.15412256743175e-01 3.23397919297391e-03 
2.02500000000000e+00 1.15089537778570e-01 3.22046789999794e-03 
2.03500000000000e+00 1.14768163163175e-01 3.20709118046686e-03 
2.04500000000000e+00 1.14448119542477e-01 3.19384699788067e-03 
2.05500000000000e+00 1.14129393763599e-01 3.18073335558139e-03 
2.06500000000000e+00 1.13811972871361e-01 3.16774829578620e-03 
2.07500000000000e+00 1.13495844104442e-01 3.15488989865116e-03 
2.08500000000000e+00 1.13180994891631e-01 3.14215628135925e-03 
2.09500000000000e+00 1.12867412848170e-01 3.12954559723494e-03 
2.10500000000000e+00 1.12555085772184e-01 3.11705603488456e-03 
2.11500000000000e+00 1.12244001641193e-01 3.10468581736091e-03 
2.12500000000000e+00 1.11934148608711e-01 3.09243320135211e-03 
2.13500000000000e+00 1.11625515000922e-01 3.08029647639194e-03 
2.14500000000000e+00 1.11318089313433e-01 3.06827396409338e-03 
2.15500000000000e+00 1.11011860208104e-01 3.05636401740299e-03 
2.16500000000000e+00 1.10706816509952e-01 3.04456501987571e-03 
2.17500000000000e+00 1.10402947204129e-01 3.03287538497080e-03 
2.18500000000000e+00 1.10100241432958e-01 3.02129355536571e-03 
2.19500000000000e+00 1.09798688493055e-01 3.00981800229062e-03 
2.20500000000000e+00 1.09498277832500e-01 2.99844722487903e-03 
2.21500000000000e+00 1.09198999048080e-01 2.98717974953684e-03 
2.22500000000000e+00 1.08900841882593e-01 2.97601412932932e-03 
2.23500000000000e+00 1.08603796222214e-01 2.96494894338258e-03 
2.24500000000000e+00 1.08307852093916e-01 2.95398279630266e-03 
2.25500000000000e+00 1.08012999662953e-01 2.94311431761014e-03 
2.26500000000000e+00 1.07719229230394e-01 2.93234216118897e-03 
2.27500000000000e+00 1.07426531230715e-01 2.92166500474957e-03 
2.28500000000000e+00 1.07134896229444e-01 2.91108154930733e-03 
2.29500000000000e+00 1.06844314920854e-01 2.90059051867374e-03 
2.30500000000000e+00 1.06554778125710e-01 2.89019065896116e-03 
2.31500000000000e+00 1.06266276789062e-01 2.87988073810030e-03 
2.32500000000000e+00 1.05978801978089e-01 2.86965954536991e-03 
2.33500000000000e+00 1.05692344879988e-01 2.85952589093953e-03 
2.34500000000000e+00 1.05406896799902e-01 2.84947860542319e-03 
2.35500000000000e+00 1.05122449158903e-01 2.83951653944389e-03 
2.36500000000000e+00 1.04838993492013e-01 2.82963856321039e-03 
2.37500000000000e+00 1.04556521446261e-01 2.81984356610435e-03 
2.38500000000000e+00 1.04275024778792e-01 2.81013045627755e-03 
2.39500000000000e+00 1.03994495355006e-01 2.80049816025980e-03 
2.40500000000000e+00 1.03714925146740e-01 2.79094562257498e-03 
2.41500000000000e+00 1.03436306230491e-01 2.78147180536877e-03 
2.42500000000000e+00 1.03158630785666e-01 2.77207568804512e-03 
2.43500000000000e+00 1.02881891092882e-01 2.76275626691018e-03 
2.44500000000000e+00 1.02606079532284e-01 2.75351255482642e-03 
2.45500000000000e+00 1.02331188581916e-01 2.74434358087529e-03 
2.46500000000000e+00 1.02057210816109e-01 2.73524839002726e-03 
2.47500000000000e+00 1.01784138903911e-01 2.72622604282069e-03 
2.48500000000000e+00 1.01511965607545e-01 2.71727561504780e-03 
2.49500000000000e+00 1.01240683780901e-01 2.70839619744792e-03 
2.50500000000000e+00 1.00970286368055e-01 2.69958689540960e-03 
2.51500000000000e+00 1.00700766401819e-01 2.69084682867814e-03 
2.52500000000000e+00 1.00432117002320e-01 2.68217513107093e-03 
2.53500000000000e+00 1.00164331375605e-01 2.67357095020022e-03 
2.54500000000000e+00 9.98974028122797e-02 2.66503344720066e-03 
2.55500000000000e+00 9.96313246861650e-02 2.65656179646412e-03 
2.56500000000000e+00 9.93660904529869e-02 2.64815518538151e-03 
2.57500000000000e+00 9.91016936490887e-02 2.63981281408955e-03 
2.58500000000000e+00 9.88381278901690e-02 2.63153389522409e-03 
2.59500000000000e+00 9.85753868700439e-02 2.62331765367885e-03 
2.60500000000000e+00 9.83134643594332e-02 2.61516332636914e-03 
2.61500000000000e+00 9.80523542047700e-02 2.60707016200221e-03 
2.62500000000000e+00 9.77920503270328e-02 2.59903742085205e-03 
2.63500000000000e+00 9.75325467205996e-02 2.59106437453964e-03 
2.64500000000000e+00 9.72738374521248e-02 2.58315030581789e-03 
2.65500000000000e+00 9.70159166594361e-02 2.57529450836146e-03 
2.66500000000000e+00 9.67587785504525e-02 2.56749628656246e-03 
2.67500000000000e+00 9.65024174021236e-02 2.55975495532870e-03 
2.68500000000000e+00 9.62468275593868e-02 2.55206983988759e-03 
2.69500000000000e+00 9.59920034341460e-02 2.54444027559503e-03 
2.70500000000000e+00 9.57379395042678e-02 2.53686560774791e-03 
2.71500000000000e+00 9.54846303125965e-02 2.52934519139957e-03 
2.72500000000000e+00 9.52320704659879e-02 2.52187839118130e-03 
2.73500000000000e+00 9.49802546343602e-02 2.51446458112745e-03 
2.74500000000000e+00 9.47291775497624e-02 2.50710314450280e-03 
2.75500000000000e+00 9.44788340054596e-02 2.49979347363587e-03 
2.76500000000000e+00 9.42292188550352e-02 2.49253496975327e-03 
2.77500000000000e+00 9.39803270115090e-02 2.48532704282031e-03 
2.78500000000000e+00 9.37321534464712e-02 2.47816911138399e-03 
2.79500000000000e+00 9.34846931892322e-02 2.47106060241767e-03 
2.80500000000000e+00 9.32379413259876e-02 2.46400095117214e-03 
2.81500000000000e+00 9.29918929989978e-02 2.45698960102785e-03 
2.82500000000000e+00 9.27465434057821e-02 2.45002600335123e-03 
2.83500000000000e+00 9.25018877983275e-02 2.44310961735279e-03 
2.84500000000000e+00 9.22579214823115e-02 2.43623990994889e-03 
2.85500000000000e+00 9.20146398163377e-02 2.42941635562779e-03 
2.86500000000000e+00 9.17720382111859e-02 2.42263843631650e-03 
2.87500000000000e+00 9.15301121290744e-02 2.41590564125094e-03 
2.88500000000000e+00 9.12888570829358e-02 2.40921746684948e-03 
2.89500000000000e+00 9.10482686357045e-02 2.40257341658882e-03 
2.90500000000000e+00 9.08083423996180e-02 2.39597300088185e-03 
2.91500000000000e+00 9.05690740355282e-02 2.38941573695896e-03 
2.92500000000000e+00 9.03304592522262e-02 2.38290114875070e-03 
2.93500000000000e+00 9.00924938057780e-02 2.37642876677414e-03 
2.94500000000000e+00 8.98551734988714e-02 2.36999812802050e-03 
2.95500000000000e+00 8.96184941801739e-02 2.36360877584531e-03 
2.96500000000000e+00 8.93824517437023e-02 2.35726025986122e-03 
2.97500000000000e+00 8.91470421282017e-02 2.35095213583260e-03 
2.98500000000000e+00 8.89122613165358e-02 2.34468396557184e-03 
2.99500000000000e+00 8.86781053350873e-02 2.33845531683895e-03 
3.00500000000000e+00 8.84445702531680e-02 2.33226576324255e-03 
3.01500000000000e+00 8.82116521824388e-02 2.32611488414164e-03 
3.02500000000000e+00 8.79793472763397e-02 2.32000226455115e-03 
3.03500000000000e+00 8.77476517295286e-02 2.31392749504837e-03 
3.04500000000000e+00 8.75165617773300e-02 2.30789017168262e-03 
3.05500000000000e+00 8.72860736951921e-02 2.30188989588404e-03 
3.06500000000000e+00 8.70561837981532e-02 2.29592627437589e-03 
3.07500000000000e+00 8.68268884403169e-02 2.28999891908908e-03 
3.08500000000000e+00 8.65981840143354e-02 2.28410744707669e-03 
3.09500000000000e+00 8.63700669509015e-02 2.27825148043238e-03 
3.10500000000000e+00 8.61425337182489e-02 2.27243064620804e-03 
