Energy(eV)           EEDF(eV^-(3/2))      First Anisotropy
5.00000000000000e-03 4.43750357300623e-01 4.18271274873764e-01 
1.50000000000000e-02 4.01923229813246e-01 3.53782222609410e-01 
2.50000000000000e-02 3.72993912778741e-01 2.41081568766921e-01 
3.50000000000000e-02 3.53706916059862e-01 1.68765203440412e-01 
4.50000000000000e-02 3.39240872090659e-01 1.30198360414057e-01 
5.50000000000000e-02 3.27667243977051e-01 1.06095511512853e-01 
6.50000000000000e-02 3.18021769788088e-01 8.95689835901484e-02 
7.50000000000000e-02 3.09753447259021e-01 7.75193322452103e-02 
8.50000000000000e-02 3.02517903339046e-01 6.83394433753196e-02 
9.50000000000000e-02 2.96085558583957e-01 6.11109695024597e-02 
1.05000000000000e-01 2.90295709438554e-01 5.52703816094338e-02 
1.15000000000000e-01 2.85031482262070e-01 5.04524311376184e-02 
1.25000000000000e-01 2.80205223211030e-01 4.64098742027588e-02 
1.35000000000000e-01 2.75749507421519e-01 4.29693199831874e-02 
1.45000000000000e-01 2.71611359214393e-01 4.00055425536380e-02 
1.55000000000000e-01 2.67748398910791e-01 3.74258271883240e-02 
1.65000000000000e-01 2.64126193776728e-01 3.51600540119226e-02 
1.75000000000000e-01 2.60716388108407e-01 3.31542051661241e-02 
1.85000000000000e-01 2.57495352743503e-01 3.13659907004232e-02 
1.95000000000000e-01 2.54443189968322e-01 2.97618277104181e-02 
2.05000000000000e-01 2.51542987201420e-01 2.83147079704428e-02 
2.15000000000000e-01 2.48780248374233e-01 2.70026632794912e-02 
2.25000000000000e-01 2.46142454545521e-01 2.58076416903488e-02 
2.35000000000000e-01 2.43618720036164e-01 2.47146717075802e-02 
2.45000000000000e-01 2.41199520204005e-01 2.37112318560434e-02 
2.55000000000000e-01 2.38876473664955e-01 2.27867690416757e-02 
2.65000000000000e-01 2.36642166395670e-01 2.19323262712870e-02 
2.75000000000000e-01 2.34490008410697e-01 2.11402518097158e-02 
2.85000000000000e-01 2.32414116033727e-01 2.04039697157311e-02 
2.95000000000000e-01 2.30409214467551e-01 1.97177971540366e-02 
3.05000000000000e-01 2.28470556602920e-01 1.90767977216393e-02 
3.15000000000000e-01 2.26593854923223e-01 1.84766627671255e-02 
3.25000000000000e-01 2.24775224049495e-01 1.79136146607178e-02 
3.35000000000000e-01 2.23011131991080e-01 1.73843274191859e-02 
3.45000000000000e-01 2.21298358565657e-01 1.68858611576955e-02 
3.55000000000000e-01 2.19633959759541e-01 1.64156076373106e-02 
3.65000000000000e-01 2.18015237038195e-01 1.59712447766483e-02 
3.75000000000000e-01 2.16439710804211e-01 1.55506984517262e-02 
3.85000000000000e-01 2.14905097347850e-01 1.51521102568856e-02 
3.95000000000000e-01 2.13409288752834e-01 1.47738101688859e-02 
4.05000000000000e-01 2.11950335314073e-01 1.44142932655679e-02 
4.15000000000000e-01 2.10526430099720e-01 1.40721998143009e-02 
4.25000000000000e-01 2.09135895351213e-01 1.37462981745028e-02 
4.35000000000000e-01 2.07777170464820e-01 1.34354700608701e-02 
4.45000000000000e-01 2.06448801339039e-01 1.31386977955522e-02 
4.55000000000000e-01 2.05149430905709e-01 1.28550532429501e-02 
4.65000000000000e-01 2.03877790690449e-01 1.25836881735816e-02 
4.75000000000000e-01 2.02632693270993e-01 1.23238258462074e-02 
4.85000000000000e-01 2.01413025521207e-01 1.20747536322217e-02 
4.95000000000000e-01 2.00217742544549e-01 1.18358165347790e-02 
5.05000000000000e-01 1.99045862214251e-01 1.16064114785290e-02 
5.15000000000000e-01 1.97896460248843e-01 1.13859822651301e-02 
5.25000000000000e-01 1.96768665761225e-01 1.11740151056960e-02 
5.35000000000000e-01 1.95661657227704e-01 1.09700346546300e-02 
5.45000000000000e-01 1.94574658830299e-01 1.07736004803997e-02 
5.55000000000000e-01 1.93506937131624e-01 1.05843039181099e-02 
5.65000000000000e-01 1.92457798046677e-01 1.04017652565241e-02 
5.75000000000000e-01 1.91426584080319e-01 1.02256312188027e-02 
5.85000000000000e-01 1.90412671802917e-01 1.00555727017861e-02 
5.95000000000000e-01 1.89415469539962e-01 9.89128274338058e-03 
6.05000000000000e-01 1.88434415254241e-01 9.73247469164787e-03 
6.15000000000000e-01 1.87468974601632e-01 9.57888055261966e-03 
6.25000000000000e-01 1.86518639143717e-01 9.43024949680890e-03 
6.35000000000000e-01 1.85582924702270e-01 9.28634650691457e-03 
6.45000000000000e-01 1.84661369842334e-01 9.14695115138905e-03 
6.55000000000000e-01 1.83753534471993e-01 9.01185647041086e-03 
6.65000000000000e-01 1.82858998548252e-01 8.88086796241888e-03 
6.75000000000000e-01 1.81977360879509e-01 8.75380266077891e-03 
6.85000000000000e-01 1.81108238016096e-01 8.63048829136681e-03 
6.95000000000000e-01 1.80251263221235e-01 8.51076250291127e-03 
7.05000000000000e-01 1.79406085515514e-01 8.39447216287301e-03 
7.15000000000000e-01 1.78572368788661e-01 8.28147271243890e-03 
7.25000000000000e-01 1.77749790973026e-01 8.17162757491677e-03 
7.35000000000000e-01 1.76938043273677e-01 8.06480761245010e-03 
7.45000000000000e-01 1.76136829450536e-01 7.96089062650648e-03 
7.55000000000000e-01 1.75345865148376e-01 7.85976089807919e-03 
7.65000000000000e-01 1.74564877270920e-01 7.76130876396733e-03 
7.75000000000000e-01 1.73793603395583e-01 7.66543022587426e-03 
7.85000000000000e-01 1.73031791225745e-01 7.57202658939873e-03 
7.95000000000000e-01 1.72279198077703e-01 7.48100413027961e-03 
8.05000000000000e-01 1.71535590399689e-01 7.39227378553087e-03 
8.15000000000000e-01 1.70800743320597e-01 7.30575086732424e-03 
8.25000000000000e-01 1.70074440226224e-01 7.22135479768668e-03 
8.35000000000000e-01 1.69356472361059e-01 7.13900886227109e-03 
8.45000000000000e-01 1.68646638453770e-01 7.05863998161943e-03 
8.55000000000000e-01 1.67944744364736e-01 6.98017849848187e-03 
8.65000000000000e-01 1.67250602754074e-01 6.90355797989456e-03 
8.75000000000000e-01 1.66564032768757e-01 6.82871503283638e-03 
8.85000000000000e-01 1.65884859747507e-01 6.75558913238672e-03 
8.95000000000000e-01 1.65212914942279e-01 6.68412246140948e-03 
9.05000000000000e-01 1.64548035255225e-01 6.61425976086871e-03 
9.15000000000000e-01 1.63890062990106e-01 6.54594818996462e-03 
9.25000000000000e-01 1.63238845617232e-01 6.47913719534696e-03 
9.35000000000000e-01 1.62594235551036e-01 6.41377838872123e-03 
9.45000000000000e-01 1.61956089939487e-01 6.34982543223001e-03 
9.55000000000000e-01 1.61324270464590e-01 6.28723393103964e-03 
9.65000000000000e-01 1.60698643153280e-01 6.22596133260836e-03 
9.75000000000000e-01 1.60079078198068e-01 6.16596683215398e-03 
9.85000000000000e-01 1.59465449786849e-01 6.10721128388295e-03 
9.95000000000000e-01 1.58857635941292e-01 6.04965711757513e-03 
1.00500000000000e+00 1.58255518363334e-01 5.99326826015115e-03 
1.01500000000000e+00 1.57658982289262e-01 5.93801006187666e-03 
1.02500000000000e+00 1.57067916350958e-01 5.88384922688798e-03 
1.03500000000000e+00 1.56482212443884e-01 5.83075374774852e-03 
1.04500000000000e+00 1.55901765601409e-01 5.77869284376295e-03 
1.05500000000000e+00 1.55326473875131e-01 5.72763690280059e-03 
1.06500000000000e+00 1.54756238220849e-01 5.67755742640008e-03 
1.07500000000000e+00 1.54190962389851e-01 5.62842697793650e-03 
1.08500000000000e+00 1.53630552825261e-01 5.58021913365805e-03 
1.09500000000000e+00 1.53074918563120e-01 5.53290843640655e-03 
1.10500000000000e+00 1.52523971137980e-01 5.48647035184924e-03 
1.11500000000000e+00 1.51977624492750e-01 5.44088122706982e-03 
1.12500000000000e+00 1.51435794892566e-01 5.39611825136857e-03 
1.13500000000000e+00 1.50898400842476e-01 5.35215941913553e-03 
1.14500000000000e+00 1.50365363008739e-01 5.30898349466832e-03 
1.15500000000000e+00 1.49836604143543e-01 5.26656997882000e-03 
1.16500000000000e+00 1.49312049012975e-01 5.22489907736553e-03 
1.17500000000000e+00 1.48791624328069e-01 5.18395167098326e-03 
1.18500000000000e+00 1.48275258678778e-01 5.14370928675664e-03 
1.19500000000000e+00 1.47762882470718e-01 5.10415407111067e-03 
1.20500000000000e+00 1.47254427864556e-01 5.06526876409341e-03 
1.21500000000000e+00 1.46749828717899e-01 5.02703667492735e-03 
1.22500000000000e+00 1.46249020529571e-01 4.98944165876230e-03 
1.23500000000000e+00 1.45751940386147e-01 4.95246809455549e-03 
1.24500000000000e+00 1.45258526910660e-01 4.91610086401792e-03 
1.25500000000000e+00 1.44768720213343e-01 4.88032533157115e-03 
1.26500000000000e+00 1.44282461844345e-01 4.84512732525214e-03 
1.27500000000000e+00 1.43799694748293e-01 4.81049311851625e-03 
1.28500000000000e+00 1.43320363220642e-01 4.77640941289353e-03 
1.29500000000000e+00 1.42844412865714e-01 4.74286332144733e-03 
1.30500000000000e+00 1.42371790556353e-01 4.70984235299399e-03 
1.31500000000000e+00 1.41902444395116e-01 4.67733439704132e-03 
1.32500000000000e+00 1.41436323676944e-01 4.64532770941148e-03 
1.33500000000000e+00 1.40973378853233e-01 4.61381089851151e-03 
1.34500000000000e+00 1.40513561497242e-01 4.58277291221290e-03 
1.35500000000000e+00 1.40056824270791e-01 4.55220302531437e-03 
1.36500000000000e+00 1.39603120892179e-01 4.52209082755797e-03 
1.37500000000000e+00 1.39152406105279e-01 4.49242621216470e-03 
1.38500000000000e+00 1.38704635649746e-01 4.46319936486958e-03 
1.39500000000000e+00 1.38259766232305e-01 4.43440075342832e-03 
1.40500000000000e+00 1.37817755499061e-01 4.40602111757088e-03 
1.41500000000000e+00 1.37378562008791e-01 4.37805145938316e-03 
1.42500000000000e+00 1.36942145207184e-01 4.35048303409208e-03 
1.43500000000000e+00 1.36508465401973e-01 4.32330734123812e-03 
1.44500000000000e+00 1.36077483738936e-01 4.29651611621298e-03 
1.45500000000000e+00 1.35649162178730e-01 4.27010132214647e-03 
1.46500000000000e+00 1.35223463474507e-01 4.24405514212772e-03 
1.47500000000000e+00 1.34800351150304e-01 4.21836997174116e-03 
1.48500000000000e+00 1.34379789480159e-01 4.19303841190447e-03 
1.49500000000000e+00 1.33961743467923e-01 4.16805326199490e-03 
1.50500000000000e+00 1.33546178827760e-01 4.14340751324835e-03 
1.51500000000000e+00 1.33133061965274e-01 4.11909434242158e-03 
1.52500000000000e+00 1.32722359959275e-01 4.09510710570396e-03 
1.53500000000000e+00 1.32314040544133e-01 4.07143933286613e-03 
1.54500000000000e+00 1.31908072092702e-01 4.04808472163690e-03 
1.55500000000000e+00 1.31504423599806e-01 4.02503713229641e-03 
1.56500000000000e+00 1.31103064666243e-01 4.00229058247797e-03 
1.57500000000000e+00 1.30703965483310e-01 3.97983924216749e-03 
1.58500000000000e+00 1.30307096817809e-01 3.95767742889103e-03 
1.59500000000000e+00 1.29912429997532e-01 3.93579960308588e-03 
1.60500000000000e+00 1.29519936897192e-01 3.91420036364373e-03 
1.61500000000000e+00 1.29129589924803e-01 3.89287444361883e-03 
1.62500000000000e+00 1.28741362008469e-01 3.87181670609527e-03 
1.63500000000000e+00 1.28355226583584e-01 3.85102214020633e-03 
1.64500000000000e+00 1.27971157580427e-01 3.83048585729878e-03 
1.65500000000000e+00 1.27589129412124e-01 3.81020308723598e-03 
1.66500000000000e+00 1.27209116962980e-01 3.79016917483571e-03 
1.67500000000000e+00 1.26831095577157e-01 3.77037957643378e-03 
1.68500000000000e+00 1.26455041047693e-01 3.75082985657096e-03 
1.69500000000000e+00 1.26080929605843e-01 3.73151568479793e-03 
1.70500000000000e+00 1.25708737910734e-01 3.71243283259215e-03 
1.71500000000000e+00 1.25338443039325e-01 3.69357717038228e-03 
1.72500000000000e+00 1.24970022476657e-01 3.67494466467645e-03 
1.73500000000000e+00 1.24603454106389e-01 3.65653137529044e-03 
1.74500000000000e+00 1.24238716201599e-01 3.63833345267031e-03 
1.75500000000000e+00 1.23875787415855e-01 3.62034713530739e-03 
1.76500000000000e+00 1.23514646774538e-01 3.60256874724130e-03 
1.77500000000000e+00 1.23155273666407e-01 3.58499469564649e-03 
1.78500000000000e+00 1.22797647835408e-01 3.56762146850140e-03 
1.79500000000000e+00 1.22441749372707e-01 3.55044563233403e-03 
1.80500000000000e+00 1.22087558708942e-01 3.53346383004355e-03 
1.81500000000000e+00 1.21735056606698e-01 3.51667277879372e-03 
1.82500000000000e+00 1.21384224153183e-01 3.50006926797514e-03 
1.83500000000000e+00 1.21035042753103e-01 3.48365015723467e-03 
1.84500000000000e+00 1.20687494121736e-01 3.46741237456975e-03 
1.85500000000000e+00 1.20341560278189e-01 3.45135291448327e-03 
1.86500000000000e+00 1.19997223538839e-01 3.43546883619775e-03 
1.87500000000000e+00 1.19654466510949e-01 3.41975726192767e-03 
1.88500000000000e+00 1.19313272086454e-01 3.40421537520570e-03 
1.89500000000000e+00 1.18973623435908e-01 3.38884041926384e-03 
1.90500000000000e+00 1.18635504002601e-01 3.37362969546277e-03 
1.91500000000000e+00 1.18298897496816e-01 3.35858056177224e-03 
1.92500000000000e+00 1.17963787890246e-01 3.34369043129987e-03 
1.93500000000000e+00 1.17630159410556e-01 3.32895677086414e-03 
1.94500000000000e+00 1.17297996536074e-01 3.31437709961017e-03 
1.95500000000000e+00 1.16967283990634e-01 3.29994898767109e-03 
1.96500000000000e+00 1.16638006738539e-01 3.28567005486918e-03 
1.97500000000000e+00 1.16310149979660e-01 3.27153796945388e-03 
1.98500000000000e+00 1.15983699144649e-01 3.25755044688195e-03 
1.99500000000000e+00 1.15658639890283e-01 3.24370524863254e-03 
2.00500000000000e+00 1.15334958094922e-01 3.23000018105701e-03 
2.01500000000000e+00 1.15012639854072e-01 3.21643309426488e-03 
2.02500000000000e+00 1.14691671476069e-01 3.20300188104125e-03 
2.03500000000000e+00 1.14372039477864e-01 3.18970447579607e-03 
2.04500000000000e+00 1.14053730580910e-01 3.17653885354624e-03 
2.05500000000000e+00 1.13736731707155e-01 3.16350302892537e-03 
2.06500000000000e+00 1.13421029975125e-01 3.15059505522214e-03 
2.07500000000000e+00 1.13106612696110e-01 3.13781302344898e-03 
2.08500000000000e+00 1.12793467370435e-01 3.12515506143592e-03 
2.09500000000000e+00 1.12481581683823e-01 3.11261933294983e-03 
2.10500000000000e+00 1.12170943503845e-01 3.10020403683983e-03 
2.11500000000000e+00 1.11861540876455e-01 3.08790740620589e-03 
2.12500000000000e+00 1.11553362022604e-01 3.07572770759323e-03 
2.13500000000000e+00 1.11246395334936e-01 3.06366324020695e-03 
2.14500000000000e+00 1.10940629374563e-01 3.05171233514923e-03 
2.15500000000000e+00 1.10636052867907e-01 3.03987335467867e-03 
2.16500000000000e+00 1.10332654703627e-01 3.02814469148906e-03 
2.17500000000000e+00 1.10030423929609e-01 3.01652476800938e-03 
2.18500000000000e+00 1.09729349750025e-01 3.00501203572091e-03 
2.19500000000000e+00 1.09429421522465e-01 2.99360497449622e-03 
2.20500000000000e+00 1.09130628755126e-01 2.98230209195317e-03 
2.21500000000000e+00 1.08832961104074e-01 2.97110192282748e-03 
2.22500000000000e+00 1.08536408370560e-01 2.96000302836365e-03 
2.23500000000000e+00 1.08240960498401e-01 2.94900399571946e-03 
2.24500000000000e+00 1.07946607571416e-01 2.93810343738800e-03 
2.25500000000000e+00 1.07653339810924e-01 2.92729999063608e-03 
2.26500000000000e+00 1.07361147573289e-01 2.91659231695593e-03 
2.27500000000000e+00 1.07070021347532e-01 2.90597910153116e-03 
2.28500000000000e+00 1.06779951752983e-01 2.89545905271873e-03 
2.29500000000000e+00 1.06490929536989e-01 2.88503090154248e-03 
2.30500000000000e+00 1.06202945572674e-01 2.87469340120070e-03 
2.31500000000000e+00 1.05915990856748e-01 2.86444532658685e-03 
2.32500000000000e+00 1.05630056507357e-01 2.85428547382137e-03 
2.33500000000000e+00 1.05345133761984e-01 2.84421265979717e-03 
2.34500000000000e+00 1.05061213975398e-01 2.83422572173612e-03 
2.35500000000000e+00 1.04778288617637e-01 2.82432351675570e-03 
2.36500000000000e+00 1.04496349272046e-01 2.81450492144827e-03 
2.37500000000000e+00 1.04215387633347e-01 2.80476883147029e-03 
2.38500000000000e+00 1.03935395505752e-01 2.79511416114250e-03 
2.39500000000000e+00 1.03656364801119e-01 2.78553984305936e-03 
2.40500000000000e+00 1.03378287537140e-01 2.77604482770755e-03 
2.41500000000000e+00 1.03101155835577e-01 2.76662808309576e-03 
2.42500000000000e+00 1.02824961920521e-01 2.75728859439342e-03 
2.43500000000000e+00 1.02549698116699e-01 2.74802536357650e-03 
2.44500000000000e+00 1.02275356847806e-01 2.73883740908316e-03 
2.45500000000000e+00 1.02001930634882e-01 2.72972376547921e-03 
2.46500000000000e+00 1.01729412094710e-01 2.72068348312941e-03 
2.47500000000000e+00 1.01457793938256e-01 2.71171562787810e-03 
2.48500000000000e+00 1.01187068969135e-01 2.70281928073719e-03 
2.49500000000000e+00 1.00917230082109e-01 2.69399353758124e-03 
2.50500000000000e+00 1.00648270261618e-01 2.68523750885125e-03 
2.51500000000000e+00 1.00380182580338e-01 2.67655031926335e-03 
2.52500000000000e+00 1.00112960197766e-01 2.66793110752596e-03 
2.53500000000000e+00 9.98465963588332e-02 2.65937902606470e-03 
2.54500000000000e+00 9.95810843925527e-02 2.65089324075089e-03 
2.55500000000000e+00 9.93164177106831e-02 2.64247293063791e-03 
2.56500000000000e+00 9.90525898064251e-02 2.63411728770493e-03 
2.57500000000000e+00 9.87895942531421e-02 2.62582551660451e-03 
2.58500000000000e+00 9.85274247031042e-02 2.61759683441769e-03 
2.59500000000000e+00 9.82660748862585e-02 2.60943047041398e-03 
2.60500000000000e+00 9.80055386090214e-02 2.60132566581597e-03 
2.61500000000000e+00 9.77458097530953e-02 2.59328167357228e-03 
2.62500000000000e+00 9.74868822743070e-02 2.58529775813254e-03 
2.63500000000000e+00 9.72287502014688e-02 2.57737319522867e-03 
2.64500000000000e+00 9.69714076352613e-02 2.56950727166208e-03 
2.65500000000000e+00 9.67148487471364e-02 2.56169928509395e-03 
2.66500000000000e+00 9.64590677782425e-02 2.55394854384215e-03 
2.67500000000000e+00 9.62040590383680e-02 2.54625436668057e-03 
2.68500000000000e+00 9.59498169049064e-02 2.53861608264475e-03 
2.69500000000000e+00 9.56963358218390e-02 2.53103303084104e-03 
2.70500000000000e+00 9.54436102987381e-02 2.52350456026042e-03 
2.71500000000000e+00 9.51916349097870e-02 2.51603002959587e-03 
2.72500000000000e+00 9.49404042928190e-02 2.50860880706354e-03 
2.73500000000000e+00 9.46899131483742e-02 2.50124027022902e-03 
2.74500000000000e+00 9.44401562387732e-02 2.49392380583663e-03 
2.75500000000000e+00 9.41911283872069e-02 2.48665880964317e-03 
2.76500000000000e+00 9.39428244768445e-02 2.47944468625312e-03 
2.77500000000000e+00 9.36952394499563e-02 2.47228084895995e-03 
2.78500000000000e+00 9.34483683070525e-02 2.46516671959039e-03 
2.79500000000000e+00 9.32022061060382e-02 2.45810172835009e-03 
2.80500000000000e+00 9.29567479613825e-02 2.45108531367479e-03 
2.81500000000000e+00 9.27119890433033e-02 2.44411692208429e-03 
2.82500000000000e+00 9.24679245769657e-02 2.43719600803938e-03 
2.83500000000000e+00 9.22245498416954e-02 2.43032203379977e-03 
2.84500000000000e+00 9.19818601702057e-02 2.42349446928802e-03 
2.85500000000000e+00 9.17398509478378e-02 2.41671279195575e-03 
2.86500000000000e+00 9.14985176118146e-02 2.40997648665107e-03 
2.87500000000000e+00 9.12578556505076e-02 2.40328504548970e-03 
2.88500000000000e+00 9.10178606027166e-02 2.39663796772913e-03 
2.89500000000000e+00 9.07785280569617e-02 2.39003475964512e-03 
2.90500000000000e+00 9.05398536507876e-02 2.38347493441045e-03 
2.91500000000000e+00 9.03018330700796e-02 2.37695801197715e-03 
2.92500000000000e+00 9.00644620483922e-02 2.37048351895926e-03 
2.93500000000000e+00 8.98277363662878e-02 2.36405098851984e-03 
2.94500000000000e+00 8.95916518506882e-02 2.35765996025976e-03 
2.95500000000000e+00 8.93562043742358e-02 2.35130998010827e-03 
2.96500000000000e+00 8.91213898546665e-02 2.34500060021618e-03 
2.97500000000000e+00 8.88872042541926e-02 2.33873137885116e-03 
2.98500000000000e+00 8.86536435788963e-02 2.33250188029471e-03 
2.99500000000000e+00 8.84207038781337e-02 2.32631167474240e-03 
3.00500000000000e+00 8.81883812439478e-02 2.32016033820524e-03 
3.01500000000000e+00 8.79566718104926e-02 2.31404745241220e-03 
3.02500000000000e+00 8.77255717534654e-02 2.30797260471607e-03 
3.03500000000000e+00 8.74950772895494e-02 2.30193538800078e-03 
3.04500000000000e+00 8.72651846758652e-02 2.29593540059095e-03 
3.05500000000000e+00 8.70358902094312e-02 2.28997224616168e-03 
3.06500000000000e+00 8.68071902266329e-02 2.28404553365161e-03 
3.07500000000000e+00 8.65790811027009e-02 2.27815487717727e-03 
3.08500000000000e+00 8.63515592511974e-02 2.27229989594825e-03 
3.09500000000000e+00 8.61246211235112e-02 2.26648021418648e-03 
3.10500000000000e+00 8.58982632083602e-02 2.26069546104414e-03 
