Energy(eV)           EEDF(eV^-(3/2))      First Anisotropy
5.00000000000000e-03 4.55623588645204e-01 5.17072053634582e-01 
1.50000000000000e-02 4.03916383281746e-01 4.03992877182454e-01 
2.50000000000000e-02 3.74825013208713e-01 2.42432029522782e-01 
3.50000000000000e-02 3.55429977377190e-01 1.69710564592789e-01 
4.50000000000000e-02 3.40882900290156e-01 1.30927677196663e-01 
5.50000000000000e-02 3.29244441937857e-01 1.06689807110778e-01 
6.50000000000000e-02 3.19544938868000e-01 9.00706984007457e-02 
7.50000000000000e-02 3.11230302257708e-01 7.79535444590568e-02 
8.50000000000000e-02 3.03954229976189e-01 6.87222285864864e-02 
9.50000000000000e-02 2.97485856540411e-01 6.14532589834224e-02 
1.05000000000000e-01 2.91663578179504e-01 5.55799499032636e-02 
1.15000000000000e-01 2.86369866559758e-01 5.07350067687679e-02 
1.25000000000000e-01 2.81516576825751e-01 4.66698007057159e-02 
1.35000000000000e-01 2.77035906418615e-01 4.32099696063457e-02 
1.45000000000000e-01 2.72874582904481e-01 4.02295860653587e-02 
1.55000000000000e-01 2.68989989205543e-01 3.76354159954381e-02 
1.65000000000000e-01 2.65347499705394e-01 3.53569467296624e-02 
1.75000000000000e-01 2.61918599859611e-01 3.33398578170471e-02 
1.85000000000000e-01 2.58679528141984e-01 3.15416224108186e-02 
1.95000000000000e-01 2.55610275377447e-01 2.99284694847046e-02 
2.05000000000000e-01 2.52693834245043e-01 2.84732395206511e-02 
2.15000000000000e-01 2.49915627473317e-01 2.71538412580498e-02 
2.25000000000000e-01 2.47263065993433e-01 2.59521216278251e-02 
2.35000000000000e-01 2.44725203147752e-01 2.48530252684964e-02 
2.45000000000000e-01 2.42292460939734e-01 2.38439605631935e-02 
2.55000000000000e-01 2.39956411035113e-01 2.29143153024362e-02 
2.65000000000000e-01 2.37709597879247e-01 2.20550823185214e-02 
2.75000000000000e-01 2.35545394571409e-01 2.12585670134585e-02 
2.85000000000000e-01 2.33457884476555e-01 2.05181566094806e-02 
2.95000000000000e-01 2.31441763249512e-01 1.98281364376798e-02 
3.05000000000000e-01 2.29492257189019e-01 1.91835424427536e-02 
3.15000000000000e-01 2.27605054760962e-01 1.85800418374651e-02 
3.25000000000000e-01 2.25776248821526e-01 1.80138358308453e-02 
3.35000000000000e-01 2.24002287594793e-01 1.74815798084683e-02 
3.45000000000000e-01 2.22279932859833e-01 1.69803174171181e-02 
3.55000000000000e-01 2.20606224111369e-01 1.65074258072624e-02 
3.65000000000000e-01 2.18978447698380e-01 1.60605698898958e-02 
3.75000000000000e-01 2.17394110133390e-01 1.56376639224000e-02 
3.85000000000000e-01 2.15850914913900e-01 1.52368390888730e-02 
3.95000000000000e-01 2.14346742315615e-01 1.48564160110959e-02 
4.05000000000000e-01 2.12879631711681e-01 1.44948813367811e-02 
4.15000000000000e-01 2.11447766048259e-01 1.41508677164792e-02 
4.25000000000000e-01 2.10049458168385e-01 1.38231366103243e-02 
4.35000000000000e-01 2.08683138726194e-01 1.35105634687137e-02 
4.45000000000000e-01 2.07347345474642e-01 1.32121249130725e-02 
4.55000000000000e-01 2.06040713743580e-01 1.29268876086672e-02 
4.65000000000000e-01 2.04761967952909e-01 1.26539985744920e-02 
4.75000000000000e-01 2.03509914028681e-01 1.23926767182411e-02 
4.85000000000000e-01 2.02283432609261e-01 1.21422054193833e-02 
4.95000000000000e-01 2.01081472944805e-01 1.19019260119836e-02 
5.05000000000000e-01 1.99903047406864e-01 1.16712320424528e-02 
5.15000000000000e-01 1.98747226536314e-01 1.14495641968017e-02 
5.25000000000000e-01 1.97613134567504e-01 1.12364058080616e-02 
5.35000000000000e-01 1.96499945374702e-01 1.10312788679021e-02 
5.45000000000000e-01 1.95406878793923e-01 1.08337404776356e-02 
5.55000000000000e-01 1.94333197279175e-01 1.06433796831590e-02 
5.65000000000000e-01 1.93278202857291e-01 1.04598146462197e-02 
5.75000000000000e-01 1.92241234349931e-01 1.02826901110382e-02 
5.85000000000000e-01 1.91221664835084e-01 1.01116751309292e-02 
5.95000000000000e-01 1.90218899323745e-01 9.94646102430233e-03 
6.05000000000000e-01 1.89232372630223e-01 9.78675953349412e-03 
6.15000000000000e-01 1.88261547417046e-01 9.63230116332758e-03 
6.25000000000000e-01 1.87305912397558e-01 9.48283367925642e-03 
6.35000000000000e-01 1.86364980681195e-01 9.33812074749685e-03 
6.45000000000000e-01 1.85438288248058e-01 9.19794070172369e-03 
6.55000000000000e-01 1.84525392540850e-01 9.06208542280226e-03 
6.65000000000000e-01 1.83625871163498e-01 8.93035931964631e-03 
6.75000000000000e-01 1.82739320676921e-01 8.80257840071161e-03 
6.85000000000000e-01 1.81865355483356e-01 8.67856942686054e-03 
6.95000000000000e-01 1.81003606791549e-01 8.55816913739302e-03 
7.05000000000000e-01 1.80153721655877e-01 8.44122354198201e-03 
7.15000000000000e-01 1.79315362083152e-01 8.32758727205438e-03 
7.25000000000000e-01 1.78488204201466e-01 8.21712298587074e-03 
7.35000000000000e-01 1.77671937485978e-01 8.10970082219808e-03 
7.45000000000000e-01 1.76866264037027e-01 8.00519789799989e-03 
7.55000000000000e-01 1.76070897906378e-01 7.90349784606098e-03 
7.65000000000000e-01 1.75285564467814e-01 7.80449038889616e-03 
7.75000000000000e-01 1.74509999828599e-01 7.70807094565687e-03 
7.85000000000000e-01 1.73743950278683e-01 7.61414026910032e-03 
7.95000000000000e-01 1.72987171774779e-01 7.52260410996589e-03 
8.05000000000000e-01 1.72239429456690e-01 7.43337290637899e-03 
8.15000000000000e-01 1.71500497193503e-01 7.34636149613097e-03 
8.25000000000000e-01 1.70770157157464e-01 7.26148884989092e-03 
8.35000000000000e-01 1.70048199423525e-01 7.17867782359730e-03 
8.45000000000000e-01 1.69334421592744e-01 7.09785492843867e-03 
8.55000000000000e-01 1.68628628437837e-01 7.01895011698137e-03 
8.65000000000000e-01 1.67930631569348e-01 6.94189658413988e-03 
8.75000000000000e-01 1.67240249121009e-01 6.86663058180076e-03 
8.85000000000000e-01 1.66557305452988e-01 6.79309124601679e-03 
8.95000000000000e-01 1.65881630871806e-01 6.72122043579360e-03 
9.05000000000000e-01 1.65213061365829e-01 6.65096258256656e-03 
9.15000000000000e-01 1.64551438355293e-01 6.58226454955377e-03 
9.25000000000000e-01 1.63896608455918e-01 6.51507550023619e-03 
9.35000000000000e-01 1.63248423255245e-01 6.44934677527867e-03 
9.45000000000000e-01 1.62606739100863e-01 6.38503177726943e-03 
9.55000000000000e-01 1.61971416899791e-01 6.32208586270416e-03 
9.65000000000000e-01 1.61342321928322e-01 6.26046624069038e-03 
9.75000000000000e-01 1.60719323651653e-01 6.20013187788634e-03 
9.85000000000000e-01 1.60102295552744e-01 6.14104340923155e-03 
9.95000000000000e-01 1.59491114969807e-01 6.08316305406489e-03 
1.00500000000000e+00 1.58885662941931e-01 6.02645453725265e-03 
1.01500000000000e+00 1.58285824062356e-01 5.97088301497919e-03 
1.02500000000000e+00 1.57691486338936e-01 5.91641500488349e-03 
1.03500000000000e+00 1.57102541061380e-01 5.86301832024919e-03 
1.04500000000000e+00 1.56518882674886e-01 5.81066200797287e-03 
1.05500000000000e+00 1.55940408659785e-01 5.75931629006196e-03 
1.06500000000000e+00 1.55367019416873e-01 5.70895250843154e-03 
1.07500000000000e+00 1.54798618158099e-01 5.65954307278113e-03 
1.08500000000000e+00 1.54235110802317e-01 5.61106141135748e-03 
1.09500000000000e+00 1.53676405875827e-01 5.56348192441491e-03 
1.10500000000000e+00 1.53122414417434e-01 5.51677994020283e-03 
1.11500000000000e+00 1.52573049887787e-01 5.47093167332494e-03 
1.12500000000000e+00 1.52028228082769e-01 5.42591418531926e-03 
1.13500000000000e+00 1.51487867050723e-01 5.38170534732263e-03 
1.14500000000000e+00 1.50951887013305e-01 5.33828380469295e-03 
1.15500000000000e+00 1.50420210289784e-01 5.29562894346969e-03 
1.16500000000000e+00 1.49892761224611e-01 5.25372085856249e-03 
1.17500000000000e+00 1.49369466118072e-01 5.21254032356533e-03 
1.18500000000000e+00 1.48850253159898e-01 5.17206876209819e-03 
1.19500000000000e+00 1.48335052365652e-01 5.13228822059175e-03 
1.20500000000000e+00 1.47823795515779e-01 5.09318134242528e-03 
1.21500000000000e+00 1.47316416097167e-01 5.05473134334106e-03 
1.22500000000000e+00 1.46812849247111e-01 5.01692198806608e-03 
1.23500000000000e+00 1.46313031699554e-01 4.97973756806908e-03 
1.24500000000000e+00 1.45816901733497e-01 4.94316288038962e-03 
1.25500000000000e+00 1.45324399123476e-01 4.90718320748110e-03 
1.26500000000000e+00 1.44835465092001e-01 4.87178429800950e-03 
1.27500000000000e+00 1.44350042263874e-01 4.83695234855461e-03 
1.28500000000000e+00 1.43868074622290e-01 4.80267398616827e-03 
1.29500000000000e+00 1.43389507466641e-01 4.76893625174141e-03 
1.30500000000000e+00 1.42914287371942e-01 4.73572658413454e-03 
1.31500000000000e+00 1.42442362149814e-01 4.70303280503195e-03 
1.32500000000000e+00 1.41973680810935e-01 4.67084310448521e-03 
1.33500000000000e+00 1.41508193528917e-01 4.63914602710488e-03 
1.34500000000000e+00 1.41045851605514e-01 4.60793045886726e-03 
1.35500000000000e+00 1.40586607437143e-01 4.57718561450812e-03 
1.36500000000000e+00 1.40130414482613e-01 4.54690102547020e-03 
1.37500000000000e+00 1.39677227232049e-01 4.51706652837572e-03 
1.38500000000000e+00 1.39227001176938e-01 4.48767225399924e-03 
1.39500000000000e+00 1.38779692781249e-01 4.45870861671527e-03 
1.40500000000000e+00 1.38335259453595e-01 4.43016630439691e-03 
1.41500000000000e+00 1.37893659520370e-01 4.40203626874233e-03 
1.42500000000000e+00 1.37454852199846e-01 4.37430971600872e-03 
1.43500000000000e+00 1.37018797577168e-01 4.34697809813533e-03 
1.44500000000000e+00 1.36585456580219e-01 4.32003310423368e-03 
1.45500000000000e+00 1.36154790956321e-01 4.29346665242997e-03 
1.46500000000000e+00 1.35726763249733e-01 4.26727088204140e-03 
1.47500000000000e+00 1.35301336779913e-01 4.24143814607009e-03 
1.48500000000000e+00 1.34878475620519e-01 4.21596100400226e-03 
1.49500000000000e+00 1.34458144579113e-01 4.19083221489550e-03 
1.50500000000000e+00 1.34040309177540e-01 4.16604473074025e-03 
1.51500000000000e+00 1.33624935632965e-01 4.14159169008721e-03 
1.52500000000000e+00 1.33211990839523e-01 4.11746641192548e-03 
1.53500000000000e+00 1.32801442350579e-01 4.09366238979705e-03 
1.54500000000000e+00 1.32393258361563e-01 4.07017328614270e-03 
1.55500000000000e+00 1.31987407693351e-01 4.04699292686564e-03 
1.56500000000000e+00 1.31583859776190e-01 4.02411529610389e-03 
1.57500000000000e+00 1.31182584634130e-01 4.00153453120070e-03 
1.58500000000000e+00 1.30783552869950e-01 3.97924491786592e-03 
1.59500000000000e+00 1.30386735650557e-01 3.95724088552235e-03 
1.60500000000000e+00 1.29992104692845e-01 3.93551700282158e-03 
1.61500000000000e+00 1.29599632249993e-01 3.91406797332933e-03 
1.62500000000000e+00 1.29209291098180e-01 3.89288863137049e-03 
1.63500000000000e+00 1.28821054523719e-01 3.87197393802441e-03 
1.64500000000000e+00 1.28434896310575e-01 3.85131897726834e-03 
1.65500000000000e+00 1.28050790728265e-01 3.83091895226076e-03 
1.66500000000000e+00 1.27668712520123e-01 3.81076918175807e-03 
1.67500000000000e+00 1.27288636891913e-01 3.79086509665894e-03 
1.68500000000000e+00 1.26910539500791e-01 3.77120223667385e-03 
1.69500000000000e+00 1.26534396444579e-01 3.75177624711120e-03 
1.70500000000000e+00 1.26160184251368e-01 3.73258287577657e-03 
1.71500000000000e+00 1.25787879869423e-01 3.71361796998176e-03 
1.72500000000000e+00 1.25417460657372e-01 3.69487747365602e-03 
1.73500000000000e+00 1.25048904374692e-01 3.67635742455866e-03 
1.74500000000000e+00 1.24682189172460e-01 3.65805395158701e-03 
1.75500000000000e+00 1.24317293584375e-01 3.63996327217696e-03 
1.76500000000000e+00 1.23954196518025e-01 3.62208168979195e-03 
1.77500000000000e+00 1.23592877246416e-01 3.60440559149598e-03 
1.78500000000000e+00 1.23233315399726e-01 3.58693144560954e-03 
1.79500000000000e+00 1.22875490957294e-01 3.56965579944239e-03 
1.80500000000000e+00 1.22519384239837e-01 3.55257527710345e-03 
1.81500000000000e+00 1.22164975901874e-01 3.53568657738237e-03 
1.82500000000000e+00 1.21812246924361e-01 3.51898647170015e-03 
1.83500000000000e+00 1.21461178607534e-01 3.50247180212766e-03 
1.84500000000000e+00 1.21111752563935e-01 3.48613947946885e-03 
1.85500000000000e+00 1.20763950711640e-01 3.46998648140584e-03 
1.86500000000000e+00 1.20417755267654e-01 3.45400985070320e-03 
1.87500000000000e+00 1.20073148741499e-01 3.43820669346996e-03 
1.88500000000000e+00 1.19730113928960e-01 3.42257417747689e-03 
1.89500000000000e+00 1.19388633906004e-01 3.40710953052825e-03 
1.90500000000000e+00 1.19048692022855e-01 3.39181003888279e-03 
1.91500000000000e+00 1.18710271898227e-01 3.37667304572575e-03 
1.92500000000000e+00 1.18373357413709e-01 3.36169594968863e-03 
1.93500000000000e+00 1.18037932708289e-01 3.34687620341459e-03 
1.94500000000000e+00 1.17703982173026e-01 3.33221131216706e-03 
1.95500000000000e+00 1.17371490445856e-01 3.31769883248269e-03 
1.96500000000000e+00 1.17040442406530e-01 3.30333637086525e-03 
1.97500000000000e+00 1.16710823171683e-01 3.28912158251760e-03 
1.98500000000000e+00 1.16382618090026e-01 3.27505217011401e-03 
1.99500000000000e+00 1.16055812737660e-01 3.26112588260881e-03 
2.00500000000000e+00 1.15730392913505e-01 3.24734051408038e-03 
2.01500000000000e+00 1.15406344634844e-01 3.23369390260973e-03 
2.02500000000000e+00 1.15083654132983e-01 3.22018392919246e-03 
2.03500000000000e+00 1.14762307849006e-01 3.20680851668267e-03 
2.04500000000000e+00 1.14442292429646e-01 3.19356562876884e-03 
2.05500000000000e+00 1.14123594723252e-01 3.18045326897776e-03 
2.06500000000000e+00 1.13806201775851e-01 3.16746947970806e-03 
2.07500000000000e+00 1.13490100827310e-01 3.15461234129288e-03 
2.08500000000000e+00 1.13175279307592e-01 3.14187997108958e-03 
2.09500000000000e+00 1.12861724833092e-01 3.12927052259389e-03 
2.10500000000000e+00 1.12549425203073e-01 3.11678218457963e-03 
2.11500000000000e+00 1.12238368396176e-01 3.10441318026392e-03 
2.12500000000000e+00 1.11928542567020e-01 3.09216176649613e-03 
2.13500000000000e+00 1.11619936042877e-01 3.08002623296846e-03 
2.14500000000000e+00 1.11312537320427e-01 3.06800490144921e-03 
2.15500000000000e+00 1.11006335062587e-01 3.05609612503706e-03 
2.16500000000000e+00 1.10701318095419e-01 3.04429828743645e-03 
2.17500000000000e+00 1.10397475405100e-01 3.03260980225373e-03 
2.18500000000000e+00 1.10094796134969e-01 3.02102911231034e-03 
2.19500000000000e+00 1.09793269582638e-01 3.00955468897780e-03 
2.20500000000000e+00 1.09492885197173e-01 2.99818503152853e-03 
2.21500000000000e+00 1.09193632576332e-01 2.98691866650456e-03 
2.22500000000000e+00 1.08895501463872e-01 2.97575414710517e-03 
2.23500000000000e+00 1.08598481746911e-01 2.96469005258787e-03 
2.24500000000000e+00 1.08302563453355e-01 2.95372498768771e-03 
2.25500000000000e+00 1.08007736749374e-01 2.94285758205219e-03 
2.26500000000000e+00 1.07713991936944e-01 2.93208648968958e-03 
2.27500000000000e+00 1.07421319451436e-01 2.92141038843244e-03 
2.28500000000000e+00 1.07129709859258e-01 2.91082797941641e-03 
2.29500000000000e+00 1.06839153855553e-01 2.90033798657101e-03 
2.30500000000000e+00 1.06549642261943e-01 2.88993915612448e-03 
2.31500000000000e+00 1.06261166024328e-01 2.87963025612160e-03 
2.32500000000000e+00 1.05973716210719e-01 2.86941007595291e-03 
2.33500000000000e+00 1.05687284009137e-01 2.85927742589807e-03 
2.34500000000000e+00 1.05401860725540e-01 2.84923113667929e-03 
2.35500000000000e+00 1.05117437781801e-01 2.83927005902580e-03 
2.36500000000000e+00 1.04834006713734e-01 2.82939306325093e-03 
2.37500000000000e+00 1.04551559169151e-01 2.81959903883876e-03 
2.38500000000000e+00 1.04270086905967e-01 2.80988689404189e-03 
2.39500000000000e+00 1.03989581790343e-01 2.80025555548957e-03 
2.40500000000000e+00 1.03710035794869e-01 2.79070396780330e-03 
2.41500000000000e+00 1.03431440996782e-01 2.78123109322473e-03 
2.42500000000000e+00 1.03153789576224e-01 2.77183591125198e-03 
2.43500000000000e+00 1.02877073814532e-01 2.76251741828396e-03 
2.44500000000000e+00 1.02601286092567e-01 2.75327462727445e-03 
2.45500000000000e+00 1.02326418889077e-01 2.74410656739464e-03 
2.46500000000000e+00 1.02052464779088e-01 2.73501228370339e-03 
2.47500000000000e+00 1.01779416432336e-01 2.72599083682566e-03 
2.48500000000000e+00 1.01507266611723e-01 2.71704130263895e-03 
2.49500000000000e+00 1.01236008171808e-01 2.70816277196675e-03 
2.50500000000000e+00 1.00965634057330e-01 2.69935435028040e-03 
2.51500000000000e+00 1.00696137301752e-01 2.69061515740653e-03 
2.52500000000000e+00 1.00427511025848e-01 2.68194432724245e-03 
2.53500000000000e+00 1.00159748436304e-01 2.67334100747904e-03 
2.54500000000000e+00 9.98928428243524e-02 2.66480435932852e-03 
2.55500000000000e+00 9.96267875644379e-02 2.65633355725922e-03 
2.56500000000000e+00 9.93615761129006e-02 2.64792778873688e-03 
2.57500000000000e+00 9.90972020066906e-02 2.63958625397215e-03 
2.58500000000000e+00 9.88336588621061e-02 2.63130816567383e-03 
2.59500000000000e+00 9.85709403735558e-02 2.62309274880711e-03 
2.60500000000000e+00 9.83090403123447e-02 2.61493924035752e-03 
2.61500000000000e+00 9.80479525254843e-02 2.60684688910190e-03 
2.62500000000000e+00 9.77876709345243e-02 2.59881495538274e-03 
2.63500000000000e+00 9.75281895344078e-02 2.59084271088797e-03 
2.64500000000000e+00 9.72695023923467e-02 2.58292943843670e-03 
2.65500000000000e+00 9.70116036467204e-02 2.57507443176909e-03 
2.66500000000000e+00 9.67544875059929e-02 2.56727699534144e-03 
2.67500000000000e+00 9.64981482476521e-02 2.55953644412443e-03 
2.68500000000000e+00 9.62425802171680e-02 2.55185210340805e-03 
2.69500000000000e+00 9.59877778269705e-02 2.54422330860954e-03 
2.70500000000000e+00 9.57337355554461e-02 2.53664940508609e-03 
2.71500000000000e+00 9.54804479459533e-02 2.52912974795079e-03 
2.72500000000000e+00 9.52279096058560e-02 2.52166370189363e-03 
2.73500000000000e+00 9.49761152055746e-02 2.51425064100655e-03 
2.74500000000000e+00 9.47250594776547e-02 2.50688994861123e-03 
2.75500000000000e+00 9.44747372158523e-02 2.49958101709226e-03 
2.76500000000000e+00 9.42251432742362e-02 2.49232324773148e-03 
2.77500000000000e+00 9.39762725663060e-02 2.48511605054895e-03 
2.78500000000000e+00 9.37281200641264e-02 2.47795884414509e-03 
2.79500000000000e+00 9.34806807974770e-02 2.47085105554615e-03 
2.80500000000000e+00 9.32339498530172e-02 2.46379212005494e-03 
2.81500000000000e+00 9.29879223734660e-02 2.45678148110343e-03 
2.82500000000000e+00 9.27425935567965e-02 2.44981859010868e-03 
2.83500000000000e+00 9.24979586554443e-02 2.44290290633060e-03 
2.84500000000000e+00 9.22540129755304e-02 2.43603389673525e-03 
2.85500000000000e+00 9.20107518760972e-02 2.42921103585945e-03 
2.86500000000000e+00 9.17681707683585e-02 2.42243380567768e-03 
2.87500000000000e+00 9.15262651149617e-02 2.41570169547282e-03 
2.88500000000000e+00 9.12850304292639e-02 2.40901420170990e-03 
2.89500000000000e+00 9.10444622746197e-02 2.40237082791139e-03 
2.90500000000000e+00 9.08045562636817e-02 2.39577108453536e-03 
2.91500000000000e+00 9.05653080577127e-02 2.38921448885675e-03 
2.92500000000000e+00 9.03267133659103e-02 2.38270056484996e-03 
2.93500000000000e+00 9.00887679447427e-02 2.37622884307537e-03 
2.94500000000000e+00 8.98514675972952e-02 2.36979886056657e-03 
2.95500000000000e+00 8.96148081726293e-02 2.36341016072145e-03 
2.96500000000000e+00 8.93787855651509e-02 2.35706229319434e-03 
2.97500000000000e+00 8.91433957139905e-02 2.35075481379042e-03 
2.98500000000000e+00 8.89086346023929e-02 2.34448728436247e-03 
2.99500000000000e+00 8.86744982571180e-02 2.33825927271010e-03 
3.00500000000000e+00 8.84409827478508e-02 2.33207035248144e-03 
3.01500000000000e+00 8.82080841866217e-02 2.32592010307425e-03 
3.02500000000000e+00 8.79757987272360e-02 2.31980810954151e-03 
3.03500000000000e+00 8.77441225647134e-02 2.31373396249852e-03 
3.04500000000000e+00 8.75130519347363e-02 2.30769725803166e-03 
3.05500000000000e+00 8.72825831131071e-02 2.30169759760784e-03 
3.06500000000000e+00 8.70527124152147e-02 2.29573458798649e-03 
3.07500000000000e+00 8.68234361955098e-02 2.28980784113410e-03 
3.08500000000000e+00 8.65947508469879e-02 2.28391697413927e-03 
3.09500000000000e+00 8.63666528006819e-02 2.27806160913037e-03 
3.10500000000000e+00 8.61391385251618e-02 2.27224137319376e-03 
