Energy(eV)           EEDF(eV^-(3/2))      First Anisotropy
5.00000000000000e-03 4.55780647420277e-01 5.18397813187824e-01 
1.50000000000000e-02 4.03940866101495e-01 4.04665910577381e-01 
2.50000000000000e-02 3.74847465304801e-01 2.42448952448972e-01 
3.50000000000000e-02 3.55451075611701e-01 1.69722411112156e-01 
4.50000000000000e-02 3.40902983082370e-01 1.30936816405275e-01 
5.50000000000000e-02 3.29263712330645e-01 1.06697254329426e-01 
6.50000000000000e-02 3.19563532216485e-01 9.00769854601363e-02 
7.50000000000000e-02 3.11248315238618e-01 7.79589856199572e-02 
8.50000000000000e-02 3.03971735092493e-01 6.87270252959862e-02 
9.50000000000000e-02 2.97502910179421e-01 6.14575482238955e-02 
1.05000000000000e-01 2.91680225447714e-01 5.55838290993582e-02 
1.15000000000000e-01 2.86386144359549e-01 5.07385477059855e-02 
1.25000000000000e-01 2.81532515906517e-01 4.66730578139199e-02 
1.35000000000000e-01 2.77051532796765e-01 4.32129851439827e-02 
1.45000000000000e-01 2.72889918877721e-01 4.02323935004625e-02 
1.55000000000000e-01 2.69005054096673e-01 3.76380422877995e-02 
1.65000000000000e-01 2.65362310420161e-01 3.53594139169075e-02 
1.75000000000000e-01 2.61933171313291e-01 3.33421841449411e-02 
1.85000000000000e-01 2.58693873591173e-01 3.15438231565235e-02 
1.95000000000000e-01 2.55624406681987e-01 2.99305575679823e-02 
2.05000000000000e-01 2.52707762077576e-01 2.84752259653828e-02 
2.15000000000000e-01 2.49929361488910e-01 2.71557355460278e-02 
2.25000000000000e-01 2.47276614968371e-01 2.59539319736593e-02 
2.35000000000000e-01 2.44738575094178e-01 2.48547588358518e-02 
2.45000000000000e-01 2.42305663201200e-01 2.38456236367719e-02 
2.55000000000000e-01 2.39969450366824e-01 2.29159134261504e-02 
2.65000000000000e-01 2.37722480515970e-01 2.20566204075359e-02 
2.75000000000000e-01 2.35558126285317e-01 2.12600494458137e-02 
2.85000000000000e-01 2.33470470626807e-01 2.05195873016088e-02 
2.95000000000000e-01 2.31454208824995e-01 1.98295189070992e-02 
3.05000000000000e-01 2.29504566845387e-01 1.91848798604648e-02 
3.15000000000000e-01 2.27617232852902e-01 1.85813370720164e-02 
3.25000000000000e-01 2.25788299430984e-01 1.80150914856095e-02 
3.35000000000000e-01 2.24014214555780e-01 1.74827982533465e-02 
3.45000000000000e-01 2.22291739780315e-01 1.69815008156420e-02 
3.55000000000000e-01 2.20617914392652e-01 1.65085761398748e-02 
3.65000000000000e-01 2.18990024552340e-01 1.60616889740378e-02 
3.75000000000000e-01 2.17405576597844e-01 1.56387534299171e-02 
3.85000000000000e-01 2.15862273866357e-01 1.52379005611576e-02 
3.95000000000000e-01 2.14357996485613e-01 1.48574508723109e-02 
4.05000000000000e-01 2.12890783691894e-01 1.44958909054492e-02 
4.15000000000000e-01 2.11458818304523e-01 1.41518532156749e-02 
4.25000000000000e-01 2.10060413048759e-01 1.38240991766658e-02 
4.35000000000000e-01 2.08693998469190e-01 1.35115041603204e-02 
4.45000000000000e-01 2.07358112216695e-01 1.32130447166265e-02 
4.55000000000000e-01 2.06051389525864e-01 1.29277874456980e-02 
4.65000000000000e-01 2.04772554727556e-01 1.26548793069872e-02 
4.75000000000000e-01 2.03520413664467e-01 1.23935391536648e-02 
4.85000000000000e-01 2.02293846896823e-01 1.21430503151751e-02 
4.95000000000000e-01 2.01091803601432e-01 1.19027540796053e-02 
5.05000000000000e-01 1.99913296080902e-01 1.16720439510327e-02 
5.15000000000000e-01 1.98757394811225e-01 1.14503605764250e-02 
5.25000000000000e-01 1.97623223965617e-01 1.12371872527475e-02 
5.35000000000000e-01 1.96509957360676e-01 1.10320459383025e-02 
5.45000000000000e-01 1.95416814777956e-01 1.08344937034860e-02 
5.55000000000000e-01 1.94343058619979e-01 1.06441195655084e-02 
5.65000000000000e-01 1.93287990864854e-01 1.04605416594628e-02 
5.75000000000000e-01 1.92250950288086e-01 1.02834047047715e-02 
5.85000000000000e-01 1.91231309923900e-01 1.01123777316477e-02 
5.95000000000000e-01 1.90228474741756e-01 9.94715203695359e-03 
6.05000000000000e-01 1.89241879516509e-01 9.78743934290344e-03 
6.15000000000000e-01 1.88270986873176e-01 9.63297013550815e-03 
6.25000000000000e-01 1.87315285489408e-01 9.48349216261510e-03 
6.35000000000000e-01 1.86374288440653e-01 9.33876907394299e-03 
6.45000000000000e-01 1.85447531674619e-01 9.19857918769376e-03 
6.55000000000000e-01 1.84534572603114e-01 9.06271437020476e-03 
6.65000000000000e-01 1.83634988800578e-01 8.93097901673648e-03 
6.75000000000000e-01 1.82748376799767e-01 8.80318912290179e-03 
6.85000000000000e-01 1.81874350975998e-01 8.67917143747038e-03 
6.95000000000000e-01 1.81012542512273e-01 8.55876268834585e-03 
7.05000000000000e-01 1.80162598438329e-01 8.44180887445159e-03 
7.15000000000000e-01 1.79324180737382e-01 8.32816461706729e-03 
7.25000000000000e-01 1.78496965514915e-01 8.21769256486707e-03 
7.35000000000000e-01 1.77680642224409e-01 8.11026284755295e-03 
7.45000000000000e-01 1.76874912945405e-01 8.00575257351041e-03 
7.55000000000000e-01 1.76079491709707e-01 7.90404536740202e-03 
7.65000000000000e-01 1.75294103871924e-01 7.80503094404444e-03 
7.75000000000000e-01 1.74518485520898e-01 7.70860471528897e-03 
7.85000000000000e-01 1.73752382928866e-01 7.61466742696545e-03 
7.95000000000000e-01 1.72995552035505e-01 7.52312482323408e-03 
8.05000000000000e-01 1.72247757964220e-01 7.43388733596861e-03 
8.15000000000000e-01 1.71508774568311e-01 7.34686979701610e-03 
8.25000000000000e-01 1.70778384004816e-01 7.26199117138976e-03 
8.35000000000000e-01 1.70056376334033e-01 7.17917430964291e-03 
8.45000000000000e-01 1.69342549142888e-01 7.09834571783405e-03 
8.55000000000000e-01 1.68636707190466e-01 7.01943534364105e-03 
8.65000000000000e-01 1.67938662074160e-01 6.94237637731507e-03 
8.75000000000000e-01 1.67248231915003e-01 6.86710506629204e-03 
8.85000000000000e-01 1.66565241060901e-01 6.79356054237717e-03 
8.95000000000000e-01 1.65889519806528e-01 6.72168466051767e-03 
9.05000000000000e-01 1.65220904128798e-01 6.65142184826981e-03 
9.15000000000000e-01 1.64559235436874e-01 6.58271896514309e-03 
9.25000000000000e-01 1.63904360335769e-01 6.51552517107010e-03 
9.35000000000000e-01 1.63256130402660e-01 6.44979180331878e-03 
9.45000000000000e-01 1.62614401975105e-01 6.38547226122513e-03 
9.55000000000000e-01 1.61979035950415e-01 6.32252189816856e-03 
9.65000000000000e-01 1.61349897595472e-01 6.26089792026954e-03 
9.75000000000000e-01 1.60726856366361e-01 6.20055929132279e-03 
9.85000000000000e-01 1.60109785737207e-01 6.14146664352014e-03 
9.95000000000000e-01 1.59498563037657e-01 6.08358219356328e-03 
1.00500000000000e+00 1.58893069298494e-01 6.02686966378649e-03 
1.01500000000000e+00 1.58293189104900e-01 5.97129420794235e-03 
1.02500000000000e+00 1.57698810456906e-01 5.91682234133251e-03 
1.03500000000000e+00 1.57109824636633e-01 5.86342187499408e-03 
1.04500000000000e+00 1.56526126081907e-01 5.81106185366331e-03 
1.05500000000000e+00 1.55947612265901e-01 5.75971249726914e-03 
1.06500000000000e+00 1.55374183582453e-01 5.70934514572657e-03 
1.07500000000000e+00 1.54805743236755e-01 5.65993220680891e-03 
1.08500000000000e+00 1.54242197141092e-01 5.61144710690853e-03 
1.09500000000000e+00 1.53683453815373e-01 5.56386424449329e-03 
1.10500000000000e+00 1.53129424292193e-01 5.51715894609006e-03 
1.11500000000000e+00 1.52580022026155e-01 5.47130742464277e-03 
1.12500000000000e+00 1.52035162807264e-01 5.42628674008880e-03 
1.13500000000000e+00 1.51494764678138e-01 5.38207476202021e-03 
1.14500000000000e+00 1.50958747854860e-01 5.33865013430418e-03 
1.15500000000000e+00 1.50427034651277e-01 5.29599224154173e-03 
1.16500000000000e+00 1.49899549406552e-01 5.25408117725334e-03 
1.17500000000000e+00 1.49376218415826e-01 5.21289771369074e-03 
1.18500000000000e+00 1.48856969863814e-01 5.17242327317785e-03 
1.19500000000000e+00 1.48341733761191e-01 5.13263990089219e-03 
1.20500000000000e+00 1.47830441883635e-01 5.09353023900164e-03 
1.21500000000000e+00 1.47323027713390e-01 5.05507750207718e-03 
1.22500000000000e+00 1.46819426383220e-01 5.01726545371256e-03 
1.23500000000000e+00 1.46319574622648e-01 4.98007838428030e-03 
1.24500000000000e+00 1.45823410706364e-01 4.94350108975888e-03 
1.25500000000000e+00 1.45330874404696e-01 4.90751885157473e-03 
1.26500000000000e+00 1.44841906936049e-01 4.87211741739907e-03 
1.27500000000000e+00 1.44356450921216e-01 4.83728298284830e-03 
1.28500000000000e+00 1.43874450339479e-01 4.80300217404125e-03 
1.29500000000000e+00 1.43395850486408e-01 4.76926203096445e-03 
1.30500000000000e+00 1.42920597933286e-01 4.73604999160174e-03 
1.31500000000000e+00 1.42448640488088e-01 4.70335387678739e-03 
1.32500000000000e+00 1.41979927157929e-01 4.67116187574862e-03 
1.33500000000000e+00 1.41514408112938e-01 4.63946253229694e-03 
1.34500000000000e+00 1.41052034651469e-01 4.60824473163327e-03 
1.35500000000000e+00 1.40592759166611e-01 4.57749768774066e-03 
1.36500000000000e+00 1.40136535113921e-01 4.54721093133117e-03 
1.37500000000000e+00 1.39683316980345e-01 4.51737429831747e-03 
1.38500000000000e+00 1.39233060254258e-01 4.48797791878577e-03 
1.39500000000000e+00 1.38785721396588e-01 4.45901220644168e-03 
1.40500000000000e+00 1.38341257812970e-01 4.43046784850826e-03 
1.41500000000000e+00 1.37899627826886e-01 4.40233579605251e-03 
1.42500000000000e+00 1.37460790653759e-01 4.37460725471780e-03 
1.43500000000000e+00 1.37024706375943e-01 4.34727367584695e-03 
1.44500000000000e+00 1.36591335918590e-01 4.32032674797217e-03 
1.45500000000000e+00 1.36160641026348e-01 4.29375838865514e-03 
1.46500000000000e+00 1.35732584240859e-01 4.26756073666448e-03 
1.47500000000000e+00 1.35307128879015e-01 4.24172614446910e-03 
1.48500000000000e+00 1.34884239011965e-01 4.21624717103622e-03 
1.49500000000000e+00 1.34463879444808e-01 4.19111657491783e-03 
1.50500000000000e+00 1.34046015696981e-01 4.16632730761257e-03 
1.51500000000000e+00 1.33630613983286e-01 4.14187250719275e-03 
1.52500000000000e+00 1.33217641195543e-01 4.11774549218091e-03 
1.53500000000000e+00 1.32807064884849e-01 4.09393975566524e-03 
1.54500000000000e+00 1.32398853244410e-01 4.07044895964451e-03 
1.55500000000000e+00 1.31992975092920e-01 4.04726692959101e-03 
1.56500000000000e+00 1.31589399858491e-01 4.02438764922269e-03 
1.57500000000000e+00 1.31188097563076e-01 4.00180525547425e-03 
1.58500000000000e+00 1.30789038807397e-01 3.97951403365696e-03 
1.59500000000000e+00 1.30392194756345e-01 3.95750841280462e-03 
1.60500000000000e+00 1.29997537124836e-01 3.93578296119024e-03 
1.61500000000000e+00 1.29605038164106e-01 3.91433238201011e-03 
1.62500000000000e+00 1.29214670648434e-01 3.89315150922831e-03 
1.63500000000000e+00 1.28826407862261e-01 3.87223530357278e-03 
1.64500000000000e+00 1.28440223587719e-01 3.85157884867815e-03 
1.65500000000000e+00 1.28056092092525e-01 3.83117734736801e-03 
1.66500000000000e+00 1.27673988118245e-01 3.81102611807224e-03 
1.67500000000000e+00 1.27293886868911e-01 3.79112059137085e-03 
1.68500000000000e+00 1.26915763999971e-01 3.77145630666320e-03 
1.69500000000000e+00 1.26539595607578e-01 3.75202890895404e-03 
1.70500000000000e+00 1.26165358218180e-01 3.73283414575251e-03 
1.71500000000000e+00 1.25793028778428e-01 3.71386786408023e-03 
1.72500000000000e+00 1.25422584645364e-01 3.69512600758348e-03 
1.73500000000000e+00 1.25054003576911e-01 3.67660461374569e-03 
1.74500000000000e+00 1.24687263722615e-01 3.65829981119413e-03 
1.75500000000000e+00 1.24322343614672e-01 3.64020781710071e-03 
1.76500000000000e+00 1.23959222159195e-01 3.62232493467105e-03 
1.77500000000000e+00 1.23597878627738e-01 3.60464755071732e-03 
1.78500000000000e+00 1.23238292649052e-01 3.58717213331347e-03 
1.79500000000000e+00 1.22880444201075e-01 3.56989522952843e-03 
1.80500000000000e+00 1.22524313603146e-01 3.55281346323594e-03 
1.81500000000000e+00 1.22169881508428e-01 3.53592353299535e-03 
1.82500000000000e+00 1.21817128896547e-01 3.51922221000243e-03 
1.83500000000000e+00 1.21466037066428e-01 3.50270633610782e-03 
1.84500000000000e+00 1.21116587629325e-01 3.48637282190020e-03 
1.85500000000000e+00 1.20768762502047e-01 3.47021864485097e-03 
1.86500000000000e+00 1.20422543900355e-01 3.45424084751828e-03 
1.87500000000000e+00 1.20077914332544e-01 3.43843653580936e-03 
1.88500000000000e+00 1.19734856593193e-01 3.42280287729743e-03 
1.89500000000000e+00 1.19393353757084e-01 3.40733709959358e-03 
1.90500000000000e+00 1.19053389173275e-01 3.39203648876740e-03 
1.91500000000000e+00 1.18714946459331e-01 3.37689838781900e-03 
1.92500000000000e+00 1.18378009495711e-01 3.36192019519843e-03 
1.93500000000000e+00 1.18042562420291e-01 3.34709936337114e-03 
1.94500000000000e+00 1.17708589623037e-01 3.33243339742662e-03 
1.95500000000000e+00 1.17376075740806e-01 3.31791985373107e-03 
1.96500000000000e+00 1.17045005652290e-01 3.30355633862169e-03 
1.97500000000000e+00 1.16715364473081e-01 3.28934050713769e-03 
1.98500000000000e+00 1.16387137550863e-01 3.27527006179315e-03 
1.99500000000000e+00 1.16060310460723e-01 3.26134275138543e-03 
2.00500000000000e+00 1.15734869000586e-01 3.24755636983913e-03 
2.01500000000000e+00 1.15410799186755e-01 3.23390875508492e-03 
2.02500000000000e+00 1.15088087249569e-01 3.22039778797058e-03 
2.03500000000000e+00 1.14766719629161e-01 3.20702139120541e-03 
2.04500000000000e+00 1.14446682971328e-01 3.19377752833569e-03 
2.05500000000000e+00 1.14127964123494e-01 3.18066420274911e-03 
2.06500000000000e+00 1.13810550130778e-01 3.16767945670794e-03 
2.07500000000000e+00 1.13494428232152e-01 3.15482137041162e-03 
2.08500000000000e+00 1.13179585856696e-01 3.14208806108648e-03 
2.09500000000000e+00 1.12866010619935e-01 3.12947768209906e-03 
2.10500000000000e+00 1.12553690320276e-01 3.11698842209711e-03 
2.11500000000000e+00 1.12242612935515e-01 3.10461850417422e-03 
2.12500000000000e+00 1.11932766619441e-01 3.09236618505820e-03 
2.13500000000000e+00 1.11624139698504e-01 3.08022975432198e-03 
2.14500000000000e+00 1.11316720668576e-01 3.06820753361671e-03 
2.15500000000000e+00 1.11010498191780e-01 3.05629787592666e-03 
2.16500000000000e+00 1.10705461093391e-01 3.04449916484359e-03 
2.17500000000000e+00 1.10401598358812e-01 3.03280981386309e-03 
2.18500000000000e+00 1.10098899130619e-01 3.02122826569835e-03 
2.19500000000000e+00 1.09797352705672e-01 3.00975299161434e-03 
2.20500000000000e+00 1.09496948532296e-01 2.99838249077887e-03 
2.21500000000000e+00 1.09197676207516e-01 2.98711528963130e-03 
2.22500000000000e+00 1.08899525474369e-01 2.97594994126994e-03 
2.23500000000000e+00 1.08602486219262e-01 2.96488502485370e-03 
2.24500000000000e+00 1.08306548469399e-01 2.95391914502036e-03 
2.25500000000000e+00 1.08011702390258e-01 2.94305093132184e-03 
2.26500000000000e+00 1.07717938283134e-01 2.93227903767262e-03 
2.27500000000000e+00 1.07425246582724e-01 2.92160214181325e-03 
2.28500000000000e+00 1.07133617854772e-01 2.91101894478903e-03 
2.29500000000000e+00 1.06843042793766e-01 2.90052817044049e-03 
2.30500000000000e+00 1.06553512220684e-01 2.89012856490856e-03 
2.31500000000000e+00 1.06265017080784e-01 2.87981889615221e-03 
2.32500000000000e+00 1.05977548441453e-01 2.86959795347777e-03 
2.33500000000000e+00 1.05691097490089e-01 2.85946454708176e-03 
2.34500000000000e+00 1.05405655532037e-01 2.84941750760534e-03 
2.35500000000000e+00 1.05121213988568e-01 2.83945568569755e-03 
2.36500000000000e+00 1.04837764394897e-01 2.82957795159279e-03 
2.37500000000000e+00 1.04555298398249e-01 2.81978319469828e-03 
2.38500000000000e+00 1.04273807755958e-01 2.81007032319050e-03 
2.39500000000000e+00 1.03993284333611e-01 2.80043826362389e-03 
2.40500000000000e+00 1.03713720103233e-01 2.79088596054647e-03 
2.41500000000000e+00 1.03435107141502e-01 2.78141237612751e-03 
2.42500000000000e+00 1.03157437628007e-01 2.77201648979444e-03 
2.43500000000000e+00 1.02880703843543e-01 2.76269729787622e-03 
2.44500000000000e+00 1.02604898168432e-01 2.75345381325759e-03 
2.45500000000000e+00 1.02330013080891e-01 2.74428506504235e-03 
2.46500000000000e+00 1.02056041155424e-01 2.73519009822289e-03 
2.47500000000000e+00 1.01782975061247e-01 2.72616797335881e-03 
2.48500000000000e+00 1.01510807560752e-01 2.71721776626328e-03 
2.49500000000000e+00 1.01239531507994e-01 2.70833856769667e-03 
2.50500000000000e+00 1.00969139847212e-01 2.69952948306805e-03 
2.51500000000000e+00 1.00699625611380e-01 2.69078963214257e-03 
2.52500000000000e+00 1.00430981920784e-01 2.68211814875734e-03 
2.53500000000000e+00 1.00163201981629e-01 2.67351418054410e-03 
2.54500000000000e+00 9.98962790846751e-02 2.66497688865677e-03 
2.55500000000000e+00 9.96302066038976e-02 2.65650544750612e-03 
2.56500000000000e+00 9.93649779951739e-02 2.64809904450131e-03 
2.57500000000000e+00 9.91005867949973e-02 2.63975687979728e-03 
2.58500000000000e+00 9.88370266192145e-02 2.63147816604817e-03 
2.59500000000000e+00 9.85742911617877e-02 2.62326212816522e-03 
2.60500000000000e+00 9.83123741935814e-02 2.61510800308104e-03 
2.61500000000000e+00 9.80512695611715e-02 2.60701503952014e-03 
2.62500000000000e+00 9.77909711856774e-02 2.59898249777332e-03 
2.63500000000000e+00 9.75314730616168e-02 2.59100964947800e-03 
2.64500000000000e+00 9.72727692557818e-02 2.58309577740361e-03 
2.65500000000000e+00 9.70148539061361e-02 2.57524017524109e-03 
2.66500000000000e+00 9.67577212207336e-02 2.56744214739826e-03 
2.67500000000000e+00 9.65013654766564e-02 2.55970100879833e-03 
2.68500000000000e+00 9.62457810189739e-02 2.55201608468439e-03 
2.69500000000000e+00 9.59909622597196e-02 2.54438671042731e-03 
2.70500000000000e+00 9.57369036768884e-02 2.53681223133878e-03 
2.71500000000000e+00 9.54835998134518e-02 2.52929200248726e-03 
2.72500000000000e+00 9.52310452763910e-02 2.52182538851849e-03 
2.73500000000000e+00 9.49792347357481e-02 2.51441176348073e-03 
2.74500000000000e+00 9.47281629236948e-02 2.50705051065295e-03 
2.75500000000000e+00 9.44778246336175e-02 2.49974102237746e-03 
2.76500000000000e+00 9.42282147192193e-02 2.49248269989462e-03 
2.77500000000000e+00 9.39793280936386e-02 2.48527495318333e-03 
2.78500000000000e+00 9.37311597285827e-02 2.47811720080364e-03 
2.79500000000000e+00 9.34837046534779e-02 2.47100886974202e-03 
2.80500000000000e+00 9.32369579546343e-02 2.46394939526204e-03 
2.81500000000000e+00 9.29909147744255e-02 2.45693822075690e-03 
2.82500000000000e+00 9.27455703104829e-02 2.44997479760561e-03 
2.83500000000000e+00 9.25009198149043e-02 2.44305858503067e-03 
2.84500000000000e+00 9.22569585934768e-02 2.43618904996079e-03 
2.85500000000000e+00 9.20136820049122e-02 2.42936566689632e-03 
2.86500000000000e+00 9.17710854600975e-02 2.42258791777597e-03 
2.87500000000000e+00 9.15291644213570e-02 2.41585529184733e-03 
2.88500000000000e+00 9.12879144017280e-02 2.40916728554023e-03 
2.89500000000000e+00 9.10473309642489e-02 2.40252340234261e-03 
2.90500000000000e+00 9.08074097212595e-02 2.39592315267857e-03 
2.91500000000000e+00 9.05681463337132e-02 2.38936605378957e-03 
2.92500000000000e+00 9.03295365105016e-02 2.38285162961684e-03 
2.93500000000000e+00 9.00915760077899e-02 2.37637941068812e-03 
2.94500000000000e+00 8.98542606283640e-02 2.36994893400518e-03 
2.95500000000000e+00 8.96175862209888e-02 2.36355974293397e-03 
2.96500000000000e+00 8.93815486797772e-02 2.35721138709753e-03 
2.97500000000000e+00 8.91461439435693e-02 2.35090342227032e-03 
2.98500000000000e+00 8.89113679953231e-02 2.34463541027456e-03 
2.99500000000000e+00 8.86772168615144e-02 2.33840691888004e-03 
3.00500000000000e+00 8.84436866115471e-02 2.33221752170526e-03 
3.01500000000000e+00 8.82107733571734e-02 2.32606679811877e-03 
3.02500000000000e+00 8.79784732519233e-02 2.31995433314480e-03 
3.03500000000000e+00 8.77467824905444e-02 2.31387971737010e-03 
3.04500000000000e+00 8.75156973084493e-02 2.30784254685298e-03 
3.05500000000000e+00 8.72852139811738e-02 2.30184242303276e-03 
3.06500000000000e+00 8.70553288238428e-02 2.29587895264179e-03 
3.07500000000000e+00 8.68260381906454e-02 2.28995174761958e-03 
3.08500000000000e+00 8.65973384743189e-02 2.28406042502793e-03 
3.09500000000000e+00 8.63692261056399e-02 2.27820460696922e-03 
3.10500000000000e+00 8.61416975529250e-02 2.27238392050390e-03 
