Energy (eV)          EEDF (eV^-(3/2))     First Anisotropy
4.93055555555556e-02 3.40207396671522e-02 2.12340344898698e-05
1.47916666666667e-01 3.36962591212981e-02 3.50139235320823e-05
2.46527777777778e-01 3.33748733827918e-02 4.60913912090024e-05
3.45138888888889e-01 3.30565529339344e-02 5.44277544585108e-05
4.43750000000000e-01 3.27412685388081e-02 6.13150880462542e-05
5.42361111111111e-01 3.24289912397173e-02 6.72438471016802e-05
6.40972222222222e-01 3.21196923565570e-02 7.24687990696442e-05
7.39583333333333e-01 3.18133434819636e-02 7.71443556223932e-05
8.38194444444444e-01 3.15099164795333e-02 8.13732959132762e-05
9.36805555555556e-01 3.12093834812291e-02 8.52285222995947e-05
1.03541666666667e+00 3.09117168848120e-02 8.87641923176795e-05
1.13402777777778e+00 3.06168893518215e-02 9.20219825494894e-05
1.23263888888889e+00 3.03248738037205e-02 9.50348704270109e-05
1.33125000000000e+00 3.00356434205287e-02 9.78295457525480e-05
1.42986111111111e+00 2.97491716360202e-02 1.00428016419277e-04
1.52847222222222e+00 2.94654321416406e-02 1.02848717526097e-04
1.62708333333333e+00 2.91843988775080e-02 1.05107300341202e-04
1.72569444444444e+00 2.89060460323003e-02 1.07217207038229e-04
1.82430555555556e+00 2.86303480408828e-02 1.09190099835178e-04
1.92291666666667e+00 2.83572795819465e-02 1.11036186946390e-04
2.02152777777778e+00 2.80868155757094e-02 1.12764474440280e-04
2.12013888888889e+00 2.78189311815958e-02 1.14382963742696e-04
2.21875000000000e+00 2.75536017959551e-02 1.15898808691437e-04
2.31736111111111e+00 2.72908030486535e-02 1.17318441331885e-04
2.41597222222222e+00 2.70305108043553e-02 1.18647674722650e-04
2.51458333333333e+00 2.67727011567029e-02 1.19891787343936e-04
2.61319444444444e+00 2.65173504273526e-02 1.21055592369757e-04
2.71180555555556e+00 2.62644351638000e-02 1.22143495953727e-04
2.81041666666667e+00 2.60139321372204e-02 1.23159546127367e-04
2.90902777777778e+00 2.57658183403462e-02 1.24107474204819e-04
3.00763888888889e+00 2.55200709853481e-02 1.24990730066834e-04
3.10625000000000e+00 2.52766675017413e-02 1.25812512502104e-04
3.20486111111111e+00 2.50355855335561e-02 1.26575794978426e-04
3.30347222222222e+00 2.47968029395958e-02 1.27283348429891e-04
3.40208333333333e+00 2.45602977890483e-02 1.27937761120271e-04
3.50069444444444e+00 2.43260483602719e-02 1.28541455530268e-04
3.59930555555556e+00 2.40940331388010e-02 1.29096703562457e-04
3.69791666666667e+00 2.38642308153665e-02 1.29605639855273e-04
3.79652777777778e+00 2.36366202839451e-02 1.30070273567537e-04
3.89513888888889e+00 2.34111806398174e-02 1.30492498846569e-04
3.99375000000000e+00 2.31878911776478e-02 1.30874104235715e-04
4.09236111111111e+00 2.29667313890406e-02 1.31216780773997e-04
4.19097222222222e+00 2.27476809623085e-02 1.31522129638547e-04
4.28958333333333e+00 2.25307197789281e-02 1.31791669034828e-04
4.38819444444444e+00 2.23158279122616e-02 1.32026840014860e-04
4.48680555555556e+00 2.21029856257263e-02 1.32229012046794e-04
4.58541666666667e+00 2.18921733709802e-02 1.32399487986732e-04
4.68402777777778e+00 2.16833717861301e-02 1.32539508596688e-04
4.78263888888889e+00 2.14765616939515e-02 1.32650256659590e-04
4.88125000000000e+00 2.12717241001271e-02 1.32732860800063e-04
4.97986111111111e+00 2.10688401910949e-02 1.32788398718848e-04
5.07847222222222e+00 2.08678913335600e-02 1.32817900474955e-04
5.17708333333333e+00 2.06688590715259e-02 1.32822351511013e-04
5.27569444444444e+00 2.04717251250241e-02 1.32802695105340e-04
5.37430555555556e+00 2.02764713884358e-02 1.32759834890961e-04
5.47291666666667e+00 2.00830799288277e-02 1.32694637116126e-04
5.57152777777778e+00 1.98915329843074e-02 1.32607932734683e-04
5.67013888888889e+00 1.97018129623904e-02 1.32500519342186e-04
5.76875000000000e+00 1.95139024383849e-02 1.32373163026608e-04
5.86736111111111e+00 1.93277841534738e-02 1.32226599867004e-04
5.96597222222222e+00 1.91434410140937e-02 1.32061537598080e-04
6.06458333333333e+00 1.89608560893881e-02 1.31878657169191e-04
6.16319444444444e+00 1.87800126099826e-02 1.31678613917649e-04
6.26180555555556e+00 1.86008939664448e-02 1.31462038885244e-04
6.36041666666667e+00 1.84234837077576e-02 1.31229539993992e-04
6.45902777777778e+00 1.82477655398104e-02 1.30981703146985e-04
6.55763888888889e+00 1.80737233239012e-02 1.30719093260271e-04
6.65625000000000e+00 1.79013410752547e-02 1.30442255278122e-04
6.75486111111111e+00 1.77306029613018e-02 1.30151714937867e-04
6.85347222222222e+00 1.75614933009915e-02 1.29847979721512e-04
6.95208333333333e+00 1.73939965625752e-02 1.29531539757965e-04
7.05069444444444e+00 1.72280973624421e-02 1.29202868432319e-04
7.14930555555556e+00 1.70637804637060e-02 1.28862423150343e-04
7.24791666666667e+00 1.69010307748055e-02 1.28510646012586e-04
7.34652777777778e+00 1.67398333481190e-02 1.28147964451342e-04
7.44513888888889e+00 1.65801733785916e-02 1.27774791833155e-04
7.54375000000000e+00 1.64220362023745e-02 1.27391528069668e-04
7.64236111111111e+00 1.62654072952746e-02 1.26998560033133e-04
7.74097222222222e+00 1.61102722720406e-02 1.26596262151596e-04
7.83958333333333e+00 1.59566168844141e-02 1.26184996978617e-04
7.93819444444444e+00 1.58044270200328e-02 1.25765115526131e-04
8.03680555555555e+00 1.56536887011344e-02 1.25336957745161e-04
8.13541666666667e+00 1.55043880832722e-02 1.24900852941689e-04
8.23402777777778e+00 1.53565114540445e-02 1.24457120172476e-04
8.33263888888889e+00 1.52100452318350e-02 1.24006068621973e-04
8.43125000000000e+00 1.50649759645649e-02 1.23547997996789e-04
8.52986111111111e+00 1.49212903282899e-02 1.23083198759991e-04
8.62847222222222e+00 1.47789751264856e-02 1.22611952529888e-04
8.72708333333333e+00 1.46380172883207e-02 1.22134532464769e-04
8.82569444444444e+00 1.44984038676297e-02 1.21651203449421e-04
8.92430555555556e+00 1.43601220417245e-02 1.21162222416639e-04
9.02291666666667e+00 1.42231591102156e-02 1.20667838618773e-04
9.12152777777778e+00 1.40875024938470e-02 1.20168293887607e-04
9.22013888888889e+00 1.39531397333403e-02 1.19663822883188e-04
9.31875000000000e+00 1.38200584882499e-02 1.19154653363025e-04
9.41736111111111e+00 1.36882465356910e-02 1.18641006316175e-04
9.51597222222222e+00 1.35576917696392e-02 1.18123096245162e-04
9.61458333333333e+00 1.34283821993914e-02 1.17601131439724e-04
9.71319444444444e+00 1.33003059486087e-02 1.17075314081295e-04
9.81180555555556e+00 1.31734512542255e-02 1.16545840468772e-04
9.91041666666667e+00 1.30478064653689e-02 1.16012901203916e-04
1.00090277777778e+01 1.29233600422891e-02 1.15476681285928e-04
1.01076388888889e+01 1.28001005556615e-02 1.14937360508298e-04
1.02062500000000e+01 1.26780166845586e-02 1.14395113782407e-04
1.03048611111111e+01 1.25570972151051e-02 1.13850110298493e-04
1.04034722222222e+01 1.24373310427445e-02 1.13302514434884e-04
1.05020833333333e+01 1.23187071676382e-02 1.12752486407708e-04
1.06006944444444e+01 1.22012146948613e-02 1.12200181564237e-04
1.06993055555556e+01 1.20848428334018e-02 1.11645750804610e-04
1.07979166666667e+01 1.19695808951681e-02 1.11089340712314e-04
1.08965277777778e+01 1.18554182940105e-02 1.10531093680762e-04
1.09951388888889e+01 1.17423445447474e-02 1.09971148036180e-04
1.10937500000000e+01 1.16303492622020e-02 1.09409638394903e-04
1.11923611111111e+01 1.15194221592611e-02 1.08846695051220e-04
1.12909722222222e+01 1.14095530489218e-02 1.08282444574416e-04
1.13895833333333e+01 1.13007318403348e-02 1.07717010408617e-04
1.14881944444444e+01 1.11929485388948e-02 1.07150512229033e-04
1.15868055555556e+01 1.10861932453222e-02 1.06583066292018e-04
1.16854166666667e+01 1.09804561547532e-02 1.06014785530038e-04
1.17840277777778e+01 1.08757275558413e-02 1.05445779644138e-04
1.18826388888889e+01 1.07719978298645e-02 1.04876155194007e-04
1.19812500000000e+01 1.06692574498415e-02 1.04306015896002e-04
1.20798611111111e+01 1.05674969788178e-02 1.03735462066108e-04
1.21784722222222e+01 1.04667070715403e-02 1.03164591131031e-04
1.22770833333333e+01 1.03668784710329e-02 1.02593498142694e-04
1.23756944444444e+01 1.02680020086105e-02 1.02022275195623e-04
1.24743055555556e+01 1.01700686030361e-02 1.01451011722156e-04
1.25729166666667e+01 1.00730692596865e-02 1.00879794563208e-04
1.26715277777778e+01 9.97699506972756e-03 1.00308708037372e-04
1.27701388888889e+01 9.88183720929564e-03 9.97378340084685e-05
1.28687500000000e+01 9.78758693868655e-03 9.91672521377479e-05
1.29673611111111e+01 9.69423560083624e-03 9.85970393796792e-05
1.30659722222222e+01 9.60177462269645e-03 9.80272704236583e-05
1.31645833333333e+01 9.51019551225605e-03 9.74580181393241e-05
1.32631944444444e+01 9.41948985849847e-03 9.68893530511702e-05
1.33618055555556e+01 9.32964933062924e-03 9.63213435904827e-05
1.34604166666667e+01 9.24066567730998e-03 9.57540561491012e-05
1.35590277777778e+01 9.15253072590225e-03 9.51875551320510e-05
1.36576388888889e+01 9.06523638171610e-03 9.46219030091042e-05
1.37562500000000e+01 8.97877462726658e-03 9.40571605306284e-05
1.38548611111111e+01 8.89313752092195e-03 9.34933862725336e-05
1.39534722222222e+01 8.80831719803746e-03 9.29306370207951e-05
1.40520833333333e+01 8.72430586835270e-03 9.23689681595789e-05
1.41506944444444e+01 8.64109581590865e-03 9.18084331983381e-05
1.42493055555556e+01 8.55867939833914e-03 9.12490839888347e-05
1.43479166666667e+01 8.47704904616817e-03 9.06909707666237e-05
1.44465277777778e+01 8.39619726211609e-03 9.01341421917505e-05
1.45451388888889e+01 8.31611662041034e-03 8.95786453887276e-05
1.46437500000000e+01 8.23679976610337e-03 8.90245261328541e-05
1.47423611111111e+01 8.15823941386673e-03 8.84718284401919e-05
1.48409722222222e+01 8.08042834892758e-03 8.79205949042005e-05
1.49395833333333e+01 8.00335942478589e-03 8.73708670358575e-05
1.50381944444444e+01 7.92702556310303e-03 8.68226848384060e-05
1.51368055555556e+01 7.85141975305170e-03 8.62760869956271e-05
1.52354166666667e+01 7.77653505067148e-03 8.57311109042707e-05
1.53340277777778e+01 7.70236457823214e-03 8.51877927059470e-05
1.54326388888889e+01 7.62890152360144e-03 8.46461673184925e-05
1.55312500000000e+01 7.55613913961942e-03 8.41062685979072e-05
1.56298611111111e+01 7.48407074301981e-03 8.35681289691830e-05
1.57284722222222e+01 7.41268971520516e-03 8.30317797223483e-05
1.58270833333333e+01 7.34198950023762e-03 8.24972513118333e-05
1.59256944444444e+01 7.27196360470816e-03 8.19645729741745e-05
1.60243055555556e+01 7.20260559714012e-03 8.14337728922989e-05
1.61229166666667e+01 7.13390910739815e-03 8.09048782211453e-05
1.62215277777778e+01 7.06586782610400e-03 8.03779151129134e-05
1.63201388888889e+01 6.99847550405659e-03 7.98529087419347e-05
1.64187500000000e+01 6.93172595165806e-03 7.93298834461823e-05
1.65173611111111e+01 6.86561303794692e-03 7.88088623949744e-05
1.66159722222222e+01 6.80013069124040e-03 7.82898678502873e-05
1.67145833333333e+01 6.73527289736083e-03 7.77729214311891e-05
1.68131944444444e+01 6.67103369949214e-03 7.72580437701330e-05
1.69118055555556e+01 6.60740719763279e-03 7.67452546569785e-05
1.70104166666667e+01 6.54438754805353e-03 7.62345730594350e-05
1.71090277777778e+01 6.48196896276140e-03 7.57260171432089e-05
1.72076388888889e+01 6.42014570896779e-03 7.52196042918851e-05
1.73062500000000e+01 6.35891210856190e-03 7.47153512311428e-05
1.74048611111111e+01 6.29826253724244e-03 7.42132737296413e-05
1.75034722222222e+01 6.23819142505033e-03 7.37133868303817e-05
1.76020833333333e+01 6.17869325479883e-03 7.32157050849675e-05
1.77006944444444e+01 6.11976256192264e-03 7.27202422445132e-05
1.77993055555556e+01 6.06139393397602e-03 7.22270113863949e-05
1.78979166666667e+01 6.00358201013544e-03 7.17360249306700e-05
1.79965277777778e+01 5.94632148070773e-03 7.12472946562740e-05
1.80951388888889e+01 5.88960708664218e-03 7.07608317170167e-05
1.81937500000000e+01 5.83343361904748e-03 7.02766467510136e-05
1.82923611111111e+01 5.77779591841074e-03 6.97947496113982e-05
1.83909722222222e+01 5.72268887503909e-03 6.93151495716767e-05
1.84895833333333e+01 5.66810742766711e-03 6.88378555337601e-05
1.85881944444444e+01 5.61404656330237e-03 6.83628757499160e-05
1.86868055555556e+01 5.56050131676500e-03 6.78902179346783e-05
1.87854166666667e+01 5.50746677023146e-03 6.74198892780907e-05
1.88840277777778e+01 5.45493805278333e-03 6.69518964588097e-05
1.89826388888889e+01 5.40291033995973e-03 6.64862456570550e-05
1.90812500000000e+01 5.35137885331417e-03 6.60229426513049e-05
1.91798611111111e+01 5.30033885971098e-03 6.55619925757688e-05
1.92784722222222e+01 5.24978567169143e-03 6.51034001030663e-05
1.93770833333333e+01 5.19971464623563e-03 6.46471696293653e-05
1.94756944444444e+01 5.15012118460756e-03 6.41933050241211e-05
1.95743055555556e+01 5.10100073193270e-03 6.37418097291598e-05
1.96729166666667e+01 5.05234877677952e-03 6.32926867694152e-05
1.97715277777778e+01 5.00416085074550e-03 6.28459387635698e-05
1.98701388888889e+01 4.95643252804656e-03 6.24015679345773e-05
1.99687500000000e+01 4.90915942511057e-03 6.19595761953371e-05
2.00673611111111e+01 4.86233719994262e-03 6.15199649301809e-05
2.01659722222222e+01 4.81596155242831e-03 6.10827351576677e-05
2.02645833333333e+01 4.77002822323090e-03 6.06478876956602e-05
2.03631944444444e+01 4.72453299363806e-03 6.02154229359660e-05
2.04618055555556e+01 4.67947168517441e-03 5.97853409322534e-05
2.05604166666667e+01 4.63484015921755e-03 5.93576414087953e-05
2.06590277777778e+01 4.59063431661835e-03 5.89323237691340e-05
2.07576388888889e+01 4.54685009732426e-03 5.85093871046618e-05
2.08562500000000e+01 4.50348348000642e-03 5.80888302706971e-05
2.09548611111111e+01 4.46053048148644e-03 5.76706516895129e-05
2.10534722222222e+01 4.41798715698723e-03 5.72548494956696e-05
2.11520833333333e+01 4.37584959914894e-03 5.68414216834175e-05
2.12506944444444e+01 4.33411393787909e-03 5.64303659036550e-05
2.13493055555556e+01 4.29277633999706e-03 5.60216795421049e-05
2.14479166666667e+01 4.25183300888196e-03 5.56153597264401e-05
2.15465277777778e+01 4.21128018412421e-03 5.52114033333641e-05
2.16451388888889e+01 4.17111414117998e-03 5.48098069956268e-05
2.17437500000000e+01 4.13133119102915e-03 5.44105671696907e-05
2.18423611111111e+01 4.09192767965705e-03 5.40136799581093e-05
2.19409722222222e+01 4.05289998826153e-03 5.36191412394523e-05
2.20395833333333e+01 4.01424453237348e-03 5.32269468001110e-05
2.21381944444444e+01 3.97595776171149e-03 5.28370921512680e-05
2.22368055555556e+01 3.93803615985577e-03 5.24495725985278e-05
2.23354166666667e+01 3.90047624392510e-03 5.20643832477435e-05
2.24340277777778e+01 3.86327456425714e-03 5.16815190107988e-05
2.25326388888889e+01 3.82642770409153e-03 5.13009746113522e-05
2.26312500000000e+01 3.78993227925604e-03 5.09227446451415e-05
2.27298611111111e+01 3.75378493769758e-03 5.05468234197165e-05
2.28284722222222e+01 3.71798235965271e-03 5.01732050707393e-05
2.29270833333333e+01 3.68252125686046e-03 4.98018836799958e-05
2.30256944444444e+01 3.64739837242242e-03 4.94328531103149e-05
2.31243055555556e+01 3.61261048050361e-03 4.90661070676885e-05
2.32229166666667e+01 3.57815438603608e-03 4.87016391060298e-05
2.33215277777778e+01 3.54402692442570e-03 4.83394426319027e-05
2.34201388888889e+01 3.51022496126137e-03 4.79795109092240e-05
2.35187500000000e+01 3.47674539202717e-03 4.76218371130837e-05
2.36173611111111e+01 3.44358514167758e-03 4.72664141850761e-05
2.37159722222222e+01 3.41074116477731e-03 4.69132349375176e-05
2.38145833333333e+01 3.37821044479594e-03 4.65622921592277e-05
2.39131944444444e+01 3.34598999397390e-03 4.62135784665612e-05
2.40118055555556e+01 3.31407685304806e-03 4.58670863588932e-05
2.41104166666667e+01 3.28246809097988e-03 4.55228082225120e-05
2.42090277777778e+01 3.25116080468635e-03 4.51807363344880e-05
2.43076388888889e+01 3.22015211877329e-03 4.48408628665152e-05
2.44062500000000e+01 3.18943918527123e-03 4.45031799330080e-05
2.45048611111111e+01 3.15901918325047e-03 4.41676794604556e-05
2.46034722222222e+01 3.12888931893518e-03 4.38343532809028e-05
2.47020833333333e+01 3.09904682507059e-03 4.35031932268643e-05
2.48006944444444e+01 3.06948896079527e-03 4.31741909968309e-05
2.48993055555556e+01 3.04021301138940e-03 4.28473382048933e-05
2.49979166666667e+01 3.01121628802531e-03 4.25226263839168e-05
2.50965277777778e+01 2.98249612752077e-03 4.22000469886963e-05
2.51951388888889e+01 2.95404989209422e-03 4.18795913991054e-05
2.52937500000000e+01 2.92587496912259e-03 4.15612509631232e-05
2.53923611111111e+01 2.89796877079200e-03 4.12450168787888e-05
2.54909722222222e+01 2.87032873419053e-03 4.09308802781388e-05
2.55895833333333e+01 2.84295232073980e-03 4.06188323124453e-05
2.56881944444444e+01 2.81583701607370e-03 4.03088640307291e-05
2.57868055555556e+01 2.78898032980746e-03 4.00009664241901e-05
2.58854166666667e+01 2.76237979530887e-03 3.96951304287968e-05
2.59840277777778e+01 2.73603296947187e-03 3.93913469278532e-05
2.60826388888889e+01 2.70993743249206e-03 3.90896067545599e-05
2.61812500000000e+01 2.68409078764451e-03 3.87899007305521e-05
2.62798611111111e+01 2.65849066096673e-03 3.84922195592022e-05
2.63784722222222e+01 2.63313470133351e-03 3.81965539010456e-05
2.64770833333333e+01 2.60802057994581e-03 3.79028944503885e-05
2.65756944444444e+01 2.58314599021605e-03 3.76112318255244e-05
2.66743055555556e+01 2.55850864755626e-03 3.73215566085556e-05
2.67729166666667e+01 2.53410628916820e-03 3.70338593474864e-05
2.68715277777778e+01 2.50993667383565e-03 3.67481305583129e-05
2.69701388888889e+01 2.48599758171849e-03 3.64643607271002e-05
2.70687500000000e+01 2.46228681414885e-03 3.61825403445264e-05
2.71673611111111e+01 2.43880219334321e-03 3.59026598094076e-05
2.72659722222222e+01 2.41554156246224e-03 3.56247094965194e-05
2.73645833333333e+01 2.39250278515080e-03 3.53486798255037e-05
2.74631944444444e+01 2.36968374542974e-03 3.50745611616202e-05
2.75618055555556e+01 2.34708234750155e-03 3.48023438514627e-05
2.76604166666667e+01 2.32469651555782e-03 3.45320182246482e-05
2.77590277777778e+01 2.30252419358870e-03 3.42635745955057e-05
2.78576388888889e+01 2.28056334519398e-03 3.39970032647535e-05
2.79562500000000e+01 2.25881195339610e-03 3.37322945504959e-05
2.80548611111111e+01 2.23726802037856e-03 3.34694387009427e-05
2.81534722222222e+01 2.21592956753320e-03 3.32084259554462e-05
2.82520833333333e+01 2.19479463504589e-03 3.29492466065252e-05
2.83506944444444e+01 2.17386128179469e-03 3.26918909100923e-05
2.84493055555556e+01 2.15312758517155e-03 3.24363491175227e-05
2.85479166666667e+01 2.13259164090570e-03 3.21826114770073e-05
2.86465277777778e+01 2.11225156288883e-03 3.19306682349037e-05
2.87451388888889e+01 2.09210548300182e-03 3.16805096370901e-05
2.88437500000000e+01 2.07215155094317e-03 3.14321259567907e-05
2.89423611111111e+01 2.05238793399116e-03 3.11855074155892e-05
2.90409722222222e+01 2.03281281704076e-03 3.09406442383957e-05
2.91395833333333e+01 2.01342440223014e-03 3.06975267093046e-05
2.92381944444444e+01 1.99422090884494e-03 3.04561450903706e-05
2.93368055555556e+01 1.97520057315481e-03 3.02164896504145e-05
2.94354166666667e+01 1.95636164825133e-03 2.99785506660996e-05
2.95340277777778e+01 1.93770240388767e-03 2.97423184230067e-05
2.96326388888889e+01 1.91922112631961e-03 2.95077832167124e-05
2.97312500000000e+01 1.90091611814817e-03 2.92749353777943e-05
2.98298611111111e+01 1.88278569810328e-03 2.90437652003158e-05
2.99284722222222e+01 1.86482820107202e-03 2.88142629913578e-05
3.00270833333333e+01 1.84704197776163e-03 2.85864191213569e-05
3.01256944444444e+01 1.82942539460984e-03 2.83602239505807e-05
3.02243055555556e+01 1.81197683363488e-03 2.81356678550271e-05
3.03229166666667e+01 1.79469469228680e-03 2.79127412272689e-05
3.04215277777778e+01 1.77757738330040e-03 2.76914344772989e-05
3.05201388888889e+01 1.76062333454934e-03 2.74717380333774e-05
3.06187500000000e+01 1.74383098890185e-03 2.72536423645195e-05
3.07173611111111e+01 1.72719880402379e-03 2.70371379157244e-05
3.08159722222222e+01 1.71072525239978e-03 2.68222151526267e-05
3.09145833333333e+01 1.69440882102891e-03 2.66088646068929e-05
3.10131944444444e+01 1.67824801134085e-03 2.63970768096392e-05
3.11118055555556e+01 1.66224133905825e-03 2.61868423147288e-05
