Energy (eV)          EEDF (eV^-(3/2))     First Anisotropy
5.00000000000000e-02 4.79148574838781e-01 7.11673246234123e-04
1.50000000000000e-01 4.52317384292294e-01 1.14612434466316e-03
2.50000000000000e-01 4.26988677158973e-01 1.43795705837142e-03
3.50000000000000e-01 4.03078317909955e-01 1.61838430595473e-03
4.50000000000000e-01 3.80506882407629e-01 1.73765573799755e-03
5.50000000000000e-01 3.59199394078838e-01 1.81628533249854e-03
6.50000000000000e-01 3.39085074861755e-01 1.86559654872124e-03
7.50000000000000e-01 3.20097110099151e-01 1.89280538345148e-03
8.50000000000000e-01 3.02172426597077e-01 1.90291265788523e-03
9.50000000000000e-01 2.85251483111744e-01 1.89957763726770e-03
1.05000000000000e+00 2.69278072568639e-01 1.88558032035230e-03
1.15000000000000e+00 2.54199135356908e-01 1.86309053023693e-03
1.25000000000000e+00 2.39964583078813e-01 1.83383603015135e-03
1.35000000000000e+00 2.26527132168799e-01 1.79921346253954e-03
1.45000000000000e+00 2.13842146829504e-01 1.76036481966232e-03
1.55000000000000e+00 2.01867490762988e-01 1.71823205961575e-03
1.65000000000000e+00 1.90563387204654e-01 1.67359727661179e-03
1.75000000000000e+00 1.79892286794942e-01 1.62711298303878e-03
1.85000000000000e+00 1.69818742849903e-01 1.57932541835842e-03
1.95000000000000e+00 1.60309293616319e-01 1.53069281270580e-03
2.05000000000000e+00 1.51332351120264e-01 1.48159991767071e-03
2.15000000000000e+00 1.42858096239877e-01 1.43236972076681e-03
2.25000000000000e+00 1.34858379653821e-01 1.38327299811416e-03
2.35000000000000e+00 1.27306628336390e-01 1.33453618220311e-03
2.45000000000000e+00 1.20177757288666e-01 1.28634789844754e-03
2.55000000000000e+00 1.13448086212531e-01 1.23886443714943e-03
2.65000000000000e+00 1.07095260850735e-01 1.19221436480455e-03
2.75000000000000e+00 1.01098178731728e-01 1.14650243280772e-03
2.85000000000000e+00 9.54369190726164e-02 1.10181290754871e-03
2.95000000000000e+00 9.00926766073851e-02 1.05821242024257e-03
3.05000000000000e+00 8.50476991205783e-02 1.01575241528540e-03
3.15000000000000e+00 8.02852284789539e-02 9.74471260846780e-04
3.25000000000000e+00 7.57894449652221e-02 9.34396073655092e-04
3.35000000000000e+00 7.15454147289644e-02 8.95544300676651e-04
3.45000000000000e+00 6.75390401801780e-02 8.57925093035408e-04
3.55000000000000e+00 6.37570131606633e-02 8.21540501625753e-04
3.65000000000000e+00 6.01867707377046e-02 7.86386519108967e-04
3.75000000000000e+00 5.68164534731999e-02 7.52453989107991e-04
3.85000000000000e+00 5.36348660296208e-02 7.19729400238014e-04
3.95000000000000e+00 5.06314399819464e-02 6.88195579989566e-04
4.05000000000000e+00 4.77961987120407e-02 6.57832301305344e-04
4.15000000000000e+00 4.51197242688625e-02 6.28616812875867e-04
4.25000000000000e+00 4.25931260844250e-02 6.00524302655158e-04
4.35000000000000e+00 4.02080114415881e-02 5.73528302812242e-04
4.45000000000000e+00 3.79564575955849e-02 5.47601043245102e-04
4.55000000000000e+00 3.58309854566767e-02 5.22713759856893e-04
4.65000000000000e+00 3.38245347465175e-02 4.98836963002148e-04
4.75000000000000e+00 3.19304405457031e-02 4.75940670831316e-04
4.85000000000000e+00 3.01424111546029e-02 4.53994611677198e-04
4.95000000000000e+00 2.84545071939320e-02 4.32968399121626e-04
5.05000000000000e+00 2.68611218756430e-02 4.12831682943233e-04
5.15000000000000e+00 2.53569623786004e-02 3.93554278766786e-04
5.25000000000000e+00 2.39370322671738e-02 3.75106278903291e-04
5.35000000000000e+00 2.25966148943486e-02 3.57458146580739e-04
5.45000000000000e+00 2.13312577342230e-02 3.40580795511939e-04
5.55000000000000e+00 2.01367575918484e-02 3.24445656523585e-04
5.65000000000000e+00 1.90091466412839e-02 3.09024732775297e-04
5.75000000000000e+00 1.79446792454864e-02 2.94290644925113e-04
5.85000000000000e+00 1.69398195142569e-02 2.80216667446032e-04
5.95000000000000e+00 1.59912295589109e-02 2.66776757163915e-04
6.05000000000000e+00 1.50957584046612e-02 2.53945574968143e-04
6.15000000000000e+00 1.42504315238795e-02 2.41698501541081e-04
6.25000000000000e+00 1.34524409554723e-02 2.30011647858874e-04
6.35000000000000e+00 1.26991359775470e-02 2.18861861133022e-04
6.45000000000000e+00 1.19880143023878e-02 2.08226726788223e-04
6.55000000000000e+00 1.13167137644914e-02 1.98084567006192e-04
6.65000000000000e+00 1.06830044740537e-02 1.88414436306538e-04
6.75000000000000e+00 1.00847814098425e-02 1.79196114583426e-04
6.85000000000000e+00 9.52005742685175e-03 1.70410097970137e-04
6.95000000000000e+00 8.98695665551072e-03 1.62037587861930e-04
7.05000000000000e+00 8.48370827052219e-03 1.54060478390397e-04
7.15000000000000e+00 8.00864060863065e-03 1.46461342609205e-04
7.25000000000000e+00 7.56017561578175e-03 1.39223417621406e-04
7.35000000000000e+00 7.13682360522778e-03 1.32330588851845e-04
7.45000000000000e+00 6.73717830916679e-03 1.25767373644445e-04
7.55000000000000e+00 6.35991220747830e-03 1.19518904342812e-04
7.65000000000000e+00 6.00377211803882e-03 1.13570910993621e-04
7.75000000000000e+00 5.66757503396927e-03 1.07909703795154e-04
7.85000000000000e+00 5.35020419398670e-03 1.02522155398159e-04
7.95000000000000e+00 5.05060537280716e-03 9.73956831525867e-05
8.05000000000000e+00 4.76778337927712e-03 9.25182313815598e-05
8.15000000000000e+00 4.50079875060139e-03 8.78782537530919e-05
8.25000000000000e+00 4.24876463168644e-03 8.34646958103265e-05
8.35000000000000e+00 4.01084382923309e-03 7.92669777124307e-05
8.45000000000000e+00 3.78624603079316e-03 7.52749772305399e-05
8.55000000000000e+00 3.57422517955232e-03 7.14790130362695e-05
8.65000000000000e+00 3.37407699611893e-03 6.78698283141846e-05
8.75000000000000e+00 3.18513663908688e-03 6.44385747241804e-05
8.85000000000000e+00 3.00677649660133e-03 6.11767967348891e-05
8.95000000000000e+00 2.83840410159170e-03 5.80764163449486e-05
9.05000000000000e+00 2.67946016374652e-03 5.51297182051819e-05
9.15000000000000e+00 2.52941671169318e-03 5.23293351513859e-05
9.25000000000000e+00 2.38777533921120e-03 4.96682341544873e-05
9.35000000000000e+00 2.25406554965339e-03 4.71397026922299e-05
9.45000000000000e+00 2.12784319307556e-03 4.47373355442907e-05
9.55000000000000e+00 2.00868899088326e-03 4.24550220107375e-05
9.65000000000000e+00 1.89620714309485e-03 4.02869335520234e-05
9.75000000000000e+00 1.79002401359449e-03 3.82275118472167e-05
9.85000000000000e+00 1.68978688900796e-03 3.62714572658791e-05
9.95000000000000e+00 1.59516280707845e-03 3.44137177479069e-05
1.00500000000000e+01 1.50583745065050e-03 3.26494780847164e-05
1.01500000000000e+01 1.42151410358835e-03 3.09741495943596e-05
1.02500000000000e+01 1.34191266516029e-03 2.93833601825085e-05
1.03500000000000e+01 1.26676871961522e-03 2.78729447807032e-05
1.04500000000000e+01 1.19583265786072e-03 2.64389361528241e-05
1.05500000000000e+01 1.12886884832505e-03 2.50775560604071e-05
1.06500000000000e+01 1.06565485424897e-03 2.37852067771610e-05
1.07500000000000e+01 1.00598069480733e-03 2.25584629428555e-05
1.08500000000000e+01 9.49648147606162e-04 2.13940637466251e-05
1.09500000000000e+01 8.96470090238197e-04 2.02889054296677e-05
1.10500000000000e+01 8.46269878709830e-04 1.92400340972938e-05
1.11500000000000e+01 7.98880760674636e-04 1.82446388303092e-05
1.12500000000000e+01 7.54145321524454e-04 1.73000450857731e-05
1.13500000000000e+01 7.11914961498057e-04 1.64037083772681e-05
1.14500000000000e+01 6.72049402070507e-04 1.55532082249390e-05
1.15500000000000e+01 6.34416219983542e-04 1.47462423657032e-05
1.16500000000000e+01 5.98890407369160e-04 1.39806212141993e-05
1.17500000000000e+01 5.65353956505246e-04 1.32542625652237e-05
1.18500000000000e+01 5.33695467823910e-04 1.25651865286014e-05
1.19500000000000e+01 5.03809779870426e-04 1.19115106876425e-05
1.20500000000000e+01 4.75597619983602e-04 1.12914454725557e-05
1.21500000000000e+01 4.48965274537229e-04 1.07032897404135e-05
1.22500000000000e+01 4.23824277647225e-04 1.01454265534896e-05
1.23500000000000e+01 4.00091117310448e-04 9.61631914802782e-06
1.24500000000000e+01 3.77686957999044e-04 9.11450708573306e-06
1.25500000000000e+01 3.56537378788856e-04 8.63860258051260e-06
1.26500000000000e+01 3.36572126152023e-04 8.18728699323368e-06
1.27500000000000e+01 3.17724880592615e-04 7.75930748749767e-06
1.28500000000000e+01 2.99933036350119e-04 7.35347383966603e-06
1.29500000000000e+01 2.83137493439010e-04 6.96865539660461e-06
1.30500000000000e+01 2.67282461333619e-04 6.60377817484128e-06
1.31500000000000e+01 2.52315273646180e-04 6.25782209505727e-06
1.32500000000000e+01 2.38186213182478e-04 5.92981834605283e-06
1.33500000000000e+01 2.24848346793958e-04 5.61884687254528e-06
1.34500000000000e+01 2.12257369477737e-04 5.32403398136862e-06
1.35500000000000e+01 2.00371457206636e-04 5.04455006085142e-06
1.36500000000000e+01 1.89151128000396e-04 4.77960740835126e-06
1.37500000000000e+01 1.78559110776569e-04 4.52845816112019e-06
1.38500000000000e+01 1.68560221545452e-04 4.29039232586756e-06
1.39500000000000e+01 1.59121246537818e-04 4.06473590257116e-06
1.40500000000000e+01 1.50210831877209e-04 3.85084909826868e-06
1.41500000000000e+01 1.41799379430330e-04 3.64812462673511e-06
1.42500000000000e+01 1.33858948489570e-04 3.45598609012152e-06
1.43500000000000e+01 1.26363162961069e-04 3.27388643879337e-06
1.44500000000000e+01 1.19287123750042e-04 3.10130650576485e-06
1.45500000000000e+01 1.12607326052306e-04 2.93775361227818e-06
1.46500000000000e+01 1.06301581277299e-04 2.78276024122412e-06
1.47500000000000e+01 1.00348943343219e-04 2.63588277524160e-06
1.48500000000000e+01 9.47296390994608e-05 2.49670029647155e-06
1.49500000000000e+01 8.94250026452371e-05 2.36481344507129e-06
1.50500000000000e+01 8.44174133261972e-05 2.23984333372296e-06
1.51500000000000e+01 7.96902372030913e-05 2.12143051549132e-06
1.52500000000000e+01 7.52277717980515e-05 2.00923400250329e-06
1.53500000000000e+01 7.10151939349503e-05 1.90293033303449e-06
1.54500000000000e+01 6.70385105005758e-05 1.80221268469609e-06
1.55500000000000e+01 6.32845119630660e-05 1.70679003151924e-06
1.56500000000000e+01 5.97407284932001e-05 1.61638634283388e-06
1.57500000000000e+01 5.63953885427948e-05 1.53073982193431e-06
1.58500000000000e+01 5.32373797426123e-05 1.44960218261570e-06
1.59500000000000e+01 5.02562119898934e-05 1.37273796175341e-06
1.60500000000000e+01 4.74419826029022e-05 1.29992386618124e-06
1.61500000000000e+01 4.47853434267329e-05 1.23094815220508e-06
1.62500000000000e+01 4.22774697811157e-05 1.16561003616594e-06
1.63500000000000e+01 3.99100311470702e-05 1.10371913453999e-06
1.64500000000000e+01 3.76751634950393e-05 1.04509493213370e-06
1.65500000000000e+01 3.55654431625805e-05 9.89566277000283e-07
1.66500000000000e+01 3.35738621948460e-05 9.36970900767609e-07
1.67500000000000e+01 3.16938050659376e-05 8.87154963130161e-07
1.68500000000000e+01 2.99190267038105e-05 8.39972619316132e-07
1.69500000000000e+01 2.82436317457311e-05 7.95285609397525e-07
1.70500000000000e+01 2.66620549553796e-05 7.52962868364876e-07
1.71500000000000e+01 2.51690427365500e-05 7.12880155939669e-07
1.72500000000000e+01 2.37596356820373e-05 6.74919705146699e-07
1.73500000000000e+01 2.24291520997482e-05 6.38969888715552e-07
1.74500000000000e+01 2.11731724613086e-05 6.04924902425143e-07
1.75500000000000e+01 1.99875247215142e-05 5.72684464547951e-07
1.76500000000000e+01 1.88682704598557e-05 5.42153530591376e-07
1.77500000000000e+01 1.78116917980874e-05 5.13242022572526e-07
1.78500000000000e+01 1.68142790503799e-05 4.85864572099804e-07
1.79500000000000e+01 1.58727190650359e-05 4.59940276570030e-07
1.80500000000000e+01 1.49838842190419e-05 4.35392467823532e-07
1.81500000000000e+01 1.41448220288995e-05 4.12148492631784e-07
1.82500000000000e+01 1.33527453432254e-05 3.90139504422756e-07
1.83500000000000e+01 1.26050230845427e-05 3.69300265678352e-07
1.84500000000000e+01 1.18991715095105e-05 3.49568960466084e-07
1.85500000000000e+01 1.12328459585587e-05 3.30887016593624e-07
1.86500000000000e+01 1.06038330675259e-05 3.13198936900080e-07
1.87500000000000e+01 1.00100434154251e-05 2.96452139221876e-07
1.88500000000000e+01 9.44950458391886e-06 2.80596804593995e-07
1.89500000000000e+01 8.92035460544614e-06 2.65585733269070e-07
1.90500000000000e+01 8.42083577823972e-06 2.51374208157600e-07
1.91500000000000e+01 7.94928882768732e-06 2.37919865312258e-07
1.92500000000000e+01 7.50414739464303e-06 2.25182571098043e-07
1.93500000000000e+01 7.08393283238027e-06 2.13124305707900e-07
1.94500000000000e+01 6.68724929490304e-06 2.01709052700430e-07
1.95500000000000e+01 6.31277910030029e-06 1.90902694252495e-07
1.96500000000000e+01 5.95927835374140e-06 1.80672911834905e-07
1.97500000000000e+01 5.62557281557365e-06 1.70989092034017e-07
1.98500000000000e+01 5.31055400079648e-06 1.61822237255978e-07
1.99500000000000e+01 5.01317549695598e-06 1.53144881063623e-07
2.00500000000000e+01 4.73244948822864e-06 1.44931007908575e-07
2.01500000000000e+01 4.46744347414817e-06 1.37155977033116e-07
2.02500000000000e+01 4.21727717207593e-06 1.29796450327744e-07
2.03500000000000e+01 3.98111959312569e-06 1.22830323941157e-07
2.04500000000000e+01 3.75818628182968e-06 1.16236663449704e-07
2.05500000000000e+01 3.54773671037691e-06 1.09995642403091e-07
2.06500000000000e+01 3.34907181876793e-06 1.04088484072454e-07
2.07500000000000e+01 3.16153169271513e-06 9.84974062356956e-08
2.08500000000000e+01 2.98449337157520e-06 9.32055688434190e-08
2.09500000000000e+01 2.81736877903216e-06 8.81970244167236e-08
2.10500000000000e+01 2.65960276965727e-06 8.34566710357224e-08
2.11500000000000e+01 2.51067128485698e-06 7.89702077848320e-08
2.12500000000000e+01 2.37007961208346e-06 7.47240925277137e-08
2.13500000000000e+01 2.23736074152522e-06 7.07055018912436e-08
2.14500000000000e+01 2.11207381481919e-06 6.69022933440555e-08
2.15500000000000e+01 1.99380266063124e-06 6.33029692610517e-08
2.16500000000000e+01 1.88215441224081e-06 5.98966428708425e-08
2.17500000000000e+01 1.77675820253745e-06 5.66730059883600e-08
2.18500000000000e+01 1.67726393209454e-06 5.36222984398994e-08
2.19500000000000e+01 1.58334110622795e-06 5.07352790926092e-08
2.20500000000000e+01 1.49467773717670e-06 4.80031984049717e-08
2.21500000000000e+01 1.41097930775886e-06 4.54177724191053e-08
2.22500000000000e+01 1.33196779306033e-06 4.29711581198003e-08
2.23500000000000e+01 1.25738073690676e-06 4.06559300890623e-08
2.24500000000000e+01 1.18697038005074e-06 3.84650583886132e-08
2.25500000000000e+01 1.12050283717866e-06 3.63918876062831e-08
2.26500000000000e+01 1.05775732000300e-06 3.44301170055368e-08
2.27500000000000e+01 9.98525403859854e-07 3.25737817205148e-08
2.28500000000000e+01 9.42610335375089e-07 3.08172349419495e-08
2.29500000000000e+01 8.89826378899664e-07 2.91551310421475e-08
2.30500000000000e+01 8.39998199542990e-07 2.75824095899058e-08
2.31500000000000e+01 7.92960280754979e-07 2.60942802087805e-08
2.32500000000000e+01 7.48556374522127e-07 2.46862082345414e-08
2.33500000000000e+01 7.06638982351315e-07 2.33539011299332e-08
2.34500000000000e+01 6.67068865317293e-07 2.20932956170467e-08
2.35500000000000e+01 6.29714581546356e-07 2.09005454896560e-08
2.36500000000000e+01 5.94452049599836e-07 1.97720100698423e-08
2.37500000000000e+01 5.61164136307097e-07 1.87042432750786e-08
2.38500000000000e+01 5.29740267678904e-07 1.76939832637086e-08
2.39500000000000e+01 5.00076061608729e-07 1.67381426284248e-08
2.40500000000000e+01 4.72072981141917e-07 1.58337991089347e-08
2.41500000000000e+01 4.45638007160963e-07 1.49781867965072e-08
2.42500000000000e+01 4.20683329399638e-07 1.41686878045140e-08
2.43500000000000e+01 3.97126054759602e-07 1.34028243804328e-08
2.44500000000000e+01 3.74887931960590e-07 1.26782514360623e-08
2.45500000000000e+01 3.53895091609550e-07 1.19927494739121e-08
2.46500000000000e+01 3.34077800825281e-07 1.13442178888824e-08
2.47500000000000e+01 3.15370231603530e-07 1.07306686254448e-08
2.48500000000000e+01 2.97710242153084e-07 1.01502201715656e-08
2.49500000000000e+01 2.81039170476532e-07 9.60109187160119e-09
2.50500000000000e+01 2.65301639510016e-07 9.08159854132197e-09
2.51500000000000e+01 2.50445373174699e-07 8.59014536910662e-09
2.52500000000000e+01 2.36421022728907e-07 8.12522308818452e-09
2.53500000000000e+01 2.23182002844161e-07 7.68540340559857e-09
2.54500000000000e+01 2.10684336860543e-07 7.26933467431167e-09
2.55500000000000e+01 1.98886510707411e-07 6.87573779559416e-09
2.56500000000000e+01 1.87749335004206e-07 6.50340233950534e-09
2.57500000000000e+01 1.77235814883287e-07 6.15118287192272e-09
2.58500000000000e+01 1.67311027102381e-07 5.81799547718013e-09
2.59500000000000e+01 1.57942004038448e-07 5.50281446595107e-09
2.60500000000000e+01 1.49097624177613e-07 5.20466925855971e-09
2.61500000000000e+01 1.40748508737404e-07 4.92264143441932e-09
2.62500000000000e+01 1.32866924077907e-07 4.65586193878686e-09
2.63500000000000e+01 1.25426689577655e-07 4.40350843848791e-09
2.64500000000000e+01 1.18403090668261e-07 4.16480281870588e-09
2.65500000000000e+01 1.11772796738902e-07 3.93900881334664e-09
2.66500000000000e+01 1.05513783637953e-07 3.72542976188472e-09
2.67500000000000e+01 9.96052605143580e-08 3.52340648597207e-09
2.68500000000000e+01 9.40276007557038e-08 3.33231527944516e-09
2.69500000000000e+01 8.87622767935995e-08 3.15156600570240e-09
2.70500000000000e+01 8.37917985598037e-08 2.98060029674265e-09
2.71500000000000e+01 7.90996553886617e-08 2.81888984845743e-09
2.72500000000000e+01 7.46702611728697e-08 2.66593480705550e-09
2.73500000000000e+01 7.04889025903873e-08 2.52126224176946e-09
2.74500000000000e+01 6.65416902305198e-08 2.38442469925104e-09
2.75500000000000e+01 6.28155124568258e-08 2.25499883530456e-09
2.76500000000000e+01 5.92979918535925e-08 2.13258411983896e-09
2.77500000000000e+01 5.59774441112059e-08 2.01680161113694e-09
2.78500000000000e+01 5.28428392138433e-08 1.90729279574645e-09
2.79500000000000e+01 4.98837648005637e-08 1.80371849049604e-09
2.80500000000000e+01 4.70903915780906e-08 1.70575780332090e-09
2.81500000000000e+01 4.44534406703971e-08 1.61310714976240e-09
2.82500000000000e+01 4.19641527966381e-08 1.52547932217034e-09
2.83500000000000e+01 3.96142591750449e-08 1.44260260879515e-09
2.84500000000000e+01 3.73959540561331e-08 1.36421996010626e-09
2.85500000000000e+01 3.53018687939866e-08 1.29008819981495e-09
2.86500000000000e+01 3.33250473694884e-08 1.21997727821352e-09
2.87500000000000e+01 3.14589232841923e-08 1.15366956557001e-09
2.88500000000000e+01 2.96972977480838e-08 1.09095918343763e-09
2.89500000000000e+01 2.80343190887751e-08 1.03165137185217e-09
2.90500000000000e+01 2.64644633137361e-08 9.75561890498496e-10
2.91500000000000e+01 2.49825157609949e-08 9.22516452029195e-10
2.92500000000000e+01 2.35835537773559e-08 8.72350185815573e-10
2.93500000000000e+01 2.22629303665968e-08 8.24907130502344e-10
2.94500000000000e+01 2.10162587533281e-08 7.80039753824569e-10
2.95500000000000e+01 1.98393978112396e-08 7.37608498227254e-10
2.96500000000000e+01 1.87284383073313e-08 6.97481350905975e-10
2.97500000000000e+01 1.76796899164350e-08 6.59533436960527e-10
2.98500000000000e+01 1.66896689628914e-08 6.23646634423408e-10
2.99500000000000e+01 1.57550868486650e-08 5.89709209990972e-10
3.00500000000000e+01 1.48728391294571e-08 5.57615474347630e-10
3.01500000000000e+01 1.40399952025307e-08 5.27265456032824e-10
3.02500000000000e+01 1.32537885719926e-08 4.98564592856424e-10
3.03500000000000e+01 1.25116076591978e-08 4.71423439921424e-10
3.04500000000000e+01 1.18109871277479e-08 4.45757393363095e-10
3.05500000000000e+01 1.11495996942706e-08 4.21486428961269e-10
3.06500000000000e+01 1.05252483977759e-08 3.98534854827605e-10
3.07500000000000e+01 9.93585930190925e-09 3.76831077412312e-10
3.08500000000000e+01 9.37947460586278e-09 3.56307380115211e-10
3.09500000000000e+01 8.85424614105796e-09 3.36899713824316e-10
3.10500000000000e+01 8.35842923199942e-09 3.18547498741258e-10
3.11500000000000e+01 7.89037690090630e-09 3.01193436887225e-10
3.12500000000000e+01 7.44853439687052e-09 2.84783334715520e-10
3.13500000000000e+01 7.03143403136936e-09 2.69265935287585e-10
3.14500000000000e+01 6.63769030297714e-09 2.54592759498401e-10
3.15500000000000e+01 6.26599529508157e-09 2.40717955864746e-10
