Energy (eV)          EEDF (eV^-(3/2))     First Anisotropy
2.55172413793103e-04 1.26002330798821e+02 5.52588271564433e-02
7.65517241379310e-04 1.24514022766859e+02 9.10151053045325e-02
1.27586206896552e-03 1.23043294253583e+02 1.19534773219660e-01
1.78620689655172e-03 1.21589937623236e+02 1.40830464027759e-01
2.29655172413793e-03 1.20153747677324e+02 1.58287018003403e-01
2.80689655172414e-03 1.18734521647393e+02 1.73193760119908e-01
3.31724137931034e-03 1.17332059160133e+02 1.86222649638367e-01
3.82758620689655e-03 1.15946162210523e+02 1.97782262773103e-01
4.33793103448276e-03 1.14576635128864e+02 2.08145410997072e-01
4.84827586206896e-03 1.13223284558412e+02 2.17506199646058e-01
5.35862068965517e-03 1.11885919426320e+02 2.26009261200412e-01
5.86896551724138e-03 1.10564350917595e+02 2.33766225143438e-01
6.37931034482759e-03 1.09258392445487e+02 2.40865674417122e-01
6.88965517241379e-03 1.07967859628170e+02 2.47379501994772e-01
7.40000000000000e-03 1.06692570261691e+02 2.53367150013871e-01
7.91034482758621e-03 1.05432344294907e+02 2.58878539820941e-01
8.42068965517241e-03 1.04187003802034e+02 2.63956158644831e-01
8.93103448275862e-03 1.02956372959590e+02 2.68636583845463e-01
9.44137931034483e-03 1.01740278020874e+02 2.72951620801996e-01
9.95172413793103e-03 1.00538547291937e+02 2.76929168669586e-01
1.04620689655172e-02 9.93510111034353e+01 2.80593890558528e-01
1.09724137931034e-02 9.81775017968905e+01 2.83967739419431e-01
1.14827586206897e-02 9.70178536901025e+01 2.87070376356421e-01
1.19931034482759e-02 9.58719030578600e+01 2.89919507861077e-01
1.25034482758621e-02 9.47394881052773e+01 2.92531160301818e-01
1.30137931034483e-02 9.36204489560757e+01 2.94919905101393e-01
1.35241379310345e-02 9.25146276184702e+01 2.97099045325657e-01
1.40344827586207e-02 9.14218679668678e+01 2.99080772175441e-01
1.45448275862069e-02 9.03420157168657e+01 3.00876296717588e-01
1.50551724137931e-02 8.92749184125278e+01 3.02495961248730e-01
1.55655172413793e-02 8.82204253955103e+01 3.03949334162950e-01
1.60758620689655e-02 8.71783877844577e+01 3.05245292315533e-01
1.65862068965517e-02 8.61486584619166e+01 3.06392091289568e-01
1.70965517241379e-02 8.51310920453858e+01 3.07397426407526e-01
1.76068965517241e-02 8.41255448695869e+01 3.08268486342587e-01
1.81172413793103e-02 8.31318749640169e+01 3.09012000041797e-01
1.86275862068966e-02 8.21499420395831e+01 3.09634277694875e-01
1.91379310344828e-02 8.11796074619330e+01 3.10141246875543e-01
1.96482758620690e-02 8.02207342342466e+01 3.10538484943224e-01
2.01586206896552e-02 7.92731869760192e+01 3.10831247843968e-01
2.06689655172414e-02 7.83368319096464e+01 3.11024495539290e-01
2.11793103448276e-02 7.74115368357028e+01 3.11122914674034e-01
2.16896551724138e-02 7.64971711146061e+01 3.11130939622684e-01
2.22000000000000e-02 7.55936056533001e+01 3.11052770803461e-01
2.27103448275862e-02 7.47007128817758e+01 3.10892391272702e-01
2.32206896551724e-02 7.38183667368530e+01 3.10653582054451e-01
2.37310344827586e-02 7.29464426429266e+01 3.10339936043042e-01
2.42413793103448e-02 7.20848174988326e+01 3.09954870406931e-01
2.47517241379310e-02 7.12333696559129e+01 3.09501637823578e-01
2.52620689655172e-02 7.03919789010738e+01 3.08983337332563e-01
2.57724137931034e-02 6.95605264438670e+01 3.08402923720108e-01
2.62827586206897e-02 6.87388948955793e+01 3.07763216183284e-01
2.67931034482759e-02 6.79269682540604e+01 3.07066906551339e-01
2.73034482758621e-02 6.71246318861880e+01 3.06316566850129e-01
2.78137931034483e-02 6.63317725152427e+01 3.05514656063462e-01
2.83241379310345e-02 6.55482782012812e+01 3.04663526376639e-01
2.88344827586207e-02 6.47740383265707e+01 3.03765429187084e-01
2.93448275862069e-02 6.40089435789367e+01 3.02822520671197e-01
2.98551724137931e-02 6.32528859394808e+01 3.01836866751452e-01
3.03655172413793e-02 6.25057586641168e+01 3.00810447661069e-01
3.08758620689655e-02 6.17674562686485e+01 2.99745162655105e-01
3.13862068965517e-02 6.10378745167727e+01 2.98642833957567e-01
3.18965517241379e-02 6.03169104024103e+01 2.97505210494605e-01
3.24068965517241e-02 5.96044621361638e+01 2.96333971582202e-01
3.29172413793103e-02 5.89004291301013e+01 2.95130730373982e-01
3.34275862068966e-02 5.82047119861394e+01 2.93897036912287e-01
3.39379310344828e-02 5.75172124793773e+01 2.92634380990506e-01
3.44482758620690e-02 5.68378335451259e+01 2.91344195021869e-01
3.49586206896552e-02 5.61664792644403e+01 2.90027856733652e-01
3.54689655172414e-02 5.55030548528933e+01 2.88686691535845e-01
3.59793103448276e-02 5.48474666448385e+01 2.87321974711898e-01
3.64896551724138e-02 5.41996220802827e+01 2.85934933854022e-01
3.70000000000000e-02 5.35594296939634e+01 2.84526750798875e-01
3.75103448275862e-02 5.29267991002525e+01 2.83098563497905e-01
3.80206896551724e-02 5.23016409811348e+01 2.81651467942635e-01
3.85310344827586e-02 5.16838670729633e+01 2.80186519984853e-01
3.90413793103448e-02 5.10733901559316e+01 2.78704736911635e-01
3.95517241379310e-02 5.04701240397929e+01 2.77207098904186e-01
4.00620689655172e-02 4.98739835517685e+01 2.75694550745893e-01
4.05724137931034e-02 4.92848845263230e+01 2.74168003123220e-01
4.10827586206896e-02 4.87027437914520e+01 2.72628333899370e-01
4.15931034482759e-02 4.81274791575569e+01 2.71076389462238e-01
4.21034482758621e-02 4.75590094053084e+01 2.69512986005833e-01
4.26137931034483e-02 4.69972542758084e+01 2.67938910617275e-01
4.31241379310345e-02 4.64421344576027e+01 2.66354922315613e-01
4.36344827586207e-02 4.58935715760458e+01 2.64761753168466e-01
4.41448275862069e-02 4.53514881817479e+01 2.63160109356520e-01
4.46551724137931e-02 4.48158077411197e+01 2.61550672065485e-01
4.51655172413793e-02 4.42864546240649e+01 2.59934098311379e-01
4.56758620689655e-02 4.37633540933579e+01 2.58311021994394e-01
4.61862068965517e-02 4.32464322954743e+01 2.56682054641695e-01
4.66965517241379e-02 4.27356162487600e+01 2.55047786150481e-01
4.72068965517241e-02 4.22308338336020e+01 2.53408785610401e-01
4.77172413793103e-02 4.17320137818327e+01 2.51765602090984e-01
4.82275862068965e-02 4.12390856679272e+01 2.50118765285056e-01
4.87379310344828e-02 4.07519798977821e+01 2.48468786129354e-01
4.92482758620690e-02 4.02706276993233e+01 2.46816157502789e-01
4.97586206896552e-02 3.97949611124168e+01 2.45161354896417e-01
5.02689655172414e-02 3.93249129804245e+01 2.43504836952947e-01
5.07793103448276e-02 3.88604169395556e+01 2.41847045963650e-01
5.12896551724138e-02 3.84014074095380e+01 2.40188408564798e-01
5.18000000000000e-02 3.79478195854375e+01 2.38529336187030e-01
5.23103448275862e-02 3.74995894274145e+01 2.36870225515252e-01
5.28206896551724e-02 3.70566536520517e+01 2.35211459022272e-01
5.33310344827586e-02 3.66189497230955e+01 2.33553405482604e-01
5.38413793103448e-02 3.61864158436141e+01 2.31896420374172e-01
5.43517241379310e-02 3.57589909462705e+01 2.30240846246852e-01
5.48620689655172e-02 3.53366146847353e+01 2.28587013272349e-01
5.53724137931034e-02 3.49192274260946e+01 2.26935239577777e-01
5.58827586206897e-02 3.45067702414895e+01 2.25285831592326e-01
5.63931034482759e-02 3.40991848981139e+01 2.23639084462635e-01
5.69034482758621e-02 3.36964138507130e+01 2.21995282453979e-01
5.74137931034483e-02 3.32984002343108e+01 2.20354699254028e-01
5.79241379310345e-02 3.29050878553179e+01 2.18717598269918e-01
5.84344827586207e-02 3.25164211838900e+01 2.17084232990584e-01
5.89448275862069e-02 3.21323453458294e+01 2.15454847337320e-01
5.94551724137931e-02 3.17528061156218e+01 2.13829675924328e-01
5.99655172413793e-02 3.13777499079856e+01 2.12208944295754e-01
6.04758620689655e-02 3.10071237703327e+01 2.10592869317246e-01
6.09862068965517e-02 3.06408753760305e+01 2.08981659390190e-01
6.14965517241379e-02 3.02789530162660e+01 2.07375514680387e-01
6.20068965517241e-02 2.99213055929975e+01 2.05774627406575e-01
6.25172413793103e-02 2.95678826115173e+01 2.04179182120306e-01
6.30275862068966e-02 2.92186341740019e+01 2.02589355906620e-01
6.35379310344828e-02 2.88735109717788e+01 2.01005318581998e-01
6.40482758620690e-02 2.85324642785975e+01 1.99427232948887e-01
6.45586206896552e-02 2.81954459435432e+01 1.97855255042958e-01
6.50689655172414e-02 2.78624083848660e+01 1.96289534306792e-01
6.55793103448276e-02 2.75333045826277e+01 1.94730213746101e-01
6.60896551724138e-02 2.72080880720834e+01 1.93177430217281e-01
6.66000000000000e-02 2.68867129377130e+01 1.91631314567956e-01
6.71103448275862e-02 2.65691338061390e+01 1.90091991791653e-01
6.76206896551724e-02 2.62553058399232e+01 1.88559581233954e-01
6.81310344827586e-02 2.59451847310557e+01 1.87034196793268e-01
6.86413793103448e-02 2.56387266952468e+01 1.85515947056297e-01
6.91517241379310e-02 2.53358884651909e+01 1.84004935418862e-01
6.96620689655172e-02 2.50366272844750e+01 1.82501260325225e-01
7.01724137931034e-02 2.47409009020591e+01 1.81005015376282e-01
7.06827586206897e-02 2.44486675657873e+01 1.79516289451222e-01
7.11931034482759e-02 2.41598860166699e+01 1.78035166875983e-01
7.17034482758621e-02 2.38745154829004e+01 1.76561727587647e-01
7.22137931034483e-02 2.35925156745779e+01 1.75096047240706e-01
7.27241379310345e-02 2.33138467775342e+01 1.73638197313475e-01
7.32344827586207e-02 2.30384694478762e+01 1.72188245258603e-01
7.37448275862069e-02 2.27663448062852e+01 1.70746254650152e-01
7.42551724137931e-02 2.24974344329707e+01 1.69312285276327e-01
7.47655172413793e-02 2.22317003617976e+01 1.67886393220864e-01
7.52758620689655e-02 2.19691050749390e+01 1.66468631045010e-01
7.57862068965517e-02 2.17096114979994e+01 1.65059047859630e-01
7.62965517241379e-02 2.14531829943550e+01 1.63657689409551e-01
7.68068965517241e-02 2.11997833601249e+01 1.62264598197887e-01
7.73172413793103e-02 2.09493768189309e+01 1.60879813607775e-01
7.78275862068965e-02 2.07019280172362e+01 1.59503371975483e-01
7.83379310344827e-02 2.04574020189597e+01 1.58135306664466e-01
7.88482758620690e-02 2.02157643006768e+01 1.56775648177018e-01
7.93586206896552e-02 1.99769807466259e+01 1.55424424263751e-01
7.98689655172414e-02 1.97410176442531e+01 1.54081659987570e-01
8.03793103448276e-02 1.95078416790868e+01 1.52747377778635e-01
8.08896551724138e-02 1.92774199300450e+01 1.51421597574835e-01
8.14000000000000e-02 1.90497198651296e+01 1.50104336869764e-01
8.19103448275862e-02 1.88247093364867e+01 1.48795610771617e-01
8.24206896551724e-02 1.86023565759852e+01 1.47495432096190e-01
8.29310344827586e-02 1.83826301906261e+01 1.46203811458233e-01
8.34413793103448e-02 1.81654991584289e+01 1.44920757321944e-01
8.39517241379310e-02 1.79509328237298e+01 1.43646276043704e-01
8.44620689655172e-02 1.77389008928622e+01 1.42380371992010e-01
8.49724137931034e-02 1.75293734301825e+01 1.41123047584262e-01
8.54827586206896e-02 1.73223208535376e+01 1.39874303333647e-01
8.59931034482758e-02 1.71177139301910e+01 1.38634137926908e-01
8.65034482758621e-02 1.69155237726040e+01 1.37402548300877e-01
8.70137931034483e-02 1.67157218346372e+01 1.36179529682313e-01
8.75241379310345e-02 1.65182799072364e+01 1.34965075629073e-01
8.80344827586207e-02 1.63231701145459e+01 1.33759178100399e-01
8.85448275862069e-02 1.61303649098865e+01 1.32561827526166e-01
8.90551724137931e-02 1.59398370721275e+01 1.31373012841644e-01
8.95655172413793e-02 1.57515597015795e+01 1.30192721515984e-01
9.00758620689655e-02 1.55655062162036e+01 1.29020939646443e-01
9.05862068965517e-02 1.53816503481071e+01 1.27857651982230e-01
9.10965517241379e-02 1.51999661395830e+01 1.26702841957205e-01
9.16068965517241e-02 1.50204279395305e+01 1.25556491748955e-01
9.21172413793103e-02 1.48430103997570e+01 1.24418582337105e-01
9.26275862068965e-02 1.46676884716307e+01 1.23289093530567e-01
9.31379310344827e-02 1.44944374023096e+01 1.22168003996203e-01
9.36482758620690e-02 1.43232327313267e+01 1.21055291312336e-01
9.41586206896552e-02 1.41540502870644e+01 1.19950932021635e-01
9.46689655172414e-02 1.39868661835582e+01 1.18854901654790e-01
9.51793103448276e-02 1.38216568169058e+01 1.17767174749056e-01
9.56896551724138e-02 1.36583988619410e+01 1.16687724922858e-01
9.62000000000000e-02 1.34970692691449e+01 1.15616524890678e-01
9.67103448275862e-02 1.33376452611851e+01 1.14553546485662e-01
9.72206896551724e-02 1.31801043297692e+01 1.13498760704748e-01
9.77310344827586e-02 1.30244242324041e+01 1.12452137753357e-01
9.82413793103448e-02 1.28705829894469e+01 1.11413647063739e-01
9.87517241379310e-02 1.27185588808084e+01 1.10383257308772e-01
9.92620689655172e-02 1.25683304428916e+01 1.09360936466522e-01
9.97724137931034e-02 1.24198764657436e+01 1.08346651842313e-01
1.00282758620690e-01 1.22731759899923e+01 1.07340370040730e-01
1.00793103448276e-01 1.21282083034858e+01 1.06342057056164e-01
1.01303448275862e-01 1.19849529389534e+01 1.05351678312748e-01
1.01813793103448e-01 1.18433896708791e+01 1.04369198637534e-01
1.02324137931034e-01 1.17034985126459e+01 1.03394582360158e-01
1.02834482758621e-01 1.15652597142473e+01 1.02427793176300e-01
1.03344827586207e-01 1.14286537578828e+01 1.01468794283957e-01
1.03855172413793e-01 1.12936613568336e+01 1.00517548499964e-01
1.04365517241379e-01 1.11602634521900e+01 9.95740181345378e-02
1.04875862068966e-01 1.10284412101621e+01 9.86381651123204e-02
1.05386206896552e-01 1.08981760199102e+01 9.77099508437437e-02
1.05896551724138e-01 1.07694494894328e+01 9.67893363504403e-02
1.06406896551724e-01 1.06422434444680e+01 9.58762823721495e-02
1.06917241379310e-01 1.05165399254239e+01 9.49707492485834e-02
1.07427586206897e-01 1.03923211848419e+01 9.40726969845013e-02
1.07937931034483e-01 1.02695696848929e+01 9.31820853137589e-02
1.08448275862069e-01 1.01482680953435e+01 9.22988735796339e-02
1.08958620689655e-01 1.00283992897665e+01 9.14230208485022e-02
1.09468965517241e-01 9.90994634447838e+00 9.05544860063954e-02
1.09979310344828e-01 9.79289253569352e+00 8.96932276491579e-02
1.10489655172414e-01 9.67722133716345e+00 8.88392041407157e-02
1.11000000000000e-01 9.56291641784385e+00 8.79923736705053e-02
1.11510344827586e-01 9.44996163999057e+00 8.71526941421709e-02
1.12020689655172e-01 9.33834105566423e+00 8.63201232766986e-02
1.12531034482759e-01 9.22803890570668e+00 8.54946186997183e-02
1.13041379310345e-01 9.11903961710271e+00 8.46761378393955e-02
1.13551724137931e-01 9.01132780078168e+00 8.38646379786758e-02
1.14062068965517e-01 8.90488824944499e+00 8.30600763068215e-02
1.14572413793103e-01 8.79970593578316e+00 8.22624098159373e-02
1.15082758620690e-01 8.69576600925116e+00 8.14715953946142e-02
1.15593103448276e-01 8.59305379508484e+00 8.06875899069251e-02
1.16103448275862e-01 8.49155479185433e+00 7.99103500975472e-02
1.16613793103448e-01 8.39125466941720e+00 7.91398326386499e-02
1.17124137931034e-01 8.29213926689514e+00 7.83759941761708e-02
1.17634482758621e-01 8.19419459100510e+00 7.76187912336522e-02
1.18144827586207e-01 8.09740681308305e+00 7.68681802973438e-02
1.18655172413793e-01 8.00176226814124e+00 7.61241178877307e-02
1.19165517241379e-01 7.90724745259894e+00 7.53865604713946e-02
1.19675862068966e-01 7.81384902237666e+00 7.46554645361363e-02
1.20186206896552e-01 7.72155379131640e+00 7.39307865005329e-02
1.20696551724138e-01 7.63034872839796e+00 7.32124827925013e-02
1.21206896551724e-01 7.54022095682949e+00 7.25005099151653e-02
1.21717241379310e-01 7.45115775191644e+00 7.17948243639818e-02
1.22227586206897e-01 7.36314653926499e+00 7.10953826652950e-02
1.22737931034483e-01 7.27617489300710e+00 7.04021414144477e-02
1.23248275862069e-01 7.19023053432259e+00 6.97150571917547e-02
1.23758620689655e-01 7.10530132886822e+00 6.90340866339901e-02
1.24268965517241e-01 7.02137528590934e+00 6.83591864941110e-02
1.24779310344828e-01 6.93844055634269e+00 6.76903135642819e-02
1.25289655172414e-01 6.85648543102362e+00 6.70274247105580e-02
1.25800000000000e-01 6.77549833911305e+00 6.63704769071826e-02
1.26310344827586e-01 6.69546784669514e+00 6.57194271585362e-02
1.26820689655172e-01 6.61638265440208e+00 6.50742325642099e-02
1.27331034482759e-01 6.53823159658648e+00 6.44348503731982e-02
1.27841379310345e-01 6.46100363948661e+00 6.38012379124281e-02
1.28351724137931e-01 6.38468787966880e+00 6.31733526179538e-02
1.28862068965517e-01 6.30927354248808e+00 6.25511520658481e-02
1.29372413793103e-01 6.23474998079543e+00 6.19345938997196e-02
1.29882758620690e-01 6.16110667274277e+00 6.13236358899780e-02
1.30393103448276e-01 6.08833322099539e+00 6.07182359830312e-02
1.30903448275862e-01 6.01641935102909e+00 6.01183522349236e-02
1.31413793103448e-01 5.94535490967992e+00 5.95239428394273e-02
1.31924137931034e-01 5.87512986371055e+00 5.89349661558683e-02
1.32434482758621e-01 5.80573429860170e+00 5.83513806418196e-02
1.32944827586207e-01 5.73715841652289e+00 5.77731449071073e-02
1.33455172413793e-01 5.66939253558421e+00 5.72002177584922e-02
1.33965517241379e-01 5.60242708825559e+00 5.66325581380649e-02
1.34475862068966e-01 5.53625262001638e+00 5.60701251706291e-02
1.34986206896552e-01 5.47085978821249e+00 5.55128781004229e-02
1.35496551724138e-01 5.40623936015585e+00 5.49607763410951e-02
1.36006896551724e-01 5.34238221240753e+00 5.44137795169477e-02
1.36517241379310e-01 5.27927932929232e+00 5.38718474050257e-02
1.37027586206897e-01 5.21692180162578e+00 5.33349399583334e-02
1.37537931034483e-01 5.15530082545666e+00 5.28030173288658e-02
1.38048275862069e-01 5.09440770099869e+00 5.22760398088582e-02
1.38558620689655e-01 5.03423383087286e+00 5.17539678763559e-02
1.39068965517241e-01 4.97477071942773e+00 5.12367622327112e-02
1.39579310344828e-01 4.91600997136031e+00 5.07243837488228e-02
1.40089655172414e-01 4.85794329053076e+00 5.02167934860646e-02
1.40600000000000e-01 4.80056247879127e+00 4.97139527170551e-02
1.41110344827586e-01 4.74385943498786e+00 4.92158228711137e-02
1.41620689655172e-01 4.68782615333422e+00 4.87223655758359e-02
1.42131034482759e-01 4.63245472276814e+00 4.82335426911924e-02
1.42641379310345e-01 4.57773732567076e+00 4.77493162596250e-02
1.43151724137931e-01 4.52366623676302e+00 4.72696485249155e-02
1.43662068965517e-01 4.47023382201495e+00 4.67945019509304e-02
1.44172413793103e-01 4.41743253771310e+00 4.63238391709747e-02
1.44682758620690e-01 4.36525492895579e+00 4.58576230257355e-02
1.45193103448276e-01 4.31369362904417e+00 4.53958165943132e-02
1.45703448275862e-01 4.26274135829288e+00 4.49383831478910e-02
1.46213793103448e-01 4.21239092300243e+00 4.44852861667510e-02
1.46724137931034e-01 4.16263521444355e+00 4.40364893571936e-02
1.47234482758621e-01 4.11346720798594e+00 4.35919566045179e-02
1.47744827586207e-01 4.06487996170561e+00 4.31516520076632e-02
1.48255172413793e-01 4.01686661580920e+00 4.27155399074517e-02
1.48765517241379e-01 3.96942039152944e+00 4.22835848435761e-02
1.49275862068966e-01 3.92253459016823e+00 4.18557515848148e-02
1.49786206896552e-01 3.87620259227344e+00 4.14320050848323e-02
1.50296551724138e-01 3.83041785633321e+00 4.10123105142825e-02
1.50806896551724e-01 3.78517391822681e+00 4.05966332869191e-02
1.51317241379310e-01 3.74046439018602e+00 4.01849390191686e-02
1.51827586206897e-01 3.69628295989328e+00 3.97771935442331e-02
1.52337931034483e-01 3.65262338959063e+00 3.93733629261293e-02
1.52848275862069e-01 3.60947951531082e+00 3.89734134186568e-02
1.53358620689655e-01 3.56684524566843e+00 3.85773114947236e-02
1.53868965517241e-01 3.52471456134145e+00 3.81850238701231e-02
1.54379310344828e-01 3.48308151410656e+00 3.77965174660023e-02
1.54889655172414e-01 3.44194022599936e+00 3.74117594215924e-02
1.55400000000000e-01 3.40128488848450e+00 3.70307171068851e-02
1.55910344827586e-01 3.36110976173781e+00 3.66533580845379e-02
1.56420689655172e-01 3.32140917352662e+00 3.62796501366709e-02
1.56931034482759e-01 3.28217751872090e+00 3.59095612865258e-02
1.57441379310345e-01 3.24340925839699e+00 3.55430597636197e-02
1.57951724137931e-01 3.20509891905557e+00 3.51801140152387e-02
1.58462068965517e-01 3.16724109184898e+00 3.48206927178910e-02
1.58972413793103e-01 3.12983043191084e+00 3.44647647419310e-02
1.59482758620690e-01 3.09286165731897e+00 3.41122991760507e-02
1.59993103448276e-01 3.05632954863460e+00 3.37632653470203e-02
1.60503448275862e-01 3.02022894806964e+00 3.34176327873379e-02
1.61013793103448e-01 2.98455475875847e+00 3.30753712455987e-02
