Energy (eV)          EEDF (eV^-(3/2))     First Anisotropy
9.98837209302326e-03 2.86335864899464e-01 1.63057761787970e-04
2.99651162790698e-02 2.84046147477787e-01 2.69082751008228e-04
4.99418604651163e-02 2.81774740042940e-01 3.54764466564248e-04
6.99186046511628e-02 2.79521496177386e-01 4.19581113171935e-04
8.98953488372093e-02 2.77286270636667e-01 4.73410718732522e-04
1.09872093023256e-01 2.75068919331614e-01 5.19994199672746e-04
1.29848837209302e-01 2.72869299330605e-01 5.61270515404398e-04
1.49825581395349e-01 2.70687268844279e-01 5.98412334579892e-04
1.69802325581395e-01 2.68522687215502e-01 6.32198564222241e-04
1.89779069767442e-01 2.66375414900582e-01 6.63180540446851e-04
2.09755813953488e-01 2.64245313496363e-01 6.91766996249923e-04
2.29732558139535e-01 2.62132245693099e-01 7.18271831790424e-04
2.49709302325581e-01 2.60036075279132e-01 7.42942928684611e-04
2.69686046511628e-01 2.57956667132322e-01 7.65980511210965e-04
2.89662790697674e-01 2.55893887203888e-01 7.87549362955613e-04
3.09639534883721e-01 2.53847602532099e-01 8.07787255964880e-04
3.29616279069767e-01 2.51817681210531e-01 8.26810941346312e-04
3.49593023255814e-01 2.49803992387520e-01 8.44720512714435e-04
3.69569767441860e-01 2.47806406257896e-01 8.61602659757450e-04
3.89546511627907e-01 2.45824794049385e-01 8.77533135872639e-04
4.09523255813953e-01 2.43859028030118e-01 8.92578665666059e-04
4.29500000000000e-01 2.41908981484111e-01 9.06798439703049e-04
4.49476744186047e-01 2.39974528708670e-01 9.20245298516774e-04
4.69453488372093e-01 2.38055545006321e-01 9.32966685764270e-04
4.89430232558140e-01 2.36151906676784e-01 9.45005422138536e-04
5.09406976744186e-01 2.34263491005278e-01 9.56400338111592e-04
5.29383720930233e-01 2.32390176265929e-01 9.67186799411677e-04
5.49360465116279e-01 2.30531841702340e-01 9.77397145361333e-04
5.69337209302326e-01 2.28688367523737e-01 9.87061054906404e-04
5.89313953488372e-01 2.26859634897308e-01 9.96205858361142e-04
6.09290697674419e-01 2.25045525937531e-01 1.00485680082841e-03
6.29267441860465e-01 2.23245923707667e-01 1.01303726965497e-03
6.49244186046512e-01 2.21460712202946e-01 1.02076899040365e-03
6.69220930232558e-01 2.19689776346235e-01 1.02807219449091e-03
6.89197674418605e-01 2.17933001980642e-01 1.03496576686534e-03
7.09174418604651e-01 2.16190275859700e-01 1.04146737325056e-03
7.29151162790698e-01 2.14461485647549e-01 1.04759357347015e-03
7.49127906976744e-01 2.12746519904070e-01 1.05335992135106e-03
7.69104651162791e-01 2.11045268080285e-01 1.05878105127859e-03
7.89081395348837e-01 2.09357620511231e-01 1.06387075636858e-03
8.09058139534884e-01 2.07683468408908e-01 1.06864205804373e-03
8.29034883720930e-01 2.06022703853264e-01 1.07310726693647e-03
8.49011627906977e-01 2.04375219791298e-01 1.07727803894609e-03
8.68988372093023e-01 2.02740910024003e-01 1.08116542566643e-03
8.88965116279070e-01 2.01119669201593e-01 1.08477991824525e-03
9.08941860465116e-01 1.99511392816739e-01 1.08813148850662e-03
9.28918604651163e-01 1.97915977196112e-01 1.09122962476100e-03
9.48895348837209e-01 1.96333319498892e-01 1.09408336567650e-03
9.68872093023256e-01 1.94763317704870e-01 1.09670133114486e-03
9.88848837209302e-01 1.93205870609648e-01 1.09909174899075e-03
1.00882558139535e+00 1.91660877818125e-01 1.10126247971440e-03
1.02880232558140e+00 1.90128239742410e-01 1.10322104345458e-03
1.04877906976744e+00 1.88607857573462e-01 1.10497463391647e-03
1.06875581395349e+00 1.87099633320007e-01 1.10653014392825e-03
1.08873255813953e+00 1.85603469745848e-01 1.10789418131339e-03
1.10870930232558e+00 1.84119270420231e-01 1.10907308283735e-03
1.12868604651163e+00 1.82646939669241e-01 1.11007293951654e-03
1.14866279069767e+00 1.81186382571672e-01 1.11089959589246e-03
1.16863953488372e+00 1.79737504990788e-01 1.11155867280426e-03
1.18861627906977e+00 1.78300213517742e-01 1.11205557736263e-03
1.20859302325581e+00 1.76874415515003e-01 1.11239551382131e-03
1.22856976744186e+00 1.75460019061964e-01 1.11258349443014e-03
1.24854651162791e+00 1.74056932996427e-01 1.11262434666081e-03
1.26852325581395e+00 1.72665066873260e-01 1.11252273129503e-03
1.28850000000000e+00 1.71284330960117e-01 1.11228313768586e-03
1.30847674418605e+00 1.69914636263671e-01 1.11190990037517e-03
1.32845348837209e+00 1.68555894481194e-01 1.11140720460978e-03
1.34843023255814e+00 1.67208018036712e-01 1.11077909099450e-03
1.36840697674419e+00 1.65870920044038e-01 1.11002947029899e-03
1.38838372093023e+00 1.64544514302466e-01 1.10916211741168e-03
1.40836046511628e+00 1.63228715319659e-01 1.10818068509572e-03
1.42833720930233e+00 1.61923438268238e-01 1.10708870765361e-03
1.44831395348837e+00 1.60628599017493e-01 1.10588960573549e-03
1.46829069767442e+00 1.59344114091476e-01 1.10458669146483e-03
1.48826744186047e+00 1.58069900699425e-01 1.10318317090422e-03
1.50824418604651e+00 1.56805876703625e-01 1.10168215580843e-03
1.52822093023256e+00 1.55551960615166e-01 1.10008665670027e-03
1.54819767441860e+00 1.54308071613164e-01 1.09839959392012e-03
1.56817441860465e+00 1.53074129506928e-01 1.09662379966505e-03
1.58815116279070e+00 1.51850054762833e-01 1.09476201951023e-03
1.60812790697674e+00 1.50635768475210e-01 1.09281692258862e-03
1.62810465116279e+00 1.49431192362141e-01 1.09079109451082e-03
1.64808139534884e+00 1.48236248782428e-01 1.08868704698740e-03
1.66805813953488e+00 1.47050860701273e-01 1.08650721915134e-03
1.68803488372093e+00 1.45874951714113e-01 1.08425397997147e-03
1.70801162790698e+00 1.44708446013383e-01 1.08192963103541e-03
1.72798837209302e+00 1.43551268411464e-01 1.07953640721823e-03
1.74796511627907e+00 1.42403344314992e-01 1.07707648525280e-03
1.76794186046512e+00 1.41264599720802e-01 1.07455197667713e-03
1.78791860465116e+00 1.40134961230344e-01 1.07196493599568e-03
1.80789534883721e+00 1.39014356019378e-01 1.06931736132687e-03
1.82787209302326e+00 1.37902711858432e-01 1.06661119608843e-03
1.84784883720930e+00 1.36799957083406e-01 1.06384833104625e-03
1.86782558139535e+00 1.35706020615283e-01 1.06103060446589e-03
1.88780232558140e+00 1.34620831937341e-01 1.05815980949641e-03
1.90777906976744e+00 1.33544321091216e-01 1.05523768734739e-03
1.92775581395349e+00 1.32476418689242e-01 1.05226593434391e-03
1.94773255813954e+00 1.31417055887529e-01 1.04924620216319e-03
1.96770930232558e+00 1.30366164403617e-01 1.04618009776017e-03
1.98768604651163e+00 1.29323676495536e-01 1.04306919004583e-03
2.00766279069767e+00 1.28289524957979e-01 1.03991500332123e-03
2.02763953488372e+00 1.27263643133309e-01 1.03671902367877e-03
2.04761627906977e+00 1.26245964886831e-01 1.03348269904711e-03
2.06759302325581e+00 1.25236424622641e-01 1.03020744015131e-03
2.08756976744186e+00 1.24234957259592e-01 1.02689462180321e-03
2.10754651162791e+00 1.23241498246602e-01 1.02354558260700e-03
2.12752325581395e+00 1.22255983543891e-01 1.02016163085673e-03
2.14750000000000e+00 1.21278349619317e-01 1.01674403832801e-03
2.16747674418605e+00 1.20308533457855e-01 1.01329404594372e-03
2.18745348837209e+00 1.19346472539445e-01 1.00981286363267e-03
2.20743023255814e+00 1.18392104852784e-01 1.00630166994199e-03
2.22740697674419e+00 1.17445368877984e-01 1.00276161744910e-03
2.24738372093023e+00 1.16506203583014e-01 9.99193826844235e-04
2.26736046511628e+00 1.15574548432204e-01 9.95599392137474e-04
2.28733720930233e+00 1.14650343365777e-01 9.91979380434296e-04
2.30731395348837e+00 1.13733528812299e-01 9.88334832510832e-04
2.32729069767442e+00 1.12824045668754e-01 9.84666763681401e-04
2.34726744186047e+00 1.11921835312583e-01 9.80976163321237e-04
2.36724418604651e+00 1.11026839586040e-01 9.77263999719039e-04
2.38722093023256e+00 1.10139000792797e-01 9.73531214534605e-04
2.40719767441860e+00 1.09258261705306e-01 9.69778727476145e-04
2.42717441860465e+00 1.08384565546346e-01 9.66007435992063e-04
2.44715116279070e+00 1.07517855999917e-01 9.62218214760259e-04
2.46712790697674e+00 1.06658077196711e-01 9.58411920183054e-04
2.48710465116279e+00 1.05805173710826e-01 9.54589385124978e-04
2.50708139534884e+00 1.04959090566394e-01 9.50751423247129e-04
2.52705813953488e+00 1.04119773220450e-01 9.46898828666594e-04
2.54703488372093e+00 1.03287167572811e-01 9.43032376313912e-04
2.56701162790698e+00 1.02461219949382e-01 9.39152822545768e-04
2.58698837209302e+00 1.01641877111717e-01 9.35260904605904e-04
2.60696511627907e+00 1.00829086243836e-01 9.31357344695225e-04
2.62694186046512e+00 1.00022794949101e-01 9.27442845063404e-04
2.64691860465116e+00 9.92229512559712e-02 9.23518091940870e-04
2.66689534883721e+00 9.84295036024836e-02 9.19583755163857e-04
2.68687209302326e+00 9.76424008449330e-02 9.15640488448716e-04
2.70684883720930e+00 9.68615922427337e-02 9.11688929902728e-04
2.72682558139535e+00 9.60870274668280e-02 9.07729701473827e-04
2.74680232558140e+00 9.53186565876993e-02 9.03763412654754e-04
2.76677906976744e+00 9.45564300723907e-02 8.99790655910570e-04
2.78675581395349e+00 9.38002987895270e-02 8.95812010256830e-04
2.80673255813953e+00 9.30502139952051e-02 8.91828040870366e-04
2.82670930232558e+00 9.23061273406477e-02 8.87839298544852e-04
2.84668604651163e+00 9.15679908610018e-02 8.83846323150379e-04
2.86666279069767e+00 9.08357569724660e-02 8.79849639300712e-04
2.88663953488372e+00 9.01093784768240e-02 8.75849759698668e-04
2.90661627906977e+00 8.93888085482767e-02 8.71847184745271e-04
2.92659302325581e+00 8.86740007404154e-02 8.67842402715820e-04
2.94656976744186e+00 8.79649089733676e-02 8.63835890141967e-04
2.96654651162791e+00 8.72614875405559e-02 8.59828111275906e-04
2.98652325581395e+00 8.65636910984677e-02 8.55819521256021e-04
3.00650000000000e+00 8.58714746639229e-02 8.51810562074285e-04
3.02647674418605e+00 8.51847936180355e-02 8.47801665638179e-04
3.04645348837209e+00 8.45036036941977e-02 8.43793253381364e-04
3.06643023255814e+00 8.38278609842475e-02 8.39785735741303e-04
3.08640697674419e+00 8.31575219288829e-02 8.35779515127348e-04
3.10638372093023e+00 8.24925433150287e-02 8.31774982099903e-04
3.12636046511628e+00 8.18328822794192e-02 8.27772518242405e-04
3.14633720930233e+00 8.11784962973537e-02 8.23772495778902e-04
3.16631395348837e+00 8.05293431883270e-02 8.19775277687839e-04
3.18629069767442e+00 7.98853811050460e-02 8.15781217995602e-04
3.20626744186047e+00 7.92465685388906e-02 8.11790661272213e-04
3.22624418604651e+00 7.86128643111287e-02 8.07803945357900e-04
3.24622093023256e+00 7.79842275704170e-02 8.03821397807461e-04
3.26619767441860e+00 7.73606177959340e-02 7.99843338530207e-04
3.28617441860465e+00 7.67419947870866e-02 7.95870079416751e-04
3.30615116279070e+00 7.61283186685031e-02 7.91901923851139e-04
3.32612790697674e+00 7.55195498817836e-02 7.87939169275010e-04
3.34610465116279e+00 7.49156491830902e-02 7.83982103817643e-04
3.36608139534884e+00 7.43165776459849e-02 7.80031008778087e-04
3.38605813953488e+00 7.37222966517728e-02 7.76086158263214e-04
3.40603488372093e+00 7.31327678940703e-02 7.72147819260856e-04
3.42601162790698e+00 7.25479533693660e-02 7.68216251870220e-04
3.44598837209302e+00 7.19678153814539e-02 7.64291708836060e-04
3.46596511627907e+00 7.13923165338485e-02 7.60374437910904e-04
3.48594186046512e+00 7.08214197275022e-02 7.56464678718434e-04
3.50591860465116e+00 7.02550881632871e-02 7.52562665042650e-04
3.52589534883721e+00 6.96932853331303e-02 7.48668624478657e-04
3.54587209302326e+00 6.91359750240737e-02 7.44782778489010e-04
3.56584883720930e+00 6.85831213096053e-02 7.40905342605848e-04
3.58582558139535e+00 6.80346885535991e-02 7.37036525986691e-04
3.60580232558140e+00 6.74906414033347e-02 7.33176533595565e-04
3.62577906976744e+00 6.69509447873295e-02 7.29325563282979e-04
3.64575581395349e+00 6.64155639175140e-02 7.25483807898388e-04
3.66573255813954e+00 6.58844642810816e-02 7.21651454956363e-04
3.68570930232558e+00 6.53576116440993e-02 7.17828686210897e-04
3.70568604651163e+00 6.48349720449310e-02 7.14015679712028e-04
3.72566279069767e+00 6.43165117921523e-02 7.10212607036351e-04
3.74563953488372e+00 6.38021974665188e-02 7.06419635280444e-04
3.76561627906977e+00 6.32919959132974e-02 7.02636926739077e-04
3.78559302325581e+00 6.27858742455774e-02 6.98864638940174e-04
3.80556976744186e+00 6.22837998367674e-02 6.95102924807382e-04
3.82554651162791e+00 6.17857403238104e-02 6.91351932256179e-04
3.84552325581395e+00 6.12916636011153e-02 6.87611806096690e-04
3.86550000000000e+00 6.08015378185808e-02 6.83882685454132e-04
3.88547674418605e+00 6.03153313833180e-02 6.80164705612738e-04
3.90545348837209e+00 5.98330129525845e-02 6.76457997709687e-04
3.92543023255814e+00 5.93545514367336e-02 6.72762688348459e-04
3.94540697674419e+00 5.88799159934888e-02 6.69078901396135e-04
3.96538372093023e+00 5.84090760260410e-02 6.65406755535715e-04
3.98536046511628e+00 5.79420011846085e-02 6.61746366008161e-04
4.00533720930233e+00 5.74786613597766e-02 6.58097844318572e-04
4.02531395348837e+00 5.70190266852050e-02 6.54461298256520e-04
4.04529069767442e+00 5.65630675311089e-02 6.50836832028341e-04
4.06526744186047e+00 5.61107545068884e-02 6.47224545891979e-04
4.08524418604651e+00 5.56620584558349e-02 6.43624537822336e-04
4.10522093023256e+00 5.52169504533289e-02 6.40036901230150e-04
4.12519767441860e+00 5.47754018082035e-02 6.36461726576754e-04
4.14517441860465e+00 5.43373840565955e-02 6.32899101095213e-04
4.16515116279070e+00 5.39028689643597e-02 6.29349108440877e-04
4.18512790697674e+00 5.34718285220671e-02 6.25811830266771e-04
4.20510465116279e+00 5.30442349432704e-02 6.22287344057993e-04
4.22508139534884e+00 5.26200606657369e-02 6.18775724658735e-04
4.24505813953488e+00 5.21992783456451e-02 6.15277044005413e-04
4.26503488372093e+00 5.17818608598016e-02 6.11791371136900e-04
4.28501162790698e+00 5.13677812999592e-02 6.08318772303442e-04
4.30498837209302e+00 5.09570129749708e-02 6.04859310637433e-04
4.32496511627907e+00 5.05495294061562e-02 6.01413047615008e-04
4.34494186046512e+00 5.01453043256610e-02 5.97980041036692e-04
4.36491860465116e+00 4.97443116775316e-02 5.94560346445217e-04
4.38489534883721e+00 4.93465256123480e-02 5.91154016872648e-04
4.40487209302326e+00 4.89519204892028e-02 5.87761102846343e-04
4.42484883720930e+00 4.85604708704447e-02 5.84381652486924e-04
4.44482558139535e+00 4.81721515236011e-02 5.81015711197670e-04
4.46480232558140e+00 4.77869374170843e-02 5.77663323022325e-04
4.48477906976744e+00 4.74048037186361e-02 5.74324528761612e-04
4.50475581395349e+00 4.70257257962652e-02 5.70999367289611e-04
4.52473255813953e+00 4.66496792132792e-02 5.67687875315296e-04
4.54470930232558e+00 4.62766397300510e-02 5.64390087086078e-04
4.56468604651163e+00 4.59065832999535e-02 5.61106035673863e-04
4.58466279069767e+00 4.55394860678649e-02 5.57835751185599e-04
4.60463953488372e+00 4.51753243710119e-02 5.54579262010634e-04
4.62461627906977e+00 4.48140747342727e-02 5.51336594592356e-04
4.64459302325581e+00 4.44557138717999e-02 5.48107773428703e-04
4.66456976744186e+00 4.41002186824186e-02 5.44892821153533e-04
4.68454651162791e+00 4.37475662512031e-02 5.41691758257650e-04
4.70452325581395e+00 4.33977338457037e-02 5.38504604284716e-04
4.72450000000000e+00 4.30506989145312e-02 5.35331376161069e-04
4.74447674418605e+00 4.27064390880895e-02 5.32172089355624e-04
4.76445348837209e+00 4.23649321742213e-02 5.29026757664464e-04
4.78443023255814e+00 4.20261561596575e-02 5.25895392944422e-04
4.80440697674419e+00 4.16900892064414e-02 5.22778006246932e-04
4.82438372093023e+00 4.13567096505670e-02 5.19674606230554e-04
4.84436046511628e+00 4.10259960026375e-02 5.16585200260679e-04
4.86433720930233e+00 4.06979269437433e-02 5.13509794203619e-04
4.88431395348837e+00 4.03724813267941e-02 5.10448392423353e-04
4.90429069767442e+00 4.00496381724792e-02 5.07400997849732e-04
4.92426744186047e+00 3.97293766705622e-02 5.04367611728039e-04
4.94424418604651e+00 3.94116761765570e-02 5.01348234674107e-04
4.96422093023256e+00 3.90965162104393e-02 4.98342865192054e-04
4.98419767441860e+00 3.87838764572157e-02 4.95351500697972e-04
5.00417441860465e+00 3.84737367630977e-02 4.92374137325724e-04
5.02415116279070e+00 3.81660771366915e-02 4.89410769687764e-04
5.04412790697674e+00 3.78608777458453e-02 4.86461391876519e-04
5.06410465116279e+00 3.75581189164097e-02 4.83525996054700e-04
5.08408139534884e+00 3.72577811327474e-02 4.80604573426507e-04
5.10405813953488e+00 3.69598450341079e-02 4.77697114052224e-04
5.12403488372093e+00 3.66642914157204e-02 4.74803606842408e-04
5.14401162790698e+00 3.63711012252406e-02 4.71924039615439e-04
5.16398837209302e+00 3.60802555638127e-02 4.69058398872640e-04
5.18396511627907e+00 3.57917356831355e-02 4.66206670730889e-04
5.20394186046512e+00 3.55055229842905e-02 4.63368839605778e-04
5.22391860465116e+00 3.52215990181785e-02 4.60544889116562e-04
5.24389534883721e+00 3.49399454821513e-02 4.57734801911299e-04
5.26387209302326e+00 3.46605442209876e-02 4.54938559660107e-04
5.28384883720930e+00 3.43833772235903e-02 4.52156143107398e-04
5.30382558139535e+00 3.41084266239344e-02 4.49387531860302e-04
5.32380232558140e+00 3.38356746983364e-02 4.46632705258150e-04
5.34377906976744e+00 3.35651038643439e-02 4.43891641141873e-04
5.36375581395349e+00 3.32966966811098e-02 4.41164316697164e-04
5.38373255813953e+00 3.30304358462604e-02 4.38450708290010e-04
5.40370930232558e+00 3.27663041967660e-02 4.35750791265017e-04
5.42368604651163e+00 3.25042847063471e-02 4.33064540770976e-04
5.44366279069768e+00 3.22443604844074e-02 4.30391930589807e-04
5.46363953488372e+00 3.19865147763654e-02 4.27732933937623e-04
5.48361627906977e+00 3.17307309606824e-02 4.25087523307524e-04
5.50359302325581e+00 3.14769925496626e-02 4.22455670461554e-04
5.52356976744186e+00 3.12252831865392e-02 4.19837346474908e-04
5.54354651162791e+00 3.09755866462510e-02 4.17232521546387e-04
5.56352325581395e+00 3.07278868330250e-02 4.14641165768324e-04
5.58350000000000e+00 3.04821677793674e-02 4.12063248031877e-04
5.60347674418605e+00 3.02384136463434e-02 4.09498736774055e-04
5.62345348837209e+00 2.99966087208121e-02 4.06947599829742e-04
5.64343023255814e+00 2.97567374161391e-02 4.04409804250743e-04
5.66340697674419e+00 2.95187842698998e-02 4.01885317037447e-04
5.68338372093023e+00 2.92827339429081e-02 3.99374104096730e-04
5.70336046511628e+00 2.90485712194631e-02 3.96876130951880e-04
5.72333720930233e+00 2.88162810047231e-02 3.94391362601254e-04
5.74331395348837e+00 2.85858483253604e-02 3.91919763509518e-04
5.76329069767442e+00 2.83572583269853e-02 3.89461297645309e-04
5.78326744186047e+00 2.81304962747822e-02 3.87015928311169e-04
5.80324418604651e+00 2.79055475513664e-02 3.84583618826302e-04
5.82322093023256e+00 2.76823976558658e-02 3.82164331551976e-04
5.84319767441861e+00 2.74610322041267e-02 3.79758028554046e-04
5.86317441860465e+00 2.72414369262674e-02 3.77364671469938e-04
5.88315116279070e+00 2.70235976672613e-02 3.74984221346292e-04
5.90312790697674e+00 2.68075003848992e-02 3.72616639288102e-04
5.92310465116279e+00 2.65931311489060e-02 3.70261885530686e-04
5.94308139534884e+00 2.63804761411192e-02 3.67919920069518e-04
5.96305813953488e+00 2.61695216531649e-02 3.65590702533206e-04
5.98303488372093e+00 2.59602540869922e-02 3.63274192174412e-04
6.00301162790698e+00 2.57526599525935e-02 3.60970347901905e-04
6.02298837209302e+00 2.55467258685235e-02 3.58679128128108e-04
6.04296511627907e+00 2.53424385599962e-02 3.56400491375154e-04
6.06294186046512e+00 2.51397848580505e-02 3.54134395406544e-04
6.08291860465116e+00 2.49387516996953e-02 3.51880797815403e-04
6.10289534883721e+00 2.47393261257432e-02 3.49639655904856e-04
6.12287209302326e+00 2.45414952812855e-02 3.47410926678906e-04
6.14284883720930e+00 2.43452464135669e-02 3.45194566871761e-04
6.16282558139535e+00 2.41505668724465e-02 3.42990532804430e-04
6.18280232558140e+00 2.39574441086217e-02 3.40798780950954e-04
6.20277906976744e+00 2.37658656728375e-02 3.38619267125805e-04
6.22275581395349e+00 2.35758192160040e-02 3.36451947033173e-04
6.24273255813954e+00 2.33872924871756e-02 3.34296776154547e-04
6.26270930232558e+00 2.32002733339730e-02 3.32153709611899e-04
6.28268604651163e+00 2.30147497008922e-02 3.30022702706225e-04
6.30266279069768e+00 2.28307096285456e-02 3.27903710143360e-04
