Energy (eV)          EEDF (eV^-(3/2))     First Anisotropy
6.77500000000000e-03 9.59921821478091e+00 1.35496984840041e-02
2.03250000000000e-02 9.06195075467068e+00 2.18216166623798e-02
3.38750000000000e-02 8.55475411045791e+00 2.73787651348082e-02
4.74250000000000e-02 8.07594522103058e+00 3.08150127678026e-02
6.09750000000000e-02 7.62393522606997e+00 3.30869844211175e-02
7.45250000000000e-02 7.19722419363975e+00 3.45851989566522e-02
8.80750000000000e-02 6.79439614287170e+00 3.55252126830409e-02
1.01625000000000e-01 6.41411434523120e+00 3.60443894857404e-02
1.15175000000000e-01 6.05511688877068e+00 3.62379249173110e-02
1.28725000000000e-01 5.71621249065124e+00 3.61754771800306e-02
1.42275000000000e-01 5.39627654403729e+00 3.59099674547965e-02
1.55825000000000e-01 5.09424738624604e+00 3.54827022984680e-02
1.69375000000000e-01 4.80912277576841e+00 3.49265738100024e-02
1.82925000000000e-01 4.53995656647082e+00 3.42681713619490e-02
1.96475000000000e-01 4.28585556794154e+00 3.35292371914760e-02
2.10025000000000e-01 4.04597658156330e+00 3.27277059768396e-02
2.23575000000000e-01 3.81952360247665e+00 3.18784694365136e-02
2.37125000000000e-01 3.60574517814914e+00 3.09939527079992e-02
2.50675000000000e-01 3.40393191478524e+00 3.00845579964996e-02
2.64225000000000e-01 3.21341412330227e+00 2.91590121911558e-02
2.77775000000000e-01 3.03355959706086e+00 2.82246434319527e-02
2.91325000000000e-01 2.86377151397564e+00 2.72876040727409e-02
3.04875000000000e-01 2.70348645604466e+00 2.63530524988755e-02
3.18425000000000e-01 2.55217253972555e+00 2.54253028761890e-02
3.31975000000000e-01 2.40932765095442e+00 2.45079495636750e-02
3.45525000000000e-01 2.27447777895055e+00 2.36039712645950e-02
3.59075000000000e-01 2.14717544327793e+00 2.27158187974112e-02
3.72625000000000e-01 2.02699820894403e+00 2.18454894948225e-02
3.86175000000000e-01 1.91354728460840e+00 2.09945905907577e-02
3.99725000000000e-01 1.80644619924935e+00 2.01643934670114e-02
4.13275000000000e-01 1.70533955289755e+00 1.93558802590620e-02
4.26825000000000e-01 1.60989183729097e+00 1.85697840335994e-02
4.40375000000000e-01 1.51978632253760e+00 1.78066235265589e-02
4.53925000000000e-01 1.43472400609166e+00 1.70667332543111e-02
4.67475000000000e-01 1.35442262055545e+00 1.63502896706936e-02
4.81025000000000e-01 1.27861569701448e+00 1.56573339303895e-02
4.94575000000000e-01 1.20705168079766e+00 1.49877917285377e-02
5.08125000000000e-01 1.13949309672830e+00 1.43414906126880e-02
5.21675000000000e-01 1.07571576109600e+00 1.37181751027594e-02
5.35225000000000e-01 1.01550803773431e+00 1.31175199047777e-02
5.48775000000000e-01 9.58670135735747e-01 1.25391414627710e-02
5.62325000000000e-01 9.05013446473626e-01 1.19826080586411e-02
5.75875000000000e-01 8.54359917730699e-01 1.14474486408270e-02
5.89425000000000e-01 8.06541462857787e-01 1.09331605381155e-02
6.02975000000000e-01 7.61399403001752e-01 1.04392161942318e-02
6.16525000000000e-01 7.18783940551913e-01 9.96506904119878e-03
6.30075000000000e-01 6.78553662057635e-01 9.51015861438616e-03
6.43625000000000e-01 6.40575068967575e-01 9.07391499924059e-03
6.57175000000000e-01 6.04722134633415e-01 8.65576268855822e-03
6.70725000000000e-01 5.70875886108056e-01 8.25512391955012e-03
6.84275000000000e-01 5.38924009350542e-01 7.87142155162229e-03
6.97825000000000e-01 5.08760476527623e-01 7.50408153855573e-03
7.11375000000000e-01 4.80285194175221e-01 7.15253504246766e-03
7.24925000000000e-01 4.53403671052277e-01 6.81622023142804e-03
7.38475000000000e-01 4.28026704584780e-01 6.49458379778348e-03
7.52025000000000e-01 4.04070084859510e-01 6.18708223001042e-03
7.65575000000000e-01 3.81454315185214e-01 5.89318286719990e-03
7.79125000000000e-01 3.60104348293965e-01 5.61236476199875e-03
7.92675000000000e-01 3.39949337307294e-01 5.34411937494110e-03
8.06225000000000e-01 3.20922400640739e-01 5.08795112054792e-03
8.19775000000000e-01 3.02960400066665e-01 4.84337778331022e-03
8.33325000000000e-01 2.86003731198881e-01 4.60993081966570e-03
8.46875000000000e-01 2.69996125703829e-01 4.38715556029888e-03
8.60425000000000e-01 2.54884464581989e-01 4.17461132551298e-03
8.73975000000000e-01 2.40618601899909e-01 3.97187146501502e-03
8.87525000000000e-01 2.27151198387938e-01 3.77852333220280e-03
9.01075000000000e-01 2.14437564351486e-01 3.59416820192613e-03
9.14625000000000e-01 2.02435511374522e-01 3.41842113969917e-03
9.28175000000000e-01 1.91105212323218e-01 3.25091082945229e-03
9.41725000000000e-01 1.80409069185173e-01 3.09127936611826e-03
9.55275000000000e-01 1.70311588305675e-01 2.93918201863924e-03
9.68825000000000e-01 1.60779262606969e-01 2.79428696834677e-03
9.82375000000000e-01 1.51780460399707e-01 2.65627502710137e-03
9.95925000000000e-01 1.43285320417613e-01 2.52483933907112e-03
1.00947500000000e+00 1.35265652727046e-01 2.39968506957568e-03
1.02302500000000e+00 1.27694845182652e-01 2.28052908401694e-03
1.03657500000000e+00 1.20547775118681e-01 2.16709961955474e-03
1.05012500000000e+00 1.13800725982934e-01 2.05913595186172e-03
1.06367500000000e+00 1.07431308636701e-01 1.95638805900121e-03
1.07722500000000e+00 1.01418387059544e-01 1.85861628421282e-03
1.09077500000000e+00 9.57420082123575e-02 1.76559099915834e-03
1.10432500000000e+00 9.03833358260114e-02 1.67709226897345e-03
1.11787500000000e+00 8.53245878958194e-02 1.59290952028576e-03
1.13142500000000e+00 8.05489776744466e-02 1.51284121319457e-03
1.14497500000000e+00 7.60406579674368e-02 1.43669451806063e-03
1.15852500000000e+00 7.17846685465141e-02 1.36428499782290e-03
1.17207500000000e+00 6.77668865061582e-02 1.29543629644264e-03
1.18562500000000e+00 6.39739793987185e-02 1.22997983397147e-03
1.19917500000000e+00 6.03933609925512e-02 1.16775450864779e-03
1.21272500000000e+00 5.70131495063705e-02 1.10860640634438e-03
1.22627500000000e+00 5.38221281812196e-02 1.05238851761793e-03
1.23982500000000e+00 5.08097080592250e-02 9.98960462546897e-04
1.25337500000000e+00 4.79658928456212e-02 9.48188223488763e-04
1.26692500000000e+00 4.52812457374452e-02 8.99943885837357e-04
1.28047500000000e+00 4.27468581088256e-02 8.54105386818416e-04
1.29402500000000e+00 4.03543199489539e-02 8.10556272323291e-04
1.30757500000000e+00 3.80956919546402e-02 7.69185461747969e-04
1.32112500000000e+00 3.59634791848465e-02 7.29887020776084e-04
1.33467500000000e+00 3.39506061897729e-02 6.92559942019913e-04
1.34822500000000e+00 3.20503935319673e-02 6.57107933412467e-04
1.36177500000000e+00 3.02565356215468e-02 6.23439214225832e-04
1.37532500000000e+00 2.85630797919797e-02 5.91466318575832e-04
1.38887500000000e+00 2.69644065469942e-02 5.61105906260539e-04
1.40242500000000e+00 2.54552109130662e-02 5.32278580769875e-04
1.41597500000000e+00 2.40304848356069e-02 5.04908714295127e-04
1.42952500000000e+00 2.26855005604343e-02 4.78924279560653e-04
1.44307500000000e+00 2.14157949453817e-02 4.54256688295066e-04
1.45662500000000e+00 2.02171546499857e-02 4.30840636155499e-04
1.47017500000000e+00 1.90856021541046e-02 4.08613953916158e-04
1.48372500000000e+00 1.80173825590743e-02 3.87517464731024e-04
1.49727500000000e+00 1.70089511276028e-02 3.67494847280136e-04
1.51082500000000e+00 1.60569615210548e-02 3.48492504609305e-04
1.52437500000000e+00 1.51582546950955e-02 3.30459438474233e-04
1.53792500000000e+00 1.43098484168436e-02 3.13347129001749e-04
1.55147500000000e+00 1.35089273687489e-02 2.97109419483144e-04
1.56502500000000e+00 1.27528338063545e-02 2.81702406117310e-04
1.57857500000000e+00 1.20390587389442e-02 2.67084332524503e-04
1.59212500000000e+00 1.13652336038072e-02 2.53215488854986e-04
1.60567500000000e+00 1.07291224064944e-02 2.40058115320507e-04
1.61922500000000e+00 1.01286143009836e-02 2.27576309980521e-04
1.63277500000000e+00 9.56171658513198e-03 2.15735940619113e-04
1.64632500000000e+00 9.02654808817329e-03 2.04504560552883e-04
1.65987500000000e+00 8.52133292831542e-03 1.93851328214347e-04
1.67342500000000e+00 8.04439461972528e-03 1.83746930359859e-04
1.68697500000000e+00 7.59415050934502e-03 1.74163508755507e-04
1.70052500000000e+00 7.16910652507928e-03 1.65074590198925e-04
1.71407500000000e+00 6.76785221792597e-03 1.56455019739455e-04
1.72762500000000e+00 6.38905608159854e-03 1.48280896963575e-04
1.74117500000000e+00 6.03146113410861e-03 1.40529515216917e-04
1.75472500000000e+00 5.69388074664713e-03 1.33179303638638e-04
1.76827500000000e+00 5.37519470592267e-03 1.26209771888228e-04
1.78182500000000e+00 5.07434549689027e-03 1.19601457449081e-04
1.79537500000000e+00 4.79033479353575e-03 1.13335875397417e-04
1.80892500000000e+00 4.52222014607048e-03 1.07395470529186e-04
1.82247500000000e+00 4.26911185354359e-03 1.01763571741654e-04
1.83602500000000e+00 4.03017001149380e-03 9.64243485703027e-05
1.84957500000000e+00 3.80460172484401e-03 9.13627697854630e-05
1.86312500000000e+00 3.59165847678986e-03 8.65645639569040e-05
1.87667500000000e+00 3.39063364495147e-03 8.20161818981750e-05
1.89022500000000e+00 3.20086015654586e-03 7.77047609060514e-05
1.90377500000000e+00 3.02170827479931e-03 7.36180907138537e-05
1.91732500000000e+00 2.85258350925391e-03 6.97445810807220e-05
1.93087500000000e+00 2.69292464303418e-03 6.60732309421458e-05
1.94442500000000e+00 2.54220187052735e-03 6.25935990501521e-05
1.95797500000000e+00 2.39991503929757e-03 5.92957760345575e-05
1.97152500000000e+00 2.26559199039999e-03 5.61703578195984e-05
1.98507500000000e+00 2.13878699158740e-03 5.32084203330401e-05
1.99862500000000e+00 2.01907925821006e-03 5.04014954475711e-05
2.01217500000000e+00 1.90607155690076e-03 4.77415480968953e-05
2.02572500000000e+00 1.79938888741143e-03 4.52209545114323e-05
2.03927500000000e+00 1.69867723822727e-03 4.28324815209472e-05
2.05282500000000e+00 1.60360241182909e-03 4.05692668737576e-05
2.06637500000000e+00 1.51384891570556e-03 3.84248005243880e-05
2.07992500000000e+00 1.42911891543548e-03 3.63929068436895e-05
2.09347500000000e+00 1.34913124636588e-03 3.44677277075001e-05
2.10702500000000e+00 1.27362048060648e-03 3.26437064218960e-05
2.12057500000000e+00 1.20233604624437e-03 3.09155724449784e-05
2.13412500000000e+00 1.13504139585613e-03 2.92783268669646e-05
2.14767500000000e+00 1.07151322155836e-03 2.77272286120921e-05
2.16122500000000e+00 1.01154071399163e-03 2.62577813275147e-05
2.17477500000000e+00 9.54924862779179e-04 2.48657209259749e-05
2.18832500000000e+00 9.01477796138795e-04 2.35470037505680e-05
2.20187500000000e+00 8.51022157456572e-04 2.22977953313826e-05
2.21542500000000e+00 8.03390516753818e-04 2.11144597052068e-05
2.22897500000000e+00 7.58424815094081e-04 1.99935492708361e-05
2.24252500000000e+00 7.15975840086685e-04 1.89317951538035e-05
2.25607500000000e+00 6.75902730746284e-04 1.79260980555843e-05
2.26962500000000e+00 6.38072510065385e-04 1.69735195635022e-05
2.28317500000000e+00 6.02359643748752e-04 1.60712738986898e-05
2.29672500000000e+00 5.68645623645411e-04 1.52167200805282e-05
2.31027500000000e+00 5.36818574495926e-04 1.44073544870192e-05
2.32382500000000e+00 5.06772882690000e-04 1.36408037915204e-05
2.33737500000000e+00 4.78408845802487e-04 1.29148182572126e-05
2.35092500000000e+00 4.51632341744841e-04 1.22272653715600e-05
2.36447500000000e+00 4.26354516434127e-04 1.15761238038770e-05
2.37802500000000e+00 4.02491488943186e-04 1.09594776699292e-05
2.39157500000000e+00 3.79964073153501e-04 1.03755110882728e-05
2.40512500000000e+00 3.58697514987152e-04 9.82250301377555e-06
2.41867500000000e+00 3.38621244345854e-04 9.29882233447109e-06
2.43222500000000e+00 3.19668640933969e-04 8.80292321856957e-06
2.44577500000000e+00 3.01776813188366e-04 8.33334069909078e-06
2.45932500000000e+00 2.84886389581571e-04 7.88868648419762e-06
2.47287500000000e+00 2.68941321605656e-04 7.46764498189124e-06
2.48642500000000e+00 2.53888697783111e-04 7.06896952828434e-06
2.49997500000000e+00 2.39678568087501e-04 6.69147880919964e-06
2.51352500000000e+00 2.26263778191297e-04 6.33405346534378e-06
2.52707500000000e+00 2.13599812990831e-04 5.99563287178886e-06
2.54062500000000e+00 2.01644648889155e-04 5.67521208295040e-06
2.55417500000000e+00 1.90358614346616e-04 5.37183893468601e-06
2.56772500000000e+00 1.79704258236393e-04 5.08461129555544e-06
2.58127500000000e+00 1.69646225568181e-04 4.81267445967607e-06
2.59482500000000e+00 1.60151140167593e-04 4.55521867398452e-06
2.60837500000000e+00 1.51187493922003e-04 4.31147679307318e-06
2.62192500000000e+00 1.42725542225275e-04 4.08072205511054e-06
2.63547500000000e+00 1.34737205274452e-04 3.86226597267815e-06
2.64902500000000e+00 1.27195974890854e-04 3.65545633266586e-06
2.66257500000000e+00 1.20076826556403e-04 3.45967529965977e-06
2.67612500000000e+00 1.13356136373253e-04 3.27433761753650e-06
2.68967500000000e+00 1.07011602671193e-04 3.09888890424285e-06
2.70322500000000e+00 1.01022172002673e-04 2.93280403499186e-06
2.71677500000000e+00 9.53679692798859e-05 2.77558560934685e-06
2.73032500000000e+00 9.00302318220658e-05 2.62676249789271e-06
2.74387500000000e+00 8.49912470941585e-05 2.48588846441087e-06
2.75742500000000e+00 8.02342939302515e-05 2.35254085968068e-06
2.77097500000000e+00 7.57435870467237e-05 2.22631938322567e-06
2.78452500000000e+00 7.15042246609900e-05 2.10684490951004e-06
2.79807500000000e+00 6.75021390420205e-05 1.99375837526734e-06
2.81162500000000e+00 6.37240498285431e-05 1.88671972481196e-06
2.82517500000000e+00 6.01574199600223e-05 1.78540691034374e-06
2.83872500000000e+00 5.67904140741777e-05 1.68951494440828e-06
2.85227500000000e+00 5.36118592329896e-05 1.59875500181973e-06
2.86582500000000e+00 5.06112078468678e-05 1.51285356849009e-06
2.87937500000000e+00 4.77785026739505e-05 1.43155163473945e-06
2.89292500000000e+00 4.51043437783904e-05 1.35460393078534e-06
2.90647500000000e+00 4.25798573379825e-05 1.28177820222696e-06
2.92002500000000e+00 4.01966661976263e-05 1.21285452345178e-06
2.93357500000000e+00 3.79468620709087e-05 1.14762464699805e-06
2.94712500000000e+00 3.58229792975618e-05 1.08589138700760e-06
2.96067500000000e+00 3.38179700697137e-05 1.02746803499882e-06
2.97422500000000e+00 3.19251810447236e-05 9.72177806280557e-07
2.98777500000000e+00 3.01383312669959e-05 9.19853315414166e-07
3.00132500000000e+00 2.84514913255066e-05 8.70336079212397e-07
3.01487500000000e+00 2.68590636778830e-05 8.23476045841956e-07
3.02842500000000e+00 2.53557640757424e-05 7.79131148670114e-07
3.04197500000000e+00 2.39366040296525e-05 7.37166883565863e-07
3.05552500000000e+00 2.25968742555277e-05 6.97455908432672e-07
3.06907500000000e+00 2.13321290475282e-05 6.59877663812876e-07
3.08262500000000e+00 2.01381715256072e-05 6.24318013463778e-07
3.09617500000000e+00 1.90110397087519e-05 5.90668903862281e-07
3.10972500000000e+00 1.79469933677032e-05 5.58828041648849e-07
3.12327500000000e+00 1.69425016135284e-05 5.28698588072801e-07
3.13682500000000e+00 1.59942311808604e-05 5.00188869549508e-07
3.15037500000000e+00 1.50990353669224e-05 4.73212103486169e-07
3.16392500000000e+00 1.42539435896356e-05 4.47686138576543e-07
3.17747500000000e+00 1.34561515301574e-05 4.23533208806538e-07
3.19102500000000e+00 1.27030118271421e-05 4.00679700451918e-07
3.20457500000000e+00 1.19920252918425e-05 3.79055931386725e-07
3.21812500000000e+00 1.13208326149015e-05 3.58595942056431e-07
3.23167500000000e+00 1.06872065373143e-05 3.39237297503468e-07
3.24522500000000e+00 1.00890444595808e-05 3.20920899864628e-07
3.25877500000000e+00 9.52436146452327e-06 3.03590810790090e-07
3.27232500000000e+00 8.99128373061657e-06 2.87194083262469e-07
3.28587500000000e+00 8.48804231397331e-06 2.71680602321537e-07
3.29942500000000e+00 8.01296727835112e-06 2.57002934225988e-07
3.31297500000000e+00 7.56448215370285e-06 2.43116183608147e-07
3.32652500000000e+00 7.14109870488124e-06 2.29977858200684e-07
3.34007500000000e+00 6.74141199313875e-06 2.17547740736391e-07
3.35362500000000e+00 6.36409571403492e-06 2.05787767642970e-07
3.36717500000000e+00 6.00789779628057e-06 1.94661914174527e-07
3.38072500000000e+00 5.67163624691437e-06 1.84136085640222e-07
3.39427500000000e+00 5.35419522902462e-06 1.74178014408332e-07
3.40782500000000e+00 5.05452135900048e-06 1.64757162380833e-07
3.42137500000000e+00 4.77162021102585e-06 1.55844628649564e-07
3.43492500000000e+00 4.50455301721640e-06 1.47413062060219e-07
3.44847500000000e+00 4.25243355244968e-06 1.39436578424786e-07
3.46202500000000e+00 4.01442519355104e-06 1.31890682136621e-07
3.47557500000000e+00 3.78973814307660e-06 1.24752191955308e-07
3.48912500000000e+00 3.57762680848098e-06 1.17999170740665e-07
3.50267500000000e+00 3.37738732797273e-06 1.11610858926854e-07
3.51622500000000e+00 3.18835523484742e-06 1.05567611538551e-07
3.52977500000000e+00 3.00990325254782e-06 9.98508385615722e-08
3.54332500000000e+00 2.84143921313446e-06 9.44429484901805e-08
3.55687500000000e+00 2.68240409225907e-06 8.93272948827100e-08
3.57042500000000e+00 2.53227015412056e-06 8.44881257659829e-08
3.58397500000000e+00 2.39053920024755e-06 7.99105357374159e-08
3.59752500000000e+00 2.25674091629646e-06 7.55804206216748e-08
3.61107500000000e+00 2.13043131137912e-06 7.14844345462882e-08
3.62462500000000e+00 2.01119124474115e-06 6.76099493077874e-08
3.63817500000000e+00 1.89862503490198e-06 6.39450159067158e-08
3.65172500000000e+00 1.79235914664123e-06 6.04783281362832e-08
3.66527500000000e+00 1.69204095147429e-06 5.71991881155200e-08
3.67882500000000e+00 1.59733755750410e-06 5.40974736635589e-08
3.69237500000000e+00 1.50793470476588e-06 5.11636074171396e-08
3.70592500000000e+00 1.42353572239944e-06 4.83885275986047e-08
3.71947500000000e+00 1.34386054418844e-06 4.57636603465641e-08
3.73302500000000e+00 1.26864477919978e-06 4.32808935260568e-08
3.74657500000000e+00 1.19763883443934e-06 4.09325519394381e-08
3.76012500000000e+00 1.13060708661250e-06 3.87113738633941e-08
3.77367500000000e+00 1.06732710024122e-06 3.66104888414398e-08
3.78722500000000e+00 1.00758888954299e-06 3.46233966650005e-08
3.80077500000000e+00 9.51194221622428e-07 3.27439474797208e-08
3.81432500000000e+00 8.97955958663137e-07 3.09663229570107e-08
3.82787500000000e+00 8.47697436937017e-07 2.92850184740187e-08
3.84142500000000e+00 8.00251880570419e-07 2.76948262482359e-08
3.85497500000000e+00 7.55461848121729e-07 2.61908193757933e-08
3.86852500000000e+00 7.13178710133974e-07 2.47683367252190e-08
3.88207500000000e+00 6.73262155928757e-07 2.34229686409850e-08
3.89562500000000e+00 6.35579728004903e-07 2.21505434135983e-08
3.90917500000000e+00 6.00006382496764e-07 2.09471144752940e-08
3.92272500000000e+00 5.66424074233652e-07 1.98089482825598e-08
3.93627500000000e+00 5.34721365023446e-07 1.87325128487888e-08
3.94982500000000e+00 5.04793053860546e-07 1.77144668923069e-08
3.96337500000000e+00 4.76539827831048e-07 1.67516495668715e-08
3.97692500000000e+00 4.49867932556736e-07 1.58410707434920e-08
3.99047500000000e+00 4.24688861084291e-07 1.49799018140782e-08
4.00402500000000e+00 4.00919060187349e-07 1.41654669889958e-08
4.01757500000000e+00 3.78479653106806e-07 1.33952350620968e-08
4.03112500000000e+00 3.57296177809330e-07 1.26668116181982e-08
4.04467500000000e+00 3.37298339895515e-07 1.19779316593197e-08
4.05822500000000e+00 3.18419779337756e-07 1.13264526272533e-08
4.07177500000000e+00 3.00597850273776e-07 1.07103478012349e-08
4.08532500000000e+00 2.83773413125097e-07 1.01277000506170e-08
4.09887500000000e+00 2.67890638350624e-07 9.57669592352148e-09
4.11242500000000e+00 2.52896821184119e-07 9.05562005345906e-09
4.12597500000000e+00 2.38742206740810e-07 8.56284986686975e-09
4.13952500000000e+00 2.25379824912765e-07 8.09685057544610e-09
4.15307500000000e+00 2.12765334505161e-07 7.65617043796416e-09
4.16662500000000e+00 2.00856876096229e-07 7.23943627716321e-09
4.18017500000000e+00 1.89614933132621e-07 6.84534923798817e-09
4.19372500000000e+00 1.79002200799256e-07 6.47268077424057e-09
4.20727500000000e+00 1.68983462228507e-07 6.12026885137629e-09
4.22082500000000e+00 1.59525471637955e-07 5.78701435384444e-09
4.23437500000000e+00 1.50596844008910e-07 5.47187768598278e-09
4.24792500000000e+00 1.42167950939616e-07 5.17387555607263e-09
4.26147500000000e+00 1.34210822327547e-07 4.89207793371322e-09
4.27502500000000e+00 1.26699053554531e-07 4.62560517120180e-09
