Energy (eV)          EEDF (eV^-(3/2))     First Anisotropy
1.25000000000000e-03 5.22430609028404e-01 1.62216097107440e+00
3.75000000000000e-03 4.81876584751543e-01 1.38931072204239e+00
6.25000000000000e-03 4.52965072926284e-01 9.63718012296384e-01
8.75000000000000e-03 4.33690684136724e-01 6.74604655528504e-01
1.12500000000000e-02 4.19234840149859e-01 5.20411476634830e-01
1.37500000000000e-02 4.07670110304983e-01 4.24041209429870e-01
1.62500000000000e-02 3.98032779678365e-01 3.57959119862125e-01
1.87500000000000e-02 3.89772154311877e-01 3.09774579737909e-01
2.12500000000000e-02 3.82544050691470e-01 2.73062820187625e-01
2.37500000000000e-02 3.76119013302495e-01 2.44152545574701e-01
2.62500000000000e-02 3.70336423412735e-01 2.20790915993180e-01
2.87500000000000e-02 3.65079467502836e-01 2.01517757863341e-01
3.12500000000000e-02 3.60260535519568e-01 1.85344646316996e-01
3.37500000000000e-02 3.55812235186987e-01 1.71578400526792e-01
3.62500000000000e-02 3.51681615493228e-01 1.59718390090685e-01
3.87500000000000e-02 3.47826315682452e-01 1.49393956117307e-01
4.12500000000000e-02 3.44211917687363e-01 1.40324768479655e-01
4.37500000000000e-02 3.40810077258470e-01 1.32294869258509e-01
4.62500000000000e-02 3.37597174224437e-01 1.25135186222649e-01
4.87500000000000e-02 3.34553317947337e-01 1.18711456203014e-01
5.12500000000000e-02 3.31661601414287e-01 1.12915700417031e-01
5.37500000000000e-02 3.28907532926486e-01 1.07660089286414e-01
5.62500000000000e-02 3.26278596949966e-01 1.02872449856066e-01
5.87500000000000e-02 3.23763910433682e-01 9.84929244375310e-02
6.12500000000000e-02 3.21353950728089e-01 9.44714502719968e-02
6.37500000000000e-02 3.19040337920082e-01 9.07658340284656e-02
6.62500000000000e-02 3.16815659026666e-01 8.73402634935072e-02
6.87500000000000e-02 3.14673324745407e-01 8.41641448291408e-02
7.12500000000000e-02 3.12607451785209e-01 8.12111852096109e-02
7.37500000000000e-02 3.10612765484926e-01 7.84586624593131e-02
7.62500000000000e-02 3.08684518662243e-01 7.58868386690625e-02
7.87500000000000e-02 3.06818423551473e-01 7.34784857227855e-02
8.12500000000000e-02 3.05010594376104e-01 7.12184985795439e-02
8.37500000000000e-02 3.03257498622496e-01 6.90935779374080e-02
8.62500000000000e-02 3.01555915479234e-01 6.70919681753479e-02
8.87500000000000e-02 2.99902900213729e-01 6.52032396539537e-02
9.12500000000000e-02 2.98295753496536e-01 6.34181068536821e-02
9.37500000000000e-02 2.96731994871045e-01 6.17282756504711e-02
9.62500000000000e-02 2.95209339714012e-01 6.01263144230935e-02
9.87500000000000e-02 2.93725679149890e-01 5.86055447629852e-02
1.01250000000000e-01 2.92279062475863e-01 5.71599483939100e-02
1.03750000000000e-01 2.90867681730194e-01 5.57840875638127e-02
1.06250000000000e-01 2.89489858097673e-01 5.44730366872193e-02
1.08750000000000e-01 2.88144029895833e-01 5.32223234256712e-02
1.11250000000000e-01 2.86828741926389e-01 5.20278777199323e-02
1.13750000000000e-01 2.85542636009837e-01 5.08859875493117e-02
1.16250000000000e-01 2.84284442548923e-01 4.97932604044382e-02
1.18750000000000e-01 2.83052972989615e-01 4.87465896306705e-02
1.21250000000000e-01 2.81847113067390e-01 4.77431249385185e-02
1.23750000000000e-01 2.80665816742689e-01 4.67802464913058e-02
1.26250000000000e-01 2.79508100742825e-01 4.58555420737738e-02
1.28750000000000e-01 2.78373039639000e-01 4.49667869225268e-02
1.31250000000000e-01 2.77259761396698e-01 4.41119258631328e-02
1.33750000000000e-01 2.76167443345844e-01 4.32890574518618e-02
1.36250000000000e-01 2.75095308524105e-01 4.24964198643496e-02
1.38750000000000e-01 2.74042622352626e-01 4.17323783107615e-02
1.41250000000000e-01 2.73008689608567e-01 4.09954137881752e-02
1.43750000000000e-01 2.71992851663217e-01 4.02841130072806e-02
1.46250000000000e-01 2.70994483958203e-01 3.95971593528066e-02
1.48750000000000e-01 2.70012993695577e-01 3.89333247559731e-02
1.51250000000000e-01 2.69047817720404e-01 3.82914623734121e-02
1.53750000000000e-01 2.68098420576907e-01 3.76704999806576e-02
1.56250000000000e-01 2.67164292721372e-01 3.70694340001865e-02
1.58750000000000e-01 2.66244948876897e-01 3.64873240939967e-02
1.61250000000000e-01 2.65339926516672e-01 3.59232882594229e-02
1.63750000000000e-01 2.64448784463926e-01 3.53764983743865e-02
1.66250000000000e-01 2.63571101597952e-01 3.48461761447361e-02
1.68750000000000e-01 2.62706475656689e-01 3.43315894119844e-02
1.71250000000000e-01 2.61854522127353e-01 3.38320487845878e-02
1.73750000000000e-01 2.61014873217460e-01 3.33469045601487e-02
1.76250000000000e-01 2.60187176899346e-01 3.28755439096573e-02
1.78750000000000e-01 2.59371096021977e-01 3.24173882981249e-02
1.81250000000000e-01 2.58566307484439e-01 3.19718911187317e-02
1.83750000000000e-01 2.57772501466040e-01 3.15385355201925e-02
1.86250000000000e-01 2.56989380708430e-01 3.11168324091504e-02
1.88750000000000e-01 2.56216659845583e-01 3.07063186113721e-02
1.91250000000000e-01 2.55454064777861e-01 3.03065551772141e-02
1.93750000000000e-01 2.54701332086722e-01 2.99171258183040e-02
1.96250000000000e-01 2.53958208486946e-01 2.95376354637711e-02
1.98750000000000e-01 2.53224450313534e-01 2.91677089254594e-02
2.01250000000000e-01 2.52499823040673e-01 2.88069896626597e-02
2.03750000000000e-01 2.51784100830401e-01 2.84551386378096e-02
2.06250000000000e-01 2.51077066108783e-01 2.81118332554220e-02
2.08750000000000e-01 2.50378509167630e-01 2.77767663772932e-02
2.11250000000000e-01 2.49688227789918e-01 2.74496454076711e-02
2.13750000000000e-01 2.49006026897246e-01 2.71301914426103e-02
2.16250000000000e-01 2.48331718217787e-01 2.68181384783522e-02
2.18750000000000e-01 2.47665119973328e-01 2.65132326740214e-02
2.21250000000000e-01 2.47006056584086e-01 2.62152316642905e-02
2.23750000000000e-01 2.46354358390114e-01 2.59239039181591e-02
2.26250000000000e-01 2.45709861388178e-01 2.56390281402452e-02
2.28750000000000e-01 2.45072406983102e-01 2.53603927113394e-02
2.31250000000000e-01 2.44441841752611e-01 2.50877951652734e-02
2.33750000000000e-01 2.43818017224838e-01 2.48210416993438e-02
2.36250000000000e-01 2.43200789667644e-01 2.45599467158369e-02
2.38750000000000e-01 2.42590019889046e-01 2.43043323923642e-02
2.41250000000000e-01 2.41985573048026e-01 2.40540282789248e-02
2.43750000000000e-01 2.41387318475100e-01 2.38088709197626e-02
2.46250000000000e-01 2.40795129502038e-01 2.35687034982529e-02
2.48750000000000e-01 2.40208883300187e-01 2.33333755032217e-02
2.51250000000000e-01 2.39628460726877e-01 2.31027424151864e-02
2.53750000000000e-01 2.39053746179428e-01 2.28766654111445e-02
2.56250000000000e-01 2.38484627456320e-01 2.26550110866464e-02
2.58750000000000e-01 2.37920995625096e-01 2.24376511939833e-02
2.61250000000000e-01 2.37362744896620e-01 2.22244623954138e-02
2.63750000000000e-01 2.36809772505325e-01 2.20153260304262e-02
2.66250000000000e-01 2.36261978595099e-01 2.18101278961047e-02
2.68750000000000e-01 2.35719266110520e-01 2.16087580397678e-02
2.71250000000000e-01 2.35181540693111e-01 2.14111105630771e-02
2.73750000000000e-01 2.34648710582366e-01 2.12170834368741e-02
2.76250000000000e-01 2.34120686521267e-01 2.10265783260777e-02
2.78750000000000e-01 2.33597381666062e-01 2.08395004240047e-02
2.81250000000000e-01 2.33078711500067e-01 2.06557582955291e-02
2.83750000000000e-01 2.32564593751285e-01 2.04752637285183e-02
2.86250000000000e-01 2.32054948313641e-01 2.02979315930824e-02
2.88750000000000e-01 2.31549697171631e-01 2.01236797081289e-02
2.91250000000000e-01 2.31048764328234e-01 1.99524287147734e-02
2.93750000000000e-01 2.30552075735893e-01 1.97841019562295e-02
2.96250000000000e-01 2.30059559230423e-01 1.96186253637776e-02
2.98750000000000e-01 2.29571144467704e-01 1.94559273484640e-02
3.01250000000000e-01 2.29086762863000e-01 1.92959386982028e-02
3.03750000000000e-01 2.28606347532794e-01 1.91385924799281e-02
3.06250000000000e-01 2.28129833239003e-01 1.89838239465645e-02
3.08750000000000e-01 2.27657156335465e-01 1.88315704485253e-02
3.11250000000000e-01 2.27188254716577e-01 1.86817713494486e-02
3.13750000000000e-01 2.26723067767993e-01 1.85343679459837e-02
3.16250000000000e-01 2.26261536319278e-01 1.83893033913773e-02
3.18750000000000e-01 2.25803602598424e-01 1.82465226226558e-02
3.21250000000000e-01 2.25349210188145e-01 1.81059722912075e-02
3.23750000000000e-01 2.24898303983864e-01 1.79676006965762e-02
3.26250000000000e-01 2.24450830153316e-01 1.78313577233136e-02
3.28750000000000e-01 2.24006736097698e-01 1.76971947807003e-02
3.31250000000000e-01 2.23565970414281e-01 1.75650647451947e-02
3.33750000000000e-01 2.23128482860438e-01 1.74349219054887e-02
3.36250000000000e-01 2.22694224319007e-01 1.73067219099926e-02
3.38750000000000e-01 2.22263146764939e-01 1.71804217166466e-02
3.41250000000000e-01 2.21835203233175e-01 1.70559795449599e-02
3.43750000000000e-01 2.21410347787691e-01 1.69333548301254e-02
3.46250000000000e-01 2.20988535491668e-01 1.68125081791221e-02
3.48750000000000e-01 2.20569722378735e-01 1.66934013287118e-02
3.51250000000000e-01 2.20153865425233e-01 1.65759971052293e-02
3.53750000000000e-01 2.19740922523473e-01 1.64602593860758e-02
3.56250000000000e-01 2.19330852455929e-01 1.63461530628345e-02
3.58750000000000e-01 2.18923614870331e-01 1.62336440059269e-02
3.61250000000000e-01 2.18519170255633e-01 1.61226990307384e-02
3.63750000000000e-01 2.18117479918794e-01 1.60132858651452e-02
3.66250000000000e-01 2.17718505962375e-01 1.59053731183595e-02
3.68750000000000e-01 2.17322211262877e-01 1.57989302510542e-02
3.71250000000000e-01 2.16928559449823e-01 1.56939275466966e-02
3.73750000000000e-01 2.16537514885542e-01 1.55903360840171e-02
3.76250000000000e-01 2.16149042645622e-01 1.54881277105839e-02
3.78750000000000e-01 2.15763108500012e-01 1.53872750174328e-02
3.81250000000000e-01 2.15379678894750e-01 1.52877513146837e-02
3.83750000000000e-01 2.14998720934278e-01 1.51895306081151e-02
3.86250000000000e-01 2.14620202364344e-01 1.50925875766506e-02
3.88750000000000e-01 2.14244091555446e-01 1.49968975507092e-02
3.91250000000000e-01 2.13870357486809e-01 1.49024364913841e-02
3.93750000000000e-01 2.13498969730877e-01 1.48091809704226e-02
3.96250000000000e-01 2.13129898438288e-01 1.47171081509639e-02
3.98750000000000e-01 2.12763114323328e-01 1.46261957689914e-02
4.01250000000000e-01 2.12398588649838e-01 1.45364221154831e-02
4.03750000000000e-01 2.12036293217554e-01 1.44477660192355e-02
4.06250000000000e-01 2.11676200348876e-01 1.43602068303084e-02
4.08750000000000e-01 2.11318282876039e-01 1.42737244040741e-02
4.11250000000000e-01 2.10962514128673e-01 1.41882990858683e-02
4.13750000000000e-01 2.10608867921745e-01 1.41039116961844e-02
4.16250000000000e-01 2.10257318543863e-01 1.40205435163970e-02
4.18750000000000e-01 2.09907840745926e-01 1.39381762750024e-02
4.21250000000000e-01 2.09560409730113e-01 1.38567921343508e-02
4.23750000000000e-01 2.09215001139208e-01 1.37763736778479e-02
4.26250000000000e-01 2.08871591046221e-01 1.36969038976020e-02
4.28750000000000e-01 2.08530155944328e-01 1.36183661825151e-02
4.31250000000000e-01 2.08190672737095e-01 1.35407443067714e-02
4.33750000000000e-01 2.07853118728989e-01 1.34640224187338e-02
4.36250000000000e-01 2.07517471616158e-01 1.33881850302214e-02
4.38750000000000e-01 2.07183709477478e-01 1.33132170061534e-02
4.41250000000000e-01 2.06851810765851e-01 1.32391035545537e-02
4.43750000000000e-01 2.06521754299751e-01 1.31658302168719e-02
4.46250000000000e-01 2.06193519255007e-01 1.30933828586416e-02
4.48750000000000e-01 2.05867085156818e-01 1.30217476604605e-02
4.51250000000000e-01 2.05542431871984e-01 1.29509111092602e-02
4.53750000000000e-01 2.05219539601355e-01 1.28808599898650e-02
4.56250000000000e-01 2.04898388872491e-01 1.28115813768259e-02
4.58750000000000e-01 2.04578960532514e-01 1.27430626265296e-02
4.61250000000000e-01 2.04261235741164e-01 1.26752913695505e-02
4.63750000000000e-01 2.03945195964037e-01 1.26082555032714e-02
4.66250000000000e-01 2.03630822966001e-01 1.25419431847262e-02
4.68750000000000e-01 2.03318098804800e-01 1.24763428236679e-02
4.71250000000000e-01 2.03007005824818e-01 1.24114430758709e-02
4.73750000000000e-01 2.02697526651007e-01 1.23472328366364e-02
4.76250000000000e-01 2.02389644182986e-01 1.22837012345073e-02
4.78750000000000e-01 2.02083341589281e-01 1.22208376251715e-02
4.81250000000000e-01 2.01778602301727e-01 1.21586315855621e-02
4.83750000000000e-01 2.01475410010003e-01 1.20970729081471e-02
4.86250000000000e-01 2.01173748656320e-01 1.20361515953843e-02
4.88750000000000e-01 2.00873602430234e-01 1.19758578543450e-02
4.91250000000000e-01 2.00574955763603e-01 1.19161820915126e-02
4.93750000000000e-01 2.00277793325658e-01 1.18571149077284e-02
4.96250000000000e-01 1.99982100018216e-01 1.17986470933001e-02
4.98750000000000e-01 1.99687860970993e-01 1.17407696232485e-02
5.01250000000000e-01 1.99395061537054e-01 1.16834736527011e-02
5.03750000000000e-01 1.99103687288358e-01 1.16267505124273e-02
5.06250000000000e-01 1.98813724011432e-01 1.15705917044961e-02
5.08750000000000e-01 1.98525157703134e-01 1.15149888980637e-02
5.11250000000000e-01 1.98237974566529e-01 1.14599339252941e-02
5.13750000000000e-01 1.97952161006869e-01 1.14054187773915e-02
5.16250000000000e-01 1.97667703627660e-01 1.13514356007449e-02
5.18750000000000e-01 1.97384589226832e-01 1.12979766931881e-02
5.21250000000000e-01 1.97102804793000e-01 1.12450345003712e-02
5.23750000000000e-01 1.96822337501813e-01 1.11926016122288e-02
5.26250000000000e-01 1.96543174712389e-01 1.11406707595535e-02
5.28750000000000e-01 1.96265303963835e-01 1.10892348106706e-02
5.31250000000000e-01 1.95988712971855e-01 1.10382867681935e-02
5.33750000000000e-01 1.95713389625426e-01 1.09878197658819e-02
5.36250000000000e-01 1.95439321983561e-01 1.09378270655819e-02
5.38750000000000e-01 1.95166498272147e-01 1.08883020542522e-02
5.41250000000000e-01 1.94894906880848e-01 1.08392382410832e-02
5.43750000000000e-01 1.94624536360092e-01 1.07906292546789e-02
5.46250000000000e-01 1.94355375418115e-01 1.07424688403224e-02
5.48750000000000e-01 1.94087412918076e-01 1.06947508573230e-02
5.51250000000000e-01 1.93820637875248e-01 1.06474692764280e-02
5.53750000000000e-01 1.93555039454255e-01 1.06006181773127e-02
5.56250000000000e-01 1.93290606966383e-01 1.05541917461205e-02
5.58750000000000e-01 1.93027329866949e-01 1.05081842730814e-02
5.61250000000000e-01 1.92765197752729e-01 1.04625901502081e-02
5.63750000000000e-01 1.92504200359439e-01 1.04174038690225e-02
5.66250000000000e-01 1.92244327559278e-01 1.03726200183657e-02
5.68750000000000e-01 1.91985569358520e-01 1.03282332822596e-02
5.71250000000000e-01 1.91727915895165e-01 1.02842384378193e-02
5.73750000000000e-01 1.91471357436629e-01 1.02406303532315e-02
5.76250000000000e-01 1.91215884377503e-01 1.01974039857761e-02
5.78750000000000e-01 1.90961487237340e-01 1.01545543798953e-02
5.81250000000000e-01 1.90708156658508e-01 1.01120766653212e-02
5.83750000000000e-01 1.90455883404074e-01 1.00699660552594e-02
5.86250000000000e-01 1.90204658355745e-01 1.00282178445976e-02
5.88750000000000e-01 1.89954472511845e-01 9.98682740817158e-03
5.91250000000000e-01 1.89705316985337e-01 9.94579019908293e-03
5.93750000000000e-01 1.89457183001890e-01 9.90510174704029e-03
5.96250000000000e-01 1.89210061897985e-01 9.86475765675898e-03
5.98750000000000e-01 1.88963945119052e-01 9.82475360640112e-03
6.01250000000000e-01 1.88718824217665e-01 9.78508534603240e-03
6.03750000000000e-01 1.88474690851751e-01 9.74574869614220e-03
6.06250000000000e-01 1.88231536782857e-01 9.70673954619417e-03
6.08750000000000e-01 1.87989353874441e-01 9.66805385320679e-03
6.11250000000000e-01 1.87748134090197e-01 9.62968764037120e-03
6.13750000000000e-01 1.87507869492423e-01 9.59163699570331e-03
6.16250000000000e-01 1.87268552240412e-01 9.55389807073159e-03
6.18750000000000e-01 1.87030174588886e-01 9.51646707920861e-03
6.21250000000000e-01 1.86792728886452e-01 9.47934029585873e-03
6.23750000000000e-01 1.86556207574093e-01 9.44251405515739e-03
6.26250000000000e-01 1.86320603183694e-01 9.40598475014376e-03
6.28750000000000e-01 1.86085908336586e-01 9.36974883124997e-03
6.31250000000000e-01 1.85852115742131e-01 9.33380280516094e-03
6.33750000000000e-01 1.85619218196328e-01 9.29814323371470e-03
6.36250000000000e-01 1.85387208580445e-01 9.26276673281379e-03
6.38750000000000e-01 1.85156079859687e-01 9.22766997136448e-03
6.41250000000000e-01 1.84925825081877e-01 9.19284967024703e-03
6.43750000000000e-01 1.84696437376175e-01 9.15830260130535e-03
6.46250000000000e-01 1.84467909951812e-01 9.12402558636061e-03
6.48750000000000e-01 1.84240236096857e-01 9.09001549624588e-03
6.51250000000000e-01 1.84013409177000e-01 9.05626924986469e-03
6.53750000000000e-01 1.83787422634364e-01 9.02278381327948e-03
6.56250000000000e-01 1.83562269986336e-01 8.98955619880515e-03
6.58750000000000e-01 1.83337944824423e-01 8.95658346413530e-03
6.61250000000000e-01 1.83114440813129e-01 8.92386271148515e-03
6.63750000000000e-01 1.82891751688849e-01 8.89139108674386e-03
6.66250000000000e-01 1.82669871258792e-01 8.85916577866463e-03
6.68750000000000e-01 1.82448793399916e-01 8.82718401806426e-03
6.71250000000000e-01 1.82228512057889e-01 8.79544307703539e-03
6.73750000000000e-01 1.82009021246064e-01 8.76394026817440e-03
6.76250000000000e-01 1.81790315044480e-01 8.73267294384306e-03
6.78750000000000e-01 1.81572387598872e-01 8.70163849543470e-03
6.81250000000000e-01 1.81355233119708e-01 8.67083435265315e-03
6.83750000000000e-01 1.81138845881239e-01 8.64025798281043e-03
6.86250000000000e-01 1.80923220220568e-01 8.60990689014907e-03
6.88750000000000e-01 1.80708350536732e-01 8.57977861516701e-03
6.91250000000000e-01 1.80494231289809e-01 8.54987073396374e-03
6.93750000000000e-01 1.80280857000034e-01 8.52018085760187e-03
6.96250000000000e-01 1.80068222246929e-01 8.49070663146601e-03
6.98750000000000e-01 1.79856321668460e-01 8.46144573466157e-03
7.01250000000000e-01 1.79645149960196e-01 8.43239587941080e-03
7.03750000000000e-01 1.79434701874490e-01 8.40355481046384e-03
7.06250000000000e-01 1.79224972219673e-01 8.37492030452192e-03
7.08750000000000e-01 1.79015955859264e-01 8.34649016967337e-03
7.11250000000000e-01 1.78807647711189e-01 8.31826224484411e-03
7.13750000000000e-01 1.78600042747021e-01 8.29023439925192e-03
7.16250000000000e-01 1.78393135991227e-01 8.26240453188687e-03
7.18750000000000e-01 1.78186922520427e-01 8.23477057098509e-03
7.21250000000000e-01 1.77981397462677e-01 8.20733047352584e-03
7.23750000000000e-01 1.77776555996751e-01 8.18008222473521e-03
7.26250000000000e-01 1.77572393351441e-01 8.15302383759597e-03
7.28750000000000e-01 1.77368904804871e-01 8.12615335237521e-03
7.31250000000000e-01 1.77166085683822e-01 8.09946883615353e-03
7.33750000000000e-01 1.76963931363063e-01 8.07296838237936e-03
7.36250000000000e-01 1.76762437264703e-01 8.04665011040706e-03
7.38750000000000e-01 1.76561598857543e-01 8.02051216506339e-03
7.41250000000000e-01 1.76361411656450e-01 7.99455271622229e-03
7.43750000000000e-01 1.76161871221732e-01 7.96876995837692e-03
7.46250000000000e-01 1.75962973158531e-01 7.94316211023438e-03
7.48750000000000e-01 1.75764713116220e-01 7.91772741430496e-03
7.51250000000000e-01 1.75567086787816e-01 7.89246413651024e-03
7.53750000000000e-01 1.75370089909395e-01 7.86737056578890e-03
7.56250000000000e-01 1.75173718259526e-01 7.84244501372544e-03
7.58750000000000e-01 1.74977967658708e-01 7.81768581416986e-03
7.61250000000000e-01 1.74782833968818e-01 7.79309132287409e-03
7.63750000000000e-01 1.74588313092565e-01 7.76865991713560e-03
7.66250000000000e-01 1.74394400972961e-01 7.74438999543825e-03
7.68750000000000e-01 1.74201093592793e-01 7.72027997711755e-03
7.71250000000000e-01 1.74008386974105e-01 7.69632830201428e-03
7.73750000000000e-01 1.73816277177692e-01 7.67253343014973e-03
7.76250000000000e-01 1.73624760302597e-01 7.64889384139655e-03
7.78750000000000e-01 1.73433832485622e-01 7.62540803516398e-03
7.81250000000000e-01 1.73243489900839e-01 7.60207453008088e-03
7.83750000000000e-01 1.73053728759118e-01 7.57889186368599e-03
7.86250000000000e-01 1.72864545307655e-01 7.55585859213537e-03
7.88750000000000e-01 1.72675935829511e-01 7.53297328990710e-03
