Energy (eV)          EEDF (eV^-(3/2))     First Anisotropy
2.50000000000000e-03 4.83084372339649e-01 8.24369466128435e-01
7.50000000000000e-03 4.41865899033228e-01 7.01350810694095e-01
1.25000000000000e-02 4.12949291270240e-01 4.81945489131865e-01
1.75000000000000e-02 3.93671350120041e-01 3.37366083476600e-01
2.25000000000000e-02 3.79212682922580e-01 2.60258149753950e-01
2.75000000000000e-02 3.67645535144646e-01 2.12066517758033e-01
3.25000000000000e-02 3.58006031146777e-01 1.79021491587978e-01
3.75000000000000e-02 3.49743385985848e-01 1.54926712347238e-01
4.25000000000000e-02 3.42513359912053e-01 1.36569255810085e-01
4.75000000000000e-02 3.36086460404840e-01 1.22113166996459e-01
5.25000000000000e-02 3.30302043212407e-01 1.10431838364854e-01
5.75000000000000e-02 3.25043276568354e-01 1.00795062190007e-01
6.25000000000000e-02 3.20222536993406e-01 9.27085446598869e-02
6.75000000000000e-02 3.15772422102366e-01 8.58256386638145e-02
7.25000000000000e-02 3.11639973127025e-01 7.98959883458650e-02
7.75000000000000e-02 3.07782823267779e-01 7.47342343942686e-02
8.25000000000000e-02 3.04166549687598e-01 7.02001893479060e-02
8.75000000000000e-02 3.00762804332989e-01 6.61858571492779e-02
9.25000000000000e-02 2.97547963972670e-01 6.26066884273807e-02
9.75000000000000e-02 2.94502135490251e-01 5.93955411811797e-02
1.02500000000000e-01 2.91608409854552e-01 5.64984177354499e-02
1.07500000000000e-01 2.88852293716706e-01 5.38713966429333e-02
1.12500000000000e-01 2.86221270190259e-01 5.14783860239509e-02
1.17500000000000e-01 2.83704455114310e-01 4.92894526140225e-02
1.22500000000000e-01 2.81292324928857e-01 4.72795613893706e-02
1.27500000000000e-01 2.78976498975373e-01 4.54276126592534e-02
1.32500000000000e-01 2.76749563662931e-01 4.37156977901543e-02
1.37500000000000e-01 2.74604929196358e-01 4.21285177408415e-02
1.42500000000000e-01 2.72536711888847e-01 4.06529243070214e-02
1.47500000000000e-01 2.70539636765656e-01 3.92775548818664e-02
1.52500000000000e-01 2.68608956400660e-01 3.79925392174574e-02
1.57500000000000e-01 2.66740382843910e-01 3.67892621505345e-02
1.62500000000000e-01 2.64930030185607e-01 3.56601702130399e-02
1.67500000000000e-01 2.63174365822606e-01 3.45986129391923e-02
1.72500000000000e-01 2.61470168891688e-01 3.35987118159914e-02
1.77500000000000e-01 2.59814494641007e-01 3.26552514167172e-02
1.82500000000000e-01 2.58204643750016e-01 3.17635884560569e-02
1.87500000000000e-01 2.56638135795401e-01 3.09195754162117e-02
1.92500000000000e-01 2.55112686208395e-01 3.01194960907852e-02
1.97500000000000e-01 2.53626186186323e-01 2.93600109314412e-02
2.02500000000000e-01 2.52176685115251e-01 2.86381105007533e-02
2.07500000000000e-01 2.50762375136247e-01 2.79510756622112e-02
2.12500000000000e-01 2.49381577549030e-01 2.72964433963682e-02
2.17500000000000e-01 2.48032730796611e-01 2.66719773367383e-02
2.22500000000000e-01 2.46714379815356e-01 2.60756422821901e-02
2.27500000000000e-01 2.45425166568392e-01 2.55055820734199e-02
2.32500000000000e-01 2.44163821608014e-01 2.49601003265826e-02
2.37500000000000e-01 2.42929156535733e-01 2.44376436026103e-02
2.42500000000000e-01 2.41720057247753e-01 2.39367866603535e-02
2.47500000000000e-01 2.40535477869698e-01 2.34562194986029e-02
2.52500000000000e-01 2.39374435297893e-01 2.29947359388219e-02
2.57500000000000e-01 2.38236004275816e-01 2.25512235389899e-02
2.62500000000000e-01 2.37119312943994e-01 2.21246546609502e-02
2.67500000000000e-01 2.36023538809721e-01 2.17140785402126e-02
2.72500000000000e-01 2.34947905089972e-01 2.13186142293550e-02
2.77500000000000e-01 2.33891677386785e-01 2.09374443047886e-02
2.82500000000000e-01 2.32854160659493e-01 2.05698092422121e-02
2.87500000000000e-01 2.31834696462564e-01 2.02150023793213e-02
2.92500000000000e-01 2.30832660421561e-01 1.98723653954561e-02
2.97500000000000e-01 2.29847459923018e-01 1.95412842473197e-02
3.02500000000000e-01 2.28878531996829e-01 1.92211855079805e-02
3.07500000000000e-01 2.27925341372220e-01 1.89115330632253e-02
3.12500000000000e-01 2.26987378690507e-01 1.86118251252224e-02
3.17500000000000e-01 2.26064158859698e-01 1.83215915284882e-02
3.22500000000000e-01 2.25155219537658e-01 1.80403912775073e-02
3.27500000000000e-01 2.24260119731947e-01 1.77678103191031e-02
3.32500000000000e-01 2.23378438505748e-01 1.75034595158891e-02
3.37500000000000e-01 2.22509773780359e-01 1.72469727999264e-02
3.42500000000000e-01 2.21653741225755e-01 1.69980054881747e-02
3.47500000000000e-01 2.20809973231541e-01 1.67562327434331e-02
3.52500000000000e-01 2.19978117951412e-01 1.65213481663171e-02
3.57500000000000e-01 2.19157838414909e-01 1.62930625054342e-02
3.62500000000000e-01 2.18348811700868e-01 1.60711024743432e-02
3.67500000000000e-01 2.17550728167475e-01 1.58552096651252e-02
3.72500000000000e-01 2.16763290734356e-01 1.56451395494855e-02
3.77500000000000e-01 2.15986214212527e-01 1.54406605592633e-02
3.82500000000000e-01 2.15219224678429e-01 1.52415532390837e-02
3.87500000000000e-01 2.14462058888618e-01 1.50476094646337e-02
3.92500000000000e-01 2.13714463731966e-01 1.48586317207056e-02
3.97500000000000e-01 2.12976195716548e-01 1.46744324337478e-02
4.02500000000000e-01 2.12247020488591e-01 1.44948333541778e-02
4.07500000000000e-01 2.11526712381130e-01 1.43196649841826e-02
4.12500000000000e-01 2.10815053990173e-01 1.41487660471490e-02
4.17500000000000e-01 2.10111835776415e-01 1.39819829952267e-02
4.22500000000000e-01 2.09416855690650e-01 1.38191695518686e-02
4.27500000000000e-01 2.08729918821228e-01 1.36601862864841e-02
4.32500000000000e-01 2.08050837062002e-01 1.35049002186011e-02
4.37500000000000e-01 2.07379428799368e-01 1.33531844491858e-02
4.42500000000000e-01 2.06715518617083e-01 1.32049178169605e-02
4.47500000000000e-01 2.06058937017672e-01 1.30599845777621e-02
4.52500000000000e-01 2.05409520159307e-01 1.29182741051748e-02
4.57500000000000e-01 2.04767109607154e-01 1.27796806107902e-02
4.62500000000000e-01 2.04131552098228e-01 1.26441028826227e-02
4.67500000000000e-01 2.03502699318892e-01 1.25114440403140e-02
4.72500000000000e-01 2.02880407694197e-01 1.23816113058819e-02
4.77500000000000e-01 2.02264538188304e-01 1.22545157888793e-02
4.82500000000000e-01 2.01654956115309e-01 1.21300722849105e-02
4.87500000000000e-01 2.01051530959813e-01 1.20081990865534e-02
4.92500000000000e-01 2.00454136206653e-01 1.18888178057996e-02
4.97500000000000e-01 1.99862649179233e-01 1.17718532072064e-02
5.02500000000000e-01 1.99276950885933e-01 1.16572330510087e-02
5.07500000000000e-01 1.98696925874132e-01 1.15448879455096e-02
5.12500000000000e-01 1.98122462091382e-01 1.14347512081139e-02
5.17500000000000e-01 1.97553450753321e-01 1.13267587344185e-02
5.22500000000000e-01 1.96989786217940e-01 1.12208488748206e-02
5.27500000000000e-01 1.96431365865839e-01 1.11169623181473e-02
5.32500000000000e-01 1.95878089986125e-01 1.10150419818392e-02
5.37500000000000e-01 1.95329861667655e-01 1.09150329082638e-02
5.42500000000000e-01 1.94786586695299e-01 1.08168821667720e-02
5.47500000000000e-01 1.94248173450978e-01 1.07205387611153e-02
5.52500000000000e-01 1.93714532819187e-01 1.06259535418921e-02
5.57500000000000e-01 1.93185578096788e-01 1.05330791237079e-02
5.62500000000000e-01 1.92661224906817e-01 1.04418698067532e-02
5.67500000000000e-01 1.92141391116113e-01 1.03522815025303e-02
5.72500000000000e-01 1.91625996756564e-01 1.02642716634715e-02
5.77500000000000e-01 1.91114963949766e-01 1.01777992162114e-02
5.82500000000000e-01 1.90608216834942e-01 1.00928244983023e-02
5.87500000000000e-01 1.90105681499936e-01 1.00093091981590e-02
5.92500000000000e-01 1.89607285915127e-01 9.92721629804405e-03
5.97500000000000e-01 1.89112959870131e-01 9.84651001991521e-03
6.02500000000000e-01 1.88622634913135e-01 9.76715577397508e-03
6.07500000000000e-01 1.88136244292734e-01 9.68912010975848e-03
6.12500000000000e-01 1.87653722902159e-01 9.61237066961246e-03
6.17500000000000e-01 1.87175007225772e-01 9.53687614444476e-03
6.22500000000000e-01 1.86700035287715e-01 9.46260623159945e-03
6.27500000000000e-01 1.86228746602612e-01 9.38953159474981e-03
6.32500000000000e-01 1.85761082128240e-01 9.31762382569118e-03
6.37500000000000e-01 1.85296984220043e-01 9.24685540793474e-03
6.42500000000000e-01 1.84836396587446e-01 9.17719968200115e-03
6.47500000000000e-01 1.84379264251843e-01 9.10863081232005e-03
6.52500000000000e-01 1.83925533506214e-01 9.04112375565563e-03
6.57500000000000e-01 1.83475151876278e-01 8.97465423097044e-03
6.62500000000000e-01 1.83028068083117e-01 8.90919869065310e-03
6.67500000000000e-01 1.82584232007212e-01 8.84473429304367e-03
6.72500000000000e-01 1.82143594653813e-01 8.78123887618293e-03
6.77500000000000e-01 1.81706108119594e-01 8.71869093271999e-03
6.82500000000000e-01 1.81271725560541e-01 8.65706958592977e-03
6.87500000000000e-01 1.80840401161001e-01 8.59635456677388e-03
6.92500000000000e-01 1.80412090103863e-01 8.53652619195594e-03
6.97500000000000e-01 1.79986748541806e-01 8.47756534292116e-03
7.02500000000000e-01 1.79564333569571e-01 8.41945344575129e-03
7.07500000000000e-01 1.79144803197230e-01 8.36217245191312e-03
7.12500000000000e-01 1.78728116324380e-01 8.30570481982068e-03
7.17500000000000e-01 1.78314232715248e-01 8.25003349716469e-03
7.22500000000000e-01 1.77903112974664e-01 8.19514190397691e-03
7.27500000000000e-01 1.77494718524851e-01 8.14101391639566e-03
7.32500000000000e-01 1.77089011583024e-01 8.08763385108990e-03
7.37500000000000e-01 1.76685955139742e-01 8.03498645032347e-03
7.42500000000000e-01 1.76285512937992e-01 7.98305686762202e-03
7.47500000000000e-01 1.75887649452979e-01 7.93183065401243e-03
7.52500000000000e-01 1.75492329872590e-01 7.88129374481111e-03
7.57500000000000e-01 1.75099520078498e-01 7.83143244694057e-03
7.62500000000000e-01 1.74709186627896e-01 7.78223342673690e-03
7.67500000000000e-01 1.74321296735825e-01 7.73368369824140e-03
7.72500000000000e-01 1.73935818258072e-01 7.68577061194653e-03
7.77500000000000e-01 1.73552719674630e-01 7.63848184397037e-03
7.82500000000000e-01 1.73171970073675e-01 7.59180538564885e-03
7.87500000000000e-01 1.72793539136065e-01 7.54572953352628e-03
7.92500000000000e-01 1.72417397120323e-01 7.50024287972661e-03
7.97500000000000e-01 1.72043514848092e-01 7.45533430268175e-03
8.02500000000000e-01 1.71671863690054e-01 7.41099295820863e-03
8.07500000000000e-01 1.71302415552272e-01 7.36720827092030e-03
8.12500000000000e-01 1.70935142862962e-01 7.32396992595141e-03
8.17500000000000e-01 1.70570018559676e-01 7.28126786098737e-03
8.22500000000000e-01 1.70207016076864e-01 7.23909225858854e-03
8.27500000000000e-01 1.69846109333818e-01 7.19743353878532e-03
8.32500000000000e-01 1.69487272722985e-01 7.15628235194499e-03
8.37500000000000e-01 1.69130481098623e-01 7.11562957189438e-03
8.42500000000000e-01 1.68775709765796e-01 7.07546628928801e-03
8.47500000000000e-01 1.68422934469694e-01 7.03578380520764e-03
8.52500000000000e-01 1.68072131385275e-01 6.99657362498857e-03
8.57500000000000e-01 1.67723277107195e-01 6.95782745226275e-03
8.62500000000000e-01 1.67376348640049e-01 6.91953718320870e-03
8.67500000000000e-01 1.67031323388875e-01 6.88169490100365e-03
8.72500000000000e-01 1.66688179149948e-01 6.84429287045901e-03
8.77500000000000e-01 1.66346894101829e-01 6.80732353284419e-03
8.82500000000000e-01 1.66007446796664e-01 6.77077950088700e-03
8.87500000000000e-01 1.65669816151740e-01 6.73465355394170e-03
8.92500000000000e-01 1.65333981441270e-01 6.69893863331911e-03
8.97500000000000e-01 1.64999922288408e-01 6.66362783777241e-03
9.02500000000000e-01 1.64667618657492e-01 6.62871441913904e-03
9.07500000000000e-01 1.64337050846494e-01 6.59419177811593e-03
9.12500000000000e-01 1.64008199479681e-01 6.56005346017952e-03
9.17500000000000e-01 1.63681045500476e-01 6.52629315164382e-03
9.22500000000000e-01 1.63355570164516e-01 6.49290467583635e-03
9.27500000000000e-01 1.63031755032893e-01 6.45988198940739e-03
9.32500000000000e-01 1.62709581965576e-01 6.42721917875483e-03
9.37500000000000e-01 1.62389033115017e-01 6.39491045655999e-03
9.42500000000000e-01 1.62070090919920e-01 6.36295015843585e-03
9.47500000000000e-01 1.61752738099173e-01 6.33133273968411e-03
9.52500000000000e-01 1.61436957645951e-01 6.30005277215240e-03
9.57500000000000e-01 1.61122732821958e-01 6.26910494118782e-03
9.62500000000000e-01 1.60810047151832e-01 6.23848404268990e-03
9.67500000000000e-01 1.60498884417689e-01 6.20818498025061e-03
9.72500000000000e-01 1.60189228653807e-01 6.17820276238634e-03
9.77500000000000e-01 1.59881064141451e-01 6.14853249985281e-03
9.82500000000000e-01 1.59574375403822e-01 6.11916940304019e-03
9.87500000000000e-01 1.59269147201147e-01 6.09010877945154e-03
9.92500000000000e-01 1.58965364525877e-01 6.06134603125585e-03
9.97500000000000e-01 1.58663012598021e-01 6.03287665291413e-03
1.00250000000000e+00 1.58362076860586e-01 6.00469622887345e-03
1.00750000000000e+00 1.58062542975134e-01 5.97680043133625e-03
1.01250000000000e+00 1.57764396817452e-01 5.94918501809427e-03
1.01750000000000e+00 1.57467624473324e-01 5.92184583041944e-03
1.02250000000000e+00 1.57172212234410e-01 5.89477879102490e-03
1.02750000000000e+00 1.56878146594222e-01 5.86797990208332e-03
1.03250000000000e+00 1.56585414244202e-01 5.84144524329894e-03
1.03750000000000e+00 1.56294002069892e-01 5.81517097003936e-03
1.04250000000000e+00 1.56003897147198e-01 5.78915331152202e-03
1.04750000000000e+00 1.55715086738740e-01 5.76338856904834e-03
1.05250000000000e+00 1.55427558290293e-01 5.73787311429125e-03
1.05750000000000e+00 1.55141299427311e-01 5.71260338763230e-03
1.06250000000000e+00 1.54856297951530e-01 5.68757589654273e-03
1.06750000000000e+00 1.54572541837656e-01 5.66278721401164e-03
1.07250000000000e+00 1.54290019230128e-01 5.63823397701585e-03
1.07750000000000e+00 1.54008718439955e-01 5.61391288503743e-03
1.08250000000000e+00 1.53728627941625e-01 5.58982069862018e-03
1.08750000000000e+00 1.53449736370093e-01 5.56595423796102e-03
1.09250000000000e+00 1.53172032517829e-01 5.54231038154579e-03
1.09750000000000e+00 1.52895505331938e-01 5.51888606482365e-03
1.10250000000000e+00 1.52620143911346e-01 5.49567827891173e-03
1.10750000000000e+00 1.52345937504047e-01 5.47268406933754e-03
1.11250000000000e+00 1.52072875504413e-01 5.44990053481631e-03
1.11750000000000e+00 1.51800947450565e-01 5.42732482606001e-03
1.12250000000000e+00 1.51530143021807e-01 5.40495414462078e-03
1.12750000000000e+00 1.51260452036103e-01 5.38278574176015e-03
1.13250000000000e+00 1.50991864447630e-01 5.36081691735107e-03
1.13750000000000e+00 1.50724370344368e-01 5.33904501881094e-03
1.14250000000000e+00 1.50457959945749e-01 5.31746744005968e-03
1.14750000000000e+00 1.50192623600362e-01 5.29608162050582e-03
1.15250000000000e+00 1.49928351783699e-01 5.27488504405982e-03
1.15750000000000e+00 1.49665135095956e-01 5.25387523817089e-03
1.16250000000000e+00 1.49402964259882e-01 5.23304977288946e-03
1.16750000000000e+00 1.49141830118667e-01 5.21240625995817e-03
1.17250000000000e+00 1.48881723633886e-01 5.19194235191978e-03
1.17750000000000e+00 1.48622635883475e-01 5.17165574124873e-03
1.18250000000000e+00 1.48364558059761e-01 5.15154415951125e-03
1.18750000000000e+00 1.48107481467524e-01 5.13160537653573e-03
1.19250000000000e+00 1.47851397522107e-01 5.11183719961172e-03
1.19750000000000e+00 1.47596297747563e-01 5.09223747271331e-03
1.20250000000000e+00 1.47342173774836e-01 5.07280407572835e-03
1.20750000000000e+00 1.47089017339990e-01 5.05353492371741e-03
1.21250000000000e+00 1.46836820282464e-01 5.03442796619097e-03
1.21750000000000e+00 1.46585574543371e-01 5.01548118639533e-03
1.22250000000000e+00 1.46335272163825e-01 4.99669260062591e-03
1.22750000000000e+00 1.46085905283308e-01 4.97806025755387e-03
1.23250000000000e+00 1.45837466138069e-01 4.95958223756837e-03
1.23750000000000e+00 1.45589947059552e-01 4.94125665213618e-03
1.24250000000000e+00 1.45343340472856e-01 4.92308164317362e-03
1.24750000000000e+00 1.45097638895234e-01 4.90505538243896e-03
1.25250000000000e+00 1.44852834934612e-01 4.88717607093375e-03
1.25750000000000e+00 1.44608921288141e-01 4.86944193832078e-03
1.26250000000000e+00 1.44365890740780e-01 4.85185124235815e-03
1.26750000000000e+00 1.44123736163905e-01 4.83440226834553e-03
1.27250000000000e+00 1.43882450513945e-01 4.81709332858127e-03
1.27750000000000e+00 1.43642026831047e-01 4.79992276183144e-03
1.28250000000000e+00 1.43402458237762e-01 4.78288893281636e-03
1.28750000000000e+00 1.43163737937765e-01 4.76599023170571e-03
1.29250000000000e+00 1.42925859214592e-01 4.74922507362502e-03
1.29750000000000e+00 1.42688815430403e-01 4.73259189817637e-03
1.30250000000000e+00 1.42452600024774e-01 4.71608916896571e-03
1.30750000000000e+00 1.42217206513506e-01 4.69971537314429e-03
1.31250000000000e+00 1.41982628487460e-01 4.68346902096128e-03
1.31750000000000e+00 1.41748859611410e-01 4.66734864532414e-03
1.32250000000000e+00 1.41515893622927e-01 4.65135280137002e-03
1.32750000000000e+00 1.41283724331273e-01 4.63548006604614e-03
1.33250000000000e+00 1.41052345616323e-01 4.61972903770091e-03
1.33750000000000e+00 1.40821751427503e-01 4.60409833568459e-03
1.34250000000000e+00 1.40591935782754e-01 4.58858659995676e-03
1.34750000000000e+00 1.40362892767507e-01 4.57319249070165e-03
1.35250000000000e+00 1.40134616533684e-01 4.55791468795846e-03
1.35750000000000e+00 1.39907101298711e-01 4.54275189125247e-03
1.36250000000000e+00 1.39680341344559e-01 4.52770281923615e-03
1.36750000000000e+00 1.39454331016788e-01 4.51276620934277e-03
1.37250000000000e+00 1.39229064723624e-01 4.49794081744087e-03
1.37750000000000e+00 1.39004536935044e-01 4.48322541750229e-03
1.38250000000000e+00 1.38780742181874e-01 4.46861880127131e-03
1.38750000000000e+00 1.38557675054917e-01 4.45411977794546e-03
1.39250000000000e+00 1.38335330204080e-01 4.43972717386276e-03
1.39750000000000e+00 1.38113702337530e-01 4.42543983219384e-03
1.40250000000000e+00 1.37892786220860e-01 4.41125661264169e-03
1.40750000000000e+00 1.37672576676266e-01 4.39717639114878e-03
1.41250000000000e+00 1.37453068581745e-01 4.38319805960929e-03
1.41750000000000e+00 1.37234256870305e-01 4.36932052558486e-03
1.42250000000000e+00 1.37016136529187e-01 4.35554271203231e-03
1.42750000000000e+00 1.36798702599102e-01 4.34186355703248e-03
1.43250000000000e+00 1.36581950173484e-01 4.32828201352653e-03
1.43750000000000e+00 1.36365874397749e-01 4.31479704905563e-03
1.44250000000000e+00 1.36150470468578e-01 4.30140764550918e-03
1.44750000000000e+00 1.35935733633198e-01 4.28811279887586e-03
1.45250000000000e+00 1.35721659188690e-01 4.27491151900244e-03
1.45750000000000e+00 1.35508242481298e-01 4.26180282935590e-03
1.46250000000000e+00 1.35295478905755e-01 4.24878576678611e-03
1.46750000000000e+00 1.35083363904620e-01 4.23585938130272e-03
1.47250000000000e+00 1.34871892967625e-01 4.22302273584918e-03
1.47750000000000e+00 1.34661061631035e-01 4.21027490608378e-03
1.48250000000000e+00 1.34450865477016e-01 4.19761498016646e-03
1.48750000000000e+00 1.34241300133018e-01 4.18504205854681e-03
1.49250000000000e+00 1.34032361271162e-01 4.17255525375804e-03
1.49750000000000e+00 1.33824044607642e-01 4.16015369021555e-03
1.50250000000000e+00 1.33616345902140e-01 4.14783650401929e-03
1.50750000000000e+00 1.33409260957240e-01 4.13560284275916e-03
1.51250000000000e+00 1.33202785617864e-01 4.12345186532603e-03
1.51750000000000e+00 1.32996915770708e-01 4.11138274172412e-03
1.52250000000000e+00 1.32791647343692e-01 4.09939465288972e-03
1.52750000000000e+00 1.32586976305419e-01 4.08748679051052e-03
1.53250000000000e+00 1.32382898664641e-01 4.07565835685103e-03
1.53750000000000e+00 1.32179410469734e-01 4.06390856457994e-03
1.54250000000000e+00 1.31976507808183e-01 4.05223663660081e-03
1.54750000000000e+00 1.31774186806074e-01 4.04064180588970e-03
1.55250000000000e+00 1.31572443627594e-01 4.02912331532862e-03
1.55750000000000e+00 1.31371274474541e-01 4.01768041754819e-03
1.56250000000000e+00 1.31170675585839e-01 4.00631237477189e-03
1.56750000000000e+00 1.30970643237063e-01 3.99501845866179e-03
1.57250000000000e+00 1.30771173739973e-01 3.98379795016918e-03
1.57750000000000e+00 1.30572263442047e-01 3.97265013938775e-03
