Energy (eV)          EEDF (eV^-(3/2))     First Anisotropy
1.30208333333333e-02 1.63168387871366e-01 8.81236000227876e-05
3.90625000000000e-02 1.61999109490202e-01 1.45484808301786e-04
6.51041666666667e-02 1.60838210259301e-01 1.91970877956881e-04
9.11458333333333e-02 1.59685630129335e-01 2.27234682882705e-04
1.17187500000000e-01 1.58541309480962e-01 2.56602110730822e-04
1.43229166666667e-01 1.57405189137510e-01 2.82087658984681e-04
1.69270833333333e-01 1.56277210325405e-01 3.04734248604169e-04
1.95312500000000e-01 1.55157314701981e-01 3.25171912221925e-04
2.21354166666667e-01 1.54045444348585e-01 3.43818659618066e-04
2.47395833333333e-01 1.52941541749963e-01 3.60970043729560e-04
2.73437500000000e-01 1.51845549808623e-01 3.76844929546281e-04
2.99479166666667e-01 1.50757411840306e-01 3.91611217336791e-04
3.25520833333333e-01 1.49677071558934e-01 4.05401351317814e-04
3.51562500000000e-01 1.48604473085690e-01 4.18322195657282e-04
3.77604166666667e-01 1.47539560945260e-01 4.30461606903972e-04
4.03645833333333e-01 1.46482280053798e-01 4.41892963088835e-04
4.29687500000000e-01 1.45432575725177e-01 4.52678380713777e-04
4.55729166666667e-01 1.44390393667596e-01 4.62871060922154e-04
4.81770833333333e-01 1.43355679973471e-01 4.72517034548771e-04
5.07812500000000e-01 1.42328381123912e-01 4.81656486291614e-04
5.33854166666667e-01 1.41308443985569e-01 4.90324778624699e-04
5.59895833333333e-01 1.40295815801842e-01 4.98553251796130e-04
5.85937500000000e-01 1.39290444196171e-01 5.06369858512892e-04
6.11979166666667e-01 1.38292277169039e-01 5.13799675477986e-04
6.38020833333333e-01 1.37301263090167e-01 5.20865316809652e-04
6.64062500000000e-01 1.36317350700946e-01 5.27587272729091e-04
6.90104166666667e-01 1.35340489111560e-01 5.33984191334002e-04
7.16145833333333e-01 1.34370627793947e-01 5.40073111836495e-04
7.42187500000000e-01 1.33407716583586e-01 5.45869660332097e-04
7.68229166666667e-01 1.32451705676725e-01 5.51388216952737e-04
7.94270833333333e-01 1.31502545623951e-01 5.56642056583930e-04
8.20312500000000e-01 1.30560187331477e-01 5.61643469239420e-04
8.46354166666667e-01 1.29624582058470e-01 5.66403865180308e-04
8.72395833333333e-01 1.28695681411106e-01 5.70933864430598e-04
8.98437500000000e-01 1.27773437343486e-01 5.75243374528825e-04
9.24479166666667e-01 1.26857802155026e-01 5.79341659838864e-04
9.50520833333333e-01 1.25948728484942e-01 5.83237400987513e-04
9.76562500000000e-01 1.25046169312853e-01 5.86938747140773e-04
1.00260416666667e+00 1.24150077956241e-01 5.90453363533838e-04
1.02864583333333e+00 1.23260408065296e-01 5.93788472783467e-04
1.05468750000000e+00 1.22377113620698e-01 5.96950889115183e-04
1.08072916666667e+00 1.21500148943823e-01 5.99947055804128e-04
1.10677083333333e+00 1.20629468666854e-01 6.02783072549380e-04
1.13281250000000e+00 1.19765027755322e-01 6.05464717268671e-04
1.15885416666667e+00 1.18906781505021e-01 6.07997478003794e-04
1.18489583333333e+00 1.18054685517038e-01 6.10386570382817e-04
1.21093750000000e+00 1.17208695718140e-01 6.12636953101485e-04
1.23697916666667e+00 1.16368768357824e-01 6.14753353228006e-04
1.26302083333333e+00 1.15534859985323e-01 6.16740278436127e-04
1.28906250000000e+00 1.14706927468120e-01 6.18602027870406e-04
1.31510416666667e+00 1.13884927989131e-01 6.20342712754745e-04
1.34114583333333e+00 1.13068819025429e-01 6.21966264994162e-04
1.36718750000000e+00 1.12258558365136e-01 6.23476444812496e-04
1.39322916666667e+00 1.11454104104719e-01 6.24876857927999e-04
1.41927083333333e+00 1.10655414629235e-01 6.26170961582928e-04
1.44531250000000e+00 1.09862448627794e-01 6.27362069881728e-04
1.47135416666667e+00 1.09075165090961e-01 6.28453368395217e-04
1.49739583333333e+00 1.08293523292351e-01 6.29447918337361e-04
1.52343750000000e+00 1.07517482802835e-01 6.30348660238790e-04
1.54947916666667e+00 1.06747003488026e-01 6.31158426581591e-04
1.57552083333333e+00 1.05982045491098e-01 6.31879944622356e-04
1.60156250000000e+00 1.05222569245858e-01 6.32515838844613e-04
1.62760416666667e+00 1.04468535474329e-01 6.33068642054225e-04
1.65364583333333e+00 1.03719905170646e-01 6.33540797201549e-04
1.67968750000000e+00 1.02976639613139e-01 6.33934658928110e-04
1.70572916666667e+00 1.02238700361983e-01 6.34252503436049e-04
1.73177083333333e+00 1.01506049244088e-01 6.34496529563226e-04
1.75781250000000e+00 1.00778648364278e-01 6.34668859651939e-04
1.78385416666667e+00 1.00056460103017e-01 6.34771548425219e-04
1.80989583333333e+00 9.93394471021907e-02 6.34806583499939e-04
1.83593750000000e+00 9.86275722754775e-02 6.34775885744699e-04
1.86197916666667e+00 9.79207988061404e-02 6.34681317338687e-04
1.88802083333333e+00 9.72190901336272e-02 6.34524681859706e-04
1.91406250000000e+00 9.65224099632046e-02 6.34307724255242e-04
1.94010416666667e+00 9.58307222638180e-02 6.34032138218722e-04
1.96614583333333e+00 9.51439912554359e-02 6.33699565954873e-04
1.99218750000000e+00 9.44621814180183e-02 6.33311597857023e-04
2.01822916666667e+00 9.37852574894380e-02 6.32869779305875e-04
2.04427083333333e+00 9.31131844535092e-02 6.32375610189508e-04
2.07031250000000e+00 9.24459275483502e-02 6.31830544357640e-04
2.09635416666667e+00 9.17834522643617e-02 6.31235995925533e-04
2.12239583333333e+00 9.11257243328872e-02 6.30593338608070e-04
2.14843750000000e+00 9.04727097340206e-02 6.29903905004790e-04
2.17447916666667e+00 8.98243746946402e-02 6.29168992475196e-04
2.20052083333333e+00 8.91806856776513e-02 6.28389862332372e-04
2.22656250000000e+00 8.85416093892866e-02 6.27567739000436e-04
2.25260416666667e+00 8.79071127771925e-02 6.26703815514952e-04
2.27864583333333e+00 8.72771630202112e-02 6.25799252611141e-04
2.30468750000000e+00 8.66517275352152e-02 6.24855177786273e-04
2.33072916666667e+00 8.60307739752438e-02 6.23872690469018e-04
2.35677083333333e+00 8.54142702197856e-02 6.22852861029660e-04
2.38281250000000e+00 8.48021843811849e-02 6.21796729772677e-04
2.40885416666667e+00 8.41944848028256e-02 6.20705311811379e-04
2.43489583333333e+00 8.35911400498800e-02 6.19579596021715e-04
2.46093750000000e+00 8.29921189153195e-02 6.18420543984775e-04
2.48697916666667e+00 8.23973904181449e-02 6.17229094596993e-04
2.51302083333333e+00 8.18069237945695e-02 6.16006162984633e-04
2.53906250000000e+00 8.12206885036641e-02 6.14752639411802e-04
2.56510416666667e+00 8.06386542256323e-02 6.13469393651767e-04
2.59114583333333e+00 8.00607908533987e-02 6.12157273875455e-04
2.61718750000000e+00 7.94870684979163e-02 6.10817105537537e-04
2.64322916666667e+00 7.89174574864839e-02 6.09449695530347e-04
2.66927083333333e+00 7.83519283547149e-02 6.08055831057170e-04
2.69531250000000e+00 7.77904518515300e-02 6.06636278506224e-04
2.72135416666667e+00 7.72329989375170e-02 6.05191787405868e-04
2.74739583333333e+00 7.66795407772547e-02 6.03723089291042e-04
2.77343750000000e+00 7.61300487440146e-02 6.02230896572805e-04
2.79947916666667e+00 7.55844944181607e-02 6.00715906311104e-04
2.82552083333333e+00 7.50428495798075e-02 5.99178799080970e-04
2.85156250000000e+00 7.45050862132512e-02 5.97620237843935e-04
2.87760416666667e+00 7.39711765054074e-02 5.96040871552383e-04
2.90364583333333e+00 7.34410928387839e-02 5.94441334020737e-04
2.92968750000000e+00 7.29148077956592e-02 5.92822242803582e-04
2.95572916666667e+00 7.23922941565579e-02 5.91184202644006e-04
2.98177083333333e+00 7.18735248935194e-02 5.89527804354076e-04
3.00781250000000e+00 7.13584731740411e-02 5.87853623703447e-04
3.03385416666667e+00 7.08471123595897e-02 5.86162224722477e-04
3.05989583333333e+00 7.03394159991497e-02 5.84454158595453e-04
3.08593750000000e+00 6.98353578329458e-02 5.82729962562722e-04
3.11197916666667e+00 6.93349117909905e-02 5.80990163088242e-04
3.13802083333333e+00 6.88380519868950e-02 5.79235274768051e-04
3.16406250000000e+00 6.83447527213873e-02 5.77465799248350e-04
3.19010416666667e+00 6.78549884808928e-02 5.75682228266238e-04
3.21614583333333e+00 6.73687339315952e-02 5.73885042575292e-04
3.24218750000000e+00 6.68859639227617e-02 5.72074710881421e-04
3.26822916666667e+00 6.64066534853573e-02 5.70251692764642e-04
3.29427083333333e+00 6.59307778263411e-02 5.68416437623401e-04
3.32031250000000e+00 6.54583123318112e-02 5.66569383629590e-04
3.34635416666667e+00 6.49892325656516e-02 5.64710960538121e-04
3.37239583333333e+00 6.45235142640515e-02 5.62841588651240e-04
3.39843750000000e+00 6.40611333384820e-02 5.60961677793810e-04
3.42447916666667e+00 6.36020658743731e-02 5.59071630017128e-04
3.45052083333333e+00 6.31462881258462e-02 5.57171838584043e-04
3.47656250000000e+00 6.26937765185310e-02 5.55262686965242e-04
3.50260416666667e+00 6.22445076482737e-02 5.53344551443002e-04
3.52864583333333e+00 6.17984582760704e-02 5.51417800117672e-04
3.55468750000000e+00 6.13556053307352e-02 5.49482791925520e-04
3.58072916666667e+00 6.09159259076380e-02 5.47539879147878e-04
3.60677083333333e+00 6.04793972638286e-02 5.45589406439412e-04
3.63281250000000e+00 6.00459968205653e-02 5.43631709867645e-04
3.65885416666667e+00 5.96157021620810e-02 5.41667119332372e-04
3.68489583333333e+00 5.91884910308899e-02 5.39695957615885e-04
3.71093750000000e+00 5.87643413301832e-02 5.37718539444552e-04
3.73697916666667e+00 5.83432311226242e-02 5.35735173822825e-04
3.76302083333333e+00 5.79251386258274e-02 5.33746163105577e-04
3.78906250000000e+00 5.75100422146306e-02 5.31751802081724e-04
3.81510416666667e+00 5.70979204199168e-02 5.29752380226951e-04
3.84114583333333e+00 5.66887519242589e-02 5.27748180798148e-04
3.86718750000000e+00 5.62825155640739e-02 5.25739479938965e-04
3.89322916666667e+00 5.58791903284723e-02 5.23726548855238e-04
3.91927083333333e+00 5.54787553550594e-02 5.21709652931288e-04
3.94531250000000e+00 5.50811899319794e-02 5.19689050857247e-04
3.97135416666667e+00 5.46864734967908e-02 5.17664996730743e-04
3.99739583333333e+00 5.42945856324175e-02 5.15637739194881e-04
4.02343750000000e+00 5.39055060690890e-02 5.13607520587151e-04
4.04947916666667e+00 5.35192146832413e-02 5.11574578970664e-04
4.07552083333333e+00 5.31356914936104e-02 5.09539147293574e-04
4.10156250000000e+00 5.27549166630753e-02 5.07501452559327e-04
4.12760416666667e+00 5.23768704975824e-02 5.05461717790483e-04
4.15364583333333e+00 5.20015334423770e-02 5.03420161209259e-04
4.17968750000000e+00 5.16288860837523e-02 5.01376995428877e-04
4.20572916666667e+00 5.12589091479991e-02 4.99332429352788e-04
4.23177083333333e+00 5.08915834977669e-02 4.97286667376131e-04
4.25781250000000e+00 5.05268901337259e-02 4.95239908597680e-04
4.28385416666667e+00 5.01648101935397e-02 4.93192348657298e-04
4.30989583333333e+00 4.98053249483521e-02 4.91144178957907e-04
4.33593750000000e+00 4.94484158043655e-02 4.89095585897609e-04
4.36197916666667e+00 4.90940643018367e-02 4.87046752648005e-04
4.38802083333333e+00 4.87422521116836e-02 4.84997858396214e-04
4.41406250000000e+00 4.83929610369850e-02 4.82949077596851e-04
4.44010416666667e+00 4.80461730119986e-02 4.80900581693542e-04
4.46614583333333e+00 4.77018700988827e-02 4.78852538380623e-04
4.49218750000000e+00 4.73600344891211e-02 4.76805110874561e-04
4.51822916666667e+00 4.70206485025636e-02 4.74758459580924e-04
4.54427083333333e+00 4.66836945842570e-02 4.72712741375343e-04
4.57031250000000e+00 4.63491553058000e-02 4.70668108893919e-04
4.59635416666667e+00 4.60170133644048e-02 4.68624712147902e-04
4.62239583333333e+00 4.56872515798334e-02 4.66582697823343e-04
4.64843750000000e+00 4.53598528956863e-02 4.64542208590214e-04
4.67447916666667e+00 4.50348003784839e-02 4.62503384666713e-04
4.70052083333333e+00 4.47120772147049e-02 4.60466363137211e-04
4.72656250000000e+00 4.43916667120109e-02 4.58431277279625e-04
4.75260416666667e+00 4.40735522983487e-02 4.56398258081189e-04
4.77864583333333e+00 4.37577175190854e-02 4.54367433574488e-04
4.80468750000000e+00 4.34441460381733e-02 4.52338928182470e-04
4.83072916666667e+00 4.31328216372716e-02 4.50312864187659e-04
4.85677083333333e+00 4.28237282129751e-02 4.48289361085664e-04
4.88281250000000e+00 4.25168497779215e-02 4.46268534947438e-04
4.90885416666667e+00 4.22121704599336e-02 4.44250499843714e-04
4.93489583333333e+00 4.19096744993360e-02 4.42235367215544e-04
4.96093750000000e+00 4.16093462500099e-02 4.40223245253466e-04
4.98697916666667e+00 4.13111701785528e-02 4.38214240278637e-04
5.01302083333333e+00 4.10151308616825e-02 4.36208456130051e-04
5.03906250000000e+00 4.07212129872395e-02 4.34205993560144e-04
5.06510416666667e+00 4.04294013533659e-02 4.32206951574253e-04
5.09114583333333e+00 4.01396808659918e-02 4.30211426834132e-04
5.11718750000000e+00 3.98520365397888e-02 4.28219513069520e-04
5.14322916666667e+00 3.95664534973676e-02 4.26231302377447e-04
5.16927083333333e+00 3.92829169668429e-02 4.24246884641475e-04
5.19531250000000e+00 3.90014122827418e-02 4.22266346958921e-04
5.22135416666667e+00 3.87219248852177e-02 4.20289774901442e-04
5.24739583333333e+00 3.84444403176934e-02 4.18317251949651e-04
5.27343750000000e+00 3.81689442277235e-02 4.16348858935547e-04
5.29947916666667e+00 3.78954223662276e-02 4.14384675265695e-04
5.32552083333333e+00 3.76238605852052e-02 4.12424778370846e-04
5.35156250000000e+00 3.73542448385577e-02 4.10469243163107e-04
5.37760416666667e+00 3.70865611813376e-02 4.08518143223062e-04
5.40364583333333e+00 3.68207957675346e-02 4.06571550264040e-04
5.42968750000000e+00 3.65569348508579e-02 4.04629533603596e-04
5.45572916666667e+00 3.62949647840017e-02 4.02692161315798e-04
5.48177083333333e+00 3.60348720164997e-02 4.00759499709671e-04
5.50781250000000e+00 3.57766430954696e-02 3.98831612814789e-04
5.53385416666667e+00 3.55202646648947e-02 3.96908563499875e-04
5.55989583333333e+00 3.52657234635442e-02 3.94990412964986e-04
5.58593750000000e+00 3.50130063256815e-02 3.93077220240796e-04
5.61197916666667e+00 3.47621001803618e-02 3.91169043274613e-04
5.63802083333333e+00 3.45129920494159e-02 3.89265938436086e-04
5.66406250000000e+00 3.42656690481239e-02 3.87367960029691e-04
5.69010416666667e+00 3.40201183845288e-02 3.85475161349370e-04
5.71614583333333e+00 3.37763273574804e-02 3.83587594197307e-04
5.74218750000000e+00 3.35342833572777e-02 3.81705308409244e-04
5.76822916666667e+00 3.32939738649964e-02 3.79828352878835e-04
5.79427083333333e+00 3.30553864505928e-02 3.77956775089066e-04
5.82031250000000e+00 3.28185087735142e-02 3.76090620650143e-04
5.84635416666667e+00 3.25833285820419e-02 3.74229934294483e-04
5.87239583333333e+00 3.23498337114513e-02 3.72374759420482e-04
5.89843750000000e+00 3.21180120845936e-02 3.70525137642678e-04
5.92447916666667e+00 3.18878517112521e-02 3.68681109758222e-04
5.95052083333333e+00 3.16593406863584e-02 3.66842715302681e-04
5.97656250000000e+00 3.14324671905450e-02 3.65009992112170e-04
6.00260416666667e+00 3.12072194895162e-02 3.63182977262267e-04
6.02864583333333e+00 3.09835859323169e-02 3.61361706635536e-04
6.05468750000000e+00 3.07615549518588e-02 3.59546214495182e-04
6.08072916666667e+00 3.05411150643048e-02 3.57736534397339e-04
6.10677083333333e+00 3.03222548673892e-02 3.55932698770017e-04
6.13281250000000e+00 3.01049630409180e-02 3.54134738497990e-04
6.15885416666667e+00 2.98892283461671e-02 3.52342683809299e-04
6.18489583333333e+00 2.96750396242516e-02 3.50556563865302e-04
6.21093750000000e+00 2.94623857966020e-02 3.48776406356464e-04
6.23697916666667e+00 2.92512558643757e-02 3.47002238363912e-04
6.26302083333333e+00 2.90416389068735e-02 3.45234085960253e-04
6.28906250000000e+00 2.88335240819930e-02 3.43471973815981e-04
6.31510416666667e+00 2.86269006256530e-02 3.41715926036904e-04
6.34114583333333e+00 2.84217578502559e-02 3.39965965775438e-04
6.36718750000000e+00 2.82180851451194e-02 3.38222114847320e-04
6.39322916666667e+00 2.80158719759127e-02 3.36484394545619e-04
6.41927083333333e+00 2.78151078831643e-02 3.34752825262249e-04
6.44531250000000e+00 2.76157824826721e-02 3.33027426114771e-04
6.47135416666667e+00 2.74178854649525e-02 3.31308215737664e-04
6.49739583333333e+00 2.72214065937903e-02 3.29595211913761e-04
6.52343750000000e+00 2.70263357066298e-02 3.27888431210829e-04
6.54947916666667e+00 2.68326627140350e-02 3.26187889750893e-04
6.57552083333333e+00 2.66403775982821e-02 3.24493602851298e-04
6.60156250000000e+00 2.64494704137304e-02 3.22805584670765e-04
6.62760416666667e+00 2.62599312862952e-02 3.21123848957470e-04
6.65364583333333e+00 2.60717504120800e-02 3.19448408699456e-04
6.67968750000000e+00 2.58849180577295e-02 3.17779275779946e-04
6.70572916666667e+00 2.56994245599135e-02 3.16116461704777e-04
6.73177083333333e+00 2.55152603239988e-02 3.14459977261888e-04
6.75781250000000e+00 2.53324158243843e-02 3.12809832185673e-04
6.78385416666667e+00 2.51508816039962e-02 3.11166035864406e-04
6.80989583333333e+00 2.49706482729976e-02 3.09528597008601e-04
6.83593750000000e+00 2.47917065091071e-02 3.07897523324077e-04
6.86197916666667e+00 2.46140470571051e-02 3.06272822199971e-04
6.88802083333333e+00 2.44376607275796e-02 3.04654500385783e-04
6.91406250000000e+00 2.42625383972292e-02 3.03042563672912e-04
6.94010416666667e+00 2.40886710083801e-02 3.01437017563842e-04
6.96614583333333e+00 2.39160495677670e-02 2.99837866957588e-04
6.99218750000000e+00 2.37446651468215e-02 2.98245115839513e-04
7.01822916666667e+00 2.35745088811989e-02 2.96658767932256e-04
7.04427083333333e+00 2.34055719695942e-02 2.95078826389334e-04
7.07031250000000e+00 2.32378456740151e-02 2.93505293493016e-04
7.09635416666667e+00 2.30713213193201e-02 2.91938171287523e-04
7.12239583333333e+00 2.29059902920665e-02 2.90377461280599e-04
7.14843750000000e+00 2.27418440407709e-02 2.88823164149206e-04
7.17447916666667e+00 2.25788740754562e-02 2.87275280355542e-04
7.20052083333333e+00 2.24170719665324e-02 2.85733809856285e-04
7.22656250000000e+00 2.22564293450437e-02 2.84198751815989e-04
7.25260416666667e+00 2.20969379022255e-02 2.82670105206380e-04
7.27864583333333e+00 2.19385893884161e-02 2.81147868523131e-04
7.30468750000000e+00 2.17813756132914e-02 2.79632039506676e-04
7.33072916666667e+00 2.16252884454313e-02 2.78122615725283e-04
7.35677083333333e+00 2.14703198112619e-02 2.76619594299173e-04
7.38281250000000e+00 2.13164616952779e-02 2.75122971628510e-04
7.40885416666667e+00 2.11637061396187e-02 2.73632743960825e-04
7.43489583333333e+00 2.10120452430395e-02 2.72148907122216e-04
7.46093750000000e+00 2.08614711611223e-02 2.70671456252340e-04
7.48697916666667e+00 2.07119761058616e-02 2.69200386356619e-04
7.51302083333333e+00 2.05635523446630e-02 2.67735692044309e-04
7.53906250000000e+00 2.04161922005445e-02 2.66277367270342e-04
7.56510416666667e+00 2.02698880517299e-02 2.64825405872725e-04
7.59114583333333e+00 2.01246323306759e-02 2.63379801317392e-04
7.61718750000000e+00 1.99804175242620e-02 2.61940546446640e-04
7.64322916666667e+00 1.98372361733937e-02 2.60507634002145e-04
7.66927083333333e+00 1.96950808720556e-02 2.59081056376359e-04
7.69531250000000e+00 1.95539442674913e-02 2.57660805367436e-04
7.72135416666667e+00 1.94138190598156e-02 2.56246872688281e-04
7.74739583333333e+00 1.92746980010930e-02 2.54839249724329e-04
7.77343750000000e+00 1.91365738955087e-02 2.53437927294735e-04
7.79947916666667e+00 1.89994395989883e-02 2.52042896147863e-04
7.82552083333333e+00 1.88632880183022e-02 2.50654146725290e-04
7.85156250000000e+00 1.87281121112271e-02 2.49271668929103e-04
7.87760416666667e+00 1.85939048861740e-02 2.47895452604238e-04
7.90364583333333e+00 1.84606594013170e-02 2.46525487308498e-04
7.92968750000000e+00 1.83283687647458e-02 2.45161762085799e-04
7.95572916666667e+00 1.81970261341022e-02 2.43804265935754e-04
7.98177083333333e+00 1.80666247157322e-02 2.42452987589541e-04
8.00781250000000e+00 1.79371577648303e-02 2.41107915288909e-04
8.03385416666667e+00 1.78086185850838e-02 2.39769037243378e-04
8.05989583333333e+00 1.76810005278479e-02 2.38436341411810e-04
8.08593750000000e+00 1.75542969922819e-02 2.37109815287082e-04
8.11197916666667e+00 1.74285014250017e-02 2.35789446341165e-04
8.13802083333333e+00 1.73036073192760e-02 2.34475221812277e-04
8.16406250000000e+00 1.71796082151566e-02 2.33167128495054e-04
8.19010416666667e+00 1.70564976991367e-02 2.31865153173891e-04
8.21614583333333e+00 1.69342694033700e-02 2.30569282415512e-04
