Energy (eV)          EEDF (eV^-(3/2))     First Anisotropy
4.10606060606061e-03 5.72591709342334e-01 2.62820687754620e-04
1.23181818181818e-02 5.69602729946268e-01 4.34319015100626e-04
2.05303030303030e-02 5.66629353287859e-01 5.74218196831726e-04
2.87424242424242e-02 5.63671497918536e-01 6.81030590696001e-04
3.69545454545455e-02 5.60729082815967e-01 7.70553200354859e-04
4.51666666666667e-02 5.57802027373688e-01 8.48744344398336e-04
5.33787878787879e-02 5.54890251421248e-01 9.18680450737072e-04
6.15909090909091e-02 5.51993675197911e-01 9.82215165139527e-04
6.98030303030303e-02 5.49112219359485e-01 1.04057516211313e-03
7.80151515151515e-02 5.46245804975998e-01 1.09462553806305e-03
8.62272727272727e-02 5.43394353529618e-01 1.14500528813858e-03
9.44393939393939e-02 5.40557786912431e-01 1.19220336042921e-03
1.02651515151515e-01 5.37736027424264e-01 1.23660447110727e-03
1.10863636363636e-01 5.34928997762514e-01 1.27851824776426e-03
1.19075757575758e-01 5.32136621049902e-01 1.31819860245562e-03
1.27287878787879e-01 5.29358820795456e-01 1.35585707455581e-03
1.35500000000000e-01 5.26595520908114e-01 1.39167229667502e-03
1.43712121212121e-01 5.23846645675016e-01 1.42579688004684e-03
1.51924242424242e-01 5.21112119818438e-01 1.45836254589338e-03
1.60136363636364e-01 5.18391868432788e-01 1.48948401686453e-03
1.68348484848485e-01 5.15685817003401e-01 1.51926200554775e-03
1.76560606060606e-01 5.12993891404915e-01 1.54778556315997e-03
1.84772727272727e-01 5.10316017884558e-01 1.57513393151931e-03
1.92984848484848e-01 5.07652123104265e-01 1.60137803782408e-03
2.01196969696970e-01 5.05002134093385e-01 1.62658170723665e-03
2.09409090909091e-01 5.02365978262220e-01 1.65080264758417e-03
2.17621212121212e-01 4.99743583388082e-01 1.67409326292787e-03
2.25833333333333e-01 4.97134877650057e-01 1.69650133774414e-03
2.34045454545455e-01 4.94539789589413e-01 1.71807061134990e-03
2.42257575757576e-01 4.91958248120383e-01 1.73884125402407e-03
2.50469696969697e-01 4.89390182528354e-01 1.75885028029158e-03
2.58681818181818e-01 4.86835522458092e-01 1.77813189416945e-03
2.66893939393939e-01 4.84294197941714e-01 1.79671779371728e-03
2.75106060606061e-01 4.81766139366290e-01 1.81463743462154e-03
2.83318181818182e-01 4.79251277482208e-01 1.83191825093332e-03
2.91530303030303e-01 4.76749543401448e-01 1.84858585536029e-03
2.99742424242424e-01 4.74260868587391e-01 1.86466420733818e-03
3.07954545454545e-01 4.71785184877952e-01 1.88017576786416e-03
3.16166666666667e-01 4.69322424458281e-01 1.89514163648946e-03
3.24378787878788e-01 4.66872519867513e-01 1.90958166530771e-03
3.32590909090909e-01 4.64435403996991e-01 1.92351456734240e-03
3.40803030303030e-01 4.62011010081365e-01 1.93695800643298e-03
3.49015151515152e-01 4.59599271718093e-01 1.94992868410199e-03
3.57227272727273e-01 4.57200122843955e-01 1.96244241771131e-03
3.65439393939394e-01 4.54813497740604e-01 1.97451420530926e-03
3.73651515151515e-01 4.52439331026483e-01 1.98615828429966e-03
3.81863636363636e-01 4.50077557674135e-01 1.99738818931644e-03
3.90075757575758e-01 4.47728112989041e-01 2.00821680487757e-03
3.98287878787879e-01 4.45390932614364e-01 2.01865640684556e-03
4.06500000000000e-01 4.43065952529252e-01 2.02871870629411e-03
4.14712121212121e-01 4.40753109041546e-01 2.03841488363902e-03
4.22924242424242e-01 4.38452338802758e-01 2.04775562550133e-03
4.31136363636364e-01 4.36163578789396e-01 2.05675115864466e-03
4.39348484848485e-01 4.33886766306939e-01 2.06541127522277e-03
4.47560606060606e-01 4.31621838988167e-01 2.07374536167312e-03
4.55772727272727e-01 4.29368734786555e-01 2.08176241984628e-03
4.63984848484848e-01 4.27127391989351e-01 2.08947109177407e-03
4.72196969696970e-01 4.24897749200924e-01 2.09687968269512e-03
4.80409090909091e-01 4.22679745346133e-01 2.10399617793197e-03
4.88621212121212e-01 4.20473319664206e-01 2.11082825868360e-03
4.96833333333333e-01 4.18278411720604e-01 2.11738332066250e-03
5.05045454545455e-01 4.16094961391672e-01 2.12366849153793e-03
5.13257575757576e-01 4.13922908867589e-01 2.12969064196294e-03
5.21469696969697e-01 4.11762194650765e-01 2.13545640088816e-03
5.29681818181818e-01 4.09612759550191e-01 2.14097216498337e-03
5.37893939393939e-01 4.07474544691955e-01 2.14624411215353e-03
5.46106060606061e-01 4.05347491505364e-01 2.15127821429347e-03
5.54318181818182e-01 4.03231541725451e-01 2.15608024435406e-03
5.62530303030303e-01 4.01126637391421e-01 2.16065578769680e-03
5.70742424242424e-01 3.99032720841423e-01 2.16501024818309e-03
5.78954545454545e-01 3.96949734721926e-01 2.16914885832191e-03
5.87166666666667e-01 3.94877621975079e-01 2.17307668891295e-03
5.95378787878788e-01 3.92816325840876e-01 2.17679865355244e-03
6.03590909090909e-01 3.90765789855614e-01 2.18031951732485e-03
6.11803030303030e-01 3.88725957847059e-01 2.18364390070136e-03
6.20015151515152e-01 3.86696773942833e-01 2.18677628739704e-03
6.28227272727273e-01 3.84678182558856e-01 2.18972103187800e-03
6.36439393939394e-01 3.82670128401206e-01 2.19248236298585e-03
6.44651515151515e-01 3.80672556461548e-01 2.19506438749339e-03
6.52863636363636e-01 3.78685412024877e-01 2.19747109663906e-03
6.61075757575758e-01 3.76708640658681e-01 2.19970637239985e-03
6.69287878787879e-01 3.74742188214583e-01 2.20177398932384e-03
6.77500000000000e-01 3.72786000826873e-01 2.20367762028450e-03
6.85712121212121e-01 3.70840024908232e-01 2.20542083806777e-03
6.93924242424242e-01 3.68904207156721e-01 2.20700712066378e-03
7.02136363636364e-01 3.66978494545789e-01 2.20843985637513e-03
7.10348484848485e-01 3.65062834325677e-01 2.20972234479126e-03
7.18560606060606e-01 3.63157174021999e-01 2.21085780151445e-03
7.26772727272727e-01 3.61261461431721e-01 2.21184935899355e-03
7.34984848484848e-01 3.59375644629499e-01 2.21270007090302e-03
7.43196969696970e-01 3.57499671958422e-01 2.21341291638661e-03
7.51409090909091e-01 3.55633492031231e-01 2.21399080113803e-03
7.59621212121212e-01 3.53777053726511e-01 2.21443655854395e-03
7.67833333333333e-01 3.51930306194570e-01 2.21475295350551e-03
7.76045454545455e-01 3.50093198848702e-01 2.21494268615252e-03
7.84257575757576e-01 3.48265681366259e-01 2.21500839186614e-03
7.92469696969697e-01 3.46447703687288e-01 2.21495264475647e-03
8.00681818181818e-01 3.44639216010932e-01 2.21477795765222e-03
8.08893939393939e-01 3.42840168800790e-01 2.21448678536249e-03
8.17106060606061e-01 3.41050512776776e-01 2.21408152786158e-03
8.25318181818182e-01 3.39270198916049e-01 2.21356452999254e-03
8.33530303030303e-01 3.37499178451674e-01 2.21293808446629e-03
8.41742424242424e-01 3.35737402869229e-01 2.21220443156767e-03
8.49954545454546e-01 3.33984823911694e-01 2.21136576198086e-03
8.58166666666667e-01 3.32241393571860e-01 2.21042421955742e-03
8.66378787878788e-01 3.30507064093115e-01 2.20938190079650e-03
8.74590909090909e-01 3.28781787968146e-01 2.20824085746554e-03
8.82803030303030e-01 3.27065517935724e-01 2.20700309610327e-03
8.91015151515152e-01 3.25358206985180e-01 2.20567058050029e-03
8.99227272727273e-01 3.23659808349299e-01 2.20424523413335e-03
9.07439393939394e-01 3.21970275504997e-01 2.20272894006829e-03
9.15651515151515e-01 3.20289562170239e-01 2.20112354095824e-03
9.23863636363636e-01 3.18617622308230e-01 2.19943084130048e-03
9.32075757575758e-01 3.16954410120657e-01 2.19765260965648e-03
9.40287878787879e-01 3.15299880048272e-01 2.19579057787855e-03
9.48500000000000e-01 3.13653986769653e-01 2.19384644322634e-03
9.56712121212121e-01 3.12016685198281e-01 2.19182186764004e-03
9.64924242424242e-01 3.10387930486383e-01 2.18971847975770e-03
9.73136363636364e-01 3.08767678018588e-01 2.18753787690599e-03
9.81348484848485e-01 3.07155883412414e-01 2.18528162424581e-03
9.89560606060606e-01 3.05552502517066e-01 2.18295125667666e-03
9.97772727272727e-01 3.03957491410650e-01 2.18054827908651e-03
1.00598484848485e+00 3.02370806400587e-01 2.17807416448566e-03
1.01419696969697e+00 3.00792404028618e-01 2.17553035897986e-03
1.02240909090909e+00 2.99222241058585e-01 2.17291828299353e-03
1.03062121212121e+00 2.97660274480014e-01 2.17023932820487e-03
1.03883333333333e+00 2.96106461506970e-01 2.16749485982630e-03
1.04704545454545e+00 2.94560759576864e-01 2.16468622218958e-03
1.05525757575758e+00 2.93023126334943e-01 2.16181472447554e-03
1.06346969696970e+00 2.91493519676449e-01 2.15888165129010e-03
1.07168181818182e+00 2.89971897701862e-01 2.15588827327278e-03
1.07989393939394e+00 2.88458218730378e-01 2.15283583253738e-03
1.08810606060606e+00 2.86952441298776e-01 2.14972554829199e-03
1.09631818181818e+00 2.85454524160256e-01 2.14655861735479e-03
1.10453030303030e+00 2.83964426283352e-01 2.14333621466649e-03
1.11274242424242e+00 2.82482106850787e-01 2.14005949380138e-03
1.12095454545455e+00 2.81007525258353e-01 2.13672959198937e-03
1.12916666666667e+00 2.79540641101028e-01 2.13334761687369e-03
1.13737878787879e+00 2.78081414210432e-01 2.12991465615228e-03
1.14559090909091e+00 2.76629804614916e-01 2.12643178725628e-03
1.15380303030303e+00 2.75185772551488e-01 2.12290006385445e-03
1.16201515151515e+00 2.73749278464710e-01 2.11932052092931e-03
1.17022727272727e+00 2.72320283005637e-01 2.11569417517816e-03
1.17843939393939e+00 2.70898747030734e-01 2.11202202541415e-03
1.18665151515152e+00 2.69484631600799e-01 2.10830505718639e-03
1.19486363636364e+00 2.68077897968317e-01 2.10454423036605e-03
1.20307575757576e+00 2.66678507611354e-01 2.10074048807043e-03
1.21128787878788e+00 2.65286422197327e-01 2.09689476562871e-03
1.21950000000000e+00 2.63901603593752e-01 2.09300797794014e-03
1.22771212121212e+00 2.62524013867198e-01 2.08908102415363e-03
1.23592424242424e+00 2.61153615282247e-01 2.08511478798680e-03
1.24413636363636e+00 2.59790370300474e-01 2.08111013804513e-03
1.25234848484848e+00 2.58434241579407e-01 2.07706793208962e-03
1.26056060606061e+00 2.57085191960976e-01 2.07298900539537e-03
1.26877272727273e+00 2.55743184502275e-01 2.06887417903763e-03
1.27698484848485e+00 2.54408182442576e-01 2.06472426821982e-03
1.28519696969697e+00 2.53080149213045e-01 2.06054007042466e-03
1.29340909090909e+00 2.51759048435742e-01 2.05632236974611e-03
1.30162121212121e+00 2.50444843922615e-01 2.05207193714462e-03
1.30983333333333e+00 2.49137499674527e-01 2.04778953070445e-03
1.31804545454545e+00 2.47836979880261e-01 2.04347589959032e-03
1.32625757575758e+00 2.46543248905939e-01 2.03913177312439e-03
1.33446969696970e+00 2.45256271323014e-01 2.03475786849857e-03
1.34268181818182e+00 2.43976011878156e-01 2.03035489852847e-03
1.35089393939394e+00 2.42702435502065e-01 2.02592356054146e-03
1.35910606060606e+00 2.41435507308503e-01 2.02146454039852e-03
1.36731818181818e+00 2.40175192593335e-01 2.01697851270021e-03
1.37553030303030e+00 2.38921456833594e-01 2.01246614099623e-03
1.38374242424242e+00 2.37674265686525e-01 2.00792807799822e-03
1.39195454545455e+00 2.36433584988649e-01 2.00336496920946e-03
1.40016666666667e+00 2.35199380746157e-01 1.99877744276595e-03
1.40837878787879e+00 2.33971619160126e-01 1.99416611655988e-03
1.41659090909091e+00 2.32750266599294e-01 1.98953160540496e-03
1.42480303030303e+00 2.31535289607961e-01 1.98487451070527e-03
1.43301515151515e+00 2.30326654905059e-01 1.98019542415052e-03
1.44122727272727e+00 2.29124329383259e-01 1.97549492788789e-03
1.44943939393939e+00 2.27928280108055e-01 1.97077359469732e-03
1.45765151515152e+00 2.26738474316862e-01 1.96603199137581e-03
1.46586363636364e+00 2.25554879410185e-01 1.96127066919299e-03
1.47407575757576e+00 2.24377462974666e-01 1.95649017054837e-03
1.48228787878788e+00 2.23206192758120e-01 1.95169103566893e-03
1.49050000000000e+00 2.22041036676718e-01 1.94687379290536e-03
1.49871212121212e+00 2.20881962814109e-01 1.94203896218064e-03
1.50692424242424e+00 2.19728939420550e-01 1.93718705513198e-03
1.51513636363636e+00 2.18581934912038e-01 1.93231857525627e-03
1.52334848484848e+00 2.17440917869440e-01 1.92743402107210e-03
1.53156060606061e+00 2.16305857030351e-01 1.92253387714631e-03
1.53977272727273e+00 2.15176721310212e-01 1.91761862032475e-03
1.54798484848485e+00 2.14053479779359e-01 1.91268872600238e-03
1.55619696969697e+00 2.12936101669585e-01 1.90774465900291e-03
1.56440909090909e+00 2.11824556373293e-01 1.90278687680249e-03
1.57262121212121e+00 2.10718813442656e-01 1.89781582964760e-03
1.58083333333333e+00 2.09618842588797e-01 1.89283196067630e-03
1.58904545454545e+00 2.08524613680945e-01 1.88783570887749e-03
1.59725757575758e+00 2.07436096738916e-01 1.88282750065030e-03
1.60546969696970e+00 2.06353261952504e-01 1.87780775564187e-03
1.61368181818182e+00 2.05276079660337e-01 1.87277689262534e-03
1.62189393939394e+00 2.04204520355877e-01 1.86773532092231e-03
1.63010606060606e+00 2.03138554686614e-01 1.86268344342011e-03
1.63831818181818e+00 2.02078153453257e-01 1.85762165667098e-03
1.64653030303030e+00 2.01023287608941e-01 1.85255035099409e-03
1.65474242424242e+00 1.99973928258430e-01 1.84746991058074e-03
1.66295454545455e+00 1.98930046657324e-01 1.84238071623449e-03
1.67116666666667e+00 1.97891614205166e-01 1.83728313749597e-03
1.67937878787879e+00 1.96858602463075e-01 1.83217753807263e-03
1.68759090909091e+00 1.95830983134449e-01 1.82706428130572e-03
1.69580303030303e+00 1.94808728070397e-01 1.82194372216856e-03
1.70401515151515e+00 1.93791809268965e-01 1.81681621006348e-03
1.71222727272727e+00 1.92780198874375e-01 1.81168208890781e-03
1.72043939393939e+00 1.91773869176260e-01 1.80654169722322e-03
1.72865151515152e+00 1.90772792608902e-01 1.80139537070759e-03
1.73686363636364e+00 1.89776941744845e-01 1.79624343481716e-03
1.74507575757576e+00 1.88786289311140e-01 1.79108620986678e-03
1.75328787878788e+00 1.87800808171504e-01 1.78592401616620e-03
1.76150000000000e+00 1.86820471331312e-01 1.78075716648413e-03
1.76971212121212e+00 1.85845251936851e-01 1.77558596867400e-03
1.77792424242424e+00 1.84875123274584e-01 1.77041072574691e-03
1.78613636363636e+00 1.83910058770428e-01 1.76523173594767e-03
1.79434848484848e+00 1.82950031989015e-01 1.76004929517134e-03
1.80256060606061e+00 1.81995016627768e-01 1.75486368997249e-03
1.81077272727273e+00 1.81044986531880e-01 1.74967520236014e-03
1.81898484848485e+00 1.80099915677813e-01 1.74448411462755e-03
1.82719696969697e+00 1.79159778177873e-01 1.73929070225131e-03
1.83540909090909e+00 1.78224548279502e-01 1.73409523635871e-03
1.84362121212121e+00 1.77294200364570e-01 1.72889798378982e-03
1.85183333333333e+00 1.76368708948680e-01 1.72369920716250e-03
1.86004545454545e+00 1.75448048680466e-01 1.71849916714503e-03
1.86825757575758e+00 1.74532194336080e-01 1.71329811586466e-03
1.87646969696970e+00 1.73621120833031e-01 1.70809630141891e-03
1.88468181818182e+00 1.72714803214895e-01 1.70289397242143e-03
1.89289393939394e+00 1.71813216655518e-01 1.69769137130671e-03
1.90110606060606e+00 1.70916336458345e-01 1.69248873665083e-03
1.90931818181818e+00 1.70024138055734e-01 1.68728630322475e-03
1.91753030303030e+00 1.69136597008293e-01 1.68208430205014e-03
1.92574242424242e+00 1.68253689004205e-01 1.67688296045751e-03
1.93395454545455e+00 1.67375389858564e-01 1.67168250420214e-03
1.94216666666667e+00 1.66501675508291e-01 1.66648315129742e-03
1.95037878787879e+00 1.65632522024803e-01 1.66128511622840e-03
1.95859090909091e+00 1.64767905599962e-01 1.65608861419753e-03
1.96680303030303e+00 1.63907802549909e-01 1.65089385486132e-03
1.97501515151515e+00 1.63052189314418e-01 1.64570104449247e-03
1.98322727272727e+00 1.62201042456247e-01 1.64051038602770e-03
1.99143939393939e+00 1.61354338660503e-01 1.63532207911803e-03
1.99965151515152e+00 1.60512054733997e-01 1.63013632212264e-03
2.00786363636364e+00 1.59674167600512e-01 1.62495330628764e-03
2.01607575757576e+00 1.58840654312531e-01 1.61977321971686e-03
2.02428787878788e+00 1.58011492038183e-01 1.61459625137382e-03
2.03250000000000e+00 1.57186658064784e-01 1.60942258516982e-03
2.04071212121212e+00 1.56366129798208e-01 1.60425240200136e-03
2.04892424242424e+00 1.55549884762276e-01 1.59908587979137e-03
2.05713636363636e+00 1.54737900598135e-01 1.59392319353250e-03
2.06534848484849e+00 1.53930155063648e-01 1.58876451716725e-03
2.07356060606061e+00 1.53126626028978e-01 1.58361001809035e-03
2.08177272727273e+00 1.52327291487460e-01 1.57845986089362e-03
2.08998484848485e+00 1.51532129543459e-01 1.57331421113998e-03
2.09819696969697e+00 1.50741118415639e-01 1.56817322978089e-03
2.10640909090909e+00 1.49954236436363e-01 1.56303707507738e-03
2.11462121212121e+00 1.49171462051100e-01 1.55790590263555e-03
2.12283333333333e+00 1.48392773817838e-01 1.55277986544442e-03
2.13104545454545e+00 1.47618150406494e-01 1.54765911564955e-03
2.13925757575758e+00 1.46847570594790e-01 1.54254379935897e-03
2.14746969696970e+00 1.46081013278344e-01 1.53743406017636e-03
2.15568181818182e+00 1.45318457459369e-01 1.53233004276300e-03
2.16389393939394e+00 1.44559882249684e-01 1.52723188756360e-03
2.17210606060606e+00 1.43805266870150e-01 1.52213973261819e-03
2.18031818181818e+00 1.43054590650094e-01 1.51705371359361e-03
2.18853030303030e+00 1.42307833026745e-01 1.51197396381619e-03
2.19674242424242e+00 1.41564973544677e-01 1.50690061430619e-03
2.20495454545455e+00 1.40825991855238e-01 1.50183379543557e-03
2.21316666666667e+00 1.40090867712740e-01 1.49677363205753e-03
2.22137878787879e+00 1.39359580983731e-01 1.49172024681591e-03
2.22959090909091e+00 1.38632111636568e-01 1.48667376348210e-03
2.23780303030303e+00 1.37908439744172e-01 1.48163430200990e-03
2.24601515151515e+00 1.37188545483485e-01 1.47660198022915e-03
2.25422727272727e+00 1.36472409134927e-01 1.47157691387490e-03
2.26243939393939e+00 1.35760011081858e-01 1.46655921661727e-03
2.27065151515152e+00 1.35051331810038e-01 1.46154900162709e-03
2.27886363636364e+00 1.34346351904055e-01 1.45654637697091e-03
2.28707575757576e+00 1.33645052055953e-01 1.45155144873701e-03
2.29528787878788e+00 1.32947413055496e-01 1.44656432418747e-03
2.30350000000000e+00 1.32253415792731e-01 1.44158510708219e-03
2.31171212121212e+00 1.31563041257457e-01 1.43661389927911e-03
2.31992424242424e+00 1.30876270538708e-01 1.43165080075916e-03
2.32813636363636e+00 1.30193084824238e-01 1.42669590965305e-03
2.33634848484849e+00 1.29513465399999e-01 1.42174932372054e-03
2.34456060606061e+00 1.28837393646804e-01 1.41681113599408e-03
2.35277272727273e+00 1.28164851048349e-01 1.41188143773322e-03
2.36098484848485e+00 1.27495819182127e-01 1.40696032140385e-03
2.36919696969697e+00 1.26830279721799e-01 1.40204787625501e-03
2.37740909090909e+00 1.26168214436692e-01 1.39714418983114e-03
2.38562121212121e+00 1.25509605191297e-01 1.39224934799418e-03
2.39383333333333e+00 1.24854433944773e-01 1.38736343494649e-03
2.40204545454545e+00 1.24202682750458e-01 1.38248653462996e-03
2.41025757575758e+00 1.23554333752728e-01 1.37761872660362e-03
2.41846969696970e+00 1.22909369194477e-01 1.37276008883663e-03
2.42668181818182e+00 1.22267771408627e-01 1.36791070052525e-03
2.43489393939394e+00 1.21629522820321e-01 1.36307063790766e-03
2.44310606060606e+00 1.20994605946447e-01 1.35823997569383e-03
2.45131818181818e+00 1.20363003395153e-01 1.35341878708437e-03
2.45953030303030e+00 1.19734697865378e-01 1.34860714379103e-03
2.46774242424242e+00 1.19109672146372e-01 1.34380511605840e-03
2.47595454545455e+00 1.18487909117227e-01 1.33901277397463e-03
2.48416666666667e+00 1.17869391743964e-01 1.33423018359887e-03
2.49237878787879e+00 1.17254103086434e-01 1.32945740958354e-03
2.50059090909091e+00 1.16642026290449e-01 1.32469451781885e-03
2.50880303030303e+00 1.16033144589804e-01 1.31994157150111e-03
2.51701515151515e+00 1.15427441305812e-01 1.31519863247277e-03
2.52522727272727e+00 1.14824899846852e-01 1.31046576124056e-03
2.53343939393939e+00 1.14225503707912e-01 1.30574301699434e-03
2.54165151515152e+00 1.13629236470138e-01 1.30103045884787e-03
2.54986363636364e+00 1.13036081798101e-01 1.29632814217152e-03
2.55807575757576e+00 1.12446023446232e-01 1.29163612107320e-03
2.56628787878788e+00 1.11859045251462e-01 1.28695445090145e-03
2.57450000000000e+00 1.11275131135093e-01 1.28228318452216e-03
2.58271212121212e+00 1.10694265102359e-01 1.27762237358691e-03
2.59092424242424e+00 1.10116431241989e-01 1.27297206854870e-03
