Energy (eV)          EEDF (eV^-(3/2))     First Anisotropy
2.50000000000000e-02 6.07950836047929e-01 8.39795486470095e-08
7.50000000000000e-02 6.07950516262561e-01 8.96114147743244e-07
1.25000000000000e-01 6.07946831825277e-01 4.44940393309001e-06
1.75000000000000e-01 6.07934897318420e-01 1.17427021944321e-05
2.25000000000000e-01 6.07911530695081e-01 2.17527400801590e-05
2.75000000000000e-01 6.07876513053191e-01 3.35835251465180e-05
3.25000000000000e-01 6.07829104157287e-01 5.43031522360292e-05
3.75000000000000e-01 6.07752670370034e-01 9.26972408259848e-05
4.25000000000000e-01 6.07630493987129e-01 1.51027486131202e-04
4.75000000000000e-01 6.07446291342277e-01 2.30744349712863e-04
5.25000000000000e-01 6.07184782439201e-01 3.26321560466153e-04
5.75000000000000e-01 6.06843150329892e-01 4.28099127362933e-04
6.25000000000000e-01 6.06424722439776e-01 5.76768076950363e-04
6.75000000000000e-01 6.05855983909846e-01 8.26947624010462e-04
7.25000000000000e-01 6.05056157436037e-01 1.13372751108640e-03
7.75000000000000e-01 6.04037333351150e-01 1.51609127701813e-03
8.25000000000000e-01 6.02693959891910e-01 2.06154167354925e-03
8.75000000000000e-01 6.00911445022280e-01 2.68014444103234e-03
9.25000000000000e-01 5.98732370375920e-01 3.26308595404742e-03
9.75000000000000e-01 5.96202480460762e-01 3.82636178564991e-03
1.02500000000000e+00 5.93334109613327e-01 4.73271286632273e-03
1.07500000000000e+00 5.89664679632818e-01 6.43928215319310e-03
1.12500000000000e+00 5.84611350644681e-01 8.86031950688526e-03
1.17500000000000e+00 5.77874246875244e-01 1.16498732413723e-02
1.22500000000000e+00 5.69356343512495e-01 1.45773083895055e-02
1.27500000000000e+00 5.59051835340171e-01 1.74820872144277e-02
1.32500000000000e+00 5.47052336155924e-01 2.02423986209579e-02
1.37500000000000e+00 5.33523119084719e-01 2.29845658885945e-02
1.42500000000000e+00 5.18388484001941e-01 2.60292821271335e-02
1.47500000000000e+00 5.01401840016843e-01 2.94337385209934e-02
1.52500000000000e+00 4.82422743019395e-01 3.32201563494563e-02
1.57500000000000e+00 4.61150649548481e-01 3.71987315257259e-02
1.62500000000000e+00 4.37666787412246e-01 4.11774352706070e-02
1.67500000000000e+00 4.11845322675420e-01 4.55724845063809e-02
1.72500000000000e+00 3.83240380433081e-01 5.12267420992345e-02
1.77500000000000e+00 3.50691066941752e-01 5.72050616989057e-02
1.82500000000000e+00 3.14829807992483e-01 6.31049639924620e-02
1.87500000000000e+00 2.74175965295696e-01 6.75862817049134e-02
1.92500000000000e+00 2.30777759433407e-01 6.73892707715891e-02
1.97500000000000e+00 1.88375116866443e-01 6.16683603386381e-02
2.02500000000000e+00 1.50532739362478e-01 5.26588100487925e-02
2.07500000000000e+00 1.18461774041024e-01 4.34883962103102e-02
2.12500000000000e+00 9.17154349427005e-02 3.51192543116967e-02
2.17500000000000e+00 7.04305635581310e-02 2.79185108545669e-02
2.22500000000000e+00 5.33783367409389e-02 2.20646233624660e-02
2.27500000000000e+00 4.00802750530909e-02 1.69419672707851e-02
2.32500000000000e+00 3.00888685362760e-02 1.26725634570056e-02
2.37500000000000e+00 2.26860166958737e-02 9.47200492466982e-03
2.42500000000000e+00 1.71189040580609e-02 7.12101361755106e-03
2.47500000000000e+00 1.29675770980191e-02 5.28876151203601e-03
2.52500000000000e+00 9.93168585698705e-03 3.87859821128834e-03
2.57500000000000e+00 7.72216648300935e-03 2.86083677483865e-03
2.62500000000000e+00 6.08369508309383e-03 2.14062008966294e-03
2.67500000000000e+00 4.86138243824416e-03 1.61463065245050e-03
2.72500000000000e+00 3.94188995573882e-03 1.22284052076031e-03
2.77500000000000e+00 3.25975375807155e-03 9.25082440691771e-04
2.82500000000000e+00 2.75204315876123e-03 7.05594012705889e-04
2.87500000000000e+00 2.37329743740021e-03 5.54358858063841e-04
2.92500000000000e+00 2.07566243926100e-03 4.51481120017927e-04
2.97500000000000e+00 1.83939355678234e-03 3.66280574722592e-04
3.02500000000000e+00 1.65676143640480e-03 2.93748631676840e-04
3.07500000000000e+00 1.51189054739579e-03 2.36521304159719e-04
3.12500000000000e+00 1.39746374667977e-03 1.89648467427966e-04
3.17500000000000e+00 1.30805240236451e-03 1.52408668570382e-04
3.22500000000000e+00 1.23736234819750e-03 1.24751347222125e-04
3.27500000000000e+00 1.17965175309364e-03 1.04630563970594e-04
3.32500000000000e+00 1.13156505893238e-03 9.00006861445026e-05
3.37500000000000e+00 1.09008624572827e-03 7.97175742969831e-05
3.42500000000000e+00 1.05333902009835e-03 7.24660990668549e-05
3.47500000000000e+00 1.01997370287432e-03 6.69672311646135e-05
3.52500000000000e+00 9.89461824715827e-04 6.22836989525009e-05
3.57500000000000e+00 9.61346516932391e-04 5.82172772002330e-05
3.62500000000000e+00 9.35330012631526e-04 5.42905609869529e-05
3.67500000000000e+00 9.11483467554330e-04 4.97872223006889e-05
3.72500000000000e+00 8.90164960979076e-04 4.48289426808535e-05
3.77500000000000e+00 8.71273621804710e-04 4.02095942536447e-05
3.82500000000000e+00 8.54465048409265e-04 3.64140336387193e-05
3.87500000000000e+00 8.39272586344520e-04 3.35631621903675e-05
3.92500000000000e+00 8.25270006215829e-04 3.16044641835718e-05
3.97500000000000e+00 8.12046199303913e-04 3.04168616133243e-05
4.02500000000000e+00 7.99304184893617e-04 2.97680654548512e-05
4.07500000000000e+00 7.86849642859391e-04 2.93295926055090e-05
4.12500000000000e+00 7.74674313540792e-04 2.89020708545077e-05
4.17500000000000e+00 7.62769553427552e-04 2.84867905303140e-05
4.22500000000000e+00 7.51126396080375e-04 2.81034909236517e-05
4.27500000000000e+00 7.39713357763372e-04 2.77488388109451e-05
4.32500000000000e+00 7.28525195020287e-04 2.73982021048406e-05
4.37500000000000e+00 7.17558085920164e-04 2.70484370576707e-05
4.42500000000000e+00 7.06809489847090e-04 2.67198023164604e-05
4.47500000000000e+00 6.96252875837710e-04 2.64141325751207e-05
4.52500000000000e+00 6.85884940921335e-04 2.61533996959110e-05
4.57500000000000e+00 6.75655993250862e-04 2.59392430104055e-05
4.62500000000000e+00 6.65562539937155e-04 2.57203530393463e-05
4.67500000000000e+00 6.55611299547861e-04 2.54939000425495e-05
4.72500000000000e+00 6.45800915479194e-04 2.52710970203153e-05
4.77500000000000e+00 6.36125574299942e-04 2.50511197181353e-05
4.82500000000000e+00 6.26584692716003e-04 2.48524269623763e-05
4.87500000000000e+00 6.17152283716606e-04 2.46742248445632e-05
4.92500000000000e+00 6.07828834248595e-04 2.45498940728797e-05
4.97500000000000e+00 5.98553140642646e-04 2.43892746365861e-05
5.02500000000000e+00 5.89422449110557e-04 2.41046679558747e-05
5.07500000000000e+00 5.80467753491417e-04 2.39164118660796e-05
5.12500000000000e+00 5.71553258152563e-04 2.38002773765680e-05
5.17500000000000e+00 5.62737320867157e-04 2.36278718236669e-05
5.22500000000000e+00 5.54018778338688e-04 2.34599812046772e-05
5.27500000000000e+00 5.45392434599259e-04 2.32966557529343e-05
5.32500000000000e+00 5.36857190957524e-04 2.31188218805902e-05
5.37500000000000e+00 5.28427730639543e-04 2.29266623480188e-05
5.42500000000000e+00 5.20102628123224e-04 2.27433028342757e-05
5.47500000000000e+00 5.11872710065897e-04 2.25687659543346e-05
5.52500000000000e+00 5.03736701334713e-04 2.24028585995771e-05
5.57500000000000e+00 4.95685726982324e-04 2.22455901764066e-05
5.62500000000000e+00 4.87718654519693e-04 2.20675082501990e-05
5.67500000000000e+00 4.79856715727315e-04 2.18687938589562e-05
5.72500000000000e+00 4.72098347545579e-04 2.16718806584400e-05
5.77500000000000e+00 4.64441996213978e-04 2.14785375229096e-05
5.82500000000000e+00 4.56884892828343e-04 2.13064871290191e-05
5.87500000000000e+00 4.49408782739980e-04 2.11571975501624e-05
5.92500000000000e+00 4.42010170206619e-04 2.10016711276811e-05
5.97500000000000e+00 4.34699807548586e-04 2.08397202146871e-05
6.02500000000000e+00 4.27474210553849e-04 2.06767956624379e-05
6.07500000000000e+00 4.20338150099247e-04 2.05094048311067e-05
6.12500000000000e+00 4.13290523352642e-04 2.03604958286500e-05
6.17500000000000e+00 4.06313108141321e-04 2.02300848081694e-05
6.22500000000000e+00 3.99405074935055e-04 2.01004319220875e-05
6.27500000000000e+00 3.92565617628507e-04 1.99715063993377e-05
6.32500000000000e+00 3.85793951837696e-04 1.98536306498819e-05
6.37500000000000e+00 3.79079306428010e-04 1.97468443191207e-05
6.42500000000000e+00 3.72421014327344e-04 1.96372925049128e-05
6.47500000000000e+00 3.65821720915859e-04 1.95249086219079e-05
6.52500000000000e+00 3.59280785541573e-04 1.94130858604443e-05
6.57500000000000e+00 3.52797586923048e-04 1.93017956517619e-05
6.62500000000000e+00 3.46371521831741e-04 1.92010665330311e-05
6.67500000000000e+00 3.39992420000040e-04 1.91109593337551e-05
6.72500000000000e+00 3.33659757033074e-04 1.90213973250643e-05
6.77500000000000e+00 3.27373011097850e-04 1.89323946888892e-05
6.82500000000000e+00 3.21131663281580e-04 1.88374419800939e-05
6.87500000000000e+00 3.14941386577546e-04 1.87365467654373e-05
6.92500000000000e+00 3.08801608483003e-04 1.86427330937052e-05
6.97500000000000e+00 3.02705676253994e-04 1.85559697463526e-05
7.02500000000000e+00 2.96653114246719e-04 1.84645541528261e-05
7.07500000000000e+00 2.90648210376658e-04 1.83677048163869e-05
7.12500000000000e+00 2.84690964361348e-04 1.82699142003114e-05
7.17500000000000e+00 2.78781425138014e-04 1.81718433824668e-05
7.22500000000000e+00 2.72919168223470e-04 1.80741050339095e-05
7.27500000000000e+00 2.67103718871228e-04 1.79763591849438e-05
7.32500000000000e+00 2.61334884033401e-04 1.78782861874290e-05
7.37500000000000e+00 2.55612486152220e-04 1.77801316780080e-05
7.42500000000000e+00 2.49936181948218e-04 1.76822113009221e-05
7.47500000000000e+00 2.44304623348252e-04 1.75784478039369e-05
7.52500000000000e+00 2.38721370074116e-04 1.74629361548139e-05
7.57500000000000e+00 2.33189768326288e-04 1.73362723968199e-05
7.62500000000000e+00 2.27712955630208e-04 1.71989519313571e-05
7.67500000000000e+00 2.22294292986814e-04 1.70538013693183e-05
7.72500000000000e+00 2.16935084635487e-04 1.69036808325552e-05
7.77500000000000e+00 2.11636353631281e-04 1.67481178908515e-05
7.82500000000000e+00 2.06399692845077e-04 1.65865352584050e-05
7.87500000000000e+00 2.01226827870724e-04 1.64205849692274e-05
7.92500000000000e+00 1.96118294437188e-04 1.62522687891567e-05
7.97500000000000e+00 1.91073664594743e-04 1.60780551240975e-05
8.02500000000000e+00 1.86095696351176e-04 1.58992380435990e-05
8.07500000000000e+00 1.81182775038622e-04 1.57191094466227e-05
8.12500000000000e+00 1.76335642321485e-04 1.55357346186790e-05
8.17500000000000e+00 1.71554985279699e-04 1.53496276802710e-05
8.22500000000000e+00 1.66841224281598e-04 1.51615279710687e-05
8.27500000000000e+00 1.62194219270379e-04 1.49699827646915e-05
8.32500000000000e+00 1.57615300833546e-04 1.47733027290681e-05
8.37500000000000e+00 1.53105829254263e-04 1.45725855391331e-05
8.42500000000000e+00 1.48666448255852e-04 1.43692577182933e-05
8.47500000000000e+00 1.44297143692920e-04 1.41618621311340e-05
8.52500000000000e+00 1.39999467444211e-04 1.39486936712058e-05
8.57500000000000e+00 1.35774869383920e-04 1.37305578301018e-05
8.62500000000000e+00 1.31624399054417e-04 1.35081661294742e-05
8.67500000000000e+00 1.27549142196989e-04 1.32826158813141e-05
8.72500000000000e+00 1.23549470992036e-04 1.30555291168192e-05
8.77500000000000e+00 1.19624838945768e-04 1.28249178935463e-05
8.82500000000000e+00 1.15776854373892e-04 1.25881751504968e-05
8.87500000000000e+00 1.12007352974331e-04 1.23472129354933e-05
8.92500000000000e+00 1.08316763770436e-04 1.21047157705646e-05
8.97500000000000e+00 1.04704390195350e-04 1.18583813413373e-05
9.02500000000000e+00 1.01172090521063e-04 1.16047007951482e-05
9.07500000000000e+00 9.77226529026314e-05 1.13476204757711e-05
9.12500000000000e+00 9.43555061053555e-05 1.10918217462993e-05
9.17500000000000e+00 9.10696826998475e-05 1.08367719640666e-05
9.22500000000000e+00 8.78649556595086e-05 1.05817389891448e-05
9.27500000000000e+00 8.47410318847943e-05 1.03272075917561e-05
9.32500000000000e+00 8.16974008626857e-05 1.00738069029468e-05
9.37500000000000e+00 7.87332415036339e-05 9.82130831188144e-06
9.42500000000000e+00 7.58482000226867e-05 9.56931378697756e-06
9.47500000000000e+00 7.30418732977829e-05 9.31831826637495e-06
9.52500000000000e+00 7.03136194229415e-05 9.06887484016559e-06
9.57500000000000e+00 6.76626365664809e-05 8.82110245636112e-06
9.62500000000000e+00 6.50882267801657e-05 8.57490538787773e-06
9.67500000000000e+00 6.25898423895438e-05 8.33111259954103e-06
9.72500000000000e+00 6.01662940207259e-05 8.09083928047956e-06
9.77500000000000e+00 5.78160852740571e-05 7.85364526115128e-06
9.82500000000000e+00 5.55383147332538e-05 7.61881847507828e-06
9.87500000000000e+00 5.33321783221772e-05 7.38695137254343e-06
9.92500000000000e+00 5.11964287274917e-05 7.15900895878838e-06
9.97500000000000e+00 4.91293453950149e-05 6.93415185040523e-06
1.00250000000000e+01 4.71302122921815e-05 6.71110588198867e-06
1.00750000000000e+01 4.51986275868292e-05 6.49149426468679e-06
1.01250000000000e+01 4.33329059804061e-05 6.27701432015979e-06
1.01750000000000e+01 4.15313645229224e-05 6.06765624467628e-06
1.02250000000000e+01 3.97923401511355e-05 5.86344148117937e-06
1.02750000000000e+01 3.81141207993806e-05 5.66423156170878e-06
1.03250000000000e+01 3.64951432819621e-05 5.46984683297521e-06
1.03750000000000e+01 3.49338512747416e-05 5.28028230904059e-06
1.04250000000000e+01 3.34286987901072e-05 5.09554009363730e-06
1.04750000000000e+01 3.19781303424509e-05 4.91556011294077e-06
1.05250000000000e+01 3.05806498028985e-05 4.74026154839421e-06
1.05750000000000e+01 2.92347763484570e-05 4.56962859249485e-06
1.06250000000000e+01 2.79390357063547e-05 4.40365118136929e-06
1.06750000000000e+01 2.66919554228557e-05 4.24226686274925e-06
1.07250000000000e+01 2.54921105672907e-05 4.08540008291744e-06
1.07750000000000e+01 2.43380924989541e-05 3.93301050939883e-06
1.08250000000000e+01 2.32285111974148e-05 3.78505964187396e-06
1.08750000000000e+01 2.21619862317042e-05 3.64148081537167e-06
1.09250000000000e+01 2.11371776111780e-05 3.50219808018525e-06
1.09750000000000e+01 2.01527646962733e-05 3.36715799620202e-06
1.10250000000000e+01 1.92074485835292e-05 3.23631892932724e-06
1.10750000000000e+01 1.82999300897444e-05 3.10958054282926e-06
1.11250000000000e+01 1.74289790927097e-05 2.98682651159170e-06
1.11750000000000e+01 1.65933853499988e-05 2.86799920523704e-06
1.12250000000000e+01 1.57919607441370e-05 2.75305056775258e-06
1.12750000000000e+01 1.50235212346693e-05 2.64188632500957e-06
1.13250000000000e+01 1.42869422337537e-05 2.53439742282527e-06
1.13750000000000e+01 1.35811219689118e-05 2.43052805636791e-06
1.14250000000000e+01 1.29049752822405e-05 2.33022643135613e-06
1.14750000000000e+01 1.22574322930921e-05 2.23341617627356e-06
1.15250000000000e+01 1.16374590815705e-05 2.14001568958472e-06
1.15750000000000e+01 1.10440429601148e-05 2.04995962435135e-06
1.16250000000000e+01 1.04761939274386e-05 1.96321517671153e-06
1.16750000000000e+01 9.93289744441665e-06 1.87963428240034e-06
1.17250000000000e+01 9.41325719820759e-06 1.79903700460480e-06
1.17750000000000e+01 8.91639558772012e-06 1.72137420291611e-06
1.18250000000000e+01 8.44144943715364e-06 1.64676404279131e-06
1.18750000000000e+01 7.98734616936755e-06 1.57476790807847e-06
1.19250000000000e+01 7.55349264452514e-06 1.50479834247788e-06
1.19750000000000e+01 7.13928886787823e-06 1.43687485351242e-06
1.20250000000000e+01 6.74413364580997e-06 1.37041938596120e-06
1.20750000000000e+01 6.36796096324015e-06 1.30541782353599e-06
1.21250000000000e+01 6.01015061788979e-06 1.24247537886509e-06
1.21750000000000e+01 5.67008556826608e-06 1.18158921949687e-06
1.22250000000000e+01 5.34715159264127e-06 1.12265391848386e-06
1.22750000000000e+01 5.04087009695326e-06 1.06585780363159e-06
1.23250000000000e+01 4.75051409915829e-06 1.01147188895137e-06
1.23750000000000e+01 4.47537855197245e-06 9.59420885883698e-07
1.24250000000000e+01 4.21478439978069e-06 9.09446716604244e-07
1.24750000000000e+01 3.96831676720068e-06 8.61847597195855e-07
1.25250000000000e+01 3.73511345442854e-06 8.17086829775551e-07
1.25750000000000e+01 3.51436272027696e-06 7.75007891728677e-07
1.26250000000000e+01 3.30529807046268e-06 7.35626662496514e-07
1.26750000000000e+01 3.10698721682557e-06 6.98496930495002e-07
1.27250000000000e+01 2.91893680563239e-06 6.63034214133744e-07
1.27750000000000e+01 2.74066815050004e-06 6.29189275914581e-07
1.28250000000000e+01 2.57171878159200e-06 5.97038931645194e-07
1.28750000000000e+01 2.41148051940666e-06 5.66308876497542e-07
1.29250000000000e+01 2.25965959726791e-06 5.36610443769555e-07
1.29750000000000e+01 2.11595905334332e-06 5.07950629910589e-07
1.30250000000000e+01 1.98008270489055e-06 4.80272569415522e-07
1.30750000000000e+01 1.85180861509557e-06 4.53676405671618e-07
1.31250000000000e+01 1.73077983304927e-06 4.28311423761081e-07
1.31750000000000e+01 1.61665047248306e-06 4.04144543671000e-07
1.32250000000000e+01 1.50908372104893e-06 3.81184596113652e-07
1.32750000000000e+01 1.40770058502000e-06 3.59326665332692e-07
1.33250000000000e+01 1.31222881111777e-06 3.38426456234886e-07
1.33750000000000e+01 1.22240135185760e-06 3.18466416250971e-07
1.34250000000000e+01 1.13795667577422e-06 2.99488230700941e-07
1.34750000000000e+01 1.05856251503674e-06 2.81371807049859e-07
1.35250000000000e+01 9.84031972247606e-07 2.63938504783656e-07
1.35750000000000e+01 9.14176698701276e-07 2.47189733298845e-07
1.36250000000000e+01 8.48809272033890e-07 2.31054312062423e-07
1.36750000000000e+01 7.87830220015564e-07 2.15636186306002e-07
1.37250000000000e+01 7.30985514022326e-07 2.01100491109212e-07
1.37750000000000e+01 6.78033573168994e-07 1.87406572094294e-07
1.38250000000000e+01 6.28743824504220e-07 1.74501178648522e-07
1.38750000000000e+01 5.82916412753856e-07 1.62369895173159e-07
1.39250000000000e+01 5.40327341564525e-07 1.51012027773225e-07
1.39750000000000e+01 5.00766168148704e-07 1.40381004437787e-07
1.40250000000000e+01 4.64035581875534e-07 1.30415709405260e-07
1.40750000000000e+01 4.29971994715954e-07 1.21100974063251e-07
1.41250000000000e+01 3.98384839210797e-07 1.12439940196853e-07
1.41750000000000e+01 3.69097082589318e-07 1.04387401610218e-07
1.42250000000000e+01 3.41944075351975e-07 9.69033819180175e-08
1.42750000000000e+01 3.16770174053641e-07 8.99452283350929e-08
1.43250000000000e+01 2.93435340399903e-07 8.34708756833729e-08
1.43750000000000e+01 2.71809413649228e-07 7.74471861379538e-08
1.44250000000000e+01 2.51771207805162e-07 7.18393881322497e-08
1.44750000000000e+01 2.33212983564241e-07 6.66244850584438e-08
1.45250000000000e+01 2.16026163646536e-07 6.17851821199484e-08
1.45750000000000e+01 2.00110144189185e-07 5.72943769564168e-08
1.46250000000000e+01 1.85371727633714e-07 5.31246828499866e-08
1.46750000000000e+01 1.71727359446735e-07 4.92561441569845e-08
1.47250000000000e+01 1.59094884919797e-07 4.56726285055631e-08
1.47750000000000e+01 1.47398368001452e-07 4.23524548646576e-08
1.48250000000000e+01 1.36567892251839e-07 3.92773106139097e-08
1.48750000000000e+01 1.26536318934314e-07 3.64254723732839e-08
1.49250000000000e+01 1.17246198781638e-07 3.37749466338105e-08
1.49750000000000e+01 1.08644254033579e-07 3.13114847597798e-08
1.50250000000000e+01 1.00681014866896e-07 2.90216826420161e-08
1.50750000000000e+01 9.33118069958662e-08 2.68980078256782e-08
1.51250000000000e+01 8.64912689765821e-08 2.49335415814619e-08
1.51750000000000e+01 8.01775588703005e-08 2.31161693734202e-08
1.52250000000000e+01 7.43320698218643e-08 2.14348415843228e-08
1.52750000000000e+01 6.89190288002652e-08 1.98790685537784e-08
1.53250000000000e+01 6.39056739269180e-08 1.84390785468208e-08
1.53750000000000e+01 5.92617123222437e-08 1.71060991173168e-08
1.54250000000000e+01 5.49592473614765e-08 1.58717943860605e-08
1.54750000000000e+01 5.09727565054881e-08 1.47290488214644e-08
1.55250000000000e+01 4.72782530176649e-08 1.36715295906423e-08
1.55750000000000e+01 4.38535646266432e-08 1.26928025803347e-08
1.56250000000000e+01 4.06782541849468e-08 1.17884162704182e-08
1.56750000000000e+01 3.77319441728809e-08 1.09504948589755e-08
1.57250000000000e+01 3.49986072771998e-08 1.01718781301916e-08
1.57750000000000e+01 3.24624720047692e-08 9.44849558443330e-09
