Energy (eV)          EEDF (eV^-(3/2))     First Anisotropy
5.92500000000000e-02 6.21781678059789e-02 5.18510192911484e-05
1.77750000000000e-01 6.11141576301875e-02 8.51745272735422e-05
2.96250000000000e-01 6.00683550937421e-02 1.11264018666281e-04
4.14750000000000e-01 5.90404486224272e-02 1.30383103313156e-04
5.33250000000000e-01 5.80301319737761e-02 1.45758612217805e-04
6.51750000000000e-01 5.70371041458298e-02 1.58630024809675e-04
7.70250000000000e-01 5.60610692874590e-02 1.69648442361314e-04
8.88750000000000e-01 5.51017366102214e-02 1.79212764742418e-04
1.00725000000000e+00 5.41588203017282e-02 1.87591286925833e-04
1.12575000000000e+00 5.32320394404917e-02 1.94976237965451e-04
1.24425000000000e+00 5.23211179122312e-02 2.01511810780987e-04
1.36275000000000e+00 5.14257843276109e-02 2.07310002861578e-04
1.48125000000000e+00 5.05457719413851e-02 2.12460222007899e-04
1.59975000000000e+00 4.96808185729270e-02 2.17035438033386e-04
1.71825000000000e+00 4.88306665281182e-02 2.21096298263887e-04
1.83675000000000e+00 4.79950625225740e-02 2.24693981157041e-04
1.95525000000000e+00 4.71737576061827e-02 2.27872235065618e-04
2.07375000000000e+00 4.63665070889365e-02 2.30668872335467e-04
2.19225000000000e+00 4.55730704680315e-02 2.33116888477696e-04
2.31075000000000e+00 4.47932113562148e-02 2.35245316626194e-04
2.42925000000000e+00 4.40266974113583e-02 2.37079890912159e-04
2.54775000000000e+00 4.32733002672372e-02 2.38643569191739e-04
2.66625000000000e+00 4.25327954654935e-02 2.39956950443364e-04
2.78475000000000e+00 4.18049623887631e-02 2.41038612053449e-04
2.90325000000000e+00 4.10895841949480e-02 2.41905385316773e-04
3.02175000000000e+00 4.03864477526127e-02 2.42572582681430e-04
3.14025000000000e+00 3.96953435774864e-02 2.43054186870973e-04
3.25875000000000e+00 3.90160657700516e-02 2.43363009571793e-04
3.37725000000000e+00 3.83484119542009e-02 2.43510825588793e-04
3.49575000000000e+00 3.76921832169435e-02 2.43508487051720e-04
3.61425000000000e+00 3.70471840491430e-02 2.43366021265487e-04
3.73275000000000e+00 3.64132222872701e-02 2.43092715048455e-04
3.85125000000000e+00 3.57901090561514e-02 2.42697187829194e-04
3.96975000000000e+00 3.51776587126985e-02 2.42187455329147e-04
4.08825000000000e+00 3.45756887905991e-02 2.41570985312900e-04
4.20675000000000e+00 3.39840199459554e-02 2.40854746616047e-04
4.32525000000000e+00 3.34024759038527e-02 2.40045252445216e-04
4.44375000000000e+00 3.28308834058417e-02 2.39148598772772e-04
4.56225000000000e+00 3.22690721583201e-02 2.38170498510534e-04
4.68075000000000e+00 3.17168747817973e-02 2.37116312034792e-04
4.79925000000000e+00 3.11741267610274e-02 2.35991074543933e-04
4.91775000000000e+00 3.06406663959952e-02 2.34799520655231e-04
5.03625000000000e+00 3.01163347537414e-02 2.33546106585945e-04
5.15475000000000e+00 2.96009756210119e-02 2.32235030213054e-04
5.27325000000000e+00 2.90944354577174e-02 2.30870249263538e-04
5.39175000000000e+00 2.85965633511896e-02 2.29455497851759e-04
5.51025000000000e+00 2.81072109712197e-02 2.27994301550895e-04
5.62875000000000e+00 2.76262325258671e-02 2.26489991160174e-04
5.74725000000000e+00 2.71534847180236e-02 2.24945715308589e-04
5.86575000000000e+00 2.66888267027209e-02 2.23364452017711e-04
5.98425000000000e+00 2.62321200451695e-02 2.21749019330806e-04
6.10275000000000e+00 2.57832286795143e-02 2.20102085102376e-04
6.22125000000000e+00 2.53420188682975e-02 2.18426176030877e-04
6.33975000000000e+00 2.49083591626138e-02 2.16723686007697e-04
6.45825000000000e+00 2.44821203629483e-02 2.14996883846946e-04
6.57675000000000e+00 2.40631754806844e-02 2.13247920453421e-04
6.69525000000000e+00 2.36513997002700e-02 2.11478835479682e-04
6.81375000000000e+00 2.32466703420318e-02 2.09691563517660e-04
6.93225000000000e+00 2.28488668256251e-02 2.07887939865389e-04
7.05075000000000e+00 2.24578706341101e-02 2.06069705905194e-04
7.16925000000000e+00 2.20735652786416e-02 2.04238514125881e-04
7.28775000000000e+00 2.16958362637642e-02 2.02395932818323e-04
7.40625000000000e+00 2.13245710533008e-02 2.00543450470784e-04
7.52475000000000e+00 2.09596590368247e-02 1.98682479887837e-04
7.64325000000000e+00 2.06009914967057e-02 1.96814362054426e-04
7.76175000000000e+00 2.02484615757202e-02 1.94940369764601e-04
7.88025000000000e+00 1.99019642452151e-02 1.93061711032666e-04
7.99875000000000e+00 1.95613962738171e-02 1.91179532302842e-04
8.11725000000000e+00 1.92266561966767e-02 1.89294921472091e-04
8.23575000000000e+00 1.88976442852397e-02 1.87408910739515e-04
8.35425000000000e+00 1.85742625175343e-02 1.85522479294561e-04
8.47275000000000e+00 1.82564145489685e-02 1.83636555855197e-04
8.59125000000000e+00 1.79440056836255e-02 1.81752021066293e-04
8.70975000000000e+00 1.76369428460517e-02 1.79869709767632e-04
8.82825000000000e+00 1.73351345535266e-02 1.77990413140178e-04
8.94675000000000e+00 1.70384908888076e-02 1.76114880738535e-04
9.06525000000000e+00 1.67469234733410e-02 1.74243822416935e-04
9.18375000000000e+00 1.64603454409317e-02 1.72377910155494e-04
9.30225000000000e+00 1.61786714118631e-02 1.70517779792959e-04
9.42075000000000e+00 1.59018174674601e-02 1.68664032671730e-04
9.53925000000000e+00 1.56297011250877e-02 1.66817237200458e-04
9.65775000000000e+00 1.53622413135764e-02 1.64977930339199e-04
9.77625000000000e+00 1.50993583490695e-02 1.63146619011701e-04
9.89475000000000e+00 1.48409739112826e-02 1.61323781449049e-04
1.00132500000000e+01 1.45870110201699e-02 1.59509868468659e-04
1.01317500000000e+01 1.43373940129895e-02 1.57705304692295e-04
1.02502500000000e+01 1.40920485217618e-02 1.55910489706527e-04
1.03687500000000e+01 1.38509014511126e-02 1.54125799168862e-04
1.04872500000000e+01 1.36138809564961e-02 1.52351585862501e-04
1.06057500000000e+01 1.33809164227907e-02 1.50588180702517e-04
1.07242500000000e+01 1.31519384432602e-02 1.48835893696057e-04
1.08427500000000e+01 1.29268787988761e-02 1.47095014859041e-04
1.09612500000000e+01 1.27056704379928e-02 1.45365815091592e-04
1.10797500000000e+01 1.24882474563712e-02 1.43648547014382e-04
1.11982500000000e+01 1.22745450775442e-02 1.41943445767865e-04
1.13167500000000e+01 1.20644996335173e-02 1.40250729776312e-04
1.14352500000000e+01 1.18580485458008e-02 1.38570601478406e-04
1.15537500000000e+01 1.16551303067654e-02 1.36903248026075e-04
1.16722500000000e+01 1.14556844613178e-02 1.35248841953105e-04
1.17907500000000e+01 1.12596515888889e-02 1.33607541815029e-04
1.19092500000000e+01 1.10669732857310e-02 1.31979492801689e-04
1.20277500000000e+01 1.08775921475177e-02 1.30364827323756e-04
1.21462500000000e+01 1.06914517522416e-02 1.28763665574462e-04
1.22647500000000e+01 1.05084966434042e-02 1.27176116067715e-04
1.23832500000000e+01 1.03286723134942e-02 1.25602276153693e-04
1.25017500000000e+01 1.01519251877482e-02 1.24042232512947e-04
1.26202500000000e+01 9.97820260818886e-03 1.22496061630026e-04
1.27387500000000e+01 9.80745281793703e-03 1.20963830247539e-04
1.28572500000000e+01 9.63962494579168e-03 1.19445595801537e-04
1.29757500000000e+01 9.47466899107400e-03 1.17941406839063e-04
1.30942500000000e+01 9.31253580873075e-03 1.16451303418647e-04
1.32127500000000e+01 9.15317709469256e-03 1.14975317494524e-04
1.33312500000000e+01 8.99654537148282e-03 1.13513473285264e-04
1.34497500000000e+01 8.84259397407272e-03 1.12065787627491e-04
1.35682500000000e+01 8.69127703597849e-03 1.10632270315367e-04
1.36867500000000e+01 8.54254947559643e-03 1.09212924426420e-04
1.38052500000000e+01 8.39636698277183e-03 1.07807746634303e-04
1.39237500000000e+01 8.25268600559774e-03 1.06416727509060e-04
1.40422500000000e+01 8.11146373743959e-03 1.05039851805390e-04
1.41607500000000e+01 7.97265810418190e-03 1.03677098739449e-04
1.42792500000000e+01 7.83622775169323e-03 1.02328442254635e-04
1.43977500000000e+01 7.70213203350556e-03 1.00993851276821e-04
1.45162500000000e+01 7.57033099870460e-03 9.96732899594891e-05
1.46347500000000e+01 7.44078538002726e-03 9.83667179191506e-05
1.47532500000000e+01 7.31345658216282e-03 9.70740904614594e-05
1.48717500000000e+01 7.18830667025430e-03 9.57953587983972e-05
1.49902500000000e+01 7.06529835859660e-03 9.45304702568937e-05
1.51087500000000e+01 6.94439499952801e-03 9.32793684792096e-05
1.52272500000000e+01 6.82556057251185e-03 9.20419936154179e-05
1.53457500000000e+01 6.70875967340492e-03 9.08182825083164e-05
1.54642500000000e+01 6.59395750390960e-03 8.96081688710325e-05
1.55827500000000e+01 6.48111986120648e-03 8.84115834576376e-05
1.57012500000000e+01 6.37021312776435e-03 8.72284542270395e-05
1.58197500000000e+01 6.26120426132455e-03 8.60587065004018e-05
1.59382500000000e+01 6.15406078505683e-03 8.49022631123543e-05
1.60567500000000e+01 6.04875077788347e-03 8.37590445562306e-05
1.61752500000000e+01 5.94524286496921e-03 8.26289691235652e-05
1.62937500000000e+01 5.84350620837371e-03 8.15119530380708e-05
1.64122500000000e+01 5.74351049786405e-03 8.04079105842984e-05
1.65307500000000e+01 5.64522594188453e-03 7.93167542311918e-05
1.66492500000000e+01 5.54862325868085e-03 7.82383947507346e-05
1.67677500000000e+01 5.45367366757627e-03 7.71727413318625e-05
1.68862500000000e+01 5.36034888039702e-03 7.61197016898303e-05
1.70047500000000e+01 5.26862109304449e-03 7.50791821712046e-05
1.71232500000000e+01 5.17846297721153e-03 7.40510878546345e-05
1.72417500000000e+01 5.08984767224066e-03 7.30353226475781e-05
1.73602500000000e+01 5.00274877712144e-03 7.20317893791210e-05
1.74787500000000e+01 4.91714034262492e-03 7.10403898890385e-05
1.75972500000000e+01 4.83299686357259e-03 7.00610251132402e-05
1.77157500000000e+01 4.75029327123767e-03 6.90935951657271e-05
1.78342500000000e+01 4.66900492587646e-03 6.81379994172044e-05
1.79527500000000e+01 4.58910760938742e-03 6.71941365704557e-05
1.80712500000000e+01 4.51057751809592e-03 6.62619047326107e-05
1.81897500000000e+01 4.43339125566250e-03 6.53412014844190e-05
1.83082500000000e+01 4.35752582611234e-03 6.44319239466305e-05
1.84267500000000e+01 4.28295862698420e-03 6.35339688436074e-05
1.85452500000000e+01 4.20966744259647e-03 6.26472325642522e-05
1.86637500000000e+01 4.13763043742847e-03 6.17716112203550e-05
1.87822500000000e+01 4.06682614961508e-03 6.09070007024636e-05
1.89007500000000e+01 3.99723348455257e-03 6.00532967333566e-05
1.90192500000000e+01 3.92883170861400e-03 5.92103949192077e-05
1.91377500000000e+01 3.86160044297202e-03 5.83781907985333e-05
1.92562500000000e+01 3.79551965752747e-03 5.75565798889961e-05
1.93747500000000e+01 3.73056966494186e-03 5.67454577321478e-05
1.94932500000000e+01 3.66673111477191e-03 5.59447199361896e-05
1.96117500000000e+01 3.60398498770456e-03 5.51542622168111e-05
1.97302500000000e+01 3.54231258989052e-03 5.43739804361868e-05
1.98487500000000e+01 3.48169554737488e-03 5.36037706402013e-05
1.99672500000000e+01 3.42211580062298e-03 5.28435290939544e-05
2.00857500000000e+01 3.36355559913997e-03 5.20931523156211e-05
2.02042500000000e+01 3.30599749618241e-03 5.13525371087220e-05
2.03227500000000e+01 3.24942434356042e-03 5.06215805928607e-05
2.04412500000000e+01 3.19381928652873e-03 4.99001802329886e-05
2.05597500000000e+01 3.13916575876517e-03 4.91882338672478e-05
2.06782500000000e+01 3.08544747743513e-03 4.84856397334444e-05
2.07967500000000e+01 3.03264843834038e-03 4.77922964942017e-05
2.09152500000000e+01 2.98075291115103e-03 4.71081032608471e-05
2.10337500000000e+01 2.92974543471897e-03 4.64329596160704e-05
2.11522500000000e+01 2.87961081247157e-03 4.57667656354051e-05
2.12707500000000e+01 2.83033410788423e-03 4.51094219075754e-05
2.13892500000000e+01 2.78190064003029e-03 4.44608295537520e-05
2.15077500000000e+01 2.73429597920723e-03 4.38208902457552e-05
2.16262500000000e+01 2.68750594263763e-03 4.31895062232362e-05
2.17447500000000e+01 2.64151659024372e-03 4.25665803098916e-05
2.18632500000000e+01 2.59631422049421e-03 4.19520159287362e-05
2.19817500000000e+01 2.55188536632229e-03 4.13457171164682e-05
2.21002500000000e+01 2.50821679111330e-03 4.07475885369661e-05
2.22187500000000e+01 2.46529548476127e-03 4.01575354939490e-05
2.23372500000000e+01 2.42310865979279e-03 3.95754639428268e-05
2.24557500000000e+01 2.38164374755725e-03 3.90012805017757e-05
2.25742500000000e+01 2.34088839448232e-03 3.84348924620702e-05
2.26927500000000e+01 2.30083045839344e-03 3.78762077976924e-05
2.28112500000000e+01 2.26145800489633e-03 3.73251351742544e-05
2.29297500000000e+01 2.22275930382140e-03 3.67815839572511e-05
2.30482500000000e+01 2.18472282572902e-03 3.62454642196796e-05
2.31667500000000e+01 2.14733723847451e-03 3.57166867490436e-05
2.32852500000000e+01 2.11059140383205e-03 3.51951630537633e-05
2.34037500000000e+01 2.07447437417625e-03 3.46808053690226e-05
2.35222500000000e+01 2.03897538922051e-03 3.41735266620676e-05
2.36407500000000e+01 2.00408387281131e-03 3.36732406369823e-05
2.37592500000000e+01 1.96978942977717e-03 3.31798617389633e-05
2.38777500000000e+01 1.93608184283174e-03 3.26933051581096e-05
2.39962500000000e+01 1.90295106952968e-03 3.22134868327478e-05
2.41147500000000e+01 1.87038723927482e-03 3.17403234523140e-05
2.42332500000000e+01 1.83838065037937e-03 3.12737324598054e-05
2.43517500000000e+01 1.80692176717353e-03 3.08136320538245e-05
2.44702500000000e+01 1.77600121716454e-03 3.03599411902303e-05
2.45887500000000e+01 1.74560978824437e-03 2.99125795834110e-05
2.47072500000000e+01 1.71573842594515e-03 2.94714677071977e-05
2.48257500000000e+01 1.68637823074159e-03 2.90365267954290e-05
2.49442500000000e+01 1.65752045539956e-03 2.86076788421847e-05
2.50627500000000e+01 1.62915650237006e-03 2.81848466017046e-05
2.51812500000000e+01 1.60127792122772e-03 2.77679535880002e-05
2.52997500000000e+01 1.57387640615324e-03 2.73569240741751e-05
2.54182500000000e+01 1.54694379345881e-03 2.69516830914707e-05
2.55367500000000e+01 1.52047205915591e-03 2.65521564280438e-05
2.56552500000000e+01 1.49445331656478e-03 2.61582706274886e-05
2.57737500000000e+01 1.46887981396471e-03 2.57699529871180e-05
2.58922500000000e+01 1.44374393228460e-03 2.53871315560118e-05
2.60107500000000e+01 1.41903818283303e-03 2.50097351328454e-05
2.61292500000000e+01 1.39475520506715e-03 2.46376932635053e-05
2.62477500000000e+01 1.37088776439979e-03 2.42709362385051e-05
2.63662500000000e+01 1.34742875004404e-03 2.39093950902090e-05
2.64847500000000e+01 1.32437117289478e-03 2.35530015898744e-05
2.66032500000000e+01 1.30170816344639e-03 2.32016882445194e-05
2.67217500000000e+01 1.27943296974616e-03 2.28553882936254e-05
2.68402500000000e+01 1.25753895538268e-03 2.25140357056859e-05
2.69587500000000e+01 1.23601959750866e-03 2.21775651746017e-05
2.70772500000000e+01 1.21486848489760e-03 2.18459121159397e-05
2.71957500000000e+01 1.19407931603371e-03 2.15190126630571e-05
2.73142500000000e+01 1.17364589723447e-03 2.11968036630965e-05
2.74327500000000e+01 1.15356214080541e-03 2.08792226728657e-05
2.75512500000000e+01 1.13382206322637e-03 2.05662079546020e-05
2.76697500000000e+01 1.11441978336888e-03 2.02576984716302e-05
2.77882500000000e+01 1.09534952074397e-03 1.99536338839220e-05
2.79067500000000e+01 1.07660559378002e-03 1.96539545435590e-05
2.80252500000000e+01 1.05818241813002e-03 1.93586014901095e-05
2.81437500000000e+01 1.04007450500792e-03 1.90675164459207e-05
2.82622500000000e+01 1.02227645955326e-03 1.87806418113340e-05
2.83807500000000e+01 1.00478297922396e-03 1.84979206598278e-05
2.84992500000000e+01 9.87588852216527e-04 1.82192967330929e-05
2.86177500000000e+01 9.70688955913297e-04 1.79447144360434e-05
2.87362500000000e+01 9.54078255356272e-04 1.76741188317731e-05
2.88547500000000e+01 9.37751801747061e-04 1.74074556364561e-05
2.89732500000000e+01 9.21704730972494e-04 1.71446712141964e-05
2.90917500000000e+01 9.05932262155465e-04 1.68857125718344e-05
2.92102500000000e+01 8.90429696230571e-04 1.66305273537113e-05
2.93287500000000e+01 8.75192414544130e-04 1.63790638363967e-05
2.94472500000000e+01 8.60215877478151e-04 1.61312709233800e-05
2.95657500000000e+01 8.45495623097855e-04 1.58870981397336e-05
2.96842500000000e+01 8.31027265822337e-04 1.56464956267484e-05
2.98027500000000e+01 8.16806495117977e-04 1.54094141365444e-05
2.99212500000000e+01 8.02829074214212e-04 1.51758050266620e-05
3.00397500000000e+01 7.89090838841277e-04 1.49456202546352e-05
3.01582500000000e+01 7.75587695989558e-04 1.47188123725491e-05
3.02767500000000e+01 7.62315622690162e-04 1.44953345215861e-05
3.03952500000000e+01 7.49270664816366e-04 1.42751404265627e-05
3.05137500000000e+01 7.36448935905567e-04 1.40581843904596e-05
3.06322500000000e+01 7.23846616001394e-04 1.38444212889464e-05
3.07507500000000e+01 7.11459950515639e-04 1.36338065649049e-05
3.08692500000000e+01 6.99285249109655e-04 1.34262962229526e-05
3.09877500000000e+01 6.87318884594901e-04 1.32218468239685e-05
3.11062500000000e+01 6.75557291852299e-04 1.30204154796219e-05
3.12247500000000e+01 6.63996966770085e-04 1.28219598469102e-05
3.13432500000000e+01 6.52634465199833e-04 1.26264381227031e-05
3.14617500000000e+01 6.41466401930350e-04 1.24338090382957e-05
3.15802500000000e+01 6.30489449679119e-04 1.22440318539765e-05
3.16987500000000e+01 6.19700338101014e-04 1.20570663536062e-05
3.18172500000000e+01 6.09095852813965e-04 1.18728728392123e-05
3.19357500000000e+01 5.98672834441310e-04 1.16914121256014e-05
3.20542500000000e+01 5.88428177670518e-04 1.15126455349866e-05
3.21727500000000e+01 5.78358830328037e-04 1.13365348916365e-05
3.22912500000000e+01 5.68461792469961e-04 1.11630425165441e-05
3.24097500000000e+01 5.58734115488261e-04 1.09921312221183e-05
3.25282500000000e+01 5.49172901232312e-04 1.08237643068972e-05
3.26467500000000e+01 5.39775301145455e-04 1.06579055502860e-05
3.27652500000000e+01 5.30538515416323e-04 1.04945192073206e-05
3.28837500000000e+01 5.21459792144709e-04 1.03335700034568e-05
3.30022500000000e+01 5.12536426521686e-04 1.01750231293873e-05
3.31207500000000e+01 5.03765760023776e-04 1.00188442358861e-05
3.32392500000000e+01 4.95145179620897e-04 9.86499942868306e-06
3.33577500000000e+01 4.86672116997866e-04 9.71345526336740e-06
3.34762500000000e+01 4.78344047789229e-04 9.56417874032201e-06
3.35947500000000e+01 4.70158490827178e-04 9.41713729968868e-06
3.37132500000000e+01 4.62113007402340e-04 9.27229881636606e-06
3.38317500000000e+01 4.54205200537220e-04 9.12963159504034e-06
3.39502500000000e+01 4.46432714272071e-04 8.98910436524813e-06
3.40687500000000e+01 4.38793232962987e-04 8.85068627647446e-06
3.41872500000000e+01 4.31284480592007e-04 8.71434689328454e-06
3.43057500000000e+01 4.23904220089026e-04 8.58005619048982e-06
3.44242500000000e+01 4.16650252665308e-04 8.44778454835097e-06
3.45427500000000e+01 4.09520417158401e-04 8.31750274781529e-06
3.46612500000000e+01 4.02512589388272e-04 8.18918196579060e-06
3.47797500000000e+01 3.95624681524448e-04 8.06279377045584e-06
3.48982500000000e+01 3.88854641463996e-04 7.93831011660865e-06
3.50167500000000e+01 3.82200452220140e-04 7.81570334104996e-06
3.51352500000000e+01 3.75660131321345e-04 7.69494615800585e-06
3.52537500000000e+01 3.69231730220685e-04 7.57601165458790e-06
3.53722500000000e+01 3.62913333715310e-04 7.45887328629069e-06
3.54907500000000e+01 3.56703059375859e-04 7.34350487252777e-06
3.56092500000000e+01 3.50599056985626e-04 7.22988059220645e-06
3.57277500000000e+01 3.44599507989331e-04 7.11797497934069e-06
3.58462500000000e+01 3.38702624951321e-04 7.00776291870250e-06
3.59647500000000e+01 3.32906651023039e-04 6.89921964151252e-06
3.60832500000000e+01 3.27209859419612e-04 6.79232072116943e-06
3.62017500000000e+01 3.21610552905393e-04 6.68704206901837e-06
3.63202500000000e+01 3.16107063288305e-04 6.58335993015820e-06
3.64387500000000e+01 3.10697750922840e-04 6.48125087928806e-06
3.65572500000000e+01 3.05381004221560e-04 6.38069181659319e-06
3.66757500000000e+01 3.00155239174965e-04 6.28165996366961e-06
3.67942500000000e+01 2.95018898879564e-04 6.18413285948792e-06
3.69127500000000e+01 2.89970453074037e-04 6.08808835639662e-06
3.70312500000000e+01 2.85008397683322e-04 5.99350461616417e-06
3.71497500000000e+01 2.80131254370508e-04 5.90036010606013e-06
3.72682500000000e+01 2.75337570096399e-04 5.80863359497553e-06
3.73867500000000e+01 2.70625916686614e-04 5.71830414958186e-06
