Energy (eV)          EEDF (eV^-(3/2))     First Anisotropy
5.84210526315789e-04 6.85299272636459e+01 4.54047905659473e-02
1.75263157894737e-03 6.72963413313508e+01 7.45520322466035e-02
2.92105263157895e-03 6.60849607928674e+01 9.72997602147514e-02
4.08947368421053e-03 6.48953859410093e+01 1.13916233012115e-01
5.25789473684211e-03 6.37272242571801e+01 1.27234767263098e-01
6.42631578947368e-03 6.25800902892107e+01 1.38345246250536e-01
7.59473684210526e-03 6.14536055226858e+01 1.47820953248042e-01
8.76315789473684e-03 6.03473982588409e+01 1.56013555848452e-01
9.93157894736842e-03 5.92611034885403e+01 1.63159862969143e-01
1.11000000000000e-02 5.81943627711705e+01 1.69429734014486e-01
1.22684210526316e-02 5.71468241251221e+01 1.74950714966557e-01
1.34368421052632e-02 5.61181418944707e+01 1.79821968340745e-01
1.46052631578947e-02 5.51079766554563e+01 1.84122725081986e-01
1.57736842105263e-02 5.41159950852036e+01 1.87917700191778e-01
1.69421052631579e-02 5.31418698689416e+01 1.91260717834072e-01
1.81105263157895e-02 5.21852795765123e+01 1.94197226338424e-01
1.92789473684211e-02 5.12459085703483e+01 1.96766096073956e-01
2.04473684210526e-02 5.03234468885201e+01 1.99000937791333e-01
2.16157894736842e-02 4.94175901541953e+01 2.00931090722930e-01
2.27842105263158e-02 4.85280394643981e+01 2.02582377483873e-01
2.39526315789474e-02 4.76545012991564e+01 2.03977690301780e-01
2.51210526315789e-02 4.67966874242764e+01 2.05137453653084e-01
2.62894736842105e-02 4.59543147895435e+01 2.06079993524194e-01
2.74578947368421e-02 4.51271054439754e+01 2.06821836171225e-01
2.86263157894737e-02 4.43147864360420e+01 2.07377952298035e-01
2.97947368421053e-02 4.35170897311413e+01 2.07761958572228e-01
3.09631578947368e-02 4.27337521160921e+01 2.07986285474067e-01
3.21315789473684e-02 4.19645151189167e+01 2.08062318201840e-01
3.33000000000000e-02 4.12091249173134e+01 2.08000515902590e-01
3.44684210526316e-02 4.04673322607855e+01 2.07810513214645e-01
3.56368421052632e-02 3.97388923828462e+01 2.07501207354253e-01
3.68052631578947e-02 3.90235649255016e+01 2.07080833200482e-01
3.79736842105263e-02 3.83211138549737e+01 2.06557028443018e-01
3.91421052631579e-02 3.76313073885263e+01 2.05936890351257e-01
4.03105263157895e-02 3.69539179135163e+01 2.05227025531726e-01
4.14789473684211e-02 3.62887219165349e+01 2.04433593688713e-01
4.26473684210526e-02 3.56354999056187e+01 2.03562346323351e-01
4.38157894736842e-02 3.49940363416687e+01 2.02618661045459e-01
4.49842105263158e-02 3.43641195636674e+01 2.01607572177465e-01
4.61526315789474e-02 3.37455417215275e+01 2.00533797983832e-01
4.73210526315790e-02 3.31380987074037e+01 1.99401765308650e-01
4.84894736842105e-02 3.25415900859310e+01 1.98215631534646e-01
4.96578947368421e-02 3.19558190312500e+01 1.96979304485511e-01
5.08263157894737e-02 3.13805922590387e+01 1.95696460436255e-01
5.19947368421053e-02 3.08157199656271e+01 1.94370560430465e-01
5.31631578947368e-02 3.02610157626012e+01 1.93004865145549e-01
5.43315789473684e-02 2.97162966179517e+01 1.91602448424494e-01
5.55000000000000e-02 2.91813827931403e+01 1.90166209664553e-01
5.66684210526316e-02 2.86560977862274e+01 1.88698885142543e-01
5.78368421052632e-02 2.81402682712969e+01 1.87203058430329e-01
5.90052631578947e-02 2.76337240435067e+01 1.85681169952536e-01
6.01736842105263e-02 2.71362979607742e+01 1.84135525812818e-01
6.13421052631579e-02 2.66478258906939e+01 1.82568305920927e-01
6.25105263157895e-02 2.61681466543913e+01 1.80981571526347e-01
6.36789473684211e-02 2.56971019752515e+01 1.79377272176421e-01
6.48473684210526e-02 2.52345364248539e+01 1.77757252188952e-01
6.60157894736842e-02 2.47802973734575e+01 1.76123256646887e-01
6.71842105263158e-02 2.43342349379329e+01 1.74476937004248e-01
6.83526315789474e-02 2.38962019335661e+01 1.72819856233604e-01
6.95210526315790e-02 2.34660538254480e+01 1.71153493756903e-01
7.06894736842105e-02 2.30436486796358e+01 1.69479249929927e-01
7.18578947368421e-02 2.26288471178300e+01 1.67798450286361e-01
7.30263157894737e-02 2.22215122699284e+01 1.66112349513571e-01
7.41947368421053e-02 2.18215097302681e+01 1.64422135162583e-01
7.53631578947368e-02 2.14287075119219e+01 1.62728931144068e-01
7.65315789473684e-02 2.10429760044543e+01 1.61033800996159e-01
7.77000000000000e-02 2.06641879298928e+01 1.59337750970989e-01
7.88684210526316e-02 2.02922183019495e+01 1.57641732924144e-01
8.00368421052632e-02 1.99269443836026e+01 1.55946647049812e-01
8.12052631578947e-02 1.95682456477355e+01 1.54253344444752e-01
8.23736842105263e-02 1.92160037362670e+01 1.52562629540328e-01
8.35421052631579e-02 1.88701024221610e+01 1.50875262385086e-01
8.47105263157895e-02 1.85304275700474e+01 1.49191960814051e-01
8.58789473684211e-02 1.81968670995558e+01 1.47513402486895e-01
8.70473684210526e-02 1.78693109473711e+01 1.45840226828475e-01
8.82157894736842e-02 1.75476510318472e+01 1.44173036853781e-01
8.93842105263158e-02 1.72317812164436e+01 1.42512400915510e-01
9.05526315789474e-02 1.69215972753707e+01 1.40858854313753e-01
9.17210526315790e-02 1.66169968591768e+01 1.39212900902851e-01
9.28894736842105e-02 1.63178794603650e+01 1.37575014541715e-01
9.40578947368421e-02 1.60241463810355e+01 1.35945640501875e-01
9.52263157894737e-02 1.57357006995382e+01 1.34325196807428e-01
9.63947368421053e-02 1.54524472392484e+01 1.32714075497991e-01
9.75631578947369e-02 1.51742925364287e+01 1.31112643839893e-01
9.87315789473684e-02 1.49011448101000e+01 1.29521245468323e-01
9.99000000000000e-02 1.46329139310682e+01 1.27940201512654e-01
1.01068421052632e-01 1.43695113920695e+01 1.26369811538181e-01
1.02236842105263e-01 1.41108502804565e+01 1.24810354614727e-01
1.03405263157895e-01 1.38568452472624e+01 1.23262090309182e-01
1.04573684210526e-01 1.36074124798606e+01 1.21725259489377e-01
1.05742105263158e-01 1.33624696743099e+01 1.20200085216679e-01
1.06910526315789e-01 1.31219360081973e+01 1.18686773564066e-01
1.08078947368421e-01 1.28857321139687e+01 1.17185514396728e-01
1.09247368421053e-01 1.26537800527414e+01 1.15696482117148e-01
1.10415789473684e-01 1.24260032885860e+01 1.14219836376489e-01
1.11584210526316e-01 1.22023266632732e+01 1.12755722754044e-01
1.12752631578947e-01 1.19826763714726e+01 1.11304273406197e-01
1.13921052631579e-01 1.17669799364021e+01 1.09865607686620e-01
1.15089473684211e-01 1.15551661859115e+01 1.08439832739147e-01
1.16257894736842e-01 1.13471652289988e+01 1.07027044064427e-01
1.17426315789474e-01 1.11429084327482e+01 1.05627326061830e-01
1.18594736842105e-01 1.09423283996838e+01 1.04240752547729e-01
1.19763157894737e-01 1.07453589455310e+01 1.02867387251319e-01
1.20931578947368e-01 1.05519350773777e+01 1.01507284289005e-01
1.22100000000000e-01 1.03619929722294e+01 1.00160488654515e-01
1.23268421052632e-01 1.01754699550486e+01 9.88270365427519e-02
1.24436842105263e-01 9.99230448081870e+00 9.75069558369073e-02
1.25605263157895e-01 9.81243611144910e+00 9.62002665964140e-02
1.26773684210526e-01 9.63580549677663e+00 9.49069813075502e-02
1.27942105263158e-01 9.46235435498210e+00 9.36271052931516e-02
1.29110526315789e-01 9.29202545335935e+00 9.23606370624355e-02
1.30278947368421e-01 9.12476258943048e+00 9.11075686461097e-02
1.31447368421053e-01 8.96051057240107e+00 8.98678859174078e-02
1.32615789473684e-01 8.79921520494914e+00 8.86415688996867e-02
1.33784210526316e-01 8.64082326534195e+00 8.74285920611697e-02
1.34952631578947e-01 8.48528248987428e+00 8.62289245973403e-02
1.36121052631579e-01 8.33254155562421e+00 8.50425307016098e-02
1.37289473684211e-01 8.18255006351787e+00 8.38693698247607e-02
1.38457894736842e-01 8.03525852169958e+00 8.27093969235468e-02
1.39626315789474e-01 7.89061832920122e+00 8.15625626989951e-02
1.40794736842105e-01 7.74858175990568e+00 8.04288138248119e-02
1.41963157894737e-01 7.60910194679893e+00 7.93080931663330e-02
1.43131578947368e-01 7.47213286650558e+00 7.82003399903950e-02
1.44300000000000e-01 7.33762932410277e+00 7.71054901900076e-02
1.45468421052632e-01 7.20554693766728e+00 7.60234764052983e-02
1.46636842105263e-01 7.07584212527585e+00 7.49542282542817e-02
1.47805263157895e-01 6.94847208895503e+00 7.38976725688811e-02
1.48973684210526e-01 6.82339480112446e+00 7.28537334794098e-02
1.50142105263158e-01 6.70056899072928e+00 7.18223326063546e-02
1.51310526315789e-01 6.57995412962209e+00 7.08033892163982e-02
1.52478947368421e-01 6.46151041919018e+00 6.97968203719551e-02
1.53647368421053e-01 6.34519877722334e+00 6.88025410744781e-02
1.54815789473684e-01 6.23098082501816e+00 6.78204644017821e-02
1.55984210526316e-01 6.11881887471437e+00 6.68505016396414e-02
1.57152631578947e-01 6.00867591685900e+00 6.58925624078427e-02
1.58321052631579e-01 5.90051560819503e+00 6.49465547809721e-02
1.59489473684211e-01 5.79430225966920e+00 6.40123854041417e-02
1.60657894736842e-01 5.69000082465581e+00 6.30899596037962e-02
1.61826315789474e-01 5.58757688739267e+00 6.21791814938501e-02
1.62994736842105e-01 5.48699665162504e+00 6.12799540773092e-02
1.64163157894737e-01 5.38822692945412e+00 6.03921793435749e-02
1.65331578947368e-01 5.29123513038619e+00 5.95157583615867e-02
1.66500000000000e-01 5.19598925057893e+00 5.86505913844450e-02
1.67668421052632e-01 5.10245786194956e+00 5.77965778874128e-02
1.68836842105263e-01 5.01061010281433e+00 5.69536166795967e-02
1.70005263157895e-01 4.92041566668076e+00 5.61216060210040e-02
1.71173684210526e-01 4.83184479259413e+00 5.53004436408401e-02
1.72342105263158e-01 4.74486825531748e+00 5.44900268280117e-02
1.73510526315789e-01 4.65945735568831e+00 5.36902524993561e-02
1.74678947368421e-01 4.57558391114884e+00 5.29010172648380e-02
1.75847368421053e-01 4.49322024644678e+00 5.21222174898300e-02
1.77015789473684e-01 4.41233918450353e+00 5.13537493545970e-02
1.78184210526316e-01 4.33291403744664e+00 5.05955089110904e-02
1.79352631578947e-01 4.25491859780365e+00 4.98473921371355e-02
1.80521052631579e-01 4.17832712985488e+00 4.91092949881388e-02
1.81689473684211e-01 4.10311436114131e+00 4.83811134464177e-02
1.82857894736842e-01 4.02925547412569e+00 4.76627435682041e-02
1.84026315789474e-01 3.95672609800353e+00 4.69540815284435e-02
1.85194736842105e-01 3.88550230066166e+00 4.62550236634646e-02
1.86363157894737e-01 3.81556058078148e+00 4.55654665115987e-02
1.87531578947368e-01 3.74687786008433e+00 4.48853068518341e-02
1.88700000000000e-01 3.67943147571648e+00 4.42144417508630e-02
1.89868421052632e-01 3.61319917256391e+00 4.35527685665996e-02
1.91036842105263e-01 3.54815909653974e+00 4.29001850012699e-02
1.92205263157895e-01 3.48428978673321e+00 4.22565891589509e-02
1.93373684210526e-01 3.42157016854475e+00 4.16218795379246e-02
1.94542105263158e-01 3.35997954673215e+00 4.09959550717407e-02
1.95710526315789e-01 3.29949759858183e+00 4.03787151560519e-02
1.96878947368421e-01 3.24010436720308e+00 3.97700596740116e-02
1.98047368421053e-01 3.18178025494302e+00 3.91698890202889e-02
1.99215789473684e-01 3.12450601692003e+00 3.85781041237555e-02
2.00384210526316e-01 3.06826275467364e+00 3.79946064688989e-02
2.01552631578947e-01 3.01303190992867e+00 3.74192981159960e-02
2.02721052631579e-01 2.95879525847175e+00 3.68520817201165e-02
2.03889473684211e-01 2.90553490413793e+00 3.62928605489993e-02
2.05057894736842e-01 2.85323327290560e+00 3.57415384998293e-02
2.06226315789474e-01 2.80187310709766e+00 3.51980201149695e-02
2.07394736842105e-01 2.75143745968710e+00 3.46622105966893e-02
2.08563157894737e-01 2.70190968870510e+00 3.41340158209284e-02
2.09731578947368e-01 2.65327345174976e+00 3.36133423501306e-02
2.10900000000000e-01 2.60551270059370e+00 3.31000974520793e-02
2.12068421052632e-01 2.55861167575727e+00 3.25941890899651e-02
2.13236842105263e-01 2.51255490170833e+00 3.20955259459282e-02
2.14405263157895e-01 2.46732718135033e+00 3.16040174480360e-02
2.15573684210526e-01 2.42291359114499e+00 3.11195737538439e-02
2.16742105263158e-01 2.37929947618798e+00 3.06421057669266e-02
2.17910526315789e-01 2.33647044537338e+00 3.01715251441817e-02
2.19078947368421e-01 2.29441236664511e+00 2.97077443024675e-02
2.20247368421053e-01 2.25311136233386e+00 2.92506764246017e-02
2.21415789473684e-01 2.21255380457792e+00 2.88002354647434e-02
2.22584210526316e-01 2.17272631082652e+00 2.83563361531911e-02
2.23752631578947e-01 2.13361573942398e+00 2.79188940006116e-02
2.24921052631579e-01 2.09520918527355e+00 2.74878253017294e-02
2.26089473684211e-01 2.05749397557912e+00 2.70630471385075e-02
2.27257894736842e-01 2.02045766566366e+00 2.66444773828240e-02
2.28426315789474e-01 1.98408803486290e+00 2.62320346986777e-02
2.29594736842105e-01 1.94837308249298e+00 2.58256385439396e-02
2.30763157894737e-01 1.91330102389061e+00 2.54252091716693e-02
2.31931578947368e-01 1.87886028652459e+00 2.50306676310182e-02
2.33100000000000e-01 1.84503950617725e+00 2.46419357723726e-02
2.34268421052632e-01 1.81182752311047e+00 2.42589362333336e-02
2.35436842105263e-01 1.77921337863952e+00 2.38815924473934e-02
2.36605263157895e-01 1.74718631125730e+00 2.35098286551640e-02
2.37773684210526e-01 1.71573575317132e+00 2.31435698865038e-02
2.38942105263158e-01 1.68485132681659e+00 2.27827419650389e-02
2.40110526315789e-01 1.65452284143147e+00 2.24272715066336e-02
2.41278947368421e-01 1.62474028969509e+00 2.20770859175776e-02
2.42447368421053e-01 1.59549384442521e+00 2.17321133925002e-02
2.43615789473684e-01 1.56677385533570e+00 2.13922829120247e-02
2.44784210526316e-01 1.53857084585221e+00 2.10575242401754e-02
2.45952631578947e-01 1.51087550998525e+00 2.07277679215476e-02
2.47121052631579e-01 1.48367870925959e+00 2.04029452782570e-02
2.48289473684211e-01 1.45697146969885e+00 2.00829884066797e-02
2.49457894736842e-01 1.43074497886444e+00 1.97678301739857e-02
2.50626315789474e-01 1.40499058294772e+00 1.94574042144864e-02
2.51794736842105e-01 1.37969978391458e+00 1.91516449257975e-02
2.52963157894737e-01 1.35486423670141e+00 1.88504874648331e-02
2.54131578947368e-01 1.33047574646146e+00 1.85538677436396e-02
2.55300000000000e-01 1.30652626586093e+00 1.82617224282117e-02
2.56468421052632e-01 1.28300789236907e+00 1.79739889244645e-02
2.57636842105263e-01 1.25991286581632e+00 1.76906053796468e-02
2.58805263157895e-01 1.23723356566580e+00 1.74115106856231e-02
2.59973684210526e-01 1.21496250855555e+00 1.71366444625419e-02
2.61142105263158e-01 1.19309234582928e+00 1.68659470577673e-02
2.62310526315789e-01 1.17161586111158e+00 1.65993595408140e-02
2.63478947368421e-01 1.15052596792680e+00 1.63368236981833e-02
2.64647368421053e-01 1.12981570736071e+00 1.60782820281092e-02
2.65815789473684e-01 1.10947824576436e+00 1.58236777352179e-02
2.66984210526316e-01 1.08950687249919e+00 1.55729547251082e-02
2.68152631578947e-01 1.06989499772275e+00 1.53260575988571e-02
2.69321052631579e-01 1.05063615021430e+00 1.50829316474575e-02
2.70489473684211e-01 1.03172397523956e+00 1.48435228461971e-02
2.71657894736842e-01 1.01315223245385e+00 1.46077778489762e-02
2.72826315789474e-01 9.94914793842984e-01 1.43756439825742e-02
2.73994736842105e-01 9.77005641701267e-01 1.41470692408682e-02
2.75163157894737e-01 9.59418866645862e-01 1.39220022790102e-02
2.76331578947368e-01 9.42148665666893e-01 1.37003924075640e-02
2.77500000000000e-01 9.25189340212671e-01 1.34821895887389e-02
2.78668421052632e-01 9.08535294273872e-01 1.32673444239714e-02
2.79836842105263e-01 8.92181032644983e-01 1.30558081520467e-02
2.81005263157895e-01 8.76121159001674e-01 1.28475326485727e-02
2.82173684210526e-01 8.60350374157175e-01 1.26424704121812e-02
2.83342105263158e-01 8.44863474313735e-01 1.24405745611604e-02
2.84510526315789e-01 8.29655349345552e-01 1.22417988274337e-02
2.85678947368421e-01 8.14720981112613e-01 1.20460975505283e-02
2.86847368421053e-01 8.00055441804889e-01 1.18534256715385e-02
2.88015789473684e-01 7.85653892316331e-01 1.16637387270861e-02
2.89184210526316e-01 7.71511580648136e-01 1.14769928432796e-02
2.90352631578947e-01 7.57623840340749e-01 1.12931447296756e-02
2.91521052631579e-01 7.43986088934117e-01 1.11121516732458e-02
2.92689473684211e-01 7.30593826455628e-01 1.09339715323524e-02
2.93857894736842e-01 7.17442633935281e-01 1.07585627307303e-02
2.95026315789474e-01 7.04528171947585e-01 1.05858842514832e-02
2.96194736842105e-01 6.91846179179700e-01 1.04158956310935e-02
2.97363157894737e-01 6.79392471025358e-01 1.02485569534461e-02
2.98531578947368e-01 6.67162938204087e-01 1.00838288438722e-02
2.99700000000000e-01 6.55153545405303e-01 9.92167246466240e-03
3.00868421052632e-01 6.43360329933518e-01 9.76204950473025e-03
3.02036842105263e-01 6.31779400471561e-01 9.60492217648941e-03
3.03205263157895e-01 6.20406935724855e-01 9.45025321370377e-03
3.04373684210526e-01 6.09239183184758e-01 9.29800586032509e-03
3.05542105263158e-01 5.98272457890377e-01 9.14814386647855e-03
3.06710526315789e-01 5.87503141212653e-01 9.00063148267690e-03
3.07878947368421e-01 5.76927679660348e-01 8.85543345406401e-03
3.09047368421053e-01 5.66542583707517e-01 8.71251501469010e-03
3.10215789473684e-01 5.56344426642091e-01 8.57184188181926e-03
3.11384210526316e-01 5.46329843435180e-01 8.43338025027068e-03
3.12552631578947e-01 5.36495529630731e-01 8.29709678679359e-03
3.13721052631579e-01 5.26838240255185e-01 8.16295862447821e-03
3.14889473684211e-01 5.17354788746745e-01 8.03093335720361e-03
3.16057894736842e-01 5.08042045903925e-01 7.90098903412143e-03
3.17226315789474e-01 4.98896938853023e-01 7.77309415417862e-03
3.18394736842105e-01 4.89916450034185e-01 7.64721766067857e-03
3.19563157894737e-01 4.81097616205716e-01 7.52332893588126e-03
3.20731578947368e-01 4.72437527466313e-01 7.40139779564400e-03
3.21900000000000e-01 4.63933326294905e-01 7.28139448509332e-03
3.23068421052632e-01 4.55582206592426e-01 7.16328967032841e-03
3.24236842105263e-01 4.47381412802556e-01 7.04705443507515e-03
3.25405263157895e-01 4.39328238955199e-01 6.93266027803616e-03
3.26573684210526e-01 4.31420027789590e-01 6.82007910410285e-03
3.27742105263158e-01 4.23654169877489e-01 6.70928322047799e-03
3.28910526315789e-01 4.16028102762164e-01 6.60024533161147e-03
3.30078947368421e-01 4.08539310112872e-01 6.49293853417877e-03
3.31247368421053e-01 4.01185320894561e-01 6.38733631210393e-03
3.32415789473684e-01 3.93963708552513e-01 6.28341253162712e-03
3.33584210526316e-01 3.86872090211667e-01 6.18114143641596e-03
3.34752631578947e-01 3.79908125890357e-01 6.08049764272180e-03
3.35921052631579e-01 3.73069517728201e-01 5.98145613458113e-03
3.37089473684211e-01 3.66354009227892e-01 5.88399225906223e-03
3.38257894736842e-01 3.59759384510628e-01 5.78808172155636e-03
3.39426315789474e-01 3.53283467584957e-01 5.69370058111458e-03
3.40594736842105e-01 3.46924121628771e-01 5.60082524582984e-03
3.41763157894737e-01 3.40679248284236e-01 5.50943246826460e-03
3.42931578947368e-01 3.34546786965406e-01 5.41949934092350e-03
3.44100000000000e-01 3.28524714178302e-01 5.33100329245031e-03
3.45268421052632e-01 3.22611042843065e-01 5.24392208112508e-03
3.46436842105263e-01 3.16803821669201e-01 5.15823379176555e-03
3.47605263157895e-01 3.11101134480396e-01 5.07391683312601e-03
3.48773684210526e-01 3.05501099592832e-01 4.99094993110553e-03
3.49942105263158e-01 3.00001869194300e-01 4.90931212533628e-03
3.51110526315789e-01 2.94601628734481e-01 4.82898276497334e-03
3.52278947368421e-01 2.89298596326217e-01 4.74994150453002e-03
3.53447368421053e-01 2.84091022157548e-01 4.67216829975814e-03
3.54615789473684e-01 2.78977187914332e-01 4.59564340357255e-03
3.55784210526316e-01 2.73955406213272e-01 4.52034736202064e-03
3.56952631578947e-01 2.69024020045130e-01 4.44626101029604e-03
3.58121052631579e-01 2.64181402227977e-01 4.37336546879651e-03
3.59289473684211e-01 2.59425954870285e-01 4.30164213922633e-03
3.60457894736842e-01 2.54756108843674e-01 4.23107270074232e-03
3.61626315789474e-01 2.50170323265156e-01 4.16163910614345e-03
3.62794736842105e-01 2.45667084988701e-01 4.09332357810361e-03
3.63963157894737e-01 2.41244908105951e-01 4.02610860544827e-03
3.65131578947368e-01 2.36902333455922e-01 3.95997693947356e-03
3.66300000000000e-01 2.32637928143537e-01 3.89491159077389e-03
3.67468421052632e-01 2.28450285060050e-01 3.83089582422853e-03
3.68636842105263e-01 2.24338022439321e-01 3.76791315633394e-03
