Energy (eV)          EEDF (eV^-(3/2))     First Anisotropy
2.08000000000000e-04 2.14283357089919e+02 6.04232630454720e-02
6.24000000000000e-04 2.11344759354989e+02 9.94260881321682e-02
1.04000000000000e-03 2.08446460394366e+02 1.30330029877723e-01
1.45600000000000e-03 2.05587907566509e+02 1.53253428399936e-01
1.87200000000000e-03 2.02768555808575e+02 1.71918353027716e-01
2.28800000000000e-03 1.99987867532502e+02 1.87746799172817e-01
2.70400000000000e-03 1.97245312522495e+02 2.01481955883830e-01
3.12000000000000e-03 1.94540367833932e+02 2.13576936893466e-01
3.53600000000000e-03 1.91872517693649e+02 2.24335089201995e-01
3.95200000000000e-03 1.89241253401589e+02 2.33972795813188e-01
4.36800000000000e-03 1.86646073233811e+02 2.42651687474470e-01
4.78400000000000e-03 1.84086482346816e+02 2.50496810257653e-01
5.20000000000000e-03 1.81561992683198e+02 2.57607620186216e-01
5.61600000000000e-03 1.79072122878574e+02 2.64065010166748e-01
6.03200000000000e-03 1.76616398169806e+02 2.69936001409488e-01
6.44800000000000e-03 1.74194350304471e+02 2.75276989641219e-01
6.86400000000000e-03 1.71805517451573e+02 2.80136059475894e-01
7.28000000000000e-03 1.69449444113488e+02 2.84554676861338e-01
7.69600000000000e-03 1.67125681039106e+02 2.88568954067430e-01
8.11200000000000e-03 1.64833785138170e+02 2.92210613331054e-01
8.52800000000000e-03 1.62573319396788e+02 2.95507733314399e-01
8.94400000000000e-03 1.60343852794106e+02 2.98485335952982e-01
9.36000000000000e-03 1.58144960220120e+02 3.01165853961434e-01
9.77600000000000e-03 1.55976222394618e+02 3.03569507716446e-01
1.01920000000000e-02 1.53837225787232e+02 3.05714612361879e-01
1.06080000000000e-02 1.51727562538586e+02 3.07617830506398e-01
1.10240000000000e-02 1.49646830382527e+02 3.09294382010405e-01
1.14400000000000e-02 1.47594632569424e+02 3.10758219574433e-01
1.18560000000000e-02 1.45570577790512e+02 3.12022176809870e-01
1.22720000000000e-02 1.43574280103282e+02 3.13098093971703e-01
1.26880000000000e-02 1.41605358857889e+02 3.13996925409618e-01
1.31040000000000e-02 1.39663438624570e+02 3.14728831943771e-01
1.35200000000000e-02 1.37748149122058e+02 3.15303260721651e-01
1.39360000000000e-02 1.35859125146978e+02 3.15729014610755e-01
1.43520000000000e-02 1.33996006504211e+02 3.16014312790893e-01
1.47680000000000e-02 1.32158437938210e+02 3.16166843902895e-01
1.51840000000000e-02 1.30346069065267e+02 3.16193812867452e-01
1.56000000000000e-02 1.28558554306694e+02 3.16101982293847e-01
1.60160000000000e-02 1.26795552822937e+02 3.15897709242637e-01
1.64320000000000e-02 1.25056728448580e+02 3.15586977980515e-01
1.68480000000000e-02 1.23341749628247e+02 3.15175429263066e-01
1.72640000000000e-02 1.21650289353382e+02 3.14668386597539e-01
1.76800000000000e-02 1.19982025099898e+02 3.14070879868693e-01
1.80960000000000e-02 1.18336638766674e+02 3.13387666653885e-01
1.85120000000000e-02 1.16713816614903e+02 3.12623251506270e-01
1.89280000000000e-02 1.15113249208271e+02 3.11781903445325e-01
1.93440000000000e-02 1.13534631353950e+02 3.10867671860897e-01
1.97600000000000e-02 1.11977662044406e+02 3.09884401009028e-01
2.01760000000000e-02 1.10442044400006e+02 3.08835743254153e-01
2.05920000000000e-02 1.08927485612406e+02 3.07725171192279e-01
2.10080000000000e-02 1.07433696888721e+02 3.06555988772664e-01
2.14240000000000e-02 1.05960393396458e+02 3.05331341520989e-01
2.18400000000000e-02 1.04507294209205e+02 3.04054225954365e-01
2.22560000000000e-02 1.03074122253064e+02 3.02727498267802e-01
2.26720000000000e-02 1.01660604253822e+02 3.01353882362554e-01
2.30880000000000e-02 1.00266470684837e+02 2.99935977278520e-01
2.35040000000000e-02 9.88914557156518e+01 2.98476264085982e-01
2.39200000000000e-02 9.75352971613040e+01 2.96977112285871e-01
2.43360000000000e-02 9.61977364323317e+01 2.95440785762414e-01
2.47520000000000e-02 9.48785184854676e+01 2.93869448327285e-01
2.51680000000000e-02 9.35773917750075e+01 2.92265168890423e-01
2.55840000000000e-02 9.22941082048462e+01 2.90629926289006e-01
2.60000000000000e-02 9.10284230811708e+01 2.88965613802797e-01
2.64160000000000e-02 8.97800950658033e+01 2.87274043381505e-01
2.68320000000000e-02 8.85488861301827e+01 2.85556949607150e-01
2.72480000000000e-02 8.73345615099778e+01 2.83815993412177e-01
2.76640000000000e-02 8.61368896603236e+01 2.82052765572275e-01
2.80800000000000e-02 8.49556422116700e+01 2.80268789990974e-01
2.84960000000000e-02 8.37905939262373e+01 2.78465526791582e-01
2.89120000000000e-02 8.26415226550682e+01 2.76644375230603e-01
2.93280000000000e-02 8.15082092956689e+01 2.74806676445533e-01
2.97440000000000e-02 8.03904377502310e+01 2.72953716048872e-01
3.01600000000000e-02 7.92879948844266e+01 2.71086726579051e-01
3.05760000000000e-02 7.82006704867681e+01 2.69206889818175e-01
3.09920000000000e-02 7.71282572285256e+01 2.67315338985632e-01
3.14080000000000e-02 7.60705506241942e+01 2.65413160815877e-01
3.18240000000000e-02 7.50273489925024e+01 2.63501397527964e-01
3.22400000000000e-02 7.39984534179568e+01 2.61581048693928e-01
3.26560000000000e-02 7.29836677129125e+01 2.59653073012457e-01
3.30720000000000e-02 7.19827983801652e+01 2.57718389993795e-01
3.34880000000000e-02 7.09956545760550e+01 2.55777881561457e-01
3.39040000000000e-02 7.00220480740770e+01 2.53832393575829e-01
3.43200000000000e-02 6.90617932289905e+01 2.51882737284366e-01
3.47360000000000e-02 6.81147069414209e+01 2.49929690702760e-01
3.51520000000000e-02 6.71806086229463e+01 2.47973999931169e-01
3.55680000000000e-02 6.62593201616635e+01 2.46016380409285e-01
3.59840000000000e-02 6.53506658882257e+01 2.44057518113693e-01
3.64000000000000e-02 6.44544725423469e+01 2.42098070700829e-01
3.68160000000000e-02 6.35705692397642e+01 2.40138668598583e-01
3.72320000000000e-02 6.26987874396544e+01 2.38179916049350e-01
3.76480000000000e-02 6.18389609124971e+01 2.36222392107190e-01
3.80640000000000e-02 6.09909257083779e+01 2.34266651591558e-01
3.84800000000000e-02 6.01545201257274e+01 2.32313225999937e-01
3.88960000000000e-02 5.93295846804878e+01 2.30362624381499e-01
3.93120000000000e-02 5.85159620757028e+01 2.28415334173822e-01
3.97280000000000e-02 5.77134971715251e+01 2.26471822004598e-01
4.01440000000000e-02 5.69220369556340e+01 2.24532534460052e-01
4.05600000000000e-02 5.61414305140598e+01 2.22597898821794e-01
4.09760000000000e-02 5.53715290024076e+01 2.20668323773629e-01
4.13920000000000e-02 5.46121856174760e+01 2.18744200079800e-01
4.18080000000000e-02 5.38632555692651e+01 2.16825901236094e-01
4.22240000000000e-02 5.31245960533680e+01 2.14913784095069e-01
4.26400000000000e-02 5.23960662237414e+01 2.13008189466627e-01
4.30560000000000e-02 5.16775271658492e+01 2.11109442695132e-01
4.34720000000000e-02 5.09688418701749e+01 2.09217854214152e-01
4.38880000000000e-02 5.02698752060963e+01 2.07333720079822e-01
4.43040000000000e-02 4.95804938961197e+01 2.05457322483820e-01
4.47200000000000e-02 4.89005664904665e+01 2.03588930246901e-01
4.51360000000000e-02 4.82299633420085e+01 2.01728799293848e-01
4.55520000000000e-02 4.75685565815477e+01 1.99877173110631e-01
4.59680000000000e-02 4.69162200934335e+01 1.98034283184574e-01
4.63840000000000e-02 4.62728294915161e+01 1.96200349428302e-01
4.68000000000000e-02 4.56382620954284e+01 1.94375580588113e-01
4.72160000000000e-02 4.50123969071937e+01 1.92560174637466e-01
4.76320000000000e-02 4.43951145881537e+01 1.90754319156216e-01
4.80480000000000e-02 4.37862974362140e+01 1.88958191696177e-01
4.84640000000000e-02 4.31858293634001e+01 1.87171960133622e-01
4.88800000000000e-02 4.25935958737225e+01 1.85395783009199e-01
4.92960000000000e-02 4.20094840413446e+01 1.83629809855814e-01
4.97120000000000e-02 4.14333824890506e+01 1.81874181514974e-01
5.01280000000000e-02 4.08651813670077e+01 1.80129030442034e-01
5.05440000000000e-02 4.03047723318208e+01 1.78394481000796e-01
5.09600000000000e-02 3.97520485258734e+01 1.76670649747896e-01
5.13760000000000e-02 3.92069045569524e+01 1.74957645707369e-01
5.17920000000000e-02 3.86692364781520e+01 1.73255570635747e-01
5.22080000000000e-02 3.81389417680536e+01 1.71564519278108e-01
5.26240000000000e-02 3.76159193111769e+01 1.69884579615408e-01
5.30400000000000e-02 3.71000693786996e+01 1.68215833103384e-01
5.34560000000000e-02 3.65912936094412e+01 1.66558354903417e-01
5.38720000000000e-02 3.60894949911078e+01 1.64912214105607e-01
5.42880000000000e-02 3.55945778417940e+01 1.63277473944356e-01
5.47040000000000e-02 3.51064477917385e+01 1.61654192006765e-01
5.51200000000000e-02 3.46250117653297e+01 1.60042420434080e-01
5.55360000000000e-02 3.41501779633585e+01 1.58442206116465e-01
5.59520000000000e-02 3.36818558455137e+01 1.56853590881312e-01
5.63680000000000e-02 3.32199561131189e+01 1.55276611675349e-01
5.67840000000000e-02 3.27643906921041e+01 1.53711300740781e-01
5.72000000000000e-02 3.23150727162130e+01 1.52157685785631e-01
5.76160000000000e-02 3.18719165104385e+01 1.50615790148525e-01
5.80320000000000e-02 3.14348375746873e+01 1.49085632958110e-01
5.84480000000000e-02 3.10037525676669e+01 1.47567229287269e-01
5.88640000000000e-02 3.05785792909946e+01 1.46060590302351e-01
5.92800000000000e-02 3.01592366735239e+01 1.44565723407579e-01
5.96960000000000e-02 2.97456447558865e+01 1.43082632384765e-01
6.01120000000000e-02 2.93377246752450e+01 1.41611317528543e-01
6.05280000000000e-02 2.89353986502563e+01 1.40151775777261e-01
6.09440000000000e-02 2.85385899662398e+01 1.38704000839645e-01
6.13600000000000e-02 2.81472229605500e+01 1.37267983317424e-01
6.17760000000000e-02 2.77612230081493e+01 1.35843710824028e-01
6.21920000000000e-02 2.73805165073783e+01 1.34431168099487e-01
6.26080000000000e-02 2.70050308659221e+01 1.33030337121673e-01
6.30240000000000e-02 2.66346944869679e+01 1.31641197213985e-01
6.34400000000000e-02 2.62694367555538e+01 1.30263725149624e-01
6.38560000000000e-02 2.59091880251036e+01 1.28897895252540e-01
6.42720000000000e-02 2.55538796041468e+01 1.27543679495179e-01
6.46880000000000e-02 2.52034437432209e+01 1.26201047593123e-01
6.51040000000000e-02 2.48578136219527e+01 1.24869967096730e-01
6.55200000000000e-02 2.45169233363176e+01 1.23550403479867e-01
6.59360000000000e-02 2.41807078860725e+01 1.22242320225853e-01
6.63520000000000e-02 2.38491031623624e+01 1.20945678910639e-01
6.67680000000000e-02 2.35220459354959e+01 1.19660439283392e-01
6.71840000000000e-02 2.31994738428886e+01 1.18386559344515e-01
6.76000000000000e-02 2.28813253771722e+01 1.17123995421196e-01
6.80160000000000e-02 2.25675398744662e+01 1.15872702240567e-01
6.84320000000000e-02 2.22580575028108e+01 1.14632633000541e-01
6.88480000000000e-02 2.19528192507581e+01 1.13403739438416e-01
6.92640000000000e-02 2.16517669161199e+01 1.12185971897303e-01
6.96800000000000e-02 2.13548430948702e+01 1.10979279390437e-01
7.00960000000000e-02 2.10619911701991e+01 1.09783609663463e-01
7.05120000000000e-02 2.07731553017173e+01 1.08598909254738e-01
7.09280000000000e-02 2.04882804148089e+01 1.07425123553717e-01
7.13440000000000e-02 2.02073121901292e+01 1.06262196857476e-01
7.17600000000000e-02 1.99301970532481e+01 1.05110072425447e-01
7.21760000000000e-02 1.96568821644340e+01 1.03968692532404e-01
7.25920000000000e-02 1.93873154085784e+01 1.02837998519747e-01
7.30080000000000e-02 1.91214453852594e+01 1.01717930845166e-01
7.34240000000000e-02 1.88592213989398e+01 1.00608429130693e-01
7.38400000000000e-02 1.86005934493013e+01 9.95094322092297e-02
7.42560000000000e-02 1.83455122217103e+01 9.84208781695716e-02
7.46720000000000e-02 1.80939290778147e+01 9.73427043999829e-02
7.50880000000000e-02 1.78457960462696e+01 9.62748476303620e-02
7.55040000000000e-02 1.76010658135902e+01 9.52172439730504e-02
7.59200000000000e-02 1.73596917151305e+01 9.41698289623168e-02
7.63360000000000e-02 1.71216277261849e+01 9.31325375925546e-02
7.67520000000000e-02 1.68868284532125e+01 9.21053043552298e-02
7.71680000000000e-02 1.66552491251816e+01 9.10880632746307e-02
7.75840000000000e-02 1.64268455850330e+01 9.00807479424415e-02
7.80000000000000e-02 1.62015742812599e+01 8.90832915511783e-02
7.84160000000000e-02 1.59793922596037e+01 8.80956269265260e-02
7.88320000000000e-02 1.57602571548637e+01 8.71176865585942e-02
7.92480000000000e-02 1.55441271828190e+01 8.61494026321480e-02
7.96640000000000e-02 1.53309611322609e+01 8.51907070558221e-02
8.00800000000000e-02 1.51207183571351e+01 8.42415314903530e-02
8.04960000000000e-02 1.49133587687914e+01 8.33018073758756e-02
8.09120000000000e-02 1.47088428283395e+01 8.23714659582902e-02
8.13280000000000e-02 1.45071315391098e+01 8.14504383147290e-02
8.17440000000000e-02 1.43081864392178e+01 8.05386553781669e-02
8.21600000000000e-02 1.41119695942303e+01 7.96360479611866e-02
8.25760000000000e-02 1.39184435899319e+01 7.87425467789184e-02
8.29920000000000e-02 1.37275715251909e+01 7.78580824711955e-02
8.34080000000000e-02 1.35393170049234e+01 7.69825856239355e-02
8.38240000000000e-02 1.33536441331533e+01 7.61159867897742e-02
8.42400000000000e-02 1.31705175061678e+01 7.52582165079772e-02
8.46560000000000e-02 1.29899022057669e+01 7.44092053236421e-02
8.50720000000000e-02 1.28117637926046e+01 7.35688838062182e-02
8.54880000000000e-02 1.26360682996231e+01 7.27371825673667e-02
8.59040000000000e-02 1.24627822255752e+01 7.19140322781720e-02
8.63200000000000e-02 1.22918725286365e+01 7.10993636857290e-02
8.67360000000000e-02 1.21233066201055e+01 7.02931076291237e-02
8.71520000000000e-02 1.19570523581892e+01 6.94951950548278e-02
8.75680000000000e-02 1.17930780418745e+01 6.87055570315164e-02
8.79840000000000e-02 1.16313524048836e+01 6.79241247643296e-02
8.84000000000000e-02 1.14718446097120e+01 6.71508296086017e-02
8.88160000000000e-02 1.13145242417487e+01 6.63856030830648e-02
8.92320000000000e-02 1.11593613034769e+01 6.56283768825442e-02
8.96480000000000e-02 1.10063262087536e+01 6.48790828901555e-02
9.00640000000000e-02 1.08553897771689e+01 6.41376531890339e-02
9.04800000000000e-02 1.07065232284813e+01 6.34040200735955e-02
9.08960000000000e-02 1.05596981771303e+01 6.26781160603419e-02
9.13120000000000e-02 1.04148866268238e+01 6.19598738982354e-02
9.17280000000000e-02 1.02720609652001e+01 6.12492265786499e-02
9.21440000000000e-02 1.01311939585621e+01 6.05461073449015e-02
9.25600000000000e-02 9.99225874668532e+00 5.98504497013904e-02
9.29760000000000e-02 9.85522883769565e+00 5.91621874223467e-02
9.33920000000000e-02 9.72007810301820e+00 5.84812545602034e-02
9.38080000000000e-02 9.58678077239505e+00 5.78075854536089e-02
9.42240000000000e-02 9.45531142897148e+00 5.71411147350741e-02
9.46400000000000e-02 9.32564500444954e+00 5.64817773382890e-02
9.50560000000000e-02 9.19775677430803e+00 5.58295085050926e-02
9.54720000000000e-02 9.07162235308815e+00 5.51842437921301e-02
9.58880000000000e-02 8.94721768974368e+00 5.45459190771943e-02
9.63040000000000e-02 8.82451906305501e+00 5.39144705652552e-02
9.67200000000000e-02 8.70350307710598e+00 5.32898347942047e-02
9.71360000000000e-02 8.58414665682287e+00 5.26719486403083e-02
9.75520000000000e-02 8.46642704357441e+00 5.20607493233817e-02
9.79680000000000e-02 8.35032179083229e+00 5.14561744116961e-02
9.83840000000000e-02 8.23580875989105e+00 5.08581618266281e-02
9.88000000000000e-02 8.12286611564673e+00 5.02666498470516e-02
9.92160000000000e-02 8.01147232243341e+00 4.96815771134808e-02
9.96320000000000e-02 7.90160613991684e+00 4.91028826319832e-02
1.00048000000000e-01 7.79324661904433e+00 4.85305057778597e-02
1.00464000000000e-01 7.68637309805031e+00 4.79643862990982e-02
1.00880000000000e-01 7.58096519851652e+00 4.74044643196161e-02
1.01296000000000e-01 7.47700282148630e+00 4.68506803422852e-02
1.01712000000000e-01 7.37446614363220e+00 4.63029752517584e-02
1.02128000000000e-01 7.27333561347611e+00 4.57612903171014e-02
1.02544000000000e-01 7.17359194766117e+00 4.52255671942287e-02
1.02960000000000e-01 7.07521612727492e+00 4.46957479281579e-02
1.03376000000000e-01 6.97818939422278e+00 4.41717749550857e-02
1.03792000000000e-01 6.88249324765130e+00 4.36535911042849e-02
1.04208000000000e-01 6.78810944042049e+00 4.31411395998395e-02
1.04624000000000e-01 6.69501997562443e+00 4.26343640622181e-02
1.05040000000000e-01 6.60320710315974e+00 4.21332085096867e-02
1.05456000000000e-01 6.51265331634092e+00 4.16376173595694e-02
1.05872000000000e-01 6.42334134856233e+00 4.11475354293617e-02
1.06288000000000e-01 6.33525417000573e+00 4.06629079377042e-02
1.06704000000000e-01 6.24837498439315e+00 4.01836805052158e-02
1.07120000000000e-01 6.16268722578415e+00 3.97097991551968e-02
1.07536000000000e-01 6.07817455541710e+00 3.92412103141996e-02
1.07952000000000e-01 5.99482085859371e+00 3.87778608124745e-02
1.08368000000000e-01 5.91261024160635e+00 3.83196978843011e-02
1.08784000000000e-01 5.83152702870742e+00 3.78666691681976e-02
1.09200000000000e-01 5.75155575912039e+00 3.74187227070173e-02
1.09616000000000e-01 5.67268118409174e+00 3.69758069479426e-02
1.10032000000000e-01 5.59488826398333e+00 3.65378707423687e-02
1.10448000000000e-01 5.51816216540475e+00 3.61048633456844e-02
1.10864000000000e-01 5.44248825838484e+00 3.56767344169635e-02
1.11280000000000e-01 5.36785211358213e+00 3.52534340185548e-02
1.11696000000000e-01 5.29423949953347e+00 3.48349126155832e-02
1.12112000000000e-01 5.22163637994040e+00 3.44211210753637e-02
1.12528000000000e-01 5.15002891099274e+00 3.40120106667312e-02
1.12944000000000e-01 5.07940343872887e+00 3.36075330592861e-02
1.13360000000000e-01 5.00974649643226e+00 3.32076403225642e-02
1.13776000000000e-01 4.94104480206360e+00 3.28122849251313e-02
1.14192000000000e-01 4.87328525572828e+00 3.24214197336021e-02
1.14608000000000e-01 4.80645493717847e+00 3.20349980115925e-02
1.15024000000000e-01 4.74054110334957e+00 3.16529734186006e-02
1.15440000000000e-01 4.67553118593033e+00 3.12753000088254e-02
1.15856000000000e-01 4.61141278896639e+00 3.09019322299241e-02
1.16272000000000e-01 4.54817368649665e+00 3.05328249217077e-02
1.16688000000000e-01 4.48580182022202e+00 3.01679333147768e-02
1.17104000000000e-01 4.42428529720618e+00 2.98072130291067e-02
1.17520000000000e-01 4.36361238760789e+00 2.94506200725796e-02
1.17936000000000e-01 4.30377152244430e+00 2.90981108394615e-02
1.18352000000000e-01 4.24475129138509e+00 2.87496421088319e-02
1.18768000000000e-01 4.18654044057669e+00 2.84051710429689e-02
1.19184000000000e-01 4.12912787049647e+00 2.80646551856890e-02
1.19600000000000e-01 4.07250263383629e+00 2.77280524606433e-02
1.20016000000000e-01 4.01665393341510e+00 2.73953211695723e-02
1.20432000000000e-01 3.96157112012011e+00 2.70664199905217e-02
1.20848000000000e-01 3.90724369087633e+00 2.67413079760238e-02
1.21264000000000e-01 3.85366128664378e+00 2.64199445512406e-02
1.21680000000000e-01 3.80081369044228e+00 2.61022895120722e-02
1.22096000000000e-01 3.74869082540332e+00 2.57883030232361e-02
1.22512000000000e-01 3.69728275284858e+00 2.54779456163124e-02
1.22928000000000e-01 3.64657967039488e+00 2.51711781877626e-02
1.23344000000000e-01 3.59657191008509e+00 2.48679619969198e-02
1.23760000000000e-01 3.54724993654460e+00 2.45682586639519e-02
1.24176000000000e-01 3.49860434516323e+00 2.42720301678007e-02
1.24592000000000e-01 3.45062586030188e+00 2.39792388440972e-02
1.25008000000000e-01 3.40330533352395e+00 2.36898473830566e-02
1.25424000000000e-01 3.35663374185090e+00 2.34038188273490e-02
1.25840000000000e-01 3.31060218604176e+00 2.31211165699525e-02
1.26256000000000e-01 3.26520188889627e+00 2.28417043519890e-02
1.26672000000000e-01 3.22042419358121e+00 2.25655462605404e-02
1.27088000000000e-01 3.17626056197981e+00 2.22926067264494e-02
1.27504000000000e-01 3.13270257306365e+00 2.20228505221070e-02
1.27920000000000e-01 3.08974192128700e+00 2.17562427592221e-02
1.28336000000000e-01 3.04737041500311e+00 2.14927488865840e-02
1.28752000000000e-01 3.00557997490226e+00 2.12323346878079e-02
1.29168000000000e-01 2.96436263247119e+00 2.09749662790703e-02
1.29584000000000e-01 2.92371052847372e+00 2.07206101068380e-02
1.30000000000000e-01 2.88361591145215e+00 2.04692329455827e-02
1.30416000000000e-01 2.84407113624920e+00 2.02208018954917e-02
1.30832000000000e-01 2.80506866255028e+00 1.99752843801692e-02
1.31248000000000e-01 2.76660105344574e+00 1.97326481443306e-02
