Energy (eV)          EEDF (eV^-(3/2))     First Anisotropy
2.48148148148148e-02 1.47072539050743e-01 1.05752177020851e-04
7.44444444444444e-02 1.45200012957257e-01 1.74100520145464e-04
1.24074074074074e-01 1.43351327845226e-01 2.28442147605330e-04
1.73703703703704e-01 1.41526180172923e-01 2.68889573337854e-04
2.23333333333333e-01 1.39724270258967e-01 3.01938176873434e-04
2.72962962962963e-01 1.37945302250235e-01 3.30065666490252e-04
3.22592592592593e-01 1.36188984041975e-01 3.54565104535631e-04
3.72222222222222e-01 1.34455027262848e-01 3.76223751742591e-04
4.21851851851852e-01 1.32743147202395e-01 3.95567942792063e-04
4.71481481481481e-01 1.31053062780224e-01 4.12972628534603e-04
5.21111111111111e-01 1.29384496498263e-01 4.28717530655283e-04
5.70740740740741e-01 1.27737174384342e-01 4.43018793834152e-04
6.20370370370370e-01 1.26110825958036e-01 4.56048129938966e-04
6.70000000000000e-01 1.24505184185314e-01 4.67945048285604e-04
7.19629629629630e-01 1.22919985426692e-01 4.78825014789523e-04
7.69259259259259e-01 1.21354969404108e-01 4.88785095028147e-04
8.18888888888889e-01 1.19809879149108e-01 4.97907975290369e-04
8.68518518518518e-01 1.18284460967072e-01 5.06264900495941e-04
9.18148148148148e-01 1.16778464395138e-01 5.13917870191404e-04
9.67777777777778e-01 1.15291642155884e-01 5.20921309267905e-04
1.01740740740741e+00 1.13823750121932e-01 5.27323361009036e-04
1.06703703703704e+00 1.12374547278219e-01 5.33166905086087e-04
1.11666666666667e+00 1.10943795669971e-01 5.38490365898149e-04
1.16629629629630e+00 1.09531260376306e-01 5.43328363755978e-04
1.21592592592593e+00 1.08136709467347e-01 5.47712246921724e-04
1.26555555555556e+00 1.06759913966137e-01 5.51670527766619e-04
1.31518518518519e+00 1.05400647811047e-01 5.55229244941969e-04
1.36481481481481e+00 1.04058687818657e-01 5.58412266304999e-04
1.41444444444444e+00 1.02733813647093e-01 5.61241544188270e-04
1.46407407407407e+00 1.01425807759889e-01 5.63737332010740e-04
1.51370370370370e+00 1.00134455390249e-01 5.65918369266241e-04
1.56333333333333e+00 9.88595445057796e-02 5.67802040438290e-04
1.61296296296296e+00 9.76008657736823e-02 5.69404512281309e-04
1.66259259259259e+00 9.63582125263775e-02 5.70740853026091e-04
1.71222222222222e+00 9.51313807275731e-02 5.71825136391310e-04
1.76185185185185e+00 9.39201689387635e-02 5.72670532750343e-04
1.81148148148148e+00 9.27243782861543e-02 5.73289389380867e-04
1.86111111111111e+00 9.15438124280087e-02 5.73693301388606e-04
1.91074074074074e+00 9.03782775224099e-02 5.73893174626609e-04
1.96037037037037e+00 8.92275821954329e-02 5.73899281713329e-04
2.01000000000000e+00 8.80915375097228e-02 5.73721311392728e-04
2.05962962962963e+00 8.69699569389182e-02 5.73368415455733e-04
2.10925925925926e+00 8.58626563204260e-02 5.72849247657510e-04
2.15888888888889e+00 8.47694538420544e-02 5.72171998644397e-04
2.20851851851852e+00 8.36901700064414e-02 5.71344430963694e-04
2.25814814814815e+00 8.26246276015823e-02 5.70373908117401e-04
2.30777777777778e+00 8.15726516717330e-02 5.69267421621859e-04
2.35740740740741e+00 8.05340694886830e-02 5.68031615653676e-04
2.40703703703704e+00 7.95087105233946e-02 5.66672809548243e-04
2.45666666666667e+00 7.84964064180037e-02 5.65197018382613e-04
2.50629629629630e+00 7.74969909581757e-02 5.63609971845108e-04
2.55592592592593e+00 7.65103000458145e-02 5.61917131568492e-04
2.60555555555556e+00 7.55361716721190e-02 5.60123707082282e-04
2.65518518518518e+00 7.45744458909816e-02 5.58234670521127e-04
2.70481481481481e+00 7.36249647927267e-02 5.56254770210352e-04
2.75444444444444e+00 7.26875724781788e-02 5.54188543233739e-04
2.80407407407407e+00 7.17621150330727e-02 5.52040327080847e-04
2.85370370370370e+00 7.08484405027775e-02 5.49814270458236e-04
2.90333333333333e+00 6.99463988673466e-02 5.47514343337221e-04
2.95296296296296e+00 6.90558420168857e-02 5.45144346307244e-04
3.00259259259259e+00 6.81766237272336e-02 5.42707919294542e-04
3.05222222222222e+00 6.73085996359534e-02 5.40208549700150e-04
3.10185185185185e+00 6.64516272186289e-02 5.37649580005466e-04
3.15148148148148e+00 6.56055657654629e-02 5.35034214889089e-04
3.20111111111111e+00 6.47702763581741e-02 5.32365527894393e-04
3.25074074074074e+00 6.39456218471866e-02 5.29646467683289e-04
3.30037037037037e+00 6.31314668291114e-02 5.26879863908435e-04
3.35000000000000e+00 6.23276776245142e-02 5.24068432358222e-04
3.39962962962963e+00 6.15341222582873e-02 5.21214781287416e-04
3.44925925925926e+00 6.07506704309237e-02 5.18321415545146e-04
3.49888888888889e+00 5.99771935042731e-02 5.15390740408421e-04
3.54851851851852e+00 5.92135644780047e-02 5.12425067113988e-04
3.59814814814815e+00 5.84596579687544e-02 5.09426616572721e-04
3.64777777777778e+00 5.77153501895375e-02 5.06397523256731e-04
3.69740740740741e+00 5.69805189294239e-02 5.03339838877308e-04
3.74703703703704e+00 5.62550435334715e-02 5.00255535867865e-04
3.79666666666667e+00 5.55388048829155e-02 4.97146510684765e-04
3.84629629629630e+00 5.48316853756098e-02 4.94014586937950e-04
3.89592592592593e+00 5.41335689067175e-02 4.90861518362434e-04
3.94555555555556e+00 5.34443408496474e-02 4.87688991640777e-04
3.99518518518519e+00 5.27638880372322e-02 4.84498629085750e-04
4.04481481481481e+00 5.20920987431483e-02 4.81291991192187e-04
4.09444444444444e+00 5.14288626635688e-02 4.78070579065200e-04
4.14407407407407e+00 5.07740708990554e-02 4.74835836733111e-04
4.19370370370370e+00 5.01276159366760e-02 4.71589153351953e-04
4.24333333333333e+00 4.94893916323520e-02 4.68331865306938e-04
4.29296296296296e+00 4.88592931934302e-02 4.65065258217678e-04
4.34259259259259e+00 4.82372171614761e-02 4.61790568852349e-04
4.39222222222222e+00 4.76230613952867e-02 4.58508986955994e-04
4.44185185185185e+00 4.70167250541202e-02 4.55221656997752e-04
4.49148148148148e+00 4.64181085811374e-02 4.51929679841387e-04
4.54111111111111e+00 4.58271136870560e-02 4.48634114343377e-04
4.59074074074074e+00 4.52436433340118e-02 4.45335978882421e-04
4.64037037037037e+00 4.46676017196255e-02 4.42036252823904e-04
4.69000000000000e+00 4.40988942612727e-02 4.38735877698491e-04
4.73962962962963e+00 4.35374275817298e-02 4.35435759226482e-04
4.78925925925926e+00 4.29831094902730e-02 4.32136768150426e-04
4.83888888888889e+00 4.24358489711525e-02 4.28839741005286e-04
4.88851851851852e+00 4.18955561674303e-02 4.25545482009698e-04
4.93814814814815e+00 4.13621423662258e-02 4.22254763967656e-04
4.98777777777778e+00 4.08355199841499e-02 4.18968329362380e-04
5.03740740740741e+00 4.03156025529242e-02 4.15686891407097e-04
5.08703703703704e+00 3.98023047051834e-02 4.12411135054902e-04
5.13666666666667e+00 3.92955421604587e-02 4.09141717969619e-04
5.18629629629630e+00 3.87952317113392e-02 4.05879271459410e-04
5.23592592592593e+00 3.83012912098101e-02 4.02624401374967e-04
5.28555555555556e+00 3.78136395537639e-02 3.99377688973808e-04
5.33518518518518e+00 3.73321966736845e-02 3.96139691752275e-04
5.38481481481481e+00 3.68568835195000e-02 3.92910944246784e-04
5.43444444444444e+00 3.63876220476025e-02 3.89691958805246e-04
5.48407407407407e+00 3.59243352080353e-02 3.86483226330522e-04
5.53370370370370e+00 3.54669469318406e-02 3.83285216997113e-04
5.58333333333333e+00 3.50153821185700e-02 3.80098380941714e-04
5.63296296296296e+00 3.45695666239531e-02 3.76923148929177e-04
5.68259259259259e+00 3.41294272477235e-02 3.73759932994860e-04
5.73222222222222e+00 3.36948917215999e-02 3.70609127064287e-04
5.78185185185185e+00 3.32658886974200e-02 3.67471107551085e-04
5.83148148148148e+00 3.28423477354255e-02 3.64346233934109e-04
5.88111111111111e+00 3.24241992926964e-02 3.61234849314600e-04
5.93074074074074e+00 3.20113747117324e-02 3.58137280954175e-04
5.98037037037037e+00 3.16038062091797e-02 3.55053840794439e-04
6.03000000000000e+00 3.12014268647016e-02 3.51984825818877e-04
6.07962962962963e+00 3.08041706106381e-02 3.48930518962059e-04
6.12925925925926e+00 3.04119722191932e-02 3.45891189293648e-04
6.17888888888889e+00 3.00247672937119e-02 3.42867092180291e-04
6.22851851851852e+00 2.96424922574365e-02 3.39858470163196e-04
6.27814814814815e+00 2.92650843430682e-02 3.36865553233645e-04
6.32777777777778e+00 2.88924815824605e-02 3.33888559242533e-04
6.37740740740741e+00 2.85246227964449e-02 3.30927694296465e-04
6.42703703703704e+00 2.81614475847852e-02 3.27983153141010e-04
6.47666666666667e+00 2.78028963162607e-02 3.25055119531525e-04
6.52629629629630e+00 2.74489101188745e-02 3.22143766591978e-04
6.57592592592593e+00 2.70994308701874e-02 3.19249257162222e-04
6.62555555555556e+00 2.67544011877745e-02 3.16371744134178e-04
6.67518518518519e+00 2.64137644198035e-02 3.13511370777321e-04
6.72481481481481e+00 2.60774646357323e-02 3.10668271053865e-04
6.77444444444444e+00 2.57454466171259e-02 3.07842569923848e-04
6.82407407407407e+00 2.54176558485901e-02 3.05034383640703e-04
6.87370370370370e+00 2.50940385088199e-02 3.02243820037629e-04
6.92333333333333e+00 2.47745414617628e-02 2.99470978804898e-04
6.97296296296296e+00 2.44591122478939e-02 2.96715951758575e-04
7.02259259259259e+00 2.41476990756024e-02 2.93978823100857e-04
7.07222222222222e+00 2.38402508126877e-02 2.91259669672385e-04
7.12185185185185e+00 2.35367169779640e-02 2.88558561196785e-04
7.17148148148148e+00 2.32370477329713e-02 2.85875560517654e-04
7.22111111111111e+00 2.29411938737924e-02 2.83210723828312e-04
7.27074074074074e+00 2.26491068229738e-02 2.80564100894511e-04
7.32037037037037e+00 2.23607386215499e-02 2.77935735270349e-04
7.37000000000000e+00 2.20760419211677e-02 2.75325664417997e-04
7.41962962962963e+00 2.17949699766885e-02 2.72733920182213e-04
7.46925925925926e+00 2.15174766373746e-02 2.70160528805077e-04
7.51888888888889e+00 2.12435163404614e-02 2.67605510930553e-04
7.56851851851852e+00 2.09730441032892e-02 2.65068882070967e-04
7.61814814814815e+00 2.07060155159166e-02 2.62550652691932e-04
7.66777777777778e+00 2.04423867338295e-02 2.60050828386580e-04
7.71740740740741e+00 2.01821144707417e-02 2.57569410044541e-04
7.76703703703704e+00 1.99251559914872e-02 2.55106394015914e-04
7.81666666666667e+00 1.96714691050041e-02 2.52661772270331e-04
7.86629629629630e+00 1.94210121574064e-02 2.50235532551264e-04
7.91592592592593e+00 1.91737440251450e-02 2.47827658525777e-04
7.96555555555556e+00 1.89296241082554e-02 2.45438129929821e-04
8.01518518518519e+00 1.86886123236915e-02 2.43066922709191e-04
8.06481481481481e+00 1.84506690987441e-02 2.40714009156361e-04
8.11444444444444e+00 1.82157553645432e-02 2.38379358043210e-04
8.16407407407407e+00 1.79838325496433e-02 2.36062934749831e-04
8.21370370370370e+00 1.77548625736902e-02 2.33764701389636e-04
8.26333333333333e+00 1.75288078411685e-02 2.31484616930652e-04
8.31296296296296e+00 1.73056312352282e-02 2.29222637313282e-04
8.36259259259259e+00 1.70852961115910e-02 2.26978715564615e-04
8.41222222222222e+00 1.68677662925329e-02 2.24752801909345e-04
8.46185185185185e+00 1.66530060609445e-02 2.22544843877437e-04
8.51148148148148e+00 1.64409801544662e-02 2.20354786408617e-04
8.56111111111111e+00 1.62316537596983e-02 2.18182571953800e-04
8.61074074074074e+00 1.60249925064852e-02 2.16028140573538e-04
8.66037037037037e+00 1.58209624622714e-02 2.13891430033559e-04
8.71000000000000e+00 1.56195301265307e-02 2.11772375839126e-04
8.75962962962963e+00 1.54206624254899e-02 2.09670911501787e-04
8.80925925925926e+00 1.52243267060170e-02 2.07586968508238e-04
8.85888888888889e+00 1.50304907309484e-02 2.05520476283769e-04
8.90851851851852e+00 1.48391226735638e-02 2.03471362457641e-04
8.95814814814815e+00 1.46501911123603e-02 2.01439552881341e-04
9.00777777777778e+00 1.44636650258931e-02 1.99424971706108e-04
9.05740740740741e+00 1.42795137876823e-02 1.97427541458159e-04
9.10703703703704e+00 1.40977071611840e-02 1.95447183111697e-04
9.15666666666667e+00 1.39182152948256e-02 1.93483816159748e-04
9.20629629629630e+00 1.37410087171044e-02 1.91537358682938e-04
9.25592592592593e+00 1.35660583317488e-02 1.89607727416205e-04
9.30555555555556e+00 1.33933354129403e-02 1.87694837813546e-04
9.35518518518519e+00 1.32228116005975e-02 1.85798604110824e-04
9.40481481481481e+00 1.30544588957190e-02 1.83918939386738e-04
9.45444444444444e+00 1.28882496557866e-02 1.82055755621941e-04
9.50407407407407e+00 1.27241565902263e-02 1.80208963756412e-04
9.55370370370370e+00 1.25621527559274e-02 1.78378473745136e-04
9.60333333333333e+00 1.24022115528185e-02 1.76564194612079e-04
9.65296296296296e+00 1.22443067195003e-02 1.74766034502575e-04
9.70259259259259e+00 1.20884123289333e-02 1.72983900734117e-04
9.75222222222222e+00 1.19345027841805e-02 1.71217699845622e-04
9.80185185185185e+00 1.17825528142052e-02 1.69467337645219e-04
9.85148148148148e+00 1.16325374697211e-02 1.67732719256572e-04
9.90111111111111e+00 1.14844321190960e-02 1.66013749163817e-04
9.95074074074074e+00 1.13382124443075e-02 1.64310331255122e-04
1.00003703703704e+01 1.11938544369498e-02 1.62622368904090e-04
1.00500000000000e+01 1.10513343941512e-02 1.60949764776718e-04
1.00996296296296e+01 1.09106289155223e-02 1.59292421186698e-04
1.01492592592593e+01 1.07717148980345e-02 1.57650240584628e-04
1.01988888888889e+01 1.06345695314802e-02 1.56023124102746e-04
1.02485185185185e+01 1.04991702987540e-02 1.54410972514707e-04
1.02981481481481e+01 1.03654949680811e-02 1.52813687398447e-04
1.03477777777778e+01 1.02335215894841e-02 1.51231168922692e-04
1.03974074074074e+01 1.01032284949986e-02 1.49663316999455e-04
1.04470370370370e+01 9.97459429124922e-03 1.48110032394323e-04
1.04966666666667e+01 9.84759785604561e-03 1.46571214607902e-04
1.05462962962963e+01 9.72221833854301e-03 1.45046762975772e-04
1.05959259259259e+01 9.59843515214817e-03 1.43536577404475e-04
1.06455555555556e+01 9.47622797237599e-03 1.42040557649407e-04
1.06951851851852e+01 9.35557673239992e-03 1.40558602733161e-04
1.07448148148148e+01 9.23646162313479e-03 1.39090611623589e-04
1.07944444444444e+01 9.11886308656617e-03 1.37636484228233e-04
1.08440740740741e+01 9.00276181263622e-03 1.36196119487322e-04
1.08937037037037e+01 8.88813873928019e-03 1.34769416359676e-04
1.09433333333333e+01 8.77497504605108e-03 1.33356274480326e-04
1.09929629629630e+01 8.66325215212451e-03 1.31956593509066e-04
1.10425925925926e+01 8.55295171226181e-03 1.30570272604791e-04
1.10922222222222e+01 8.44405561678686e-03 1.29197211031368e-04
1.11418518518519e+01 8.33654598558959e-03 1.27837309049648e-04
1.11914814814815e+01 8.23040516527396e-03 1.26490466200051e-04
1.12411111111111e+01 8.12561572909914e-03 1.25156582186124e-04
1.12907407407407e+01 8.02216047124476e-03 1.23835557726443e-04
1.13403703703704e+01 7.92002240406585e-03 1.22527292910234e-04
1.13900000000000e+01 7.81918475800250e-03 1.21231688041549e-04
1.14396296296296e+01 7.71963097609625e-03 1.19948644202011e-04
1.14892592592593e+01 7.62134471219200e-03 1.18678062686812e-04
1.15388888888889e+01 7.52430982742427e-03 1.17419844548421e-04
1.15885185185185e+01 7.42851039008419e-03 1.16173891115057e-04
1.16381481481481e+01 7.33393067045783e-03 1.14940104755216e-04
1.16877777777778e+01 7.24055513831388e-03 1.13718387395879e-04
1.17374074074074e+01 7.14836846274596e-03 1.12508641280037e-04
1.17870370370370e+01 7.05735550723507e-03 1.11310769697351e-04
1.18366666666667e+01 6.96750132723047e-03 1.10124675565112e-04
1.18862962962963e+01 6.87879116997135e-03 1.08950262151950e-04
1.19359259259259e+01 6.79121046976358e-03 1.07787433559952e-04
1.19855555555556e+01 6.70474484636318e-03 1.06636094236117e-04
1.20351851851852e+01 6.61938010191571e-03 1.05496148576152e-04
1.20848148148148e+01 6.53510222074815e-03 1.04367501368694e-04
1.21344444444444e+01 6.45189736491995e-03 1.03250058451308e-04
1.21840740740741e+01 6.36975187201007e-03 1.02143725431008e-04
1.22337037037037e+01 6.28865225489270e-03 1.01048408334451e-04
1.22833333333333e+01 6.20858519748038e-03 9.99640140398687e-05
1.23329629629630e+01 6.12953755322647e-03 9.88904498357462e-05
1.23825925925926e+01 6.05149634234436e-03 9.78276230624223e-05
1.24322222222222e+01 5.97444875156185e-03 9.67754415100558e-05
1.24818518518519e+01 5.89838213011087e-03 9.57338140083287e-05
1.25314814814815e+01 5.82328398770174e-03 9.47026492723486e-05
1.25811111111111e+01 5.74914199426618e-03 9.36818564866597e-05
1.26307407407407e+01 5.67594397611835e-03 9.26713458688955e-05
1.26803703703704e+01 5.60367791400515e-03 9.16710275641944e-05
1.27300000000000e+01 5.53233194283994e-03 9.06808122036293e-05
1.27796296296296e+01 5.46189434802798e-03 8.97006112749641e-05
1.28292592592593e+01 5.39235356412480e-03 8.87303367399924e-05
1.28788888888889e+01 5.32369817241123e-03 8.77699007231235e-05
1.29285185185185e+01 5.25591690061362e-03 8.68192158529908e-05
1.29781481481481e+01 5.18899861944008e-03 8.58781957692933e-05
1.30277777777778e+01 5.12293234079653e-03 8.49467541250537e-05
1.30774074074074e+01 5.05770721750068e-03 8.40248050887225e-05
1.31270370370370e+01 4.99331253996557e-03 8.31122638289361e-05
1.31766666666667e+01 4.92973773448209e-03 8.22090455585549e-05
1.32262962962963e+01 4.86697236292858e-03 8.13150660147210e-05
1.32759259259259e+01 4.80500611959540e-03 8.04302417773931e-05
1.33255555555556e+01 4.74382882998508e-03 7.95544899373883e-05
1.33751851851852e+01 4.68343044869630e-03 7.86877278256987e-05
1.34248148148148e+01 4.62380105912591e-03 7.78298733069756e-05
1.34744444444444e+01 4.56493087047401e-03 7.69808452155450e-05
1.35240740740741e+01 4.50681021617322e-03 7.61405624922811e-05
1.35737037037037e+01 4.44942955358796e-03 7.53089446166618e-05
1.36233333333333e+01 4.39277946114660e-03 7.44859118927110e-05
1.36729629629630e+01 4.33685063723317e-03 7.36713851488001e-05
1.37225925925926e+01 4.28163389826283e-03 7.28652854925464e-05
1.37722222222222e+01 4.22712017837765e-03 7.20675345742584e-05
1.38218518518519e+01 4.17330052674143e-03 7.12780549795488e-05
1.38714814814815e+01 4.12016610610205e-03 7.04967694497541e-05
1.39211111111111e+01 4.06770819248689e-03 6.97236012706910e-05
1.39707407407407e+01 4.01591817261115e-03 6.89584746481651e-05
1.40203703703704e+01 3.96478754249435e-03 6.82013139608426e-05
1.40700000000000e+01 3.91430790715615e-03 6.74520441322066e-05
1.41196296296296e+01 3.86447097813379e-03 6.67105908765744e-05
1.41692592592593e+01 3.81526857249329e-03 6.59768804384426e-05
1.42188888888889e+01 3.76669261114866e-03 6.52508393793075e-05
1.42685185185185e+01 3.71873511855749e-03 6.45323948043220e-05
1.43181481481481e+01 3.67138822037814e-03 6.38214747004846e-05
1.43677777777778e+01 3.62464414220411e-03 6.31180072615540e-05
1.44174074074074e+01 3.57849520926121e-03 6.24219212230096e-05
1.44670370370370e+01 3.53293384416290e-03 6.17331461856816e-05
1.45166666666667e+01 3.48795256569184e-03 6.10516119686786e-05
1.45662962962963e+01 3.44354398849974e-03 6.03772489298304e-05
1.46159259259259e+01 3.39970082095654e-03 5.97099881775074e-05
1.46655555555556e+01 3.35641586426915e-03 5.90497613442090e-05
1.47151851851852e+01 3.31368201101295e-03 5.83965004010776e-05
1.47648148148148e+01 3.27149224483374e-03 5.77501378530362e-05
1.48144444444444e+01 3.22983963841716e-03 5.71106070303022e-05
1.48640740740741e+01 3.18871735237448e-03 5.64778415034794e-05
1.49137037037037e+01 3.14811863494761e-03 5.58517753723680e-05
1.49633333333333e+01 3.10803682006333e-03 5.52323434564052e-05
1.50129629629630e+01 3.06846532652100e-03 5.46194810896967e-05
1.50625925925926e+01 3.02939765665588e-03 5.40131239529320e-05
1.51122222222222e+01 2.99082739604801e-03 5.34132082488223e-05
1.51618518518519e+01 2.95274821168502e-03 5.28196709649309e-05
1.52114814814815e+01 2.91515385094262e-03 5.22324493448055e-05
1.52611111111111e+01 2.87803814129741e-03 5.16514811481987e-05
1.53107407407407e+01 2.84139498856583e-03 5.10767049025806e-05
1.53603703703704e+01 2.80521837592294e-03 5.05080593960990e-05
1.54100000000000e+01 2.76950236361964e-03 4.99454839266772e-05
1.54596296296296e+01 2.73424108729465e-03 4.93889184661745e-05
1.55092592592593e+01 2.69942875725176e-03 4.88383034822024e-05
1.55588888888889e+01 2.66505965729122e-03 4.82935797917823e-05
1.56085185185185e+01 2.63112814443188e-03 4.77546887125647e-05
1.56581481481481e+01 2.59762864731684e-03 4.72215722896243e-05
