Energy (eV)          EEDF (eV^-(3/2))     First Anisotropy
3.27083333333333e-03 3.66986860846210e+00 2.72623113013464e-03
9.81250000000000e-03 3.61729156301907e+00 4.48461104640668e-03
1.63541666666667e-02 3.56546777238474e+00 5.87487841220290e-03
2.28958333333333e-02 3.51438644469595e+00 6.90390084562839e-03
2.94375000000000e-02 3.46403694293818e+00 7.73992133470281e-03
3.59791666666667e-02 3.41440878266315e+00 8.44727833928452e-03
4.25208333333333e-02 3.36549162928313e+00 9.05962829399485e-03
4.90625000000000e-02 3.31727529643194e+00 9.59750911265401e-03
5.56041666666667e-02 3.26974974377545e+00 1.00746819918583e-02
6.21458333333333e-02 3.22290507463587e+00 1.05009710396564e-02
6.86875000000000e-02 3.17673153421278e+00 1.08837202476083e-02
7.52291666666667e-02 3.13121950752374e+00 1.12286155538579e-02
8.17708333333333e-02 3.08635951721017e+00 1.15401824891455e-02
8.83125000000000e-02 3.04214222175466e+00 1.18221043444164e-02
9.48541666666667e-02 2.99855841352006e+00 1.20774346935078e-02
1.01395833333333e-01 2.95559901669014e+00 1.23087444863457e-02
1.07937500000000e-01 2.91325508540204e+00 1.25182269093004e-02
1.14479166666667e-01 2.87151780245305e+00 1.27077742172349e-02
1.21020833333333e-01 2.83037847622761e+00 1.28790350819044e-02
1.27562500000000e-01 2.78982853999530e+00 1.30334582384251e-02
1.34104166666667e-01 2.74985955005626e+00 1.31723265193501e-02
1.40645833333333e-01 2.71046318308710e+00 1.32967834379370e-02
1.47187500000000e-01 2.67163123530457e+00 1.34078543623289e-02
1.53729166666667e-01 2.63335562070499e+00 1.35064637754193e-02
1.60270833333333e-01 2.59562836863806e+00 1.35934491779943e-02
1.66812500000000e-01 2.55844162289115e+00 1.36695725247641e-02
1.73354166666667e-01 2.52178764001308e+00 1.37355298875962e-02
1.79895833333333e-01 2.48565878707501e+00 1.37919593947953e-02
1.86437500000000e-01 2.45004754070964e+00 1.38394479222415e-02
1.92979166666667e-01 2.41494648551248e+00 1.38785369274214e-02
1.99520833333333e-01 2.38034831196130e+00 1.39097272981253e-02
2.06062500000000e-01 2.34624581543253e+00 1.39334835173278e-02
2.12604166666667e-01 2.31263189467495e+00 1.39502374019210e-02
2.19145833333333e-01 2.27949954986650e+00 1.39603912250832e-02
2.25687500000000e-01 2.24684188162317e+00 1.39643204395645e-02
2.32229166666667e-01 2.21465208954079e+00 1.39623761927132e-02
2.38770833333333e-01 2.18292347037300e+00 1.39548874251203e-02
2.45312500000000e-01 2.15164941704329e+00 1.39421627240759e-02
2.51854166666667e-01 2.12082341725112e+00 1.39244920849336e-02
2.58395833333333e-01 2.09043905175828e+00 1.39021483722841e-02
2.64937500000000e-01 2.06048999341157e+00 1.38753886239419e-02
2.71479166666667e-01 2.03097000580988e+00 1.38444553271426e-02
2.78020833333333e-01 2.00187294168867e+00 1.38095774662909e-02
2.84562500000000e-01 1.97319274195850e+00 1.37709714662631e-02
2.91104166666667e-01 1.94492343443016e+00 1.37288421443396e-02
2.97645833333333e-01 1.91705913228854e+00 1.36833834804564e-02
3.04187500000000e-01 1.88959403315088e+00 1.36347793159026e-02
3.10729166666667e-01 1.86252241784714e+00 1.35832040814175e-02
3.17270833333333e-01 1.83583864897598e+00 1.35288233756207e-02
3.23812500000000e-01 1.80953716998541e+00 1.34717944931161e-02
3.30354166666667e-01 1.78361250400577e+00 1.34122669936712e-02
3.36895833333333e-01 1.75805925248162e+00 1.33503831446321e-02
3.43437500000000e-01 1.73287209427661e+00 1.32862783271233e-02
3.49979166666667e-01 1.70804578455661e+00 1.32200814895757e-02
3.56520833333333e-01 1.68357515349212e+00 1.31519154915275e-02
3.63062500000000e-01 1.65945510538851e+00 1.30818974208380e-02
3.69604166666667e-01 1.63568061761712e+00 1.30101389611853e-02
3.76145833333333e-01 1.61224673938333e+00 1.29367466629594e-02
3.82687500000000e-01 1.58914859088288e+00 1.28618221942863e-02
3.89229166666667e-01 1.56638136227888e+00 1.27854626432613e-02
3.95770833333333e-01 1.54394031253116e+00 1.27077607339987e-02
4.02312500000000e-01 1.52182076857920e+00 1.26288050276009e-02
4.08854166666667e-01 1.50001812436288e+00 1.25486801739963e-02
4.15395833333333e-01 1.47852783970938e+00 1.24674670860925e-02
4.21937500000000e-01 1.45734543954275e+00 1.23852431023237e-02
4.28479166666667e-01 1.43646651294655e+00 1.23020821989531e-02
4.35020833333333e-01 1.41588671210478e+00 1.22180551317763e-02
4.41562500000000e-01 1.39560175153800e+00 1.21332295687804e-02
4.48104166666667e-01 1.37560740720605e+00 1.20476702709797e-02
4.54645833333333e-01 1.35589951549982e+00 1.19614392086714e-02
4.61187500000000e-01 1.33647397250374e+00 1.18745956705646e-02
4.67729166666667e-01 1.31732673313675e+00 1.17871964192397e-02
4.74270833333333e-01 1.29845381019203e+00 1.16992957872242e-02
4.80812500000000e-01 1.27985127362553e+00 1.16109457673975e-02
4.87354166666667e-01 1.26151524973349e+00 1.15221961477369e-02
4.93895833333333e-01 1.24344192023754e+00 1.14330945912291e-02
5.00437500000000e-01 1.22562752159866e+00 1.13436867112264e-02
5.06979166666667e-01 1.20806834422982e+00 1.12540161891020e-02
5.13520833333333e-01 1.19076073162387e+00 1.11641248410934e-02
5.20062500000000e-01 1.17370107969247e+00 1.10740526814575e-02
5.26604166666667e-01 1.15688583601232e+00 1.09838380258802e-02
5.33145833333333e-01 1.14031149899351e+00 1.08935175476680e-02
5.39687500000000e-01 1.12397461724294e+00 1.08031263309296e-02
5.46229166666667e-01 1.10787178884254e+00 1.07126979620027e-02
5.52770833333333e-01 1.09199966055614e+00 1.06222645768964e-02
5.59312500000000e-01 1.07635492721657e+00 1.05318569062602e-02
5.65854166666667e-01 1.06093433103465e+00 1.04415043566474e-02
5.72395833333333e-01 1.04573466084247e+00 1.03512350507188e-02
5.78937500000000e-01 1.03075275150362e+00 1.02610758654061e-02
5.85479166666667e-01 1.01598548325156e+00 1.01710525044857e-02
5.92020833333333e-01 1.00142978096751e+00 1.00811895327595e-02
5.98562500000000e-01 9.87082613613112e-01 9.99151040853992e-03
6.05104166666667e-01 9.72940993596907e-01 9.90203754874355e-03
6.11645833333333e-01 9.59001976085139e-01 9.81279235802879e-03
6.18187500000000e-01 9.45262658456132e-01 9.72379525652114e-03
6.24729166666667e-01 9.31720179693710e-01 9.63506573842247e-03
6.31270833333333e-01 9.18371719729241e-01 9.54662239690597e-03
6.37812500000000e-01 9.05214498917074e-01 9.45848294782772e-03
6.44354166666667e-01 8.92245777453742e-01 9.37066428268404e-03
6.50895833333333e-01 8.79462854749714e-01 9.28318248991902e-03
6.57437500000000e-01 8.66863068925212e-01 9.19605287523654e-03
6.63979166666667e-01 8.54443796254094e-01 9.10929000960212e-03
6.70520833333333e-01 8.42202450563871e-01 9.02290774750481e-03
6.77062500000000e-01 8.30136482751228e-01 8.93691924437831e-03
6.83604166666667e-01 8.18243380249523e-01 8.85133700023593e-03
6.90145833333333e-01 8.06520666455727e-01 8.76617287533549e-03
6.96687500000000e-01 7.94965900264958e-01 8.68143810513216e-03
7.03229166666667e-01 7.83576675560610e-01 8.59714334004871e-03
7.09770833333333e-01 7.72350620666905e-01 8.51329865891727e-03
7.16312500000000e-01 7.61285397901806e-01 8.42991358181759e-03
7.22854166666667e-01 7.50378703088787e-01 8.34699710641132e-03
7.29395833333333e-01 7.39628265033807e-01 8.26455771947507e-03
7.35937500000000e-01 7.29031845095931e-01 8.18260340792102e-03
7.42479166666667e-01 7.18587236719836e-01 8.10114169206420e-03
7.49020833333333e-01 7.08292264936046e-01 8.02017963551284e-03
7.55562500000000e-01 6.98144785948633e-01 7.93972385462183e-03
7.62104166666667e-01 6.88142686687571e-01 7.85978054901225e-03
7.68645833333333e-01 6.78283884331146e-01 7.78035551004320e-03
7.75187500000000e-01 6.68566325910119e-01 7.70145412891065e-03
7.81729166666667e-01 6.58987987879077e-01 7.62308142469791e-03
7.88270833333333e-01 6.49546875659995e-01 7.54524205161959e-03
7.94812500000000e-01 6.40241023262246e-01 7.46794030594713e-03
8.01354166666667e-01 6.31068492872150e-01 7.39118015183198e-03
8.07895833333333e-01 6.22027374416701e-01 7.31496522748538e-03
8.14437500000000e-01 6.13115785198842e-01 7.23929885108551e-03
8.20979166666667e-01 6.04331869504435e-01 7.16418404458695e-03
8.27520833333333e-01 5.95673798185227e-01 7.08962353897516e-03
8.34062500000000e-01 5.87139768308813e-01 7.01561977928834e-03
8.40604166666667e-01 5.78728002782289e-01 6.94217494660076e-03
8.47145833333333e-01 5.70436749953573e-01 6.86929096247185e-03
8.53687500000000e-01 5.62264283275507e-01 6.79696949319762e-03
8.60229166666667e-01 5.54208900945477e-01 6.72521197013408e-03
8.66770833333333e-01 5.46268925524256e-01 6.65401959344490e-03
8.73312500000000e-01 5.38442703613700e-01 6.58339333567990e-03
8.79854166666667e-01 5.30728605511664e-01 6.51333396058637e-03
8.86395833333333e-01 5.23125024847563e-01 6.44384202624522e-03
8.92937500000000e-01 5.15630378273149e-01 6.37491788806251e-03
8.99479166666667e-01 5.08243105132061e-01 6.30656171620004e-03
9.06020833333333e-01 5.00961667111363e-01 6.23877349817690e-03
9.12562500000000e-01 4.93784547944880e-01 6.17155304134861e-03
9.19104166666667e-01 4.86710253096775e-01 6.10489998907433e-03
9.25645833333333e-01 4.79737309428328e-01 6.03881382285200e-03
9.32187500000000e-01 4.72864264913359e-01 5.97329386434912e-03
9.38729166666667e-01 4.66089688335222e-01 5.90833929041250e-03
9.45270833333333e-01 4.59412168968150e-01 5.84394913479535e-03
9.51812500000000e-01 4.52830316304289e-01 5.78012228979600e-03
9.58354166666667e-01 4.46342759763538e-01 5.71685752020597e-03
9.64895833333333e-01 4.39948148388807e-01 5.65415346467936e-03
9.71437500000000e-01 4.33645150584205e-01 5.59200863702922e-03
9.77979166666667e-01 4.27432453837184e-01 5.53042143919862e-03
9.84520833333333e-01 4.21308764427090e-01 5.46939016231832e-03
9.91062500000000e-01 4.15272807174055e-01 5.40891298770344e-03
9.97604166666667e-01 4.09323325172938e-01 5.34898799892513e-03
1.00414583333333e+00 4.03459079514556e-01 5.28961318600174e-03
1.01068750000000e+00 3.97678849028684e-01 5.23078642914684e-03
1.01722916666667e+00 3.91981430109988e-01 5.17250554038460e-03
1.02377083333333e+00 3.86365636290474e-01 5.11476825105805e-03
1.03031250000000e+00 3.80830298153746e-01 5.05757217810241e-03
1.03685416666667e+00 3.75374263086910e-01 5.00091489485966e-03
1.04339583333333e+00 3.69996394890306e-01 4.94479390164702e-03
1.04993750000000e+00 3.64695573692453e-01 4.88920659706660e-03
1.05647916666667e+00 3.59470695712567e-01 4.83415034500822e-03
1.06302083333333e+00 3.54320672889516e-01 4.77962244656636e-03
1.06956250000000e+00 3.49244432797655e-01 4.72562011266527e-03
1.07610416666667e+00 3.44240918419499e-01 4.67214052747204e-03
1.08264583333333e+00 3.39309087792876e-01 4.61918082160273e-03
1.08918750000000e+00 3.34447913927833e-01 4.56673804600439e-03
1.09572916666667e+00 3.29656384589014e-01 4.51480923198572e-03
1.10227083333333e+00 3.24933501960062e-01 4.46339136565540e-03
1.10881250000000e+00 3.20278282561730e-01 4.41248136300448e-03
1.11535416666667e+00 3.15689757043557e-01 4.36207612674928e-03
1.12189583333333e+00 3.11166969864605e-01 4.31217252194586e-03
1.12843750000000e+00 3.06708979212905e-01 4.26276735221874e-03
1.13497916666667e+00 3.02314856806033e-01 4.21385741359828e-03
1.14152083333333e+00 2.97983687587323e-01 4.16543947125779e-03
1.14806250000000e+00 2.93714569646759e-01 4.11751023683672e-03
1.15460416666667e+00 2.89506614030064e-01 4.07006641944220e-03
1.16114583333333e+00 2.85358944449589e-01 4.02310470345843e-03
1.16768750000000e+00 2.81270697206738e-01 3.97662172691448e-03
1.17422916666667e+00 2.77241021009199e-01 3.93061412980940e-03
1.18077083333333e+00 2.73269076695760e-01 3.88507853294422e-03
1.18731250000000e+00 2.69354037160333e-01 3.84001151728716e-03
1.19385416666667e+00 2.65495087176980e-01 3.79540966977202e-03
1.20039583333333e+00 2.61691423137943e-01 3.75126956310604e-03
1.20693750000000e+00 2.57942252979318e-01 3.70758773608644e-03
1.21347916666667e+00 2.54246796013548e-01 3.66436073701244e-03
1.22002083333333e+00 2.50604282679987e-01 3.62158510442440e-03
1.22656250000000e+00 2.47013954472277e-01 3.57925734832776e-03
1.23310416666667e+00 2.43475063777982e-01 3.53737399135055e-03
1.23964583333333e+00 2.39986873641050e-01 3.49593155037067e-03
1.24618750000000e+00 2.36548657690931e-01 3.45492651860555e-03
1.25272916666667e+00 2.33159699989039e-01 3.41435540463929e-03
1.25927083333333e+00 2.29819294802521e-01 3.37421471489698e-03
1.26581250000000e+00 2.26526746535127e-01 3.33450093655983e-03
1.27235416666667e+00 2.23281369580221e-01 3.29521057457840e-03
1.27889583333333e+00 2.20082488105277e-01 3.25634013495491e-03
1.28543750000000e+00 2.16929435984523e-01 3.21788610844572e-03
1.29197916666667e+00 2.13821556658220e-01 3.17984500567004e-03
1.29852083333333e+00 2.10758202927348e-01 3.14221334116289e-03
1.30506250000000e+00 2.07738736888034e-01 3.10498761782820e-03
1.31160416666667e+00 2.04762529796821e-01 3.06816436024647e-03
1.31814583333333e+00 2.01828961875050e-01 3.03174009946242e-03
1.32468750000000e+00 1.98937422245060e-01 2.99571135815393e-03
1.33122916666667e+00 1.96087308801205e-01 2.96007468223587e-03
1.33777083333333e+00 1.93278028023436e-01 2.92482662634798e-03
1.34431250000000e+00 1.90508994915280e-01 2.88996373970661e-03
1.35085416666667e+00 1.87779632880354e-01 2.85548259609613e-03
1.35739583333333e+00 1.85089373544691e-01 2.82137978002461e-03
1.36393750000000e+00 1.82437656696496e-01 2.78765187322669e-03
1.37047916666667e+00 1.79823930167908e-01 2.75429548312848e-03
1.37702083333333e+00 1.77247649665655e-01 2.72130722964020e-03
1.38356250000000e+00 1.74708278712560e-01 2.68868373227964e-03
1.39010416666667e+00 1.72205288534336e-01 2.65642163719210e-03
1.39664583333333e+00 1.69738157898154e-01 2.62451760455041e-03
1.40318750000000e+00 1.67306373055886e-01 2.59296829626995e-03
1.40972916666667e+00 1.64909427635713e-01 2.56177040166021e-03
1.41627083333333e+00 1.62546822488229e-01 2.53092062540392e-03
1.42281250000000e+00 1.60218065631384e-01 2.50041567583622e-03
1.42935416666667e+00 1.57922672146718e-01 2.47025228930040e-03
1.43589583333333e+00 1.55660164032612e-01 2.44042721867889e-03
1.44243750000000e+00 1.53430070150932e-01 2.41093722221029e-03
1.44897916666667e+00 1.51231926127667e-01 2.38177908661758e-03
1.45552083333333e+00 1.49065274213002e-01 2.35294961616528e-03
1.46206250000000e+00 1.46929663229616e-01 2.32444562198958e-03
1.46860416666667e+00 1.44824648477553e-01 2.29626394406309e-03
1.47514583333333e+00 1.42749791600774e-01 2.26840144075388e-03
1.48168750000000e+00 1.40704660537088e-01 2.24085497864471e-03
1.48822916666667e+00 1.38688829427068e-01 2.21362145339546e-03
1.49477083333333e+00 1.36701878486782e-01 2.18669777978052e-03
1.50131250000000e+00 1.34743393959311e-01 2.16008088197433e-03
1.50785416666667e+00 1.32812968027551e-01 2.13376771336892e-03
1.51439583333333e+00 1.30910198692813e-01 2.10775524706750e-03
1.52093750000000e+00 1.29034689727909e-01 2.08204046661470e-03
1.52747916666667e+00 1.27186050593666e-01 2.05662038482361e-03
1.53402083333333e+00 1.25363896323114e-01 2.03149203470419e-03
1.54056250000000e+00 1.23567847476112e-01 2.00665246061760e-03
1.54710416666667e+00 1.21797530059407e-01 1.98209873616391e-03
1.55364583333333e+00 1.20052575416154e-01 1.95782795552544e-03
1.56018750000000e+00 1.18332620182037e-01 1.93383722502541e-03
1.56672916666667e+00 1.16637306208729e-01 1.91012368012470e-03
1.57327083333333e+00 1.14966280458484e-01 1.88668447716095e-03
1.57981250000000e+00 1.13319194961725e-01 1.86351678529270e-03
1.58635416666667e+00 1.11695706743752e-01 1.84061780265142e-03
1.59289583333333e+00 1.10095477724174e-01 1.81798474845766e-03
1.59943750000000e+00 1.08518174675918e-01 1.79561485533297e-03
1.60597916666667e+00 1.06963469155058e-01 1.77350538465042e-03
1.61252083333333e+00 1.05431037404844e-01 1.75165361901044e-03
1.61906250000000e+00 1.03920560316111e-01 1.73005685490351e-03
1.62560416666667e+00 1.02431723360083e-01 1.70871241730037e-03
1.63214583333333e+00 1.00964216496796e-01 1.68761765247091e-03
1.63868750000000e+00 9.95177341368517e-02 1.66676992098097e-03
1.64522916666667e+00 9.80919750770876e-02 1.64616661156129e-03
1.65177083333333e+00 9.66866424131725e-02 1.62580513425366e-03
1.65831250000000e+00 9.53014435026837e-02 1.60568291372648e-03
1.66485416666667e+00 9.39360899035078e-02 1.58579740245909e-03
1.67139583333333e+00 9.25902972904208e-02 1.56614607419992e-03
1.67793750000000e+00 9.12637854194469e-02 1.54672641758632e-03
1.68447916666667e+00 8.99562780688781e-02 1.52753594867899e-03
1.69102083333333e+00 8.86675029596495e-02 1.50857220471774e-03
1.69756250000000e+00 8.73971917209448e-02 1.48983273803137e-03
1.70410416666667e+00 8.61450798337219e-02 1.47131512795533e-03
1.71064583333333e+00 8.49109065547073e-02 1.45301697487133e-03
1.71718750000000e+00 8.36944148832112e-02 1.43493589439385e-03
1.72372916666667e+00 8.24953515070536e-02 1.41706952870233e-03
1.73027083333333e+00 8.13134667300071e-02 1.39941554085142e-03
1.73681250000000e+00 8.01485144397881e-02 1.38197160922147e-03
1.74335416666667e+00 7.90002520562795e-02 1.36473543829472e-03
1.74989583333333e+00 7.78684404622630e-02 1.34770475322382e-03
1.75643750000000e+00 7.67528439725491e-02 1.33087729453409e-03
1.76297916666667e+00 7.56532302844010e-02 1.31425082837171e-03
1.76952083333333e+00 7.45693704114010e-02 1.29782314131866e-03
1.77606250000000e+00 7.35010386536872e-02 1.28159203533502e-03
1.78260416666667e+00 7.24480125504827e-02 1.26555533750592e-03
1.78914583333333e+00 7.14100728169528e-02 1.24971089509140e-03
1.79568750000000e+00 7.03870033155123e-02 1.23405657069794e-03
1.80222916666667e+00 6.93785910103718e-02 1.21859025154902e-03
1.80877083333333e+00 6.83846259072462e-02 1.20330984475933e-03
1.81531250000000e+00 6.74049010256999e-02 1.18821327272475e-03
1.82185416666667e+00 6.64392123556244e-02 1.17329848194075e-03
1.82839583333333e+00 6.54873587996655e-02 1.15856343849035e-03
1.83493750000000e+00 6.45491421465743e-02 1.14400612364263e-03
1.84147916666667e+00 6.36243670295333e-02 1.12962454224144e-03
1.84802083333333e+00 6.27128408711776e-02 1.11541671839744e-03
1.85456250000000e+00 6.18143738579190e-02 1.10138069128562e-03
1.86110416666667e+00 6.09287789000420e-02 1.08751452312576e-03
1.86764583333333e+00 6.00558715791993e-02 1.07381629506903e-03
1.87418750000000e+00 5.91954701236779e-02 1.06028410318544e-03
1.88072916666667e+00 5.83473953701894e-02 1.04691606605639e-03
1.88727083333333e+00 5.75114707137263e-02 1.03371032084712e-03
1.89381250000000e+00 5.66875220837385e-02 1.02066501947509e-03
1.90035416666667e+00 5.58753779075469e-02 1.00777833583409e-03
1.90689583333333e+00 5.50748690624515e-02 9.95048462043898e-04
1.91343750000000e+00 5.42858288527884e-02 9.82473604791506e-04
1.91997916666667e+00 5.35080929748974e-02 9.70051992204974e-04
1.92652083333333e+00 5.27414994713784e-02 9.57781870272183e-04
1.93306250000000e+00 5.19858887090004e-02 9.45661499346921e-04
1.93960416666667e+00 5.12411033451563e-02 9.33689160689949e-04
1.94614583333333e+00 5.05069882841698e-02 9.21863153049121e-04
1.95268750000000e+00 4.97833906560268e-02 9.10181789322829e-04
1.95922916666667e+00 4.90701597842552e-02 8.98643402784614e-04
1.96577083333333e+00 4.83671471441880e-02 8.87246343817276e-04
1.97231250000000e+00 4.76742063424893e-02 8.75988976726618e-04
1.97885416666667e+00 4.69911930863987e-02 8.64869685665247e-04
1.98539583333333e+00 4.63179651438604e-02 8.53886871513655e-04
1.99193750000000e+00 4.56543823238183e-02 8.43038948837229e-04
1.99847916666667e+00 4.50003064467651e-02 8.32324351524180e-04
2.00502083333333e+00 4.43556013066542e-02 8.21741529806906e-04
2.01156250000000e+00 4.37201326519355e-02 8.11288947355758e-04
2.01810416666667e+00 4.30937681573552e-02 8.00965086645156e-04
2.02464583333333e+00 4.24763773875688e-02 7.90768446108822e-04
2.03118750000000e+00 4.18678317788917e-02 7.80697537364101e-04
2.03772916666667e+00 4.12680046122972e-02 7.70750890319627e-04
2.04427083333333e+00 4.06767709786519e-02 7.60927050458291e-04
2.05081250000000e+00 4.00940077611582e-02 7.51224576186190e-04
2.05735416666667e+00 3.95195936094975e-02 7.41642043694568e-04
2.06389583333333e+00 3.89534089066160e-02 7.32178044364749e-04
