Energy (eV)          EEDF (eV^-(3/2))     First Anisotropy
1.03500000000000e-03 1.47209075157825e+01 9.32240678293865e-03
3.10500000000000e-03 1.45523487777459e+01 1.53574394108993e-02
5.17500000000000e-03 1.43857200870488e+01 2.01770849214227e-02
7.24500000000000e-03 1.42209993440678e+01 2.37804240684958e-02
9.31500000000000e-03 1.40581647022362e+01 2.67378884621605e-02
1.13850000000000e-02 1.38971945651381e+01 2.92666407130739e-02
1.34550000000000e-02 1.37380675836433e+01 3.14797997967667e-02
1.55250000000000e-02 1.35807626530759e+01 3.34461109662685e-02
1.75950000000000e-02 1.34252589104144e+01 3.52114533243007e-02
1.96650000000000e-02 1.32715357315255e+01 3.68084538877028e-02
2.17350000000000e-02 1.31195727284281e+01 3.82614122477827e-02
2.38050000000000e-02 1.29693497465897e+01 3.95890745244807e-02
2.58750000000000e-02 1.28208468622529e+01 4.08063099490091e-02
2.79450000000000e-02 1.26740443797935e+01 4.19251810307050e-02
3.00150000000000e-02 1.25289228291078e+01 4.29556571132417e-02
3.20850000000000e-02 1.23854629630307e+01 4.39061074733027e-02
3.41550000000000e-02 1.22436457547827e+01 4.47836524089156e-02
3.62250000000000e-02 1.21034523954465e+01 4.55944196392899e-02
3.82950000000000e-02 1.19648642914726e+01 4.63437356864724e-02
4.03650000000000e-02 1.18278630622132e+01 4.70362714659191e-02
4.24350000000000e-02 1.16924305374841e+01 4.76761549063345e-02
4.45050000000000e-02 1.15585487551552e+01 4.82670593632045e-02
4.65750000000000e-02 1.14261999587681e+01 4.88122739510006e-02
4.86450000000000e-02 1.12953665951812e+01 4.93147601590382e-02
5.07150000000000e-02 1.11660313122413e+01 4.97771979167248e-02
5.27850000000000e-02 1.10381769564827e+01 5.02020234406825e-02
5.48550000000000e-02 1.09117865708518e+01 5.05914606070207e-02
5.69250000000000e-02 1.07868433924584e+01 5.09475471687591e-02
5.89950000000000e-02 1.06633308503523e+01 5.12721568298532e-02
6.10650000000000e-02 1.05412325633254e+01 5.15670179593656e-02
6.31350000000000e-02 1.04205323377397e+01 5.18337295588761e-02
6.52050000000000e-02 1.03012141653786e+01 5.20737749673904e-02
6.72750000000000e-02 1.01832622213247e+01 5.22885336895217e-02
6.93450000000000e-02 1.00666608618604e+01 5.24792916567340e-02
7.14150000000000e-02 9.95139462239336e+00 5.26472501723339e-02
7.34850000000000e-02 9.83744821540536e+00 5.27935337444207e-02
7.55550000000000e-02 9.72480652842476e+00 5.29191969743040e-02
7.76250000000000e-02 9.61345462202223e+00 5.30252306386112e-02
7.96950000000000e-02 9.50337772782928e+00 5.31125670797811e-02
8.17650000000000e-02 9.39456124657960e+00 5.31820850006888e-02
8.38350000000000e-02 9.28699074617281e+00 5.32346137437123e-02
8.59050000000000e-02 9.18065195976033e+00 5.32709371219109e-02
8.79750000000000e-02 9.07553078385321e+00 5.32917968596446e-02
9.00450000000000e-02 8.97161327645161e+00 5.32978956913791e-02
9.21150000000000e-02 8.86888565519570e+00 5.32899001603151e-02
9.41850000000000e-02 8.76733429553777e+00 5.32684431525474e-02
9.62550000000000e-02 8.66694572893517e+00 5.32341261974693e-02
9.83250000000000e-02 8.56770664106405e+00 5.31875215609750e-02
1.00395000000000e-01 8.46960387005351e+00 5.31291741544545e-02
1.02465000000000e-01 8.37262440473996e+00 5.30596032795895e-02
1.04535000000000e-01 8.27675538294145e+00 5.29793042264020e-02
1.06605000000000e-01 8.18198408975184e+00 5.28887497398191e-02
1.08675000000000e-01 8.08829795585440e+00 5.27883913681525e-02
1.10745000000000e-01 7.99568455585480e+00 5.26786607052780e-02
1.12815000000000e-01 7.90413160663314e+00 5.25599705369233e-02
1.14885000000000e-01 7.81362696571487e+00 5.24327159002474e-02
1.16955000000000e-01 7.72415862966035e+00 5.22972750648699e-02
1.19025000000000e-01 7.63571473247289e+00 5.21540104426079e-02
1.21095000000000e-01 7.54828354402496e+00 5.20032694323717e-02
1.23165000000000e-01 7.46185346850244e+00 5.18453852059749e-02
1.25235000000000e-01 7.37641304286671e+00 5.16806774400187e-02
1.27305000000000e-01 7.29195093533434e+00 5.15094529984746e-02
1.29375000000000e-01 7.20845594387415e+00 5.13320065701209e-02
1.31445000000000e-01 7.12591699472153e+00 5.11486212645586e-02
1.33515000000000e-01 7.04432314090976e+00 5.09595691701719e-02
1.35585000000000e-01 6.96366356081811e+00 5.07651118770981e-02
1.37655000000000e-01 6.88392755673658e+00 5.05655009679304e-02
1.39725000000000e-01 6.80510455344714e+00 5.03609784786584e-02
1.41795000000000e-01 6.72718409682113e+00 5.01517773321254e-02
1.43865000000000e-01 6.65015585243273e+00 4.99381217460377e-02
1.45935000000000e-01 6.57400960418836e+00 4.97202276174048e-02
1.48005000000000e-01 6.49873525297172e+00 4.94983028851343e-02
1.50075000000000e-01 6.42432281530438e+00 4.92725478723281e-02
1.52145000000000e-01 6.35076242202169e+00 4.90431556097039e-02
1.54215000000000e-01 6.27804431696384e+00 4.88103121414638e-02
1.56285000000000e-01 6.20615885568194e+00 4.85741968148009e-02
1.58355000000000e-01 6.13509650415887e+00 4.83349825541321e-02
1.60425000000000e-01 6.06484783754485e+00 4.80928361210873e-02
1.62495000000000e-01 5.99540353890738e+00 4.78479183611813e-02
1.64565000000000e-01 5.92675439799562e+00 4.76003844380087e-02
1.66635000000000e-01 5.85889131001881e+00 4.73503840557792e-02
1.68705000000000e-01 5.79180527443871e+00 4.70980616709099e-02
1.70775000000000e-01 5.72548739377594e+00 4.68435566933413e-02
1.72845000000000e-01 5.65992887242986e+00 4.65870036782238e-02
1.74915000000000e-01 5.59512101551206e+00 4.63285325085373e-02
1.76985000000000e-01 5.53105522769317e+00 4.60682685691920e-02
1.79055000000000e-01 5.46772301206290e+00 4.58063329130970e-02
1.81125000000000e-01 5.40511596900304e+00 4.55428424196690e-02
1.83195000000000e-01 5.34322579507355e+00 4.52779099462133e-02
1.85265000000000e-01 5.28204428191119e+00 4.50116444725764e-02
1.87335000000000e-01 5.22156331514091e+00 4.47441512394413e-02
1.89405000000000e-01 5.16177487329967e+00 4.44755318806165e-02
1.91475000000000e-01 5.10267102677252e+00 4.42058845496471e-02
1.93545000000000e-01 5.04424393674097e+00 4.39353040410500e-02
1.95615000000000e-01 4.98648585414330e+00 4.36638819064560e-02
1.97685000000000e-01 4.92938911864684e+00 4.33917065659283e-02
1.99755000000000e-01 4.87294615763199e+00 4.31188634147085e-02
2.01825000000000e-01 4.81714948518789e+00 4.28454349256163e-02
2.03895000000000e-01 4.76199170111954e+00 4.25715007473281e-02
2.05965000000000e-01 4.70746548996641e+00 4.22971377987431e-02
2.08035000000000e-01 4.65356362003210e+00 4.20224203596206e-02
2.10105000000000e-01 4.60027894242529e+00 4.17474201576786e-02
2.12175000000000e-01 4.54760439011159e+00 4.14722064523288e-02
2.14245000000000e-01 4.49553297697623e+00 4.11968461151896e-02
2.16315000000000e-01 4.44405779689750e+00 4.09214037075484e-02
2.18385000000000e-01 4.39317202283086e+00 4.06459415549151e-02
2.20455000000000e-01 4.34286890590341e+00 4.03705198187864e-02
2.22525000000000e-01 4.29314177451887e+00 4.00951965657612e-02
2.24595000000000e-01 4.24398403347266e+00 3.98200278341237e-02
2.26665000000000e-01 4.19538916307730e+00 3.95450676980078e-02
2.28735000000000e-01 4.14735071829762e+00 3.92703683292527e-02
2.30805000000000e-01 4.09986232789600e+00 3.89959800570440e-02
2.32875000000000e-01 4.05291769358739e+00 3.87219514254418e-02
2.34945000000000e-01 4.00651058920397e+00 3.84483292488922e-02
2.37015000000000e-01 3.96063485986936e+00 3.81751586657991e-02
2.39085000000000e-01 3.91528442118234e+00 3.79024831902366e-02
2.41155000000000e-01 3.87045325840988e+00 3.76303447618900e-02
2.43225000000000e-01 3.82613542568942e+00 3.73587837942961e-02
2.45295000000000e-01 3.78232504524030e+00 3.70878392214462e-02
2.47365000000000e-01 3.73901630658414e+00 3.68175485428235e-02
2.49435000000000e-01 3.69620346577429e+00 3.65479478669379e-02
2.51505000000000e-01 3.65388084463398e+00 3.62790719534196e-02
2.53575000000000e-01 3.61204283000324e+00 3.60109542537239e-02
2.55645000000000e-01 3.57068387299442e+00 3.57436269505049e-02
2.57715000000000e-01 3.52979848825631e+00 3.54771209957113e-02
2.59785000000000e-01 3.48938125324655e+00 3.52114661474532e-02
2.61855000000000e-01 3.44942680751251e+00 3.49466910056824e-02
2.63925000000000e-01 3.40992985198033e+00 3.46828230467365e-02
2.65995000000000e-01 3.37088514825211e+00 3.44198886567891e-02
2.68065000000000e-01 3.33228751791115e+00 3.41579131642457e-02
2.70135000000000e-01 3.29413184183514e+00 3.38969208711240e-02
2.72205000000000e-01 3.25641305951725e+00 3.36369350834560e-02
2.74275000000000e-01 3.21912616839492e+00 3.33779781407468e-02
2.76345000000000e-01 3.18226622318645e+00 3.31200714445289e-02
2.78415000000000e-01 3.14582833523504e+00 3.28632354860407e-02
2.80485000000000e-01 3.10980767186047e+00 3.26074898730598e-02
2.82555000000000e-01 3.07419945571813e+00 3.23528533559222e-02
2.84625000000000e-01 3.03899896416542e+00 3.20993438527561e-02
2.86695000000000e-01 3.00420152863539e+00 3.18469784739581e-02
2.88765000000000e-01 2.96980253401757e+00 3.15957735459382e-02
2.90835000000000e-01 2.93579741804584e+00 3.13457446341560e-02
2.92905000000000e-01 2.90218167069342e+00 3.10969065654775e-02
2.94975000000000e-01 2.86895083357462e+00 3.08492734498712e-02
2.97045000000000e-01 2.83610049935361e+00 3.06028587014651e-02
2.99115000000000e-01 2.80362631115985e+00 3.03576750589902e-02
3.01185000000000e-01 2.77152396201027e+00 3.01137346056314e-02
3.03255000000000e-01 2.73978919423799e+00 2.98710487882966e-02
3.05325000000000e-01 2.70841779892771e+00 2.96296284363321e-02
3.07395000000000e-01 2.67740561535743e+00 2.93894837797011e-02
3.09465000000000e-01 2.64674853044667e+00 2.91506244666411e-02
3.11535000000000e-01 2.61644247821091e+00 2.89130595808131e-02
3.13605000000000e-01 2.58648343922236e+00 2.86767976579644e-02
3.15675000000000e-01 2.55686744007689e+00 2.84418467021226e-02
3.17745000000000e-01 2.52759055286697e+00 2.82082142013269e-02
3.19815000000000e-01 2.49864889466083e+00 2.79759071429176e-02
3.21885000000000e-01 2.47003862698737e+00 2.77449320283983e-02
3.23955000000000e-01 2.44175595532714e+00 2.75152948878797e-02
3.26025000000000e-01 2.41379712860904e+00 2.72870012941214e-02
3.28095000000000e-01 2.38615843871287e+00 2.70600563761815e-02
3.30165000000000e-01 2.35883621997748e+00 2.68344648326888e-02
3.32235000000000e-01 2.33182684871463e+00 2.66102309447479e-02
3.34305000000000e-01 2.30512674272838e+00 2.63873585884871e-02
3.36375000000000e-01 2.27873236083997e+00 2.61658512472606e-02
3.38445000000000e-01 2.25264020241823e+00 2.59457120235168e-02
3.40515000000000e-01 2.22684680691520e+00 2.57269436503408e-02
3.42585000000000e-01 2.20134875340726e+00 2.55095485026830e-02
3.44655000000000e-01 2.17614266014133e+00 2.52935286082763e-02
3.46725000000000e-01 2.15122518408645e+00 2.50788856582623e-02
3.48795000000000e-01 2.12659302049031e+00 2.48656210175273e-02
3.50865000000000e-01 2.10224290244101e+00 2.46537357347545e-02
3.52935000000000e-01 2.07817160043376e+00 2.44432305522095e-02
3.55005000000000e-01 2.05437592194254e+00 2.42341059152583e-02
3.57075000000000e-01 2.03085271099671e+00 2.40263619816294e-02
3.59145000000000e-01 2.00759884776240e+00 2.38199986304280e-02
3.61215000000000e-01 1.98461124812880e+00 2.36150154709043e-02
3.63285000000000e-01 1.96188686329904e+00 2.34114118509913e-02
3.65355000000000e-01 1.93942267938590e+00 2.32091868656116e-02
3.67425000000000e-01 1.91721571701204e+00 2.30083393647617e-02
3.69495000000000e-01 1.89526303091489e+00 2.28088679613801e-02
3.71565000000000e-01 1.87356170955600e+00 2.26107710390064e-02
3.73635000000000e-01 1.85210887473487e+00 2.24140467592361e-02
3.75705000000000e-01 1.83090168120729e+00 2.22186930689752e-02
3.77775000000000e-01 1.80993731630790e+00 2.20247077075033e-02
3.79845000000000e-01 1.78921299957720e+00 2.18320882133514e-02
3.81915000000000e-01 1.76872598239279e+00 2.16408319309922e-02
3.83985000000000e-01 1.74847354760478e+00 2.14509360173530e-02
3.86055000000000e-01 1.72845300917546e+00 2.12623974481618e-02
3.88125000000000e-01 1.70866171182305e+00 2.10752130241184e-02
3.90195000000000e-01 1.68909703066953e+00 2.08893793769053e-02
3.92265000000000e-01 1.66975637089249e+00 2.07048929750392e-02
3.94335000000000e-01 1.65063716738103e+00 2.05217501295663e-02
3.96405000000000e-01 1.63173688439552e+00 2.03399469996081e-02
3.98475000000000e-01 1.61305301523128e+00 2.01594795977599e-02
4.00545000000000e-01 1.59458308188616e+00 1.99803437953469e-02
4.02615000000000e-01 1.57632463473186e+00 1.98025353275402e-02
4.04685000000000e-01 1.55827525218903e+00 1.96260497983370e-02
4.06755000000000e-01 1.54043254040614e+00 1.94508826854116e-02
4.08825000000000e-01 1.52279413294197e+00 1.92770293448353e-02
4.10895000000000e-01 1.50535769045174e+00 1.91044850156715e-02
4.12965000000000e-01 1.48812090037685e+00 1.89332448244501e-02
4.15035000000000e-01 1.47108147663819e+00 1.87633037895240e-02
4.17105000000000e-01 1.45423715933294e+00 1.85946568253077e-02
4.19175000000000e-01 1.43758571443482e+00 1.84272987464047e-02
4.21245000000000e-01 1.42112493349780e+00 1.82612242716245e-02
4.23315000000000e-01 1.40485263336325e+00 1.80964280278956e-02
4.25385000000000e-01 1.38876665587030e+00 1.79329045540710e-02
4.27455000000000e-01 1.37286486756971e+00 1.77706483046320e-02
4.29525000000000e-01 1.35714515944081e+00 1.76096536532969e-02
4.31595000000000e-01 1.34160544661189e+00 1.74499148965303e-02
4.33665000000000e-01 1.32624366808360e+00 1.72914262569599e-02
4.35735000000000e-01 1.31105778645566e+00 1.71341818867024e-02
4.37805000000000e-01 1.29604578765662e+00 1.69781758705985e-02
4.39875000000000e-01 1.28120568067674e+00 1.68234022293616e-02
4.41945000000000e-01 1.26653549730394e+00 1.66698549226436e-02
4.44015000000000e-01 1.25203329186274e+00 1.65175278520163e-02
4.46085000000000e-01 1.23769714095622e+00 1.63664148638719e-02
4.48155000000000e-01 1.22352514321092e+00 1.62165097522473e-02
4.50225000000000e-01 1.20951541902467e+00 1.60678062615709e-02
4.52295000000000e-01 1.19566611031731e+00 1.59202980893336e-02
4.54365000000000e-01 1.18197538028423e+00 1.57739788886898e-02
4.56435000000000e-01 1.16844141315278e+00 1.56288422709855e-02
4.58505000000000e-01 1.15506241394145e+00 1.54848818082162e-02
4.60575000000000e-01 1.14183660822180e+00 1.53420910354218e-02
4.62645000000000e-01 1.12876224188310e+00 1.52004634530117e-02
4.64715000000000e-01 1.11583758089973e+00 1.50599925290273e-02
4.66785000000000e-01 1.10306091110116e+00 1.49206717013429e-02
4.68855000000000e-01 1.09043053794462e+00 1.47824943798048e-02
4.70925000000000e-01 1.07794478629037e+00 1.46454539483102e-02
4.72995000000000e-01 1.06560200017950e+00 1.45095437668294e-02
4.75065000000000e-01 1.05340054261431e+00 1.43747571733714e-02
4.77135000000000e-01 1.04133879534123e+00 1.42410874858948e-02
4.79205000000000e-01 1.02941515863615e+00 1.41085280041633e-02
4.81275000000000e-01 1.01762805109230e+00 1.39770720115505e-02
4.83345000000000e-01 1.00597590941046e+00 1.38467127767938e-02
4.85415000000000e-01 9.94457188191649e-01 1.37174435556961e-02
4.87485000000000e-01 9.83070359732175e-01 1.35892575927812e-02
4.89555000000000e-01 9.71813913820995e-01 1.34621481229007e-02
4.91625000000000e-01 9.60686357539430e-01 1.33361083727947e-02
4.93695000000000e-01 9.49686215063160e-01 1.32111315626082e-02
4.95765000000000e-01 9.38812027466491e-01 1.30872109073627e-02
4.97835000000000e-01 9.28062352528858e-01 1.29643396183848e-02
4.99905000000000e-01 9.17435764543547e-01 1.28425109046937e-02
5.01975000000000e-01 9.06930854128609e-01 1.27217179743460e-02
5.04045000000000e-01 8.96546228039932e-01 1.26019540357434e-02
5.06115000000000e-01 8.86280508986461e-01 1.24832122988993e-02
5.08185000000000e-01 8.76132335447531e-01 1.23654859766686e-02
5.10255000000000e-01 8.66100361492290e-01 1.22487682859394e-02
5.12325000000000e-01 8.56183256601193e-01 1.21330524487898e-02
5.14395000000000e-01 8.46379705489536e-01 1.20183316936098e-02
5.16465000000000e-01 8.36688407933011e-01 1.19045992561870e-02
5.18535000000000e-01 8.27108078595266e-01 1.17918483807604e-02
5.20605000000000e-01 8.17637446857427e-01 1.16800723210406e-02
5.22675000000000e-01 8.08275256649582e-01 1.15692643411992e-02
5.24745000000000e-01 7.99020266284192e-01 1.14594177168258e-02
5.26815000000000e-01 7.89871248291405e-01 1.13505257358560e-02
5.28885000000000e-01 7.80826989256262e-01 1.12425816994689e-02
5.30955000000000e-01 7.71886289657763e-01 1.11355789229558e-02
5.33025000000000e-01 7.63047963709779e-01 1.10295107365608e-02
5.35095000000000e-01 7.54310839203781e-01 1.09243704862941e-02
5.37165000000000e-01 7.45673757353376e-01 1.08201515347194e-02
5.39235000000000e-01 7.37135572640613e-01 1.07168472617134e-02
5.41305000000000e-01 7.28695152664064e-01 1.06144510652002e-02
5.43375000000000e-01 7.20351377988631e-01 1.05129563618623e-02
5.45445000000000e-01 7.12103141997076e-01 1.04123565878264e-02
5.47515000000000e-01 7.03949350743257e-01 1.03126451993248e-02
5.49585000000000e-01 6.95888922807040e-01 1.02138156733350e-02
5.51655000000000e-01 6.87920789150867e-01 1.01158615081963e-02
5.53725000000000e-01 6.80043892977979e-01 1.00187762242045e-02
5.55795000000000e-01 6.72257189592249e-01 9.92255336418483e-03
5.57865000000000e-01 6.64559646259633e-01 9.82718649404458e-03
5.59935000000000e-01 6.56950242071194e-01 9.73266920330549e-03
5.62005000000000e-01 6.49427967807705e-01 9.63899510561617e-03
5.64075000000000e-01 6.41991825805795e-01 9.54615783924415e-03
5.66145000000000e-01 6.34640829825636e-01 9.45415106755082e-03
5.68215000000000e-01 6.27374004920137e-01 9.36296847944711e-03
5.70285000000000e-01 6.20190387305636e-01 9.27260378983043e-03
5.72355000000000e-01 6.13089024234082e-01 9.18305074000610e-03
5.74425000000000e-01 6.06068973866669e-01 9.09430309808983e-03
5.76495000000000e-01 5.99129305148924e-01 9.00635465939470e-03
5.78565000000000e-01 5.92269097687222e-01 8.91919924680200e-03
5.80635000000000e-01 5.85487441626716e-01 8.83283071111514e-03
5.82705000000000e-01 5.78783437530668e-01 8.74724293139967e-03
5.84775000000000e-01 5.72156196261155e-01 8.66242981530745e-03
5.86845000000000e-01 5.65604838861146e-01 8.57838529938655e-03
5.88915000000000e-01 5.59128496437926e-01 8.49510334937648e-03
5.90985000000000e-01 5.52726310047860e-01 8.41257796048983e-03
5.93055000000000e-01 5.46397430582471e-01 8.33080315768073e-03
5.95125000000000e-01 5.40141018655825e-01 8.24977299589946e-03
5.97195000000000e-01 5.33956244493204e-01 8.16948156033513e-03
5.99265000000000e-01 5.27842287821056e-01 8.08992296664464e-03
6.01335000000000e-01 5.21798337758202e-01 8.01109136117027e-03
6.03405000000000e-01 5.15823592708296e-01 7.93298092114617e-03
6.05475000000000e-01 5.09917260253501e-01 7.85558585489142e-03
6.07545000000000e-01 5.04078557049403e-01 7.77890040199272e-03
6.09615000000000e-01 4.98306708721111e-01 7.70291883347699e-03
6.11685000000000e-01 4.92600949760556e-01 7.62763545197243e-03
6.13755000000000e-01 4.86960523424960e-01 7.55304459185876e-03
6.15825000000000e-01 4.81384681636476e-01 7.47914061940805e-03
6.17895000000000e-01 4.75872684882969e-01 7.40591793291615e-03
6.19965000000000e-01 4.70423802119935e-01 7.33337096282341e-03
6.22035000000000e-01 4.65037310673546e-01 7.26149417182665e-03
6.24105000000000e-01 4.59712496144803e-01 7.19028205498236e-03
6.26175000000000e-01 4.54448652314786e-01 7.11972913980009e-03
6.28245000000000e-01 4.49245081050991e-01 7.04982998632832e-03
6.30315000000000e-01 4.44101092214736e-01 6.98057918723147e-03
6.32385000000000e-01 4.39016003569632e-01 6.91197136785857e-03
6.34455000000000e-01 4.33989140691098e-01 6.84400118630458e-03
6.36525000000000e-01 4.29019836876913e-01 6.77666333346359e-03
6.38595000000000e-01 4.24107433058792e-01 6.70995253307446e-03
6.40665000000000e-01 4.19251277714980e-01 6.64386354175962e-03
6.42735000000000e-01 4.14450726783836e-01 6.57839114905656e-03
6.44805000000000e-01 4.09705143578414e-01 6.51353017744245e-03
6.46875000000000e-01 4.05013898702025e-01 6.44927548235177e-03
6.48945000000000e-01 4.00376369964755e-01 6.38562195218783e-03
6.51015000000000e-01 3.95791942300950e-01 6.32256450832839e-03
6.53085000000000e-01 3.91260007687637e-01 6.26009810512406e-03
