Energy (eV)          EEDF (eV^-(3/2))     First Anisotropy
2.16346153846154e-02 6.74284022309393e-02 3.50266042855923e-05
6.49038461538461e-02 6.69829385354298e-02 5.78422782294259e-05
1.08173076923077e-01 6.65404177832992e-02 7.63673670403866e-05
1.51442307692308e-01 6.61008205318653e-02 9.04465086233599e-05
1.94711538461538e-01 6.56641274657062e-02 1.02193232387821e-04
2.37980769230769e-01 6.52303193985388e-02 1.12406317857075e-04
2.81250000000000e-01 6.47993772708576e-02 1.21498977653251e-04
3.24519230769231e-01 6.43712821504949e-02 1.29720646526750e-04
3.67788461538462e-01 6.39460152272510e-02 1.37236693373015e-04
4.11057692307692e-01 6.35235578167801e-02 1.44163954628791e-04
4.54326923076923e-01 6.31038913581527e-02 1.50588887171891e-04
4.97596153846154e-01 6.26869974139558e-02 1.56577766458424e-04
5.40865384615385e-01 6.22728576667562e-02 1.62182833949917e-04
5.84134615384615e-01 6.18614539210666e-02 1.67446210768706e-04
6.27403846153846e-01 6.14527681015842e-02 1.72402500785226e-04
6.70673076923077e-01 6.10467822524369e-02 1.77080584465052e-04
7.13942307692308e-01 6.06434785369626e-02 1.81504893059063e-04
7.57211538461538e-01 6.02428392351244e-02 1.85696336413965e-04
8.00480769230769e-01 5.98448467445632e-02 1.89672993634408e-04
8.43750000000000e-01 5.94494835792120e-02 1.93450637330740e-04
8.87019230769231e-01 5.90567323689816e-02 1.97043138039226e-04
9.30288461538462e-01 5.86665758576077e-02 2.00462780653483e-04
9.73557692307692e-01 5.82789969032990e-02 2.03720515421776e-04
1.01682692307692e+00 5.78939784775086e-02 2.06826159743296e-04
1.06009615384615e+00 5.75115036638137e-02 2.09788561452122e-04
1.10336538461538e+00 5.71315556586809e-02 2.12615733007715e-04
1.14663461538462e+00 5.67541177687984e-02 2.15314962336471e-04
1.18990384615385e+00 5.63791734111279e-02 2.17892904837716e-04
1.23317307692308e+00 5.60067061122048e-02 2.20355660948963e-04
1.27644230769231e+00 5.56366995073979e-02 2.22708841620930e-04
1.31971153846154e+00 5.52691373401903e-02 2.24957624006779e-04
1.36298076923077e+00 5.49040034614648e-02 2.27106799115261e-04
1.40625000000000e+00 5.45412818287941e-02 2.29160813205738e-04
1.44951923076923e+00 5.41809565032337e-02 2.31123802045878e-04
1.49278846153846e+00 5.38230116562426e-02 2.32999622532515e-04
1.53605769230769e+00 5.34674315612453e-02 2.34791880390684e-04
1.57932692307692e+00 5.31142005955647e-02 2.36503952519389e-04
1.62259615384615e+00 5.27633032397357e-02 2.38139008151225e-04
1.66586538461538e+00 5.24147240768232e-02 2.39700027178392e-04
1.70913461538462e+00 5.20684477917447e-02 2.41189816399635e-04
1.75240384615385e+00 5.17244591705914e-02 2.42611023968431e-04
1.79567307692308e+00 5.13827430999718e-02 2.43966152287042e-04
1.83894230769231e+00 5.10432845663415e-02 2.45257569548668e-04
1.88221153846154e+00 5.07060686553429e-02 2.46487520094232e-04
1.92548076923077e+00 5.03710805511504e-02 2.47658133734539e-04
1.96875000000000e+00 5.00383055358190e-02 2.48771434469504e-04
2.01201923076923e+00 4.97077289869908e-02 2.49829347167474e-04
2.05528846153846e+00 4.93793363822544e-02 2.50833705091829e-04
2.09855769230769e+00 4.90531132934416e-02 2.51786256797934e-04
2.14182692307692e+00 4.87290453877037e-02 2.52688670892984e-04
2.18509615384615e+00 4.84071184268822e-02 2.53542541567652e-04
2.22836538461538e+00 4.80873182668831e-02 2.54349393362088e-04
2.27163461538462e+00 4.77696308570550e-02 2.55110685533129e-04
2.31490384615385e+00 4.74540422395694e-02 2.55827816061111e-04
2.35817307692308e+00 4.71405385488132e-02 2.56502125335287e-04
2.40144230769231e+00 4.68291060107762e-02 2.57134899549590e-04
2.44471153846154e+00 4.65197309424464e-02 2.57727373833612e-04
2.48798076923077e+00 4.62123997512081e-02 2.58280735146228e-04
2.53125000000000e+00 4.59070989342453e-02 2.58796125202450e-04
2.57451923076923e+00 4.56038150767695e-02 2.59274642202329e-04
2.61778846153846e+00 4.53025348550034e-02 2.59717343640731e-04
2.66105769230769e+00 4.50032450319837e-02 2.60125248955629e-04
2.70432692307692e+00 4.47059324581973e-02 2.60499340751040e-04
2.74759615384615e+00 4.44105840710027e-02 2.60840566911378e-04
2.79086538461538e+00 4.41171868940570e-02 2.61149842332769e-04
2.83413461538462e+00 4.38257280367451e-02 2.61428050540542e-04
2.87740384615385e+00 4.35361946936118e-02 2.61676045200617e-04
2.92067307692308e+00 4.32485741438027e-02 2.61894651535109e-04
2.96394230769231e+00 4.29628537505038e-02 2.62084667649726e-04
3.00721153846154e+00 4.26790209603856e-02 2.62246865777921e-04
3.05048076923077e+00 4.23970633030522e-02 2.62381993449633e-04
3.09375000000000e+00 4.21169683904930e-02 2.62490774796751e-04
3.13701923076923e+00 4.18387239156526e-02 2.62573910962007e-04
3.18028846153846e+00 4.15623176545730e-02 2.62632081492503e-04
3.22355769230769e+00 4.12877374631479e-02 2.62665945679327e-04
3.26682692307692e+00 4.10149712775006e-02 2.62676142785744e-04
3.31009615384615e+00 4.07440071134543e-02 2.62663293079073e-04
3.35336538461538e+00 4.04748330660053e-02 2.62627998603489e-04
3.39663461538462e+00 4.02074373088001e-02 2.62570843911463e-04
3.43990384615385e+00 3.99418080936145e-02 2.62492396755121e-04
3.48317307692308e+00 3.96779337498402e-02 2.62393208741833e-04
3.52644230769231e+00 3.94158026839702e-02 2.62273815956407e-04
3.56971153846154e+00 3.91554033790898e-02 2.62134739550467e-04
3.61298076923077e+00 3.88967243943706e-02 2.61976486302328e-04
3.65625000000000e+00 3.86397543645677e-02 2.61799549323656e-04
3.69951923076923e+00 3.83844819988319e-02 2.61604408037753e-04
3.74278846153846e+00 3.81308960822973e-02 2.61391529014878e-04
3.78605769230769e+00 3.78789854734862e-02 2.61161366786591e-04
3.82932692307692e+00 3.76287391045272e-02 2.60914363743984e-04
3.87259615384615e+00 3.73801459806681e-02 2.60650950734283e-04
3.91586538461538e+00 3.71331951797935e-02 2.60371547457583e-04
3.95913461538462e+00 3.68878758519446e-02 2.60076562845706e-04
4.00240384615385e+00 3.66441772188420e-02 2.59766395423333e-04
4.04567307692308e+00 3.64020885734134e-02 2.59441433653429e-04
4.08894230769231e+00 3.61615992793223e-02 2.59102056267863e-04
4.13221153846154e+00 3.59226987705014e-02 2.58748632583098e-04
4.17548076923077e+00 3.56853765506873e-02 2.58381522802428e-04
4.21875000000000e+00 3.54496221929603e-02 2.58001078454571e-04
4.26201923076923e+00 3.52154253387377e-02 2.57607642220348e-04
4.30528846153846e+00 3.49827756989763e-02 2.57201548500706e-04
4.34855769230769e+00 3.47516630520492e-02 2.56783123975909e-04
4.39182692307692e+00 3.45220772438584e-02 2.56352687390369e-04
4.43509615384615e+00 3.42940081873888e-02 2.55910549941451e-04
4.47836538461538e+00 3.40674458622646e-02 2.55457015504720e-04
4.52163461538461e+00 3.38423803143097e-02 2.54992380850483e-04
4.56490384615385e+00 3.36188016551093e-02 2.54516935851449e-04
4.60817307692308e+00 3.33967000615768e-02 2.54030963682716e-04
4.65144230769231e+00 3.31760657755214e-02 2.53534741014359e-04
4.69471153846154e+00 3.29568891032198e-02 2.53028538196385e-04
4.73798076923077e+00 3.27391604149897e-02 2.52512619436856e-04
4.78125000000000e+00 3.25228701447673e-02 2.51987243102109e-04
4.82451923076923e+00 3.23080087892427e-02 2.51452661493767e-04
4.86778846153846e+00 3.20945669087846e-02 2.50909121268371e-04
4.91105769230769e+00 3.18825351256728e-02 2.50356863853463e-04
4.95432692307692e+00 3.16719041241408e-02 2.49796125199694e-04
4.99759615384615e+00 3.14626646499667e-02 2.49227136056576e-04
5.04086538461538e+00 3.12548075100662e-02 2.48650122110436e-04
5.08413461538461e+00 3.10483235720886e-02 2.48065304117678e-04
5.12740384615385e+00 3.08432037640160e-02 2.47472898033188e-04
5.17067307692308e+00 3.06394390737645e-02 2.46873115134605e-04
5.21394230769231e+00 3.04370205487884e-02 2.46266162142631e-04
5.25721153846154e+00 3.02359392956868e-02 2.45652241337033e-04
5.30048076923077e+00 3.00361864798129e-02 2.45031550668897e-04
5.34375000000000e+00 2.98377533248855e-02 2.44404283980938e-04
5.38701923076923e+00 2.96406311122392e-02 2.43770630775529e-04
5.43028846153846e+00 2.94448111815431e-02 2.43130776542318e-04
5.47355769230769e+00 2.92502849293102e-02 2.42484903084605e-04
5.51682692307692e+00 2.90570438088920e-02 2.41833188271065e-04
5.56009615384615e+00 2.88650793301033e-02 2.41175806243398e-04
5.60336538461538e+00 2.86743830588493e-02 2.40512927505840e-04
5.64663461538461e+00 2.84849466167544e-02 2.39844719012054e-04
5.68990384615385e+00 2.82967616807946e-02 2.39171344249116e-04
5.73317307692308e+00 2.81098199829317e-02 2.38492963319090e-04
5.77644230769231e+00 2.79241133097504e-02 2.37809733018408e-04
5.81971153846154e+00 2.77396335020968e-02 2.37121806914540e-04
5.86298076923077e+00 2.75563724547204e-02 2.36429335420537e-04
5.90625000000000e+00 2.73743221159178e-02 2.35732465964877e-04
5.94951923076923e+00 2.71934744868760e-02 2.35031342767572e-04
5.99278846153846e+00 2.70138216222361e-02 2.34326107105556e-04
6.03605769230769e+00 2.68353556288227e-02 2.33616897577770e-04
6.07932692307692e+00 2.66580686656064e-02 2.32903849869754e-04
6.12259615384615e+00 2.64819529433591e-02 2.32187096916806e-04
6.16586538461538e+00 2.63070007243124e-02 2.31466768964807e-04
6.20913461538461e+00 2.61332043218172e-02 2.30742993629491e-04
6.25240384615385e+00 2.59605561000054e-02 2.30015895953828e-04
6.29567307692308e+00 2.57890484734558e-02 2.29285598463967e-04
6.33894230769231e+00 2.56186739068598e-02 2.28552221223872e-04
6.38221153846154e+00 2.54494249146906e-02 2.27815881888232e-04
6.42548076923077e+00 2.52812940608744e-02 2.27076695754007e-04
6.46875000000000e+00 2.51142739584635e-02 2.26334775896136e-04
6.51201923076923e+00 2.49483572690582e-02 2.25590232958527e-04
6.55528846153846e+00 2.47835367032508e-02 2.24843175374428e-04
6.59855769230769e+00 2.46198050195335e-02 2.24093709587180e-04
6.64182692307692e+00 2.44571550242391e-02 2.23341939832522e-04
6.68509615384615e+00 2.42955795712255e-02 2.22587968270753e-04
6.72836538461538e+00 2.41350715615610e-02 2.21831895029636e-04
6.77163461538461e+00 2.39756239432132e-02 2.21073818246254e-04
6.81490384615385e+00 2.38172297107383e-02 2.20313834107673e-04
6.85817307692308e+00 2.36598819049740e-02 2.19552036890696e-04
6.90144230769231e+00 2.35035736127336e-02 2.18788519000757e-04
6.94471153846154e+00 2.33482979665020e-02 2.18023371009648e-04
6.98798076923077e+00 2.31940481441343e-02 2.17256681692391e-04
7.03125000000000e+00 2.30408173685558e-02 2.16488538138493e-04
7.07451923076923e+00 2.28885989072503e-02 2.15719025560126e-04
7.11778846153846e+00 2.27373860726107e-02 2.14948227478384e-04
7.16105769230769e+00 2.25871722209947e-02 2.14176225910208e-04
7.20432692307692e+00 2.24379507526507e-02 2.13403101169784e-04
7.24759615384615e+00 2.22897151114284e-02 2.12628931977985e-04
7.29086538461538e+00 2.21424587844903e-02 2.11853795493510e-04
7.33413461538461e+00 2.19961753020259e-02 2.11077767343338e-04
7.37740384615385e+00 2.18508582369673e-02 2.10300921652386e-04
7.42067307692308e+00 2.17065012047067e-02 2.09523331072527e-04
7.46394230769231e+00 2.15630978628163e-02 2.08745066811083e-04
7.50721153846154e+00 2.14206419107691e-02 2.07966198658496e-04
7.55048076923077e+00 2.12791270896625e-02 2.07186795015399e-04
7.59375000000000e+00 2.11385471819433e-02 2.06406922985554e-04
7.63701923076923e+00 2.09988960109520e-02 2.05626648201388e-04
7.68028846153846e+00 2.08601674412018e-02 2.04846034983507e-04
7.72355769230769e+00 2.07223553775550e-02 2.04065146500928e-04
7.76682692307692e+00 2.05854537651417e-02 2.03284044591108e-04
7.81009615384615e+00 2.04494565890930e-02 2.02502789852112e-04
7.85336538461538e+00 2.03143578742771e-02 2.01721441665775e-04
7.89663461538461e+00 2.01801516850369e-02 2.00940058220391e-04
7.93990384615385e+00 2.00468321249287e-02 2.00158696532837e-04
7.98317307692308e+00 1.99143933364638e-02 1.99377412470268e-04
8.02644230769231e+00 1.97828295008507e-02 1.98596260771405e-04
8.06971153846154e+00 1.96521348377397e-02 1.97815295067355e-04
8.11298076923077e+00 1.95223036049687e-02 1.97034567901931e-04
8.15625000000000e+00 1.93933300983111e-02 1.96254130810334e-04
8.19951923076923e+00 1.92652086510695e-02 1.95474034161372e-04
8.24278846153846e+00 1.91379336342964e-02 1.94694327295266e-04
8.28605769230769e+00 1.90114994560743e-02 1.93915058662306e-04
8.32932692307692e+00 1.88859005614284e-02 1.93136275660471e-04
8.37259615384615e+00 1.87611314320830e-02 1.92358024713949e-04
8.41586538461539e+00 1.86371865862185e-02 1.91580351290722e-04
8.45913461538461e+00 1.85140605782307e-02 1.90803299919779e-04
8.50240384615385e+00 1.83917479984917e-02 1.90026914207955e-04
8.54567307692308e+00 1.82702434731121e-02 1.89251236856448e-04
8.58894230769231e+00 1.81495416637052e-02 1.88476309677078e-04
8.63221153846154e+00 1.80296372671520e-02 1.87702173608191e-04
8.67548076923077e+00 1.79105250153683e-02 1.86928868730152e-04
8.71875000000000e+00 1.77921996750735e-02 1.86156434332749e-04
8.76201923076923e+00 1.76746560474271e-02 1.85384908772852e-04
8.80528846153846e+00 1.75578889682031e-02 1.84614329594395e-04
8.84855769230769e+00 1.74418933071574e-02 1.83844733649159e-04
8.89182692307692e+00 1.73266639679392e-02 1.83076156950557e-04
8.93509615384615e+00 1.72121958878663e-02 1.82308634741194e-04
8.97836538461539e+00 1.70984840377029e-02 1.81542201506396e-04
9.02163461538461e+00 1.69855234214390e-02 1.80776890987536e-04
9.06490384615385e+00 1.68733090760701e-02 1.80012736195015e-04
9.10817307692308e+00 1.67618360713802e-02 1.79249769421045e-04
9.15144230769231e+00 1.66510995097242e-02 1.78488022252261e-04
9.19471153846154e+00 1.65410945258133e-02 1.77727525581984e-04
9.23798076923077e+00 1.64318162865013e-02 1.76968309622308e-04
9.28125000000000e+00 1.63232599905717e-02 1.76210403962353e-04
9.32451923076923e+00 1.62154208684123e-02 1.75453837439912e-04
9.36778846153846e+00 1.61082941821524e-02 1.74698638246557e-04
9.41105769230769e+00 1.60018752251058e-02 1.73944834033507e-04
9.45432692307692e+00 1.58961593216805e-02 1.73192451780031e-04
9.49759615384615e+00 1.57911418271741e-02 1.72441517852012e-04
9.54086538461539e+00 1.56868181275690e-02 1.71692058012534e-04
9.58413461538461e+00 1.55831836393299e-02 1.70944097432299e-04
9.62740384615385e+00 1.54802338092028e-02 1.70197660699785e-04
9.67067307692308e+00 1.53779641140143e-02 1.69452771831270e-04
9.71394230769231e+00 1.52763700604733e-02 1.68709454280688e-04
9.75721153846154e+00 1.51754471849738e-02 1.67967730949299e-04
9.80048076923077e+00 1.50751910533982e-02 1.67227624195155e-04
9.84375000000000e+00 1.49755972609227e-02 1.66489155883740e-04
9.88701923076923e+00 1.48766614317245e-02 1.65752347272459e-04
9.93028846153846e+00 1.47783792190896e-02 1.65017219103063e-04
9.97355769230769e+00 1.46807463049199e-02 1.64283791694794e-04
1.00168269230769e+01 1.45837583996446e-02 1.63552084666863e-04
1.00600961538462e+01 1.44874112424119e-02 1.62822117746449e-04
1.01033653846154e+01 1.43917005990954e-02 1.62093909502898e-04
1.01466346153846e+01 1.42966222655323e-02 1.61367477829469e-04
1.01899038461538e+01 1.42021720643793e-02 1.60642841387589e-04
1.02331730769231e+01 1.41083458449812e-02 1.59920017196275e-04
1.02764423076923e+01 1.40151394859385e-02 1.59199021828066e-04
1.03197115384615e+01 1.39225488921552e-02 1.58479872576087e-04
1.03629807692308e+01 1.38305699947076e-02 1.57762585144177e-04
1.04062500000000e+01 1.37391987533307e-02 1.57047174811613e-04
1.04495192307692e+01 1.36484311535563e-02 1.56333657205631e-04
1.04927884615385e+01 1.35582632074380e-02 1.55622047515288e-04
1.05360576923077e+01 1.34686909525322e-02 1.54912359794222e-04
1.05793269230769e+01 1.33797104542720e-02 1.54204607699693e-04
1.06225961538462e+01 1.32913178032284e-02 1.53498805589425e-04
1.06658653846154e+01 1.32035091149831e-02 1.52794966350727e-04
1.07091346153846e+01 1.31162805324265e-02 1.52093102494957e-04
1.07524038461538e+01 1.30296282231012e-02 1.51393227226078e-04
1.07956730769231e+01 1.29435483790778e-02 1.50695352323968e-04
1.08389423076923e+01 1.28580372191788e-02 1.49999489211483e-04
1.08822115384615e+01 1.27730909864037e-02 1.49305649996308e-04
1.09254807692308e+01 1.26887059478051e-02 1.48613845407008e-04
1.09687500000000e+01 1.26048783966432e-02 1.47924085832615e-04
1.10120192307692e+01 1.25216046498885e-02 1.47236382012193e-04
1.10552884615385e+01 1.24388810488436e-02 1.46550744332146e-04
1.10985576923077e+01 1.23567039582473e-02 1.45867182202052e-04
1.11418269230769e+01 1.22750697683343e-02 1.45185704714518e-04
1.11850961538462e+01 1.21939748924420e-02 1.44506321625217e-04
1.12283653846154e+01 1.21134157668911e-02 1.43829041411590e-04
1.12716346153846e+01 1.20333888529804e-02 1.43153872250542e-04
1.13149038461538e+01 1.19538906346639e-02 1.42480822973484e-04
1.13581730769231e+01 1.18749176184347e-02 1.41809901173034e-04
1.14014423076923e+01 1.17964663352563e-02 1.41141114156459e-04
1.14447115384615e+01 1.17185333383097e-02 1.40474469877164e-04
1.14879807692308e+01 1.16411152028779e-02 1.39809975088072e-04
1.15312500000000e+01 1.15642085282179e-02 1.39147636270814e-04
1.15745192307692e+01 1.14878099353749e-02 1.38487460252196e-04
1.16177884615385e+01 1.14119160677169e-02 1.37829453575286e-04
1.16610576923077e+01 1.13365235901462e-02 1.37173621940070e-04
1.17043269230769e+01 1.12616291908898e-02 1.36519970793474e-04
1.17475961538462e+01 1.11872295794036e-02 1.35868506206178e-04
1.17908653846154e+01 1.11133214862605e-02 1.35219233134492e-04
1.18341346153846e+01 1.10399016648858e-02 1.34572156294942e-04
1.18774038461538e+01 1.09669668895218e-02 1.33927281019001e-04
1.19206730769231e+01 1.08945139551189e-02 1.33284611557508e-04
1.19639423076923e+01 1.08225396790169e-02 1.32644151933797e-04
1.20072115384615e+01 1.07510408989698e-02 1.32005906777554e-04
1.20504807692308e+01 1.06800144730371e-02 1.31369879670660e-04
1.20937500000000e+01 1.06094572812152e-02 1.30736073978849e-04
1.21370192307692e+01 1.05393662235190e-02 1.30104493403514e-04
1.21802884615385e+01 1.04697382204434e-02 1.29475141418186e-04
1.22235576923077e+01 1.04005702122666e-02 1.28848020766766e-04
1.22668269230769e+01 1.03318591606113e-02 1.28223133991787e-04
1.23100961538462e+01 1.02636020466037e-02 1.27600484219856e-04
1.23533653846154e+01 1.01957958707700e-02 1.26980073603670e-04
1.23966346153846e+01 1.01284376545490e-02 1.26361904105314e-04
1.24399038461538e+01 1.00615244385048e-02 1.25745978262160e-04
1.24831730769231e+01 9.99505328222495e-03 1.25132297666688e-04
1.25264423076923e+01 9.92902126578698e-03 1.24520863730760e-04
1.25697115384615e+01 9.86342548802299e-03 1.23911678432924e-04
1.26129807692308e+01 9.79826306641834e-03 1.23304742835091e-04
1.26562500000000e+01 9.73353113853519e-03 1.22700057827770e-04
1.26995192307692e+01 9.66922686032625e-03 1.22097624624557e-04
1.27427884615385e+01 9.60534740653343e-03 1.21497444256716e-04
1.27860576923077e+01 9.54188997007118e-03 1.20899517122628e-04
1.28293269230769e+01 9.47885176339019e-03 1.20303843461276e-04
1.28725961538462e+01 9.41623001685804e-03 1.19710424056636e-04
1.29158653846154e+01 9.35402197866193e-03 1.19119258839722e-04
1.29591346153846e+01 9.29222491613138e-03 1.18530347590926e-04
1.30024038461538e+01 9.23083611416447e-03 1.17943690627040e-04
1.30456730769231e+01 9.16985287513273e-03 1.17359287436943e-04
1.30889423076923e+01 9.10927252016402e-03 1.16777137367034e-04
1.31322115384615e+01 9.04909238761362e-03 1.16197240291719e-04
1.31754807692308e+01 8.98930983297024e-03 1.15619595281901e-04
1.32187500000000e+01 8.92992223010099e-03 1.15044201273512e-04
1.32620192307692e+01 8.87092696976587e-03 1.14471057511125e-04
1.33052884615385e+01 8.81232145996284e-03 1.13900163094173e-04
1.33485576923077e+01 8.75410312538106e-03 1.13331516572070e-04
1.33918269230769e+01 8.69626940859443e-03 1.12765116369034e-04
1.34350961538462e+01 8.63881776863408e-03 1.12200961416411e-04
1.34783653846154e+01 8.58174568089784e-03 1.11639049897151e-04
1.35216346153846e+01 8.52505063830831e-03 1.11079379876204e-04
1.35649038461538e+01 8.46873014992503e-03 1.10521949917337e-04
1.36081730769231e+01 8.41278174085595e-03 1.09966757857645e-04
1.36514423076923e+01 8.35720295338108e-03 1.09413801422848e-04
