Energy (eV)          EEDF (eV^-(3/2))     First Anisotropy
3.07575757575758e-02 7.87589220093680e-02 5.12978022424501e-05
9.22727272727273e-02 7.79389908645079e-02 8.45505657749046e-05
1.53787878787879e-01 7.71275957314329e-02 1.11202009199803e-04
2.15303030303030e-01 7.63246477419258e-02 1.31198935584877e-04
2.76818181818182e-01 7.55300589613652e-02 1.47670698174708e-04
3.38333333333333e-01 7.47437423607599e-02 1.61806737514447e-04
3.99848484848485e-01 7.39656118242525e-02 1.74225689274678e-04
4.61363636363636e-01 7.31955821272503e-02 1.85302961560825e-04
5.22878787878788e-01 7.24335689366967e-02 1.95288733560895e-04
5.84393939393939e-01 7.16794887939335e-02 2.04360670288407e-04
6.45909090909091e-01 7.09332591122306e-02 2.12650908890177e-04
7.07424242424242e-01 7.01947981619666e-02 2.20261250744644e-04
7.68939393939394e-01 6.94640250667505e-02 2.27272338205482e-04
8.30454545454545e-01 6.87408597900451e-02 2.33749508856079e-04
8.91969696969697e-01 6.80252231304658e-02 2.39746696630007e-04
9.53484848484848e-01 6.73170367094174e-02 2.45309126159984e-04
1.01500000000000e+00 6.66162229658802e-02 2.50475230229593e-04
1.07651515151515e+00 6.59227051420681e-02 2.55278048321736e-04
1.13803030303030e+00 6.52364072870017e-02 2.59746271041775e-04
1.19954545454545e+00 6.45572542360049e-02 2.63905034436667e-04
1.26106060606061e+00 6.38851716069253e-02 2.67776532417363e-04
1.32257575757576e+00 6.32200857919660e-02 2.71380498499545e-04
1.38409090909091e+00 6.25619239497024e-02 2.74734588477164e-04
1.44560606060606e+00 6.19106139970463e-02 2.77854688732951e-04
1.50712121212121e+00 6.12660845970578e-02 2.80755165149171e-04
1.56863636363636e+00 6.06282651643021e-02 2.83449069583626e-04
1.63015151515152e+00 5.99970858436246e-02 2.85948311063841e-04
1.69166666666667e+00 5.93724775070976e-02 2.88263796510261e-04
1.75318181818182e+00 5.87543717464768e-02 2.90405550852708e-04
1.81469696969697e+00 5.81427008657107e-02 2.92382818770012e-04
1.87621212121212e+00 5.75373978702686e-02 2.94204149923500e-04
1.93772727272727e+00 5.69383964697267e-02 2.95877473871807e-04
1.99924242424242e+00 5.63456310603752e-02 2.97410164788781e-04
2.06075757575758e+00 5.57590367214855e-02 2.98809095655691e-04
2.12227272727273e+00 5.51785492081811e-02 3.00080686938390e-04
2.18378787878788e+00 5.46041049444403e-02 3.01230948823865e-04
2.24530303030303e+00 5.40356410161112e-02 3.02265518664012e-04
2.30681818181818e+00 5.34730951615830e-02 3.03189692736536e-04
2.36833333333333e+00 5.29164057724101e-02 3.04008455911605e-04
2.42984848484848e+00 5.23655118789847e-02 3.04726508094267e-04
2.49136363636364e+00 5.18203531464292e-02 3.05348286192674e-04
2.55287878787879e+00 5.12808698679915e-02 3.05877985023902e-04
2.61439393939394e+00 5.07470029585150e-02 3.06319576051447e-04
2.67590909090909e+00 5.02186939459815e-02 3.06676823135173e-04
2.73742424242424e+00 4.96958849711360e-02 3.06953298097665e-04
2.79893939393939e+00 4.91785187750200e-02 3.07152394866974e-04
2.86045454545455e+00 4.86665386947791e-02 3.07277340889119e-04
2.92196969696970e+00 4.81598886574505e-02 3.07331208608783e-04
2.98348484848485e+00 4.76585131738340e-02 3.07316925659496e-04
3.04500000000000e+00 4.71623573324107e-02 3.07237284415677e-04
3.10651515151515e+00 4.66713667917491e-02 3.07094949771464e-04
3.16803030303030e+00 4.61854877793574e-02 3.06892467449391e-04
3.22954545454545e+00 4.57046670809164e-02 3.06632271678170e-04
3.29106060606061e+00 4.52288520361023e-02 3.06316691035700e-04
3.35257575757576e+00 4.47579905328166e-02 3.05947954795404e-04
3.41409090909091e+00 4.42920310014872e-02 3.05528198552321e-04
3.47560606060606e+00 4.38309224094152e-02 3.05059469640496e-04
3.53712121212121e+00 4.33746142539011e-02 3.04543731313818e-04
3.59863636363636e+00 4.29230565606210e-02 3.03982867654200e-04
3.66015151515152e+00 4.24761998741897e-02 3.03378688167721e-04
3.72166666666667e+00 4.20339952540827e-02 3.02732930993279e-04
3.78318181818182e+00 4.15963942692796e-02 3.02047266733198e-04
3.84469696969697e+00 4.11633489929604e-02 3.01323302010408e-04
3.90621212121212e+00 4.07348119961608e-02 3.00562582040698e-04
3.96772727272727e+00 4.03107363459030e-02 2.99766593962294e-04
4.02924242424242e+00 3.98910755966850e-02 2.98936769982925e-04
4.09075757575758e+00 3.94757837865328e-02 2.98074489372886e-04
4.15227272727273e+00 3.90648154319631e-02 2.97181081089920e-04
4.21378787878788e+00 3.86581255230092e-02 2.96257826059520e-04
4.27530303030303e+00 3.82556695182874e-02 2.95305959487966e-04
4.33681818181818e+00 3.78574033392048e-02 2.94326672376505e-04
4.39833333333333e+00 3.74632833679087e-02 2.93321113765579e-04
4.45984848484848e+00 3.70732664396965e-02 2.92290392875299e-04
4.52136363636364e+00 3.66873098392372e-02 2.91235580280436e-04
4.58287878787879e+00 3.63053712958940e-02 2.90157709688826e-04
4.64439393939394e+00 3.59274089790965e-02 2.89057779609111e-04
4.70590909090909e+00 3.55533814929657e-02 2.87936754331166e-04
4.76742424242424e+00 3.51832478741854e-02 2.86795565593577e-04
4.82893939393939e+00 3.48169675850810e-02 2.85635114184604e-04
4.89045454545455e+00 3.44545005100012e-02 2.84456270696661e-04
4.95196969696970e+00 3.40958069509230e-02 2.83259876847258e-04
5.01348484848485e+00 3.37408476231074e-02 2.82046746584296e-04
5.07500000000000e+00 3.33895836507950e-02 2.80817667271788e-04
5.13651515151515e+00 3.30419765622753e-02 2.79573400285257e-04
5.19803030303030e+00 3.26979882877167e-02 2.78314682237143e-04
5.25954545454545e+00 3.23575811529285e-02 2.77042226160898e-04
5.32106060606061e+00 3.20207178759326e-02 2.75756721959368e-04
5.38257575757576e+00 3.16873615628795e-02 2.74458837371210e-04
5.44409090909091e+00 3.13574757040101e-02 2.73149218759941e-04
5.50560606060606e+00 3.10310241696554e-02 2.71828491987273e-04
5.56712121212121e+00 3.07079712057033e-02 2.70497262772112e-04
5.62863636363636e+00 3.03882814314320e-02 2.69156117622246e-04
5.69015151515152e+00 3.00719198338653e-02 2.67805624739734e-04
5.75166666666667e+00 2.97588517645339e-02 2.66446334279400e-04
5.81318181818182e+00 2.94490429356821e-02 2.65078779078400e-04
5.87469696969697e+00 2.91424594165122e-02 2.63703475344440e-04
5.93621212121212e+00 2.88390676289597e-02 2.62320922882401e-04
5.99772727272727e+00 2.85388343455585e-02 2.60931605848023e-04
6.05924242424242e+00 2.82417266842410e-02 2.59535993483218e-04
6.12075757575758e+00 2.79477121052635e-02 2.58134540268178e-04
6.18227272727273e+00 2.76567584076410e-02 2.56727686506427e-04
6.24378787878788e+00 2.73688337256227e-02 2.55315858777882e-04
6.30530303030303e+00 2.70839065252011e-02 2.53899470472172e-04
6.36681818181818e+00 2.68019456002179e-02 2.52478921912540e-04
6.42833333333333e+00 2.65229200702809e-02 2.51054600956841e-04
6.48984848484849e+00 2.62467993760330e-02 2.49626883586253e-04
6.55136363636364e+00 2.59735532762593e-02 2.48196133974878e-04
6.61287878787879e+00 2.57031518445753e-02 2.46762704951355e-04
6.67439393939394e+00 2.54355654661501e-02 2.45326938434435e-04
6.73590909090909e+00 2.51707648340716e-02 2.43889165497810e-04
6.79742424242424e+00 2.49087209473217e-02 2.42449706872964e-04
6.85893939393939e+00 2.46494051064023e-02 2.41008873443290e-04
6.92045454545455e+00 2.43927889105957e-02 2.39566966266230e-04
6.98196969696970e+00 2.41388442548531e-02 2.38124276955612e-04
7.04348484848485e+00 2.38875433267184e-02 2.36681087960706e-04
7.10500000000000e+00 2.36388586032809e-02 2.35237672916135e-04
7.16651515151515e+00 2.33927628478203e-02 2.33794296659782e-04
7.22803030303030e+00 2.31492291078575e-02 2.32351215647175e-04
7.28954545454545e+00 2.29082307111578e-02 2.30908678359955e-04
7.35106060606061e+00 2.26697412631616e-02 2.29466925291162e-04
7.41257575757576e+00 2.24337346440932e-02 2.28026189256349e-04
7.47409090909091e+00 2.22001850061014e-02 2.26586695613539e-04
7.53560606060606e+00 2.19690667704278e-02 2.25148662548396e-04
7.59712121212121e+00 2.17403546243063e-02 2.23712301061356e-04
7.65863636363636e+00 2.15140235190972e-02 2.22277815313711e-04
7.72015151515152e+00 2.12900486666281e-02 2.20845402969708e-04
7.78166666666667e+00 2.10684055367872e-02 2.19415255158010e-04
7.84318181818182e+00 2.08490698548373e-02 2.17987556728381e-04
7.90469696969697e+00 2.06320175987568e-02 2.16562486493512e-04
7.96621212121212e+00 2.04172249963413e-02 2.15140217198272e-04
8.02772727272727e+00 2.02046685234113e-02 2.13720915819146e-04
8.08924242424242e+00 1.99943249004161e-02 2.12304743860770e-04
8.15075757575758e+00 1.97861710901601e-02 2.10891857304085e-04
8.21227272727273e+00 1.95801842952792e-02 2.09482406825845e-04
8.27378787878788e+00 1.93763419557453e-02 2.08076537944287e-04
8.33530303030303e+00 1.91746217463945e-02 2.06674391220674e-04
8.39681818181818e+00 1.89750015742466e-02 2.05276102214815e-04
8.45833333333333e+00 1.87774595768000e-02 2.03881801740038e-04
8.51984848484848e+00 1.85819741189151e-02 2.02491616116239e-04
8.58136363636364e+00 1.83885237906882e-02 2.01105667108295e-04
8.64287878787879e+00 1.81970874051062e-02 1.99724072110660e-04
8.70439393939394e+00 1.80076439957270e-02 1.98346944320981e-04
8.76590909090909e+00 1.78201728141699e-02 1.96974392688107e-04
8.82742424242424e+00 1.76346533284876e-02 1.95606522135745e-04
8.88893939393939e+00 1.74510652202668e-02 1.94243433784891e-04
8.95045454545455e+00 1.72693883826221e-02 1.92885224887269e-04
9.01196969696970e+00 1.70896029179935e-02 1.91531988985540e-04
9.07348484848485e+00 1.69116891359677e-02 1.90183816012898e-04
9.13500000000000e+00 1.67356275511213e-02 1.88840792440092e-04
9.19651515151515e+00 1.65613988806987e-02 1.87503001218152e-04
9.25803030303030e+00 1.63889840430699e-02 1.86170521971548e-04
9.31954545454546e+00 1.62183641550654e-02 1.84843431190566e-04
9.38106060606061e+00 1.60495205301017e-02 1.83521802161979e-04
9.44257575757576e+00 1.58824346761343e-02 1.82205705105672e-04
9.50409090909091e+00 1.57170882936333e-02 1.80895207256683e-04
9.56560606060606e+00 1.55534632735785e-02 1.79590372990500e-04
9.62712121212121e+00 1.53915416953098e-02 1.78291263763229e-04
9.68863636363636e+00 1.52313058250690e-02 1.76997938279386e-04
9.75015151515152e+00 1.50727381135483e-02 1.75710452659252e-04
9.81166666666667e+00 1.49158211941391e-02 1.74428860368873e-04
9.87318181818182e+00 1.47605378810306e-02 1.73153212337311e-04
9.93469696969697e+00 1.46068711673274e-02 1.71883557066516e-04
9.99621212121212e+00 1.44548042230358e-02 1.70619940570683e-04
1.00577272727273e+01 1.43043203936782e-02 1.69362406322538e-04
1.01192424242424e+01 1.41554031987346e-02 1.68110996217028e-04
1.01807575757576e+01 1.40080363270747e-02 1.66865749683721e-04
1.02422727272727e+01 1.38622036388502e-02 1.65626702977363e-04
1.03037878787879e+01 1.37178891636426e-02 1.64393891474616e-04
1.03653030303030e+01 1.35750770944781e-02 1.63167348129263e-04
1.04268181818182e+01 1.34337517917141e-02 1.61947103870660e-04
1.04883333333333e+01 1.32938977758025e-02 1.60733187733877e-04
1.05498484848485e+01 1.31554997310267e-02 1.59525626836498e-04
1.06113636363636e+01 1.30185424984811e-02 1.58324446503860e-04
1.06728787878788e+01 1.28830110796664e-02 1.57129670245432e-04
1.07343939393939e+01 1.27488906296776e-02 1.55941319875358e-04
1.07959090909091e+01 1.26161664606627e-02 1.54759415488441e-04
1.08574242424242e+01 1.24848240352128e-02 1.53583975576256e-04
1.09189393939394e+01 1.23548489696895e-02 1.52415017002791e-04
1.09804545454545e+01 1.22262270278101e-02 1.51252555116296e-04
1.10419696969697e+01 1.20989441238494e-02 1.50096603724681e-04
1.11034848484848e+01 1.19729863164132e-02 1.48947175203266e-04
1.11650000000000e+01 1.18483398115191e-02 1.47804280469988e-04
1.12265151515152e+01 1.17249909565530e-02 1.46667929089253e-04
1.12880303030303e+01 1.16029262432332e-02 1.45538129246983e-04
1.13495454545455e+01 1.14821323017433e-02 1.44414887850743e-04
1.14110606060606e+01 1.13625959035854e-02 1.43298210504688e-04
1.14725757575758e+01 1.12443039558828e-02 1.42188101606080e-04
1.15340909090909e+01 1.11272435041266e-02 1.41084564320204e-04
1.15956060606061e+01 1.10114017266430e-02 1.39987600673460e-04
1.16571212121212e+01 1.08967659372375e-02 1.38897211528224e-04
1.17186363636364e+01 1.07833235798216e-02 1.37813396672680e-04
1.17801515151515e+01 1.06710622309579e-02 1.36736154795702e-04
1.18416666666667e+01 1.05599695946415e-02 1.35665483573516e-04
1.19031818181818e+01 1.04500335047504e-02 1.34601379644605e-04
1.19646969696970e+01 1.03412419199758e-02 1.33543838693390e-04
1.20262121212121e+01 1.02335829261815e-02 1.32492855425205e-04
1.20877272727273e+01 1.01270447314788e-02 1.31448423647043e-04
1.21492424242424e+01 1.00216156684988e-02 1.30410536242650e-04
1.22107575757576e+01 9.91728418960617e-03 1.29379185507221e-04
1.22722727272727e+01 9.81403886825279e-03 1.28354362093059e-04
1.23337878787879e+01 9.71186839767646e-03 1.27336056620999e-04
1.23953030303030e+01 9.61076158716205e-03 1.26324258669654e-04
1.24568181818182e+01 9.51070736413469e-03 1.25318957022405e-04
1.25183333333333e+01 9.41169476967996e-03 1.24320139739309e-04
1.25798484848485e+01 9.31371296055997e-03 1.23327794132272e-04
1.26413636363636e+01 9.21675120485939e-03 1.22341906834529e-04
1.27028787878788e+01 9.12079888392743e-03 1.21362463776031e-04
1.27643939393939e+01 9.02584548814568e-03 1.20389450250552e-04
1.28259090909091e+01 8.93188061879891e-03 1.19422850891312e-04
1.28874242424242e+01 8.83889398396094e-03 1.18462649735841e-04
1.29489393939394e+01 8.74687540029688e-03 1.17508830201813e-04
1.30104545454545e+01 8.65581478906344e-03 1.16561375149752e-04
1.30719696969697e+01 8.56570217784521e-03 1.15620266859105e-04
1.31334848484848e+01 8.47652769666587e-03 1.14685487088861e-04
1.31950000000000e+01 8.38828157966101e-03 1.13757017053880e-04
1.32565151515152e+01 8.30095416129681e-03 1.12834837483505e-04
1.33180303030303e+01 8.21453587798190e-03 1.11918928598140e-04
1.33795454545455e+01 8.12901726439009e-03 1.11009270165936e-04
1.34410606060606e+01 8.04438895501361e-03 1.10105841479638e-04
1.35025757575758e+01 7.96064168058680e-03 1.09208621411415e-04
1.35640909090909e+01 7.87776626958283e-03 1.08317588389968e-04
1.36256060606061e+01 7.79575364473534e-03 1.07432720453561e-04
1.36871212121212e+01 7.71459482448077e-03 1.06553995227440e-04
1.37486363636364e+01 7.63428091957498e-03 1.05681389975103e-04
1.38101515151515e+01 7.55480313448322e-03 1.04814881576017e-04
1.38716666666667e+01 7.47615276408883e-03 1.03954446575235e-04
1.39331818181818e+01 7.39832119503288e-03 1.03100061161371e-04
1.39946969696970e+01 7.32129990251220e-03 1.02251701214632e-04
1.40562121212121e+01 7.24508045157050e-03 1.01409342285097e-04
1.41177272727273e+01 7.16965449398305e-03 1.00572959639172e-04
1.41792424242424e+01 7.09501376950115e-03 9.97425282381798e-05
1.42407575757576e+01 7.02115010282090e-03 9.89180229516655e-05
1.43022727272727e+01 6.94805540427547e-03 9.80994178611911e-05
1.43637878787879e+01 6.87572166891948e-03 9.72866873112530e-05
1.44253030303030e+01 6.80414097413410e-03 9.64798052413335e-05
1.44868181818182e+01 6.73330548077519e-03 9.56787453432005e-05
1.45483333333333e+01 6.66320743032880e-03 9.48834811026193e-05
1.46098484848485e+01 6.59383914601794e-03 9.40939857787280e-05
1.46713636363636e+01 6.52519303003429e-03 9.33102324444209e-05
1.47328787878788e+01 6.45726156460511e-03 9.25321939660479e-05
1.47943939393939e+01 6.39003730929886e-03 9.17598430425148e-05
1.48559090909091e+01 6.32351290205373e-03 9.09931521852863e-05
1.49174242424242e+01 6.25768105655508e-03 9.02320937562506e-05
1.49789393939394e+01 6.19253456322698e-03 8.94766399480285e-05
1.50404545454545e+01 6.12806628667934e-03 8.87267628206542e-05
1.51019696969697e+01 6.06426916666381e-03 8.79824342821823e-05
1.51634848484848e+01 6.00113621558861e-03 8.72436261242136e-05
1.52250000000000e+01 5.93866051944013e-03 8.65103100028207e-05
1.52865151515152e+01 5.87683523536342e-03 8.57824574729578e-05
1.53480303030303e+01 5.81565359255078e-03 8.50600399696803e-05
1.54095454545455e+01 5.75510888988606e-03 8.43430288414785e-05
1.54710606060606e+01 5.69519449680136e-03 8.36313953318111e-05
1.55325757575758e+01 5.63590385098339e-03 8.29251106113940e-05
1.55940909090909e+01 5.57723045919944e-03 8.22241457600359e-05
1.56556060606061e+01 5.51916789506392e-03 8.15284717979225e-05
1.57171212121212e+01 5.46170979983477e-03 8.08380596677446e-05
1.57786363636364e+01 5.40484988023858e-03 8.01528802650194e-05
1.58401515151515e+01 5.34858190923838e-03 7.94729044205119e-05
1.59016666666667e+01 5.29289972391563e-03 7.87981029296072e-05
1.59631818181818e+01 5.23779722621058e-03 7.81284465350392e-05
1.60246969696970e+01 5.18326838085947e-03 7.74639059553642e-05
1.60862121212121e+01 5.12930721610833e-03 7.68044518679563e-05
1.61477272727273e+01 5.07590782170397e-03 7.61500549366140e-05
1.62092424242424e+01 5.02306434958218e-03 7.55006857948461e-05
1.62707575757576e+01 4.97077101191088e-03 7.48563151841345e-05
1.63322727272727e+01 4.91902208143938e-03 7.42169134903173e-05
1.63937878787879e+01 4.86781189085291e-03 7.35824514369108e-05
1.64553030303030e+01 4.81713483121111e-03 7.29528996400420e-05
1.65168181818182e+01 4.76698535258335e-03 7.23282287102928e-05
1.65783333333333e+01 4.71735796220914e-03 7.17084092775872e-05
1.66398484848485e+01 4.66824722511072e-03 7.10934119753312e-05
1.67013636363636e+01 4.61964776230092e-03 7.04832074645415e-05
1.67628787878788e+01 4.57155425137393e-03 6.98777664182590e-05
1.68243939393939e+01 4.52396142475929e-03 6.92770595449447e-05
1.68859090909091e+01 4.47686407029150e-03 6.86810575731673e-05
1.69474242424242e+01 4.43025702950894e-03 6.80897312742818e-05
1.70089393939394e+01 4.38413519820312e-03 6.75030514474022e-05
1.70704545454545e+01 4.33849352476125e-03 6.69209889413809e-05
1.71319696969697e+01 4.29332701069578e-03 6.63435146400425e-05
1.71934848484849e+01 4.24863070902953e-03 6.57705994835114e-05
1.72550000000000e+01 4.20439972480622e-03 6.52022144537067e-05
1.73165151515152e+01 4.16062921351684e-03 6.46383305950213e-05
1.73780303030303e+01 4.11731438159204e-03 6.40789190000718e-05
1.74395454545455e+01 4.07445048486853e-03 6.35239508297559e-05
1.75010606060606e+01 4.03203282906389e-03 6.29733972992638e-05
1.75625757575758e+01 3.99005676828205e-03 6.24272296975384e-05
1.76240909090909e+01 3.94851770547107e-03 6.18854193735205e-05
1.76856060606061e+01 3.90741109096663e-03 6.13479377550251e-05
1.77471212121212e+01 3.86673242293341e-03 6.08147563352552e-05
1.78086363636364e+01 3.82647724594554e-03 6.02858466910956e-05
1.78701515151515e+01 3.78664115141215e-03 5.97611804698733e-05
1.79316666666667e+01 3.74721977619382e-03 5.92407294071074e-05
1.79931818181818e+01 3.70820880301285e-03 5.87244653135086e-05
1.80546969696970e+01 3.66960395910467e-03 5.82123600921937e-05
1.81162121212121e+01 3.63140101661342e-03 5.77043857259287e-05
1.81777272727273e+01 3.59359579127743e-03 5.72005142938298e-05
1.82392424242424e+01 3.55618414281056e-03 5.67007179588322e-05
1.83007575757576e+01 3.51916197362080e-03 5.62049690583476e-05
1.83622727272727e+01 3.48252522898002e-03 5.57132397934039e-05
1.84237878787879e+01 3.44626989656857e-03 5.52255026899683e-05
1.84853030303030e+01 3.41039200544353e-03 5.47417303003812e-05
1.85468181818182e+01 3.37488762639067e-03 5.42618952700553e-05
1.86083333333333e+01 3.33975287071819e-03 5.37859703525786e-05
1.86698484848485e+01 3.30498389059603e-03 5.33139283978974e-05
1.87313636363636e+01 3.27057687787978e-03 5.28457423669763e-05
1.87928787878788e+01 3.23652806443785e-03 5.23813853201962e-05
1.88543939393939e+01 3.20283372100485e-03 5.19208304315793e-05
1.89159090909091e+01 3.16949015749691e-03 5.14640509774111e-05
1.89774242424242e+01 3.13649372189378e-03 5.10110203500371e-05
1.90389393939394e+01 3.10384080054279e-03 5.05617120466943e-05
1.91004545454545e+01 3.07152781706881e-03 5.01160996829042e-05
1.91619696969697e+01 3.03955123266727e-03 4.96741569815213e-05
1.92234848484848e+01 3.00790754504130e-03 4.92358577857211e-05
1.92850000000000e+01 2.97659328868417e-03 4.88011760482508e-05
1.93465151515152e+01 2.94560503384285e-03 4.83700858440411e-05
1.94080303030303e+01 2.91493938679025e-03 4.79425613596585e-05
