Energy (eV)          EEDF (eV^-(3/2))     First Anisotropy
2.32857142857143e-03 3.80289006603105e+01 4.50781162428376e-02
6.98571428571429e-03 3.61950885042437e+01 7.28870863986592e-02
1.16428571428571e-02 3.44497055961692e+01 9.21992870132378e-02
1.63000000000000e-02 3.27884877361681e+01 1.04622741716400e-01
2.09571428571429e-02 3.12073763643639e+01 1.13258542965966e-01
2.56142857142857e-02 2.97025086156140e+01 1.19358705556430e-01
3.02714285714286e-02 2.82702079093777e+01 1.23609129236822e-01
3.49285714285714e-02 2.69069749475693e+01 1.26444974448225e-01
3.95857142857143e-02 2.56094791774048e+01 1.28167306783405e-01
4.42428571428571e-02 2.43745506528778e+01 1.28996594357753e-01
4.89000000000000e-02 2.31991722827786e+01 1.29100827573376e-01
5.35571428571429e-02 2.20804724687470e+01 1.28611777569088e-01
5.82142857142857e-02 2.10157180819379e+01 1.27635086360835e-01
6.28714285714286e-02 2.00023077920800e+01 1.26256882114971e-01
6.75285714285714e-02 1.90377657065810e+01 1.24548310894089e-01
7.21857142857143e-02 1.81197353254298e+01 1.22568754326695e-01
7.68428571428571e-02 1.72459737835675e+01 1.20368183829808e-01
8.15000000000000e-02 1.64143463685200e+01 1.17988926731223e-01
8.61571428571429e-02 1.56228213085469e+01 1.15467020207690e-01
9.08142857142857e-02 1.48694648056496e+01 1.12833268611151e-01
9.54714285714286e-02 1.41524363138138e+01 1.10114082470536e-01
1.00128571428571e-01 1.34699840398606e+01 1.07332153727704e-01
1.04785714285714e-01 1.28204406648769e+01 1.04507005733024e-01
1.09442857142857e-01 1.22022192711954e+01 1.01655446289240e-01
1.14100000000000e-01 1.16138094647424e+01 9.87919442138338e-02
1.18757142857143e-01 1.10537736883811e+01 9.59289453844469e-02
1.23414285714286e-01 1.05207436990652e+01 9.30771393498035e-02
1.28071428571429e-01 1.00134172362372e+01 9.02456860042454e-02
1.32728571428571e-01 9.53055483633775e+00 8.74424100236168e-02
1.37385714285714e-01 9.07097680462117e+00 8.46739677015867e-02
1.42042857142857e-01 8.63356033305262e+00 8.19459912228902e-02
1.46700000000000e-01 8.21723675712186e+00 7.92632138174041e-02
1.51357142857143e-01 7.82098894685078e+00 7.66295789901814e-02
1.56014285714286e-01 7.44384881591374e+00 7.40483357462898e-02
1.60671428571429e-01 7.08489496262913e+00 7.15221220321034e-02
1.65328571428571e-01 6.74325041671821e+00 6.90530384067548e-02
1.69985714285714e-01 6.41808049674691e+00 6.66427127055866e-02
1.74642857142857e-01 6.10859077091118e+00 6.42923571996095e-02
1.79300000000000e-01 5.81402511612825e+00 6.20028191265602e-02
1.83957142857143e-01 5.53366387182826e+00 5.97746255950639e-02
1.88614285714286e-01 5.26682207831252e+00 5.76080232665213e-02
1.93271428571429e-01 5.01284780686692e+00 5.55030135773758e-02
1.97928571428571e-01 4.77112056578133e+00 5.34593842664997e-02
2.02585714285714e-01 4.54104978440507e+00 5.14767372693140e-02
2.07242857142857e-01 4.32207337031653e+00 4.95545135964134e-02
2.11900000000000e-01 4.11365633605434e+00 4.76920154750643e-02
2.16557142857143e-01 3.91528949273221e+00 4.58884261650811e-02
2.21214285714286e-01 3.72648820397736e+00 4.41428275144181e-02
2.25871428571429e-01 3.54679120403053e+00 4.24542155847988e-02
2.30528571428571e-01 3.37575947007633e+00 4.08215147086337e-02
2.35185714285714e-01 3.21297514965227e+00 3.92435899015295e-02
2.39842857142857e-01 3.05804053978646e+00 3.77192579354872e-02
2.44500000000000e-01 2.91057711535576e+00 3.62472971717941e-02
2.49157142857143e-01 2.77022460470404e+00 3.48264563527145e-02
2.53814285714286e-01 2.63664010819612e+00 3.34554623339668e-02
2.58471428571429e-01 2.50949726177488e+00 3.21330269225562e-02
2.63128571428571e-01 2.38848543915986e+00 3.08578530134201e-02
2.67785714285714e-01 2.27330899294633e+00 2.96286399360049e-02
2.72442857142857e-01 2.16368653230344e+00 2.84440881782608e-02
2.77100000000000e-01 2.05935023549896e+00 2.73029035241463e-02
2.81757142857143e-01 1.96004519582866e+00 2.62038007109632e-02
2.86414285714286e-01 1.86552879806204e+00 2.51455065720113e-02
2.91071428571429e-01 1.77557012651662e+00 2.41267627538145e-02
2.95728571428571e-01 1.68994940061927e+00 2.31463281193652e-02
3.00385714285714e-01 1.60845743795352e+00 2.22029807628838e-02
3.05042857142857e-01 1.53089514320154e+00 2.12955197339326e-02
3.09700000000000e-01 1.45707302172797e+00 2.04227664829028e-02
3.14357142857143e-01 1.38681071678002e+00 1.95835660881928e-02
3.19014285714286e-01 1.31993656835602e+00 1.87767882324275e-02
3.23671428571429e-01 1.25628719433349e+00 1.80013279787362e-02
3.28328571428571e-01 1.19570709112720e+00 1.72561064141743e-02
3.32985714285714e-01 1.13804825377369e+00 1.65400711035325e-02
3.37642857142857e-01 1.08316981433695e+00 1.58521964128967e-02
3.42300000000000e-01 1.03093769774957e+00 1.51914837054898e-02
3.46957142857143e-01 9.81224294352505e-01 1.45569614453386e-02
3.51614285714286e-01 9.33908147810209e-01 1.39476851822876e-02
3.56271428571429e-01 8.88873658707154e-01 1.33627374485097e-02
3.60928571428571e-01 8.46010802009489e-01 1.28012276080326e-02
3.65585714285714e-01 8.05214858259564e-01 1.22622916176848e-02
3.70242857142857e-01 7.66386157733357e-01 1.17450917363740e-02
3.74900000000000e-01 7.29429836934299e-01 1.12488161816170e-02
3.79557142857143e-01 6.94255606895730e-01 1.07726787547875e-02
3.84214285714286e-01 6.60777532387841e-01 1.03159184148692e-02
3.88871428571429e-01 6.28913822179998e-01 9.87779881892102e-03
3.93528571428571e-01 5.98586629140562e-01 9.45760785542052e-03
3.98185714285714e-01 5.69721860046241e-01 9.05465714056449e-03
4.02842857142857e-01 5.42248994563138e-01 8.66828150085111e-03
4.07500000000000e-01 5.16100912956376e-01 8.29783843970960e-03
4.12157142857143e-01 4.91213732151048e-01 7.94270760135223e-03
4.16814285714286e-01 4.67526649523865e-01 7.60229021686358e-03
4.21471428571429e-01 4.44981794493252e-01 7.27600854367899e-03
4.26128571428571e-01 4.23524087086132e-01 6.96330531514990e-03
4.30785714285714e-01 4.03101103370418e-01 6.66364317887638e-03
4.35442857142857e-01 3.83662947376792e-01 6.37650413871359e-03
4.40100000000000e-01 3.65162129196368e-01 6.10138899807738e-03
4.44757142857143e-01 3.47553448984976e-01 5.83781681272062e-03
4.49414285714286e-01 3.30793886446471e-01 5.58532434204680e-03
4.54071428571429e-01 3.14842495819495e-01 5.34346550585478e-03
4.58728571428571e-01 2.99660305810316e-01 5.11181085726260e-03
4.63385714285714e-01 2.85210224380917e-01 4.88994705669988e-03
4.68042857142857e-01 2.71456948128496e-01 4.67747635657206e-03
4.72700000000000e-01 2.58366876034668e-01 4.47401609446802e-03
4.77357142857143e-01 2.45908027392465e-01 4.27919820001399e-03
4.82014285714286e-01 2.34049963615612e-01 4.09266870747155e-03
4.86671428571429e-01 2.22763713932996e-01 3.91408727836401e-03
4.91328571428571e-01 2.12021704588679e-01 3.74312674109349e-03
4.95985714285714e-01 2.01797691475642e-01 3.57947263687033e-03
5.00642857142857e-01 1.92066696018135e-01 3.42282277817633e-03
5.05300000000000e-01 1.82804944145776e-01 3.27288681799533e-03
5.09957142857143e-01 1.73989808222760e-01 3.12938583301030e-03
5.14614285714286e-01 1.65599751727411e-01 2.99205191508719e-03
5.19271428571429e-01 1.57614276675304e-01 2.86062777371737e-03
5.23928571428571e-01 1.50013873526373e-01 2.73486635394821e-03
5.28585714285714e-01 1.42779973520584e-01 2.61453046226750e-03
5.33242857142857e-01 1.35894903312116e-01 2.49939240448996e-03
5.37900000000000e-01 1.29341841791083e-01 2.38923363423910e-03
5.42557142857143e-01 1.23104778995599e-01 2.28384441403349e-03
5.47214285714286e-01 1.17168476971964e-01 2.18302348491109e-03
5.51871428571429e-01 1.11518432572720e-01 2.08657774625814e-03
5.56528571428571e-01 1.06140842014501e-01 1.99432194879949e-03
5.61185714285714e-01 1.01022567153614e-01 1.90607839543897e-03
5.65842857142857e-01 9.61511033878881e-02 1.82167665259174e-03
5.70500000000000e-01 9.15145491063190e-02 1.74095327091716e-03
5.75157142857143e-01 8.71015766173660e-02 1.66375151671344e-03
5.79814285714286e-01 8.29014044569932e-02 1.58992111107014e-03
5.84471428571429e-01 7.89037710657307e-02 1.51931797781651e-03
5.89128571428571e-01 7.50989097123018e-02 1.45180400220019e-03
5.93785714285714e-01 7.14775246322388e-02 1.38724679655378e-03
5.98442857142857e-01 6.80307683171538e-02 1.32551947467690e-03
6.03100000000000e-01 6.47502198991332e-02 1.26650043410087e-03
6.07757142857143e-01 6.16278645811320e-02 1.21007314702724e-03
6.12414285714286e-01 5.86560740444487e-02 1.15612595786900e-03
6.17071428571429e-01 5.58275878235158e-02 1.10455188803924e-03
6.21728571428571e-01 5.31354955635921e-02 1.05524844925483e-03
6.26385714285714e-01 5.05732201378746e-02 1.00811746271820e-03
6.31042857142857e-01 4.81345015787448e-02 9.63064885308589e-04
6.35700000000000e-01 4.58133817838593e-02 9.20000642155216e-04
6.40357142857143e-01 4.36041899621959e-02 8.78838466086544e-04
6.45014285714286e-01 4.15015287719650e-02 8.39495742480556e-04
6.49671428571429e-01 3.95002611421001e-02 8.01893359914216e-04
6.54328571428571e-01 3.75954977190094e-02 7.65955567443601e-04
6.58985714285714e-01 3.57825849212551e-02 7.31609836656528e-04
6.63642857142857e-01 3.40570935702634e-02 6.98786729239166e-04
6.68300000000000e-01 3.24148080692697e-02 6.67419769588063e-04
6.72957142857143e-01 3.08517161057272e-02 6.37445322774441e-04
6.77614285714286e-01 2.93639988435844e-02 6.08802476811158e-04
6.82271428571429e-01 2.79480215986886e-02 5.81432929466295e-04
6.86928571428571e-01 2.66003249569519e-02 5.55280880168915e-04
6.91585714285714e-01 2.53176163225576e-02 5.30292925697486e-04
6.96242857142857e-01 2.40967618737300e-02 5.06417960137106e-04
7.00900000000000e-01 2.29347789064039e-02 4.83607078757770e-04
7.05557142857143e-01 2.18288285482108e-02 4.61813486003032e-04
7.10214285714286e-01 2.07762088192894e-02 4.40992406842493e-04
7.14871428571429e-01 1.97743480345841e-02 4.21101001635963e-04
7.19528571428571e-01 1.88207985196520e-02 4.02098284867288e-04
7.24185714285714e-01 1.79132306306784e-02 3.83945046824728e-04
7.28842857142857e-01 1.70494270628613e-02 3.66603778546510e-04
7.33500000000000e-01 1.62272774332498e-02 3.50038599774948e-04
7.38157142857143e-01 1.54447731255614e-02 3.34215190034689e-04
7.42814285714286e-01 1.47000023805359e-02 3.19100722304332e-04
7.47471428571429e-01 1.39911456276836e-02 3.04663799369715e-04
7.52128571428571e-01 1.33164710390049e-02 2.90874393093610e-04
7.56785714285714e-01 1.26743302979118e-02 2.77703785950980e-04
7.61442857142857e-01 1.20631545721805e-02 2.65124515038463e-04
7.66100000000000e-01 1.14814506810925e-02 2.53110318369516e-04
7.70757142857143e-01 1.09277974479128e-02 2.41636083524833e-04
7.75414285714286e-01 1.04008422261885e-02 2.30677798280744e-04
7.80071428571429e-01 9.89929759669996e-03 2.20212503267301e-04
7.84728571428571e-01 9.42193822156442e-03 2.10218246809817e-04
7.89385714285714e-01 8.96759785057772e-03 2.00674041494838e-04
7.94042857142857e-01 8.53516647191662e-03 1.91559822597044e-04
7.98700000000000e-01 8.12358760023688e-03 1.82856408229007e-04
8.03357142857143e-01 7.73185569589069e-03 1.74545461254949e-04
8.08014285714286e-01 7.35901370718879e-03 1.66609452700368e-04
8.12671428571429e-01 7.00415073331356e-03 1.59031626686932e-04
8.17328571428571e-01 6.66639979848720e-03 1.51795966993243e-04
8.21985714285714e-01 6.34493573383832e-03 1.44887164917607e-04
8.26642857142857e-01 6.03897316140929e-03 1.38290588532018e-04
8.31300000000000e-01 5.74776457537671e-03 1.31992253226485e-04
8.35957142857143e-01 5.47059851603449e-03 1.25978793567410e-04
8.40614285714286e-01 5.20679783087533e-03 1.20237436279504e-04
8.45271428571429e-01 4.95571802097697e-03 1.14755974367229e-04
8.49928571428571e-01 4.71674566614745e-03 1.09522742441440e-04
8.54585714285714e-01 4.48929692626065e-03 1.04526593022701e-04
8.59242857142857e-01 4.27281611486044e-03 9.97568738794227e-05
8.63900000000000e-01 4.06677434154712e-03 9.52034063273420e-05
8.68557142857143e-01 3.87066821999079e-03 9.08564645034752e-05
8.73214285714286e-01 3.68401863759616e-03 8.67067554791910e-05
8.77871428571429e-01 3.50636958548417e-03 8.27454002204849e-05
8.82528571428571e-01 3.33728704422599e-03 7.89639154382433e-05
8.87185714285714e-01 3.17635792347771e-03 7.53541961671802e-05
8.91842857142857e-01 3.02318905274794e-03 7.19084991112577e-05
8.96500000000000e-01 2.87740622083174e-03 6.86194267021684e-05
9.01157142857143e-01 2.73865326167399e-03 6.54799118777253e-05
9.05814285714286e-01 2.60659118387063e-03 6.24832034839969e-05
9.10471428571429e-01 2.48089734282043e-03 5.96228523047319e-05
9.15128571428571e-01 2.36126465234157e-03 5.68926977458663e-05
9.19785714285714e-01 2.24740083442059e-03 5.42868550612094e-05
9.24442857142857e-01 2.13902770513998e-03 5.17997031438267e-05
9.29100000000000e-01 2.03588049503900e-03 4.94258728443422e-05
9.33757142857143e-01 1.93770720232267e-03 4.71602358193498e-05
9.38414285714286e-01 1.84426797695727e-03 4.49978938416247e-05
9.43071428571429e-01 1.75533453492579e-03 4.29341685731706e-05
9.47728571428571e-01 1.67068960041798e-03 4.09645918190913e-05
9.52385714285714e-01 1.59012637499761e-03 3.90848961818460e-05
9.57042857142857e-01 1.51344803236753e-03 3.72910061317184e-05
9.61700000000000e-01 1.44046723749767e-03 3.55790294654028e-05
9.66357142857143e-01 1.37100568899259e-03 3.39452491538423e-05
9.71014285714286e-01 1.30489368331991e-03 3.23861155307961e-05
9.75671428571429e-01 1.24196970036671e-03 3.08982388218701e-05
9.80328571428571e-01 1.18208000876860e-03 2.94783820256087e-05
9.84985714285714e-01 1.12507829032421e-03 2.81234540898214e-05
9.89642857142857e-01 1.07082528252119e-03 2.68305033933209e-05
9.94300000000000e-01 1.01918843829994e-03 2.55967115127377e-05
9.98957142857143e-01 9.70041602259091e-04 2.44193872651612e-05
1.00361428571429e+00 9.23264702465164e-04 2.32959610550684e-05
1.00827142857143e+00 8.78743456585052e-04 2.22239793539700e-05
1.01292857142857e+00 8.36369093834333e-04 2.12010995287937e-05
1.01758571428571e+00 7.96038088192525e-04 2.02250849673012e-05
1.02224285714286e+00 7.57651905558206e-04 1.92938001781503e-05
1.02690000000000e+00 7.21116763844066e-04 1.84052063197906e-05
1.03155714285714e+00 6.86343402998153e-04 1.75573569144868e-05
1.03621428571429e+00 6.53246867226339e-04 1.67483936429433e-05
1.04087142857143e+00 6.21746297220041e-04 1.59765423616385e-05
1.04552857142857e+00 5.91764733272237e-04 1.52401093483441e-05
1.05018571428571e+00 5.63228926564842e-04 1.45374777408174e-05
1.05484285714286e+00 5.36069160268818e-04 1.38671039788408e-05
1.05950000000000e+00 5.10219079783675e-04 1.32275145499148e-05
1.06415714285714e+00 4.85615530037110e-04 1.26173028707983e-05
1.06881428571429e+00 4.62198401392111e-04 1.20351262317221e-05
1.07347142857143e+00 4.39910482644331e-04 1.14797029019213e-05
1.07812857142857e+00 4.18697321704441e-04 1.09498094000142e-05
1.08278571428571e+00 3.98507092091253e-04 1.04442779045650e-05
1.08744285714286e+00 3.79290466351565e-04 9.96199367227531e-06
1.09210000000000e+00 3.61000495935741e-04 9.50189267277408e-06
1.09675714285714e+00 3.43592496093191e-04 9.06295932286528e-06
1.10141428571429e+00 3.27023936841121e-04 8.64422426898767e-06
1.10607142857143e+00 3.11254338957330e-04 8.24476228639716e-06
1.11072857142857e+00 2.96245175397844e-04 7.86369029732865e-06
1.11538571428571e+00 2.81959776845355e-04 7.50016549076095e-06
1.12004285714286e+00 2.68363242147805e-04 7.15338345118081e-06
1.12470000000000e+00 2.55422353317514e-04 6.82257644182544e-06
1.12935714285714e+00 2.43105494098449e-04 6.50701176059476e-06
1.13401428571429e+00 2.31382572819342e-04 6.20599013273060e-06
1.13867142857143e+00 2.20224948806462e-04 5.91884418786552e-06
1.14332857142857e+00 2.09605362626271e-04 5.64493702287506e-06
1.14798571428571e+00 1.99497869263761e-04 5.38366083828640e-06
1.15264285714286e+00 1.89877774753580e-04 5.13443558352313e-06
1.15730000000000e+00 1.80721576033142e-04 4.89670771230970e-06
1.16195714285714e+00 1.72006903331272e-04 4.66994899107709e-06
1.16661428571429e+00 1.63712465581752e-04 4.45365533520710e-06
1.17127142857143e+00 1.55817998358770e-04 4.24734570620454e-06
1.17592857142857e+00 1.48304214516550e-04 4.05056107070081e-06
1.18058571428571e+00 1.41152756914753e-04 3.86286341265411e-06
1.18524285714286e+00 1.34346153582073e-04 3.68383475349608e-06
1.18990000000000e+00 1.27867775156317e-04 3.51307625082419e-06
1.19455714285714e+00 1.21701794125775e-04 3.35020733568748e-06
1.19921428571429e+00 1.15833146205823e-04 3.19486487082460e-06
1.20387142857143e+00 1.10247493502078e-04 3.04670235286446e-06
1.20852857142857e+00 1.04931189583105e-04 2.90538915905232e-06
1.21318571428571e+00 9.98712460347012e-05 2.77060983241160e-06
1.21784285714286e+00 9.50553007360760e-05 2.64206337369274e-06
1.22250000000000e+00 9.04715877446055e-05 2.51946258931963e-06
1.22715714285714e+00 8.61089084599551e-05 2.40253346739727e-06
1.23181428571429e+00 8.19566042956109e-05 2.29101456940865e-06
1.23647142857143e+00 7.80045306159438e-05 2.18465645360831e-06
1.24112857142857e+00 7.42430320218435e-05 2.08322113045840e-06
1.24578571428571e+00 7.06629186885077e-05 1.98648154581141e-06
1.25044285714286e+00 6.72554439193985e-05 1.89422106969633e-06
1.25510000000000e+00 6.40122828368860e-05 1.80623302502226e-06
1.25975714285714e+00 6.09255119813776e-05 1.72232023665838e-06
1.26441428571429e+00 5.79875899747507e-05 1.64229459221084e-06
1.26907142857143e+00 5.51913390801894e-05 1.56597662563653e-06
1.27372857142857e+00 5.25299277144986e-05 1.49319512390203e-06
1.27838571428571e+00 4.99968537074687e-05 1.42378675365713e-06
1.28304285714286e+00 4.75859284202835e-05 1.35759569242451e-06
1.28770000000000e+00 4.52912616672149e-05 1.29447328824139e-06
1.29235714285714e+00 4.31072472823095e-05 1.23427773407929e-06
1.29701428571429e+00 4.10285494376013e-05 1.17687375095126e-06
1.30167142857143e+00 3.90500895962322e-05 1.12213228746180e-06
1.30632857142857e+00 3.71670341383522e-05 1.06993023592199e-06
1.31098571428571e+00 3.53747825173402e-05 1.02015016289080e-06
1.31564285714286e+00 3.36689560228632e-05 9.72680043292307e-07
1.32030000000000e+00 3.20453871116439e-05 9.27413014810138e-07
1.32495714285714e+00 3.05001091960654e-05 8.84247142988239e-07
1.32961428571429e+00 2.90293469634958e-05 8.43085192762482e-07
1.33427142857143e+00 2.76295071452835e-05 8.03834411823900e-07
1.33892857142857e+00 2.62971697610057e-05 7.66406325882994e-07
1.34358571428571e+00 2.50290797391194e-05 7.30716544325274e-07
1.34824285714286e+00 2.38221389663235e-05 6.96684568659226e-07
1.35290000000000e+00 2.26733987381595e-05 6.64233615414239e-07
1.35755714285714e+00 2.15800525345465e-05 6.33290446786923e-07
1.36221428571429e+00 2.05394291701389e-05 6.03785206034059e-07
1.36687142857143e+00 1.95489862631449e-05 5.75651261374287e-07
1.37152857142857e+00 1.86063040398911e-05 5.48825058435851e-07
1.37618571428571e+00 1.77090794065013e-05 5.23245980184419e-07
1.38084285714286e+00 1.68551203234658e-05 4.98856209007859e-07
1.38550000000000e+00 1.60423404638093e-05 4.75600599097258e-07
1.39015714285714e+00 1.52687541018335e-05 4.53426554430450e-07
1.39481428571429e+00 1.45324712666016e-05 4.32283910249932e-07
1.39947142857143e+00 1.38316931209497e-05 4.12124820656606e-07
1.40412857142857e+00 1.31647075777042e-05 3.92903652337611e-07
1.40878571428571e+00 1.25298851054299e-05 3.74576883675464e-07
1.41344285714286e+00 1.19256747481881e-05 3.57103005508562e-07
1.41810000000000e+00 1.13506003457537e-05 3.40442429227489e-07
1.42275714285714e+00 1.08032569174261e-05 3.24557398918780e-07
1.42741428571429e+00 1.02823072328451e-05 3.09411906075239e-07
1.43207142857143e+00 9.78647854251234e-06 2.94971608699941e-07
1.43672857142857e+00 9.31455947591226e-06 2.81203754811218e-07
1.44138571428571e+00 8.86539707409401e-06 2.68077109816929e-07
1.44604285714286e+00 8.43789397347530e-06 2.55561885143734e-07
1.45070000000000e+00 8.03100573134373e-06 2.43629672092478e-07
1.45535714285714e+00 7.64373826741384e-06 2.32253378615244e-07
1.46001428571429e+00 7.27514543748728e-06 2.21407167973582e-07
1.46467142857143e+00 6.92432672020437e-06 2.11066400551760e-07
1.46932857142857e+00 6.59042502221996e-06 2.01207578826265e-07
