Energy (eV)          EEDF (eV^-(3/2))     First Anisotropy
2.68750000000000e-03 1.73686414537591e+00 9.24434396091237e-04
8.06250000000000e-03 1.72443299621527e+00 1.52617185542939e-03
1.34375000000000e-02 1.71209081973769e+00 2.01384024345269e-03
1.88125000000000e-02 1.69983697914731e+00 2.38379086977642e-03
2.41875000000000e-02 1.68767084220375e+00 2.69189197607367e-03
2.95625000000000e-02 1.67559178119136e+00 2.95927523898947e-03
3.49375000000000e-02 1.66359917288710e+00 3.19688055126643e-03
4.03125000000000e-02 1.65169239852845e+00 3.41131667959419e-03
4.56875000000000e-02 1.63987084378149e+00 3.60696830065977e-03
5.10625000000000e-02 1.62813389870926e+00 3.78693555249536e-03
5.64375000000000e-02 1.61648095774021e+00 3.95351415609369e-03
6.18125000000000e-02 1.60491141963705e+00 4.10846522265192e-03
6.71875000000000e-02 1.59342468746565e+00 4.25317794653063e-03
7.25625000000000e-02 1.58202016856431e+00 4.38877321228171e-03
7.79375000000000e-02 1.57069727451312e+00 4.51617251699966e-03
8.33125000000000e-02 1.55945542110366e+00 4.63614548819492e-03
8.86875000000000e-02 1.54829402830880e+00 4.74934363780936e-03
9.40625000000000e-02 1.53721252025283e+00 4.85632495486979e-03
9.94375000000000e-02 1.52621032518168e+00 4.95757221841334e-03
1.04812500000000e-01 1.51528687543351e+00 5.05350689542704e-03
1.10187500000000e-01 1.50444160740932e+00 5.14449986544059e-03
1.15562500000000e-01 1.49367396154396e+00 5.23087981940862e-03
1.20937500000000e-01 1.48298338227720e+00 5.31293992442263e-03
1.26312500000000e-01 1.47236931802509e+00 5.39094317522559e-03
1.31687500000000e-01 1.46183122115151e+00 5.46512673741519e-03
1.37062500000000e-01 1.45136854793988e+00 5.53570550665563e-03
1.42437500000000e-01 1.44098075856514e+00 5.60287505131908e-03
1.47812500000000e-01 1.43066731706589e+00 5.66681406514885e-03
1.53187500000000e-01 1.42042769131673e+00 5.72768642680723e-03
1.58562500000000e-01 1.41026135300080e+00 5.78564294123618e-03
1.63937500000000e-01 1.40016777758255e+00 5.84082282138068e-03
1.69312500000000e-01 1.39014644428062e+00 5.89335495645153e-03
1.74687500000000e-01 1.38019683604105e+00 5.94335900345943e-03
1.80062500000000e-01 1.37031843951052e+00 5.99094633147811e-03
1.85437500000000e-01 1.36051074500992e+00 6.03622084243431e-03
1.90812500000000e-01 1.35077324650803e+00 6.07927968778777e-03
1.96187500000000e-01 1.34110544159542e+00 6.12021389695787e-03
2.01562500000000e-01 1.33150683145853e+00 6.15910893055967e-03
2.06937500000000e-01 1.32197692085390e+00 6.19604516927753e-03
2.12312500000000e-01 1.31251521808267e+00 6.23109834739959e-03
2.17687500000000e-01 1.30312123496517e+00 6.26433993856890e-03
2.23062500000000e-01 1.29379448681578e+00 6.29583750010856e-03
2.28437500000000e-01 1.28453449241784e+00 6.32565498130112e-03
2.33812500000000e-01 1.27534077399891e+00 6.35385300018779e-03
2.39187500000000e-01 1.26621285720607e+00 6.38048909278024e-03
2.44562500000000e-01 1.25715027108145e+00 6.40561793801821e-03
2.49937500000000e-01 1.24815254803794e+00 6.42929156134054e-03
2.55312500000000e-01 1.23921922383507e+00 6.45155951933705e-03
2.60687500000000e-01 1.23034983755505e+00 6.47246906761873e-03
2.66062500000000e-01 1.22154393157897e+00 6.49206531376577e-03
2.71437500000000e-01 1.21280105156323e+00 6.51039135696710e-03
2.76812500000000e-01 1.20412074641605e+00 6.52748841576171e-03
2.82187500000000e-01 1.19550256827425e+00 6.54339594512263e-03
2.87562500000000e-01 1.18694607248009e+00 6.55815174396872e-03
2.92937500000000e-01 1.17845081755836e+00 6.57179205405793e-03
2.98312500000000e-01 1.17001636519360e+00 6.58435165111165e-03
3.03687500000000e-01 1.16164228020746e+00 6.59586392891542e-03
3.09062500000000e-01 1.15332813053628e+00 6.60636097705992e-03
3.14437500000000e-01 1.14507348720877e+00 6.61587365291071e-03
3.19812500000000e-01 1.13687792432391e+00 6.62443164833581e-03
3.25187500000000e-01 1.12874101902892e+00 6.63206355165879e-03
3.30562500000000e-01 1.12066235149753e+00 6.63879690525559e-03
3.35937500000000e-01 1.11264150490821e+00 6.64465825917543e-03
3.41312500000000e-01 1.10467806542275e+00 6.64967322112192e-03
3.46687500000000e-01 1.09677162216488e+00 6.65386650309906e-03
3.52062500000000e-01 1.08892176719907e+00 6.65726196499616e-03
3.57437500000000e-01 1.08112809550946e+00 6.65988265536159e-03
3.62812500000000e-01 1.07339020497901e+00 6.66175084958836e-03
3.68187500000000e-01 1.06570769636871e+00 6.66288808571333e-03
3.73562500000000e-01 1.05808017329701e+00 6.66331519801621e-03
3.78937500000000e-01 1.05050724221935e+00 6.66305234858567e-03
3.84312500000000e-01 1.04298851240787e+00 6.66211905700404e-03
3.89687500000000e-01 1.03552359593122e+00 6.66053422829220e-03
3.95062500000000e-01 1.02811210763460e+00 6.65831617923597e-03
4.00437500000000e-01 1.02075366511983e+00 6.65548266321644e-03
4.05812500000000e-01 1.01344788872566e+00 6.65205089364662e-03
4.11187500000000e-01 1.00619440150814e+00 6.64803756611137e-03
4.16562500000000e-01 9.98992829221226e-01 6.64345887930138e-03
4.21937500000000e-01 9.91842800297430e-01 6.63833055482212e-03
4.27312500000000e-01 9.84743945828661e-01 6.63266785595448e-03
4.32687500000000e-01 9.77695899547191e-01 6.62648560543320e-03
4.38062500000000e-01 9.70698297806757e-01 6.61979820231011e-03
4.43437500000000e-01 9.63750779563801e-01 6.61261963796133e-03
4.48812500000000e-01 9.56852986358835e-01 6.60496351128915e-03
4.54187500000000e-01 9.50004562297955e-01 6.59684304317226e-03
4.59562500000000e-01 9.43205154034471e-01 6.58827109021150e-03
4.64937500000000e-01 9.36454410750681e-01 6.57926015781044e-03
4.70312500000000e-01 9.29751984139768e-01 6.56982241263518e-03
4.75687500000000e-01 9.23097528387831e-01 6.55996969448760e-03
4.81062500000000e-01 9.16490700156038e-01 6.54971352762687e-03
4.86437500000000e-01 9.09931158562917e-01 6.53906513157293e-03
4.91812500000000e-01 9.03418565166765e-01 6.52803543142021e-03
4.97187500000000e-01 8.96952583948189e-01 6.51663506769042e-03
5.02562500000000e-01 8.90532881292763e-01 6.50487440574969e-03
5.07937500000000e-01 8.84159125973819e-01 6.49276354481328e-03
5.13312500000000e-01 8.77830989135360e-01 6.48031232656289e-03
5.18687500000000e-01 8.71548144275086e-01 6.46753034339645e-03
5.24062500000000e-01 8.65310267227554e-01 6.45442694632859e-03
5.29437500000000e-01 8.59117036147448e-01 6.44101125256358e-03
5.34812500000000e-01 8.52968131492978e-01 6.42729215275418e-03
5.40187500000000e-01 8.46863236009387e-01 6.41327831796559e-03
5.45562500000000e-01 8.40802034712589e-01 6.39897820635980e-03
5.50937500000000e-01 8.34784214872912e-01 6.38440006960994e-03
5.56312500000000e-01 8.28809465998964e-01 6.36955195906511e-03
5.61687500000000e-01 8.22877479821616e-01 6.35444173167344e-03
5.67062500000000e-01 8.16987950278092e-01 6.33907705567619e-03
5.72437500000000e-01 8.11140573496182e-01 6.32346541608427e-03
5.77812500000000e-01 8.05335047778560e-01 6.30761411994763e-03
5.83187500000000e-01 7.99571073587219e-01 6.29153030142892e-03
5.88562500000000e-01 7.93848353528019e-01 6.27522092668708e-03
5.93937500000000e-01 7.88166592335339e-01 6.25869279858332e-03
5.99312500000000e-01 7.82525496856843e-01 6.24195256121598e-03
6.04687500000000e-01 7.76924776038359e-01 6.22500670429206e-03
6.10062500000000e-01 7.71364140908855e-01 6.20786156734406e-03
6.15437500000000e-01 7.65843304565537e-01 6.19052334379705e-03
6.20812500000000e-01 7.60361982159039e-01 6.17299808489448e-03
6.26187500000000e-01 7.54919890878732e-01 6.15529170348918e-03
6.31562500000000e-01 7.49516749938130e-01 6.13740997770246e-03
6.36937500000000e-01 7.44152280560400e-01 6.11935855446023e-03
6.42312500000000e-01 7.38826205963984e-01 6.10114295291144e-03
6.47687500000000e-01 7.33538251348313e-01 6.08276856773025e-03
6.53062500000000e-01 7.28288143879632e-01 6.06424067231078e-03
6.58437500000000e-01 7.23075612676923e-01 6.04556442185783e-03
6.63812500000000e-01 7.17900388797926e-01 6.02674485637663e-03
6.69187500000000e-01 7.12762205225265e-01 6.00778690356581e-03
6.74562500000000e-01 7.07660796852671e-01 5.98869538161914e-03
6.79937500000000e-01 7.02595900471304e-01 5.96947500193954e-03
6.85312500000000e-01 6.97567254756172e-01 5.95013037176700e-03
6.90687500000000e-01 6.92574600252647e-01 5.93066599672505e-03
6.96062500000000e-01 6.87617679363081e-01 5.91108628328967e-03
7.01437500000000e-01 6.82696236333512e-01 5.89139554118155e-03
7.06812500000000e-01 6.77810017240471e-01 5.87159798568686e-03
7.12187500000000e-01 6.72958769977879e-01 5.85169773990879e-03
7.17562500000000e-01 6.68142244244040e-01 5.83169883695096e-03
7.22937500000000e-01 6.63360191528727e-01 5.81160522203693e-03
7.28312500000000e-01 6.58612365100360e-01 5.79142075456710e-03
7.33687500000000e-01 6.53898519993274e-01 5.77114921011654e-03
7.39062500000000e-01 6.49218412995084e-01 5.75079428237517e-03
7.44437500000000e-01 6.44571802634131e-01 5.73035958503118e-03
7.49812500000000e-01 6.39958449167029e-01 5.70984865360241e-03
7.55187500000000e-01 6.35378114566288e-01 5.68926494721539e-03
7.60562500000000e-01 6.30830562508043e-01 5.66861185033417e-03
7.65937500000000e-01 6.26315558359851e-01 5.64789267444271e-03
7.71312500000000e-01 6.21832869168589e-01 5.62711065967918e-03
7.76687500000000e-01 6.17382263648437e-01 5.60626897642552e-03
7.82062500000000e-01 6.12963512168942e-01 5.58537072685494e-03
7.87437500000000e-01 6.08576386743169e-01 5.56441894643773e-03
7.92812500000000e-01 6.04220661015942e-01 5.54341660540558e-03
7.98187500000000e-01 5.99896110252160e-01 5.52236661017682e-03
8.03562500000000e-01 5.95602511325207e-01 5.50127180474533e-03
8.08937500000000e-01 5.91339642705437e-01 5.48013497203261e-03
8.14312500000000e-01 5.87107284448743e-01 5.45895883520395e-03
8.19687500000000e-01 5.82905218185210e-01 5.43774605895031e-03
8.25062500000000e-01 5.78733227107850e-01 5.41649925073809e-03
8.30437500000000e-01 5.74591095961413e-01 5.39522096202729e-03
8.35812500000000e-01 5.70478611031282e-01 5.37391368945710e-03
8.41187500000000e-01 5.66395560132447e-01 5.35257987600314e-03
8.46562500000000e-01 5.62341732598554e-01 5.33122191210483e-03
8.51937500000000e-01 5.58316919271042e-01 5.30984213676503e-03
8.57312500000000e-01 5.54320912488344e-01 5.28844283862234e-03
8.62687500000000e-01 5.50353506075179e-01 5.26702625699664e-03
8.68062500000000e-01 5.46414495331909e-01 5.24559458291074e-03
8.73437500000000e-01 5.42503677023982e-01 5.22414996008455e-03
8.78812500000000e-01 5.38620849371443e-01 5.20269448590706e-03
8.84187500000000e-01 5.34765812038524e-01 5.18123021238469e-03
8.89562500000000e-01 5.30938366123306e-01 5.15975914706642e-03
8.94937500000000e-01 5.27138314147463e-01 5.13828325394785e-03
9.00312500000000e-01 5.23365460046062e-01 5.11680445435270e-03
9.05687500000000e-01 5.19619609157459e-01 5.09532462779512e-03
9.11062500000000e-01 5.15900568213246e-01 5.07384561282048e-03
9.16437500000000e-01 5.12208145328284e-01 5.05236920782730e-03
9.21812500000000e-01 5.08542149990802e-01 5.03089717187046e-03
9.27187500000000e-01 5.04902393052567e-01 5.00943122544565e-03
9.32562500000000e-01 5.01288686719123e-01 4.98797305125567e-03
9.37937500000000e-01 4.97700844540107e-01 4.96652429495953e-03
9.43312500000000e-01 4.94138681399621e-01 4.94508656590434e-03
9.48687500000000e-01 4.90602013506690e-01 4.92366143784171e-03
9.54062500000000e-01 4.87090658385771e-01 4.90225044962756e-03
9.59437500000000e-01 4.83604434867344e-01 4.88085510590533e-03
9.64812500000000e-01 4.80143163078561e-01 4.85947687777546e-03
9.70187500000000e-01 4.76706664433968e-01 4.83811720345012e-03
9.75562500000000e-01 4.73294761626289e-01 4.81677748889266e-03
9.80937500000000e-01 4.69907278617278e-01 4.79545910844336e-03
9.86312500000000e-01 4.66544040628636e-01 4.77416340543241e-03
9.91687500000000e-01 4.63204874132995e-01 4.75289169277880e-03
9.97062500000000e-01 4.59889606844963e-01 4.73164525357576e-03
1.00243750000000e+00 4.56598067712235e-01 4.71042534166550e-03
1.00781250000000e+00 4.53330086906768e-01 4.68923318220070e-03
1.01318750000000e+00 4.50085495816020e-01 4.66806997219329e-03
1.01856250000000e+00 4.46864127034248e-01 4.64693688105272e-03
1.02393750000000e+00 4.43665814353871e-01 4.62583505111282e-03
1.02931250000000e+00 4.40490392756897e-01 4.60476559814734e-03
1.03468750000000e+00 4.37337698406404e-01 4.58372961187441e-03
1.04006250000000e+00 4.34207568638094e-01 4.56272815645154e-03
1.04543750000000e+00 4.31099841951892e-01 4.54176227095942e-03
1.05081250000000e+00 4.28014358003619e-01 4.52083296987601e-03
1.05618750000000e+00 4.24950957596718e-01 4.49994124354140e-03
1.06156250000000e+00 4.21909482674038e-01 4.47908805861258e-03
1.06693750000000e+00 4.18889776309683e-01 4.45827435850913e-03
1.07231250000000e+00 4.15891682700910e-01 4.43750106384986e-03
1.07768750000000e+00 4.12915047160095e-01 4.41676907288101e-03
1.08306250000000e+00 4.09959716106749e-01 4.39607926189558e-03
1.08843750000000e+00 4.07025537059597e-01 4.37543248564395e-03
1.09381250000000e+00 4.04112358628707e-01 4.35482957773658e-03
1.09918750000000e+00 4.01220030507681e-01 4.33427135103885e-03
1.10456250000000e+00 3.98348403465899e-01 4.31375859805856e-03
1.10993750000000e+00 3.95497329340821e-01 4.29329209132414e-03
1.11531250000000e+00 3.92666661030342e-01 4.27287258375707e-03
1.12068750000000e+00 3.89856252485200e-01 4.25250080903644e-03
1.12606250000000e+00 3.87065958701444e-01 4.23217748195649e-03
1.13143750000000e+00 3.84295635712948e-01 4.21190329877688e-03
1.13681250000000e+00 3.81545140583990e-01 4.19167893756619e-03
1.14218750000000e+00 3.78814331401868e-01 4.17150505853924e-03
1.14756250000000e+00 3.76103067269587e-01 4.15138230438751e-03
1.15293750000000e+00 3.73411208298584e-01 4.13131130060388e-03
1.15831250000000e+00 3.70738615601510e-01 4.11129265579988e-03
1.16368750000000e+00 3.68085151285067e-01 4.09132696201808e-03
1.16906250000000e+00 3.65450678442893e-01 4.07141479503811e-03
1.17443750000000e+00 3.62835061148496e-01 4.05155671467677e-03
1.17981250000000e+00 3.60238164448243e-01 4.03175326508271e-03
1.18518750000000e+00 3.57659854354396e-01 4.01200497502539e-03
1.19056250000000e+00 3.55099997838199e-01 3.99231235817885e-03
1.19593750000000e+00 3.52558462823013e-01 3.97267591339982e-03
1.20131250000000e+00 3.50035118177506e-01 3.95309612500093e-03
1.20668750000000e+00 3.47529833708882e-01 3.93357346301835e-03
1.21206250000000e+00 3.45042480156165e-01 3.91410838347507e-03
1.21743750000000e+00 3.42572929183532e-01 3.89470132863971e-03
1.22281250000000e+00 3.40121053373689e-01 3.87535272727881e-03
1.22818750000000e+00 3.37686726221300e-01 3.85606299490609e-03
1.23356250000000e+00 3.35269822126454e-01 3.83683253402718e-03
1.23893750000000e+00 3.32870216388192e-01 3.81766173437828e-03
1.24431250000000e+00 3.30487785198067e-01 3.79855097316197e-03
1.24968750000000e+00 3.28122405633760e-01 3.77950061527869e-03
1.25506250000000e+00 3.25773955652735e-01 3.76051101355306e-03
1.26043750000000e+00 3.23442314085944e-01 3.74158250895673e-03
1.26581250000000e+00 3.21127360631575e-01 3.72271543082732e-03
1.27118750000000e+00 3.18828975848844e-01 3.70391009708272e-03
1.27656250000000e+00 3.16547041151833e-01 3.68516681443223e-03
1.28193750000000e+00 3.14281438803373e-01 3.66648587858404e-03
1.28731250000000e+00 3.12032051908965e-01 3.64786757444818e-03
1.29268750000000e+00 3.09798764410754e-01 3.62931217633629e-03
1.29806250000000e+00 3.07581461081538e-01 3.61081994815800e-03
1.30343750000000e+00 3.05380027518824e-01 3.59239114361358e-03
1.30881250000000e+00 3.03194350138925e-01 3.57402600638365e-03
1.31418750000000e+00 3.01024316171097e-01 3.55572477031426e-03
1.31956250000000e+00 2.98869813651726e-01 3.53748765960038e-03
1.32493750000000e+00 2.96730731418547e-01 3.51931488896523e-03
1.33031250000000e+00 2.94606959104909e-01 3.50120666383584e-03
1.33568750000000e+00 2.92498387134082e-01 3.48316318051670e-03
1.34106250000000e+00 2.90404906713603e-01 3.46518462636020e-03
1.34643750000000e+00 2.88326409829661e-01 3.44727117993339e-03
1.35181250000000e+00 2.86262789241529e-01 3.42942301118257e-03
1.35718750000000e+00 2.84213938476024e-01 3.41164028159447e-03
1.36256250000000e+00 2.82179751822017e-01 3.39392314435427e-03
1.36793750000000e+00 2.80160124324980e-01 3.37627174450251e-03
1.37331250000000e+00 2.78154951781568e-01 3.35868621908715e-03
1.37868750000000e+00 2.76164130734247e-01 3.34116669731457e-03
1.38406250000000e+00 2.74187558465951e-01 3.32371330069791e-03
1.38943750000000e+00 2.72225132994783e-01 3.30632614320112e-03
1.39481250000000e+00 2.70276753068757e-01 3.28900533138250e-03
1.40018750000000e+00 2.68342318160572e-01 3.27175096453527e-03
1.40556250000000e+00 2.66421728462422e-01 3.25456313482507e-03
1.41093750000000e+00 2.64514884880852e-01 3.23744192742573e-03
1.41631250000000e+00 2.62621689031640e-01 3.22038742065219e-03
1.42168750000000e+00 2.60742043234725e-01 3.20339968609178e-03
1.42706250000000e+00 2.58875850509165e-01 3.18647878873312e-03
1.43243750000000e+00 2.57023014568133e-01 3.16962478709223e-03
1.43781250000000e+00 2.55183439813950e-01 3.15283773333658e-03
1.44318750000000e+00 2.53357031333154e-01 3.13611767340821e-03
1.44856250000000e+00 2.51543694891597e-01 3.11946464714355e-03
1.45393750000000e+00 2.49743336929592e-01 3.10287868839133e-03
1.45931250000000e+00 2.47955864557077e-01 3.08635982512862e-03
1.46468750000000e+00 2.46181185548830e-01 3.06990807957545e-03
1.47006250000000e+00 2.44419208339702e-01 3.05352346830694e-03
1.47543750000000e+00 2.42669842019902e-01 3.03720600236324e-03
1.48081250000000e+00 2.40932996330300e-01 3.02095568735830e-03
1.48618750000000e+00 2.39208581657772e-01 3.00477252358642e-03
1.49156250000000e+00 2.37496509030576e-01 2.98865650612717e-03
1.49693750000000e+00 2.35796690113764e-01 2.97260762494849e-03
1.50231250000000e+00 2.34109037204619e-01 2.95662586500782e-03
1.50768750000000e+00 2.32433463228136e-01 2.94071120635178e-03
1.51306250000000e+00 2.30769881732525e-01 2.92486362421447e-03
1.51843750000000e+00 2.29118206884753e-01 2.90908308911344e-03
1.52381250000000e+00 2.27478353466113e-01 2.89336956694435e-03
1.52918750000000e+00 2.25850236867830e-01 2.87772301907466e-03
1.53456250000000e+00 2.24233773086692e-01 2.86214340243459e-03
1.53993750000000e+00 2.22628878720721e-01 2.84663066960711e-03
1.54531250000000e+00 2.21035470964864e-01 2.83118476891681e-03
1.55068750000000e+00 2.19453467606725e-01 2.81580564451701e-03
1.55606250000000e+00 2.17882787022321e-01 2.80049323647522e-03
1.56143750000000e+00 2.16323348171872e-01 2.78524748085698e-03
1.56681250000000e+00 2.14775070595618e-01 2.77006830980895e-03
1.57218750000000e+00 2.13237874409668e-01 2.75495565164049e-03
1.57756250000000e+00 2.11711680301881e-01 2.73990943090345e-03
1.58293750000000e+00 2.10196409527771e-01 2.72492956847073e-03
1.58831250000000e+00 2.08691983906444e-01 2.71001598161391e-03
1.59368750000000e+00 2.07198325816566e-01 2.69516858407922e-03
1.59906250000000e+00 2.05715358192357e-01 2.68038728616223e-03
1.60443750000000e+00 2.04243004519617e-01 2.66567199478184e-03
1.60981250000000e+00 2.02781188831773e-01 2.65102261355255e-03
1.61518750000000e+00 2.01329835705966e-01 2.63643904285534e-03
1.62056250000000e+00 1.99888870259153e-01 2.62192117990775e-03
1.62593750000000e+00 1.98458218144250e-01 2.60746891883287e-03
1.63131250000000e+00 1.97037805546290e-01 2.59308215072698e-03
1.63668750000000e+00 1.95627559178620e-01 2.57876076372594e-03
1.64206250000000e+00 1.94227406279114e-01 2.56450464307071e-03
1.64743750000000e+00 1.92837274606424e-01 2.55031367117197e-03
1.65281250000000e+00 1.91457092436250e-01 2.53618772767309e-03
1.65818750000000e+00 1.90086788557640e-01 2.52212668951249e-03
1.66356250000000e+00 1.88726292269314e-01 2.50813043098494e-03
1.66893750000000e+00 1.87375533376020e-01 2.49419882380160e-03
1.67431250000000e+00 1.86034442184910e-01 2.48033173714951e-03
1.67968750000000e+00 1.84702949501942e-01 2.46652903774925e-03
1.68506250000000e+00 1.83380986628315e-01 2.45279058991263e-03
1.69043750000000e+00 1.82068485356920e-01 2.43911625559925e-03
1.69581250000000e+00 1.80765377968823e-01 2.42550589447121e-03
