Energy (eV)          EEDF (eV^-(3/2))     First Anisotropy
1.93571428571429e-03 9.80275428926609e+00 7.54704648164741e-03
5.80714285714286e-03 9.64279704646687e+00 1.24023356098878e-02
9.67857142857143e-03 9.48544991903929e+00 1.62143479692316e-02
1.35500000000000e-02 9.33067031629879e+00 1.90159077010538e-02
1.74214285714286e-02 9.17841634206492e+00 2.12755586165556e-02
2.12928571428571e-02 9.02864678428467e+00 2.31730468096107e-02
2.51642857142857e-02 8.88132110396983e+00 2.48026807271132e-02
2.90357142857143e-02 8.73639942232002e+00 2.62221734731454e-02
3.29071428571429e-02 8.59384251190502e+00 2.74703004106514e-02
3.67785714285714e-02 8.45361178577446e+00 2.85748153204595e-02
4.06500000000000e-02 8.31566928585872e+00 2.95565167730398e-02
4.45214285714286e-02 8.17997767385373e+00 3.04315450907024e-02
4.83928571428571e-02 8.04650022072447e+00 3.12127746067077e-02
5.22642857142857e-02 7.91520079700397e+00 3.19107048614675e-02
5.61357142857143e-02 7.78604386227918e+00 3.25340564828455e-02
6.00071428571429e-02 7.65899445631525e+00 3.30901841349496e-02
6.38785714285714e-02 7.53401818952885e+00 3.35853714962339e-02
6.77500000000000e-02 7.41108123312089e+00 3.40250472358640e-02
7.16214285714286e-02 7.29015031048288e+00 3.44139467118479e-02
7.54928571428572e-02 7.17119268799966e+00 3.47562353979026e-02
7.93642857142857e-02 7.05417616632630e+00 3.50556046533792e-02
8.32357142857143e-02 6.93906907125478e+00 3.53153471163793e-02
8.71071428571429e-02 6.82584024556277e+00 3.55384168590832e-02
9.09785714285714e-02 6.71445904055173e+00 3.57274780419609e-02
9.48500000000000e-02 6.60489530740848e+00 3.58849445659520e-02
9.87214285714286e-02 6.49711938939008e+00 3.60130127713011e-02
1.02592857142857e-01 6.39110211358395e+00 3.61136886062146e-02
1.06464285714286e-01 6.28681478382878e+00 3.61888105904401e-02
1.10335714285714e-01 6.18422917071728e+00 3.62400689737140e-02
1.14207142857143e-01 6.08331750636750e+00 3.62690219683675e-02
1.18078571428571e-01 5.98405247678740e+00 3.62771101613807e-02
1.21950000000000e-01 5.88640721210998e+00 3.62656683619043e-02
1.25821428571429e-01 5.79035528240625e+00 3.62359361194752e-02
1.29692857142857e-01 5.69587068761478e+00 3.61890668726750e-02
1.33564285714286e-01 5.60292785326372e+00 3.61261359046895e-02
1.37435714285714e-01 5.51150162093301e+00 3.60481474306216e-02
1.41307142857143e-01 5.42156724335752e+00 3.59560405693878e-02
1.45178571428571e-01 5.33310037765065e+00 3.58506951426907e-02
1.49050000000000e-01 5.24607707701347e+00 3.57329363573246e-02
1.52921428571429e-01 5.16047378647633e+00 3.56035391963312e-02
1.56792857142857e-01 5.07626733440579e+00 3.54632323418018e-02
1.60664285714286e-01 4.99343492825027e+00 3.53127016625091e-02
1.64535714285714e-01 4.91195414644571e+00 3.51525934329826e-02
1.68407142857143e-01 4.83180293376001e+00 3.49835170126625e-02
1.72278571428571e-01 4.75295959526883e+00 3.48060476893659e-02
1.76150000000000e-01 4.67540278921390e+00 3.46207288705351e-02
1.80021428571429e-01 4.59911152288936e+00 3.44280742550058e-02
1.83892857142857e-01 4.52406514536770e+00 3.42285698056595e-02
1.87764285714286e-01 4.45024334343437e+00 3.40226755250385e-02
1.91635714285714e-01 4.37762613462845e+00 3.38108271449882e-02
1.95507142857143e-01 4.30619386290955e+00 3.35934374892112e-02
1.99378571428571e-01 4.23592719329784e+00 3.33708980720606e-02
2.03250000000000e-01 4.16680710566774e+00 3.31435802462299e-02
2.07121428571429e-01 4.09881489087664e+00 3.29118364105375e-02
2.10992857142857e-01 4.03193214447383e+00 3.26760011182588e-02
2.14864285714286e-01 3.96614076289799e+00 3.24363920807836e-02
2.18735714285714e-01 3.90142293744291e+00 3.21933111499781e-02
2.22607142857143e-01 3.83776115027374e+00 3.19470450733435e-02
2.26478571428571e-01 3.77513816965555e+00 3.16978664853260e-02
2.30350000000000e-01 3.71353704452873e+00 3.14460345571827e-02
2.34221428571429e-01 3.65294110092047e+00 3.11917957280149e-02
2.38092857142857e-01 3.59333393646820e+00 3.09353843795418e-02
2.41964285714286e-01 3.53469941690818e+00 3.06770234481599e-02
2.45835714285714e-01 3.47702167081314e+00 3.04169250404534e-02
2.49707142857143e-01 3.42028508595766e+00 3.01552908776619e-02
2.53578571428571e-01 3.36447430506945e+00 2.98923129558300e-02
2.57450000000000e-01 3.30957422106892e+00 2.96281739345410e-02
2.61321428571429e-01 3.25556997377456e+00 2.93630476080594e-02
2.65192857142857e-01 3.20244694511341e+00 2.90970993413903e-02
2.69064285714286e-01 3.15019075590515e+00 2.88304864652129e-02
2.72935714285714e-01 3.09878726125412e+00 2.85633586837201e-02
2.76807142857143e-01 3.04822254725019e+00 2.82958583474340e-02
2.80678571428571e-01 2.99848292718469e+00 2.80281209167100e-02
2.84550000000000e-01 2.94955493736096e+00 2.77602752033458e-02
2.88421428571429e-01 2.90142533408878e+00 2.74924436889710e-02
2.92292857142857e-01 2.85408108948167e+00 2.72247428198285e-02
2.96164285714286e-01 2.80750938852834e+00 2.69572832727199e-02
3.00035714285714e-01 2.76169762504532e+00 2.66901702369692e-02
3.03907142857143e-01 2.71663339869323e+00 2.64235035866529e-02
3.07778571428571e-01 2.67230451160608e+00 2.61573782192090e-02
3.11650000000000e-01 2.62869896469636e+00 2.58918842094888e-02
3.15521428571429e-01 2.58580495492570e+00 2.56271070328590e-02
3.19392857142857e-01 2.54361087160764e+00 2.53631277714648e-02
3.23264285714286e-01 2.50210529375167e+00 2.51000232992455e-02
3.27135714285714e-01 2.46127698649993e+00 2.48378664833392e-02
3.31007142857143e-01 2.42111489843594e+00 2.45767262946406e-02
3.34878571428571e-01 2.38160815858178e+00 2.43166680627296e-02
3.38750000000000e-01 2.34274607313393e+00 2.40577535755476e-02
3.42621428571429e-01 2.30451812299317e+00 2.38000412401671e-02
3.46492857142857e-01 2.26691396050550e+00 2.35435862310056e-02
3.50364285714286e-01 2.22992340706068e+00 2.32884406217910e-02
3.54235714285714e-01 2.19353644994954e+00 2.30346535331073e-02
3.58107142857143e-01 2.15774323994115e+00 2.27822712037905e-02
3.61978571428571e-01 2.12253408860765e+00 2.25313371873394e-02
3.65850000000000e-01 2.08789946543695e+00 2.22818924167003e-02
3.69721428571429e-01 2.05382999560270e+00 2.20339753226645e-02
3.73592857142857e-01 2.02031645708720e+00 2.17876219425769e-02
3.77464285714286e-01 1.98734977851488e+00 2.15428660162798e-02
3.81335714285714e-01 1.95492103637661e+00 2.12997390963553e-02
3.85207142857143e-01 1.92302145285198e+00 2.10582705939760e-02
3.89078571428571e-01 1.89164239342574e+00 2.08184879329669e-02
3.92950000000000e-01 1.86077536433138e+00 2.05804165916295e-02
3.96821428571429e-01 1.83041201054170e+00 2.03440801914193e-02
4.00692857142857e-01 1.80054411322575e+00 2.01095005779548e-02
4.04564285714286e-01 1.77116358779780e+00 1.98766978917910e-02
4.08435714285714e-01 1.74226248146295e+00 1.96456906520687e-02
4.12307142857143e-01 1.71383297126207e+00 1.94164957853646e-02
4.16178571428571e-01 1.68586736194802e+00 1.91891287482480e-02
4.20050000000000e-01 1.65835808372020e+00 1.89636035537084e-02
4.23921428571429e-01 1.63129769041685e+00 1.87399328384528e-02
4.27792857142857e-01 1.60467885726479e+00 1.85181279240097e-02
4.31664285714286e-01 1.57849437912509e+00 1.82981988694981e-02
4.35535714285714e-01 1.55273716832066e+00 1.80801545358702e-02
4.39407142857143e-01 1.52740025288273e+00 1.78640026032844e-02
4.43278571428571e-01 1.50247677465857e+00 1.76497496696942e-02
4.47150000000000e-01 1.47795998730253e+00 1.74374012668210e-02
4.51021428571429e-01 1.45384325465168e+00 1.72269619117393e-02
4.54892857142857e-01 1.43012004873319e+00 1.70184351533923e-02
4.58764285714286e-01 1.40678394818847e+00 1.68118236122353e-02
4.62635714285714e-01 1.38382863634892e+00 1.66071290300355e-02
4.66507142857143e-01 1.36124789966450e+00 1.64043522794369e-02
4.70378571428571e-01 1.33903562601751e+00 1.62034934439798e-02
4.74250000000000e-01 1.31718580294013e+00 1.60045518269137e-02
4.78121428571429e-01 1.29569251615638e+00 1.58075259910445e-02
4.81992857142857e-01 1.27454994781624e+00 1.56124137943783e-02
4.85864285714286e-01 1.25375237508154e+00 1.54192124200469e-02
4.89735714285714e-01 1.23329416842043e+00 1.52279184151896e-02
4.93607142857143e-01 1.21316979019992e+00 1.50385276951881e-02
4.97478571428571e-01 1.19337379318334e+00 1.48510356090844e-02
5.01350000000000e-01 1.17390081894813e+00 1.46654369434829e-02
5.05221428571429e-01 1.15474559657804e+00 1.44817259534999e-02
5.09092857142857e-01 1.13590294109740e+00 1.42998963901978e-02
5.12964285714286e-01 1.11736775220309e+00 1.41199415232263e-02
5.16835714285714e-01 1.09913501275202e+00 1.39418541713414e-02
5.20707142857143e-01 1.08119978750120e+00 1.37656267030158e-02
5.24578571428571e-01 1.06355722176896e+00 1.35912510902330e-02
5.28450000000000e-01 1.04620254002973e+00 1.34187189090322e-02
5.32321428571429e-01 1.02913104474201e+00 1.32480213636386e-02
5.36192857142857e-01 1.01233811495927e+00 1.30791493076305e-02
5.40064285714286e-01 9.95819205193756e-01 1.29120932610630e-02
5.43935714285714e-01 9.79569844074400e-01 1.27468434345159e-02
5.47807142857143e-01 9.63585633219587e-01 1.25833897272622e-02
5.51678571428571e-01 9.47862246044111e-01 1.24217217717200e-02
5.55550000000000e-01 9.32395426510908e-01 1.22618289317275e-02
5.59421428571429e-01 9.17180988081148e-01 1.21037003213940e-02
5.63292857142857e-01 9.02214812481427e-01 1.19473248214429e-02
5.67164285714286e-01 8.87492848686175e-01 1.17926910921265e-02
5.71035714285714e-01 8.73011111726359e-01 1.16397875922171e-02
5.74907142857143e-01 8.58765681681346e-01 1.14886025755701e-02
5.78778571428571e-01 8.44752702615733e-01 1.13391241280001e-02
5.82650000000000e-01 8.30968381470131e-01 1.11913401640547e-02
5.86521428571429e-01 8.17408987121183e-01 1.10452384417506e-02
5.90392857142857e-01 8.04070849287000e-01 1.09008065751747e-02
5.94264285714286e-01 7.90950357616260e-01 1.07580320441680e-02
5.98135714285714e-01 7.78043960630383e-01 1.06169022093405e-02
6.02007142857143e-01 7.65348164822177e-01 1.04774043076171e-02
6.05878571428571e-01 7.52859533708432e-01 1.03395254829284e-02
6.09750000000000e-01 7.40574686843985e-01 1.02032527820297e-02
6.13621428571429e-01 7.28490298980524e-01 1.00685731660088e-02
6.17492857142857e-01 7.16603099094459e-01 9.93547351997018e-03
6.21364285714286e-01 7.04909869571846e-01 9.80394066022809e-03
6.25235714285714e-01 6.93407445268788e-01 9.67396134617764e-03
6.29107142857143e-01 6.82092712705801e-01 9.54552227523877e-03
6.32978571428572e-01 6.70962609223535e-01 9.41861010846970e-03
6.36850000000000e-01 6.60014122106247e-01 9.29321146581714e-03
6.40721428571429e-01 6.49244287829273e-01 9.16931293508244e-03
6.44592857142857e-01 6.38650191195391e-01 9.04690107932178e-03
6.48464285714286e-01 6.28228964605756e-01 8.92596244211351e-03
6.52335714285714e-01 6.17977787225085e-01 8.80648355693178e-03
6.56207142857143e-01 6.07893884261754e-01 8.68845094178497e-03
6.60078571428572e-01 5.97974526215419e-01 8.57185112063851e-03
6.63950000000000e-01 5.88217028097596e-01 8.45667061837340e-03
6.67821428571429e-01 5.78618748758678e-01 8.34289596774018e-03
6.71692857142857e-01 5.69177090120492e-01 8.23051371496942e-03
6.75564285714286e-01 5.59889496524363e-01 8.11951042354902e-03
6.79435714285714e-01 5.50753453989222e-01 8.00987268160485e-03
6.83307142857143e-01 5.41766489568453e-01 7.90158709644282e-03
6.87178571428571e-01 5.32926170679404e-01 7.79464031249902e-03
6.91050000000000e-01 5.24230104410202e-01 7.68901900620166e-03
6.94921428571429e-01 5.15675936918066e-01 7.58470989133111e-03
6.98792857142857e-01 5.07261352747200e-01 7.48169972322237e-03
7.02664285714286e-01 4.98984074245982e-01 7.37997530139070e-03
7.06535714285714e-01 4.90841860907513e-01 7.27952347531975e-03
7.10407142857143e-01 4.82832508795140e-01 7.18033113905154e-03
7.14278571428571e-01 4.74953849944944e-01 7.08238524624927e-03
7.18150000000000e-01 4.67203751749146e-01 6.98567280509885e-03
7.22021428571429e-01 4.59580116418308e-01 6.89018088240443e-03
7.25892857142857e-01 4.52080880374943e-01 6.79589660668374e-03
7.29764285714286e-01 4.44704013732633e-01 6.70280716990433e-03
7.33635714285714e-01 4.37447519709741e-01 6.61089983199797e-03
7.37507142857143e-01 4.30309434116365e-01 6.52016191559714e-03
7.41378571428571e-01 4.23287824821860e-01 6.43058081868963e-03
7.45250000000000e-01 4.16380791206292e-01 6.34214400965394e-03
7.49121428571429e-01 4.09586463679859e-01 6.25483903035033e-03
7.52992857142857e-01 4.02903003143705e-01 6.16865349834722e-03
7.56864285714286e-01 3.96328600524493e-01 6.08357510797392e-03
7.60735714285714e-01 3.89861476253076e-01 5.99959163381362e-03
7.64607142857143e-01 3.83499879806375e-01 5.91669092565301e-03
7.68478571428571e-01 3.77242089232864e-01 5.83486091912327e-03
7.72350000000000e-01 3.71086410664496e-01 5.75408963093198e-03
7.76221428571429e-01 3.65031177887334e-01 5.67436516115736e-03
7.80092857142857e-01 3.59074751862063e-01 5.59567569479352e-03
7.83964285714286e-01 3.53215520308176e-01 5.51800950228111e-03
7.87835714285714e-01 3.47451897240340e-01 5.44135494218175e-03
7.91707142857143e-01 3.41782322559381e-01 5.36570045638229e-03
7.95578571428571e-01 3.36205261629410e-01 5.29103457904915e-03
7.99450000000000e-01 3.30719204843514e-01 5.21734593209628e-03
8.03321428571429e-01 3.25322667240207e-01 5.14462322684800e-03
8.07192857142857e-01 3.20014188076963e-01 5.07285526505303e-03
8.11064285714286e-01 3.14792330458796e-01 5.00203093901915e-03
8.14935714285714e-01 3.09655680925878e-01 4.93213923363266e-03
8.18807142857143e-01 3.04602849088411e-01 4.86316922184135e-03
8.22678571428571e-01 2.99632467249770e-01 4.79511007219255e-03
8.26550000000000e-01 2.94743190020002e-01 4.72795104456112e-03
8.30421428571429e-01 2.89933693973255e-01 4.66168149131342e-03
8.34292857142857e-01 2.85202677268430e-01 4.59629085790815e-03
8.38164285714286e-01 2.80548859317459e-01 4.53176868273556e-03
8.42035714285714e-01 2.75970980418461e-01 4.46810459861308e-03
8.45907142857143e-01 2.71467801429834e-01 4.40528832855802e-03
8.49778571428571e-01 2.67038103434404e-01 4.34330969213552e-03
8.53650000000000e-01 2.62680687395436e-01 4.28215860145716e-03
8.57521428571429e-01 2.58394373850715e-01 4.22182506195268e-03
8.61392857142857e-01 2.54178002575056e-01 4.16229917265281e-03
8.65264285714286e-01 2.50030432284090e-01 4.10357112581019e-03
8.69135714285714e-01 2.45950540307892e-01 4.04563120797813e-03
8.73007142857143e-01 2.41937222300103e-01 3.98846979607507e-03
8.76878571428572e-01 2.37989391938628e-01 3.93207736273028e-03
8.80750000000000e-01 2.34105980619454e-01 3.87644447255665e-03
8.84621428571429e-01 2.30285937183493e-01 3.82156178261502e-03
8.88492857142857e-01 2.26528227616313e-01 3.76742004245404e-03
8.92364285714286e-01 2.22831834783650e-01 3.71401009357466e-03
8.96235714285714e-01 2.19195758141019e-01 3.66132287017764e-03
9.00107142857143e-01 2.15619013474122e-01 3.60934939551577e-03
9.03978571428572e-01 2.12100632632119e-01 3.55808078639495e-03
9.07850000000000e-01 2.08639663255076e-01 3.50750824971685e-03
9.11721428571429e-01 2.05235168530096e-01 3.45762308270536e-03
9.15592857142857e-01 2.01886226924123e-01 3.40841667276293e-03
9.19464285714286e-01 1.98591931947830e-01 3.35988049682688e-03
9.23335714285714e-01 1.95351391897205e-01 3.31200612185527e-03
9.27207142857143e-01 1.92163729621911e-01 3.26478520145780e-03
9.31078571428572e-01 1.89028082287575e-01 3.21820947968483e-03
9.34950000000000e-01 1.85943601133160e-01 3.17227078783208e-03
9.38821428571429e-01 1.82909451253265e-01 3.12696104448377e-03
9.42692857142857e-01 1.79924811360345e-01 3.08227225523347e-03
9.46564285714286e-01 1.76988873573936e-01 3.03819651196980e-03
9.50435714285714e-01 1.74100843190698e-01 2.99472599315668e-03
9.54307142857143e-01 1.71259938477711e-01 2.95185296073112e-03
9.58178571428571e-01 1.68465390460638e-01 2.90956976329143e-03
9.62050000000000e-01 1.65716442707720e-01 2.86786883315325e-03
9.65921428571429e-01 1.63012351135448e-01 2.82674268625349e-03
9.69792857142857e-01 1.60352383796953e-01 2.78618392177340e-03
9.73664285714286e-01 1.57735820693866e-01 2.74618522138287e-03
9.77535714285714e-01 1.55161953571656e-01 2.70673934936047e-03
9.81407142857143e-01 1.52630085735207e-01 2.66783914974441e-03
9.85278571428571e-01 1.50139531860028e-01 2.62947754901365e-03
9.89150000000000e-01 1.47689617799940e-01 2.59164755338250e-03
9.93021428571429e-01 1.45279680413629e-01 2.55434224860065e-03
9.96892857142857e-01 1.42909067376309e-01 2.51755479950856e-03
1.00076428571429e+00 1.40577137011801e-01 2.48127844926254e-03
1.00463571428571e+00 1.38283258110373e-01 2.44550651978969e-03
1.00850714285714e+00 1.36026809762218e-01 2.41023240868578e-03
1.01237857142857e+00 1.33807181191343e-01 2.37544959011017e-03
1.01625000000000e+00 1.31623771588138e-01 2.34115161030408e-03
1.02012142857143e+00 1.29475989965383e-01 2.30733209957982e-03
1.02399285714286e+00 1.27363254941713e-01 2.27398476291740e-03
1.02786428571429e+00 1.25284994641496e-01 2.24110337013047e-03
1.03173571428571e+00 1.23240646520724e-01 2.20868176906683e-03
1.03560714285714e+00 1.21229657214729e-01 2.17671388029741e-03
1.03947857142857e+00 1.19251482388428e-01 2.14519369647657e-03
1.04335000000000e+00 1.17305586588968e-01 2.11411527790362e-03
1.04722142857143e+00 1.15391443116960e-01 2.08347276342224e-03
1.05109285714286e+00 1.13508533834817e-01 2.05326036206524e-03
1.05496428571429e+00 1.11656349076190e-01 2.02347234432151e-03
1.05883571428571e+00 1.09834387491251e-01 1.99410305366528e-03
1.06270714285714e+00 1.08042155910972e-01 1.96514690180533e-03
1.06657857142857e+00 1.06279169213661e-01 1.93659836804400e-03
1.07045000000000e+00 1.04544950193639e-01 1.90845199529543e-03
1.07432142857143e+00 1.02839029446114e-01 1.88070239960065e-03
1.07819285714286e+00 1.01160945197475e-01 1.85334426270289e-03
1.08206428571429e+00 9.95102432234602e-02 1.82637232429142e-03
1.08593571428571e+00 9.78864767116479e-02 1.79978139207519e-03
1.08980714285714e+00 9.62892061405015e-02 1.77356633753369e-03
1.09367857142857e+00 9.47179991604215e-02 1.74772209528515e-03
1.09755000000000e+00 9.31724304767056e-02 1.72224365951539e-03
1.10142142857143e+00 9.16520817466435e-02 1.69712609228753e-03
1.10529285714286e+00 9.01565414292055e-02 1.67236451694371e-03
1.10916428571429e+00 8.86854047111643e-02 1.64795411121566e-03
1.11303571428571e+00 8.72382733848631e-02 1.62389011602958e-03
1.11690714285714e+00 8.58147557404209e-02 1.60016783170638e-03
1.12077857142857e+00 8.44144664597212e-02 1.57678261734656e-03
1.12465000000000e+00 8.30370265121054e-02 1.55372988762829e-03
1.12852142857143e+00 8.16820630623994e-02 1.53100512006688e-03
1.13239285714286e+00 8.03492093377488e-02 1.50860384915028e-03
1.13626428571429e+00 7.90381045609716e-02 1.48652166021887e-03
1.14013571428571e+00 7.77483938418949e-02 1.46475419716418e-03
1.14400714285714e+00 7.64797280812863e-02 1.44329715903106e-03
1.14787857142857e+00 7.52317638763743e-02 1.42214629942493e-03
1.15175000000000e+00 7.40041634278886e-02 1.40129742364160e-03
1.15562142857143e+00 7.27965944578689e-02 1.38074639501122e-03
1.15949285714286e+00 7.16087300916620e-02 1.36048912968544e-03
1.16336428571429e+00 7.04402487978400e-02 1.34052159120001e-03
1.16723571428571e+00 6.92908342915885e-02 1.32083979720821e-03
1.17110714285714e+00 6.81601754490889e-02 1.30143981644309e-03
1.17497857142857e+00 6.70479662233157e-02 1.28231776815066e-03
1.17885000000000e+00 6.59539055611893e-02 1.26346981951762e-03
1.18272142857143e+00 6.48776973301365e-02 1.24489219121691e-03
1.18659285714286e+00 6.38190502134991e-02 1.22658115277378e-03
1.19046428571429e+00 6.27776776564052e-02 1.20853301773434e-03
1.19433571428571e+00 6.17532977798642e-02 1.19074414955661e-03
1.19820714285714e+00 6.07456333044622e-02 1.17321095889475e-03
1.20207857142857e+00 5.97544114753191e-02 1.15592990306078e-03
1.20595000000000e+00 5.87793639882534e-02 1.13889748371983e-03
1.20982142857143e+00 5.78202269241709e-02 1.12211025173901e-03
1.21369285714286e+00 5.68767406563397e-02 1.10556480306759e-03
1.21756428571429e+00 5.59486498016544e-02 1.08925777444374e-03
1.22143571428571e+00 5.50357031442432e-02 1.07318584854987e-03
