Energy (eV)          EEDF (eV^-(3/2))     First Anisotropy
2.15000000000000e-03 1.73812876920006e+00 8.28033930739971e-04
6.45000000000000e-03 1.72816948081202e+00 1.36800102843722e-03
1.07500000000000e-02 1.71826725805145e+00 1.80772310137295e-03
1.50500000000000e-02 1.70842177394566e+00 2.14288543903438e-03
1.93500000000000e-02 1.69863270338970e+00 2.42332877228919e-03
2.36500000000000e-02 1.68889972314056e+00 2.66786580225315e-03
2.79500000000000e-02 1.67922251180710e+00 2.88621672070801e-03
3.22500000000000e-02 1.66960074983963e+00 3.08424220346030e-03
3.65500000000000e-02 1.66003411951937e+00 3.26582321921960e-03
4.08500000000000e-02 1.65052230494804e+00 3.43369858927742e-03
4.51500000000000e-02 1.64106499203740e+00 3.58989265951523e-03
4.94500000000000e-02 1.63166186849889e+00 3.73595545166363e-03
5.37500000000000e-02 1.62231262383333e+00 3.87310736598894e-03
5.80500000000000e-02 1.61301694932065e+00 4.00233126370940e-03
6.23500000000000e-02 1.60377453800973e+00 4.12443367792990e-03
6.66500000000000e-02 1.59458508470824e+00 4.24008698407917e-03
7.09500000000000e-02 1.58544828597254e+00 4.34985933349583e-03
7.52500000000000e-02 1.57636384009773e+00 4.45423644659566e-03
7.95500000000000e-02 1.56733144710762e+00 4.55363782922684e-03
8.38500000000000e-02 1.55835080874485e+00 4.64842907040234e-03
8.81500000000000e-02 1.54942162846106e+00 4.73893132501942e-03
9.24500000000000e-02 1.54054361140706e+00 4.82542873462897e-03
9.67500000000000e-02 1.53171646442312e+00 4.90817431156130e-03
1.01050000000000e-01 1.52293989602929e+00 4.98739466008033e-03
1.05350000000000e-01 1.51421361641576e+00 5.06329380506907e-03
1.09650000000000e-01 1.50553733743330e+00 5.13605632718242e-03
1.13950000000000e-01 1.49691077258374e+00 5.20584995287886e-03
1.18250000000000e-01 1.48833363701053e+00 5.27282771149615e-03
1.22550000000000e-01 1.47980564748929e+00 5.33712974515580e-03
1.26850000000000e-01 1.47132652241851e+00 5.39888483782982e-03
1.31150000000000e-01 1.46289598181021e+00 5.45821171537622e-03
1.35450000000000e-01 1.45451374728072e+00 5.51522015738329e-03
1.39750000000000e-01 1.44617954204146e+00 5.57001195329826e-03
1.44050000000000e-01 1.43789309088985e+00 5.62268172886914e-03
1.48350000000000e-01 1.42965412020017e+00 5.67331766392144e-03
1.52650000000000e-01 1.42146235791454e+00 5.72200211856121e-03
1.56950000000000e-01 1.41331753353395e+00 5.76881218179878e-03
1.61250000000000e-01 1.40521937810933e+00 5.81382015411716e-03
1.65550000000000e-01 1.39716762423265e+00 5.85709397352892e-03
1.69850000000000e-01 1.38916200602808e+00 5.89869759307469e-03
1.74150000000000e-01 1.38120225914327e+00 5.93869131641704e-03
1.78450000000000e-01 1.37328812074054e+00 5.97713209712920e-03
1.82750000000000e-01 1.36541932948826e+00 6.01407380641200e-03
1.87050000000000e-01 1.35759562555222e+00 6.04956747325405e-03
1.91350000000000e-01 1.34981675058699e+00 6.08366150045923e-03
1.95650000000000e-01 1.34208244772746e+00 6.11640185947095e-03
1.99950000000000e-01 1.33439246158033e+00 6.14783226650859e-03
2.04250000000000e-01 1.32674653821566e+00 6.17799434218688e-03
2.08550000000000e-01 1.31914442515852e+00 6.20692775649203e-03
2.12850000000000e-01 1.31158587138060e+00 6.23467036074336e-03
2.17150000000000e-01 1.30407062729201e+00 6.26125830795717e-03
2.21450000000000e-01 1.29659844473292e+00 6.28672616285053e-03
2.25750000000000e-01 1.28916907696548e+00 6.31110700256990e-03
2.30050000000000e-01 1.28178227866559e+00 6.33443250909057e-03
2.34350000000000e-01 1.27443780591484e+00 6.35673305412862e-03
2.38650000000000e-01 1.26713541619246e+00 6.37803777730487e-03
2.42950000000000e-01 1.25987486836727e+00 6.39837465821042e-03
2.47250000000000e-01 1.25265592268976e+00 6.41777058295629e-03
2.51550000000000e-01 1.24547834078417e+00 6.43625140572193e-03
2.55850000000000e-01 1.23834188564059e+00 6.45384200576138e-03
2.60150000000000e-01 1.23124632160715e+00 6.47056634027660e-03
2.64450000000000e-01 1.22419141438225e+00 6.48644749352328e-03
2.68750000000000e-01 1.21717693100681e+00 6.50150772248034e-03
2.73050000000000e-01 1.21020263985658e+00 6.51576849937399e-03
2.77350000000000e-01 1.20326831063449e+00 6.52925055132294e-03
2.81650000000000e-01 1.19637371436304e+00 6.54197389734675e-03
2.85950000000000e-01 1.18951862337676e+00 6.55395788294722e-03
2.90250000000000e-01 1.18270281131467e+00 6.56522121246033e-03
2.94550000000000e-01 1.17592605311281e+00 6.57578197935855e-03
2.98850000000000e-01 1.16918812499683e+00 6.58565769465795e-03
3.03150000000000e-01 1.16248880447456e+00 6.59486531357784e-03
3.07450000000000e-01 1.15582787032870e+00 6.60342126058743e-03
3.11750000000000e-01 1.14920510260950e+00 6.61134145295662e-03
3.16050000000000e-01 1.14262028262749e+00 6.61864132292062e-03
3.20350000000000e-01 1.13607319294627e+00 6.62533583856345e-03
3.24650000000000e-01 1.12956361737533e+00 6.63143952350745e-03
3.28950000000000e-01 1.12309134096292e+00 6.63696647549279e-03
3.33250000000000e-01 1.11665614998891e+00 6.64193038392799e-03
3.37550000000000e-01 1.11025783195779e+00 6.64634454647808e-03
3.41850000000000e-01 1.10389617559161e+00 6.65022188475835e-03
3.46150000000000e-01 1.09757097082302e+00 6.65357495919132e-03
3.50450000000000e-01 1.09128200878836e+00 6.65641598308424e-03
3.54750000000000e-01 1.08502908182070e+00 6.65875683597526e-03
3.59050000000000e-01 1.07881198344303e+00 6.66060907629733e-03
3.63350000000000e-01 1.07263050836144e+00 6.66198395340262e-03
3.67650000000000e-01 1.06648445245833e+00 6.66289241898688e-03
3.71950000000000e-01 1.06037361278567e+00 6.66334513795401e-03
3.76250000000000e-01 1.05429778755828e+00 6.66335249874733e-03
3.80550000000000e-01 1.04825677614722e+00 6.66292462318835e-03
3.84850000000000e-01 1.04225037907312e+00 6.66207137584992e-03
3.89150000000000e-01 1.03627839799959e+00 6.66080237298749e-03
3.93450000000000e-01 1.03034063572671e+00 6.65912699105836e-03
3.97750000000000e-01 1.02443689618447e+00 6.65705437485250e-03
4.02050000000000e-01 1.01856698442634e+00 6.65459344525326e-03
4.06350000000000e-01 1.01273070662280e+00 6.65175290665434e-03
4.10650000000000e-01 1.00692787005495e+00 6.64854125404878e-03
4.14950000000000e-01 1.00115828310817e+00 6.64496677980609e-03
4.19250000000000e-01 9.95421755265749e-01 6.64103758015921e-03
4.23550000000000e-01 9.89718097102617e-01 6.63676156141488e-03
4.27850000000000e-01 9.84047120279099e-01 6.63214644590231e-03
4.32150000000000e-01 9.78408637534680e-01 6.62719977767207e-03
4.36450000000000e-01 9.72802462681827e-01 6.62192892795990e-03
4.40750000000000e-01 9.67228410599845e-01 6.61634110042923e-03
4.45050000000000e-01 9.61686297228756e-01 6.61044333620199e-03
4.49350000000000e-01 9.56175939563229e-01 6.60424251868659e-03
4.53650000000000e-01 9.50697155646533e-01 6.59774537821589e-03
4.57950000000000e-01 9.45249764564526e-01 6.59095849650465e-03
4.62250000000000e-01 9.39833586439690e-01 6.58388831093380e-03
4.66550000000000e-01 9.34448442425180e-01 6.57654111866989e-03
4.70850000000000e-01 9.29094154698927e-01 6.56892308062978e-03
4.75150000000000e-01 9.23770546457762e-01 6.56104022529513e-03
4.79450000000000e-01 9.18477441911580e-01 6.55289845238595e-03
4.83750000000000e-01 9.13214666277533e-01 6.54450353639968e-03
4.88050000000000e-01 9.07982045774261e-01 6.53586113001947e-03
4.92350000000000e-01 9.02779407616151e-01 6.52697676740052e-03
4.96650000000000e-01 8.97606580007632e-01 6.51785586733957e-03
5.00950000000000e-01 8.92463392137506e-01 6.50850373633122e-03
5.05250000000000e-01 8.87349674173301e-01 6.49892557151811e-03
5.09550000000000e-01 8.82265257255669e-01 6.48912646353776e-03
5.13850000000000e-01 8.77209973492806e-01 6.47911139927201e-03
5.18150000000000e-01 8.72183655954911e-01 6.46888526450270e-03
5.22450000000000e-01 8.67186138668672e-01 6.45845284647717e-03
5.26750000000000e-01 8.62217256611786e-01 6.44781883638911e-03
5.31050000000000e-01 8.57276845707509e-01 6.43698783177695e-03
5.35350000000000e-01 8.52364742819241e-01 6.42596433884197e-03
5.39650000000000e-01 8.47480785745136e-01 6.41475277469274e-03
5.43950000000000e-01 8.42624813212745e-01 6.40335746951598e-03
5.48250000000000e-01 8.37796664873694e-01 6.39178266867761e-03
5.52550000000000e-01 8.32996181298389e-01 6.38003253475977e-03
5.56850000000000e-01 8.28223203970749e-01 6.36811114953146e-03
5.61150000000000e-01 8.23477575282972e-01 6.35602251585686e-03
5.65450000000000e-01 8.18759138530334e-01 6.34377055954735e-03
5.69750000000000e-01 8.14067737906009e-01 6.33135913115590e-03
5.74050000000000e-01 8.09403218495928e-01 6.31879200771553e-03
5.78350000000000e-01 8.04765426273665e-01 6.30607289442678e-03
5.82650000000000e-01 8.00154208095347e-01 6.29320542629453e-03
5.86950000000000e-01 7.95569411694597e-01 6.28019316971643e-03
5.91250000000000e-01 7.91010885677510e-01 6.26703962402352e-03
5.95550000000000e-01 7.86478479517651e-01 6.25374822297751e-03
5.99850000000000e-01 7.81972043551085e-01 6.24032233622384e-03
6.04150000000000e-01 7.77491428971436e-01 6.22676527070276e-03
6.08450000000000e-01 7.73036487824969e-01 6.21308027202107e-03
6.12750000000000e-01 7.68607073005713e-01 6.19927052578453e-03
6.17050000000000e-01 7.64203038250593e-01 6.18533915889305e-03
6.21350000000000e-01 7.59824238134608e-01 6.17128924079917e-03
6.25650000000000e-01 7.55470528066027e-01 6.15712378473357e-03
6.29950000000000e-01 7.51141764281613e-01 6.14284574889575e-03
6.34250000000000e-01 7.46837803841876e-01 6.12845803761130e-03
6.38550000000000e-01 7.42558504626354e-01 6.11396350245961e-03
6.42850000000000e-01 7.38303725328922e-01 6.09936494337141e-03
6.47150000000000e-01 7.34073325453121e-01 6.08466510969637e-03
6.51450000000000e-01 7.29867165307521e-01 6.06986670124183e-03
6.55750000000000e-01 7.25685106001112e-01 6.05497236928599e-03
6.60050000000000e-01 7.21527009438710e-01 6.03998471756344e-03
6.64350000000000e-01 7.17392738316406e-01 6.02490630322481e-03
6.68650000000000e-01 7.13282156117023e-01 6.00973963777473e-03
6.72950000000000e-01 7.09195127105616e-01 5.99448718798257e-03
6.77250000000000e-01 7.05131516324985e-01 5.97915137677010e-03
6.81550000000000e-01 7.01091189591219e-01 5.96373458407957e-03
6.85850000000000e-01 6.97074013489267e-01 5.94823914771824e-03
6.90150000000000e-01 6.93079855368534e-01 5.93266736418265e-03
6.94450000000000e-01 6.89108583338495e-01 5.91702148946180e-03
6.98750000000000e-01 6.85160066264346e-01 5.90130373982096e-03
7.03050000000000e-01 6.81234173762668e-01 5.88551629256737e-03
7.07350000000000e-01 6.77330776197128e-01 5.86966128679554e-03
7.11650000000000e-01 6.73449744674193e-01 5.85374082411670e-03
7.15950000000000e-01 6.69590951038877e-01 5.83775696936989e-03
7.20250000000000e-01 6.65754267870508e-01 5.82171175131666e-03
7.24550000000000e-01 6.61939568478520e-01 5.80560716331847e-03
7.28850000000000e-01 6.58146726898270e-01 5.78944516399815e-03
7.33150000000000e-01 6.54375617886880e-01 5.77322767788835e-03
7.37450000000000e-01 6.50626116919099e-01 5.75695659606246e-03
7.41750000000000e-01 6.46898100183192e-01 5.74063377675226e-03
7.46050000000000e-01 6.43191444576852e-01 5.72426104595075e-03
7.50350000000000e-01 6.39506027703135e-01 5.70784019800142e-03
7.54650000000000e-01 6.35841727866417e-01 5.69137299617587e-03
7.58950000000000e-01 6.32198424068379e-01 5.67486117323617e-03
7.63250000000000e-01 6.28575996004007e-01 5.65830643198603e-03
7.67550000000000e-01 6.24974324057623e-01 5.64171044580943e-03
7.71850000000000e-01 6.21393289298932e-01 5.62507485919684e-03
7.76150000000000e-01 6.17832773479099e-01 5.60840128826151e-03
7.80450000000000e-01 6.14292659026840e-01 5.59169132124266e-03
7.84750000000000e-01 6.10772829044544e-01 5.57494651899958e-03
7.89050000000000e-01 6.07273167304406e-01 5.55816841549287e-03
7.93350000000000e-01 6.03793558244600e-01 5.54135851825704e-03
7.97650000000000e-01 6.00333886965451e-01 5.52451830886435e-03
8.01950000000000e-01 5.96894039225650e-01 5.50764924337522e-03
8.06250000000000e-01 5.93473901438477e-01 5.49075275278133e-03
8.10550000000000e-01 5.90073360668052e-01 5.47383024344040e-03
8.14850000000000e-01 5.86692304625604e-01 5.45688309749921e-03
8.19150000000000e-01 5.83330621665765e-01 5.43991267331071e-03
8.23450000000000e-01 5.79988200782885e-01 5.42292030584122e-03
8.27750000000000e-01 5.76664931607361e-01 5.40590730706766e-03
8.32050000000000e-01 5.73360704401998e-01 5.38887496637052e-03
8.36350000000000e-01 5.70075410058383e-01 5.37182455091569e-03
8.40650000000000e-01 5.66808940093281e-01 5.35475730602943e-03
8.44950000000000e-01 5.63561186645055e-01 5.33767445556621e-03
8.49250000000000e-01 5.60332042470103e-01 5.32057720226902e-03
8.53550000000000e-01 5.57121400939317e-01 5.30346672812235e-03
8.57850000000000e-01 5.53929156034564e-01 5.28634419469773e-03
8.62150000000000e-01 5.50755202345181e-01 5.26921074349431e-03
8.66450000000000e-01 5.47599435064498e-01 5.25206749627096e-03
8.70750000000000e-01 5.44461749986375e-01 5.23491555537172e-03
8.75050000000000e-01 5.41342043501762e-01 5.21775600404663e-03
8.79350000000000e-01 5.38240212595279e-01 5.20058990676520e-03
8.83650000000000e-01 5.35156154841809e-01 5.18341830952387e-03
8.87950000000000e-01 5.32089768403125e-01 5.16624224014747e-03
8.92250000000000e-01 5.29040952024518e-01 5.14906270858626e-03
8.96550000000000e-01 5.26009605031460e-01 5.13188070720548e-03
9.00850000000000e-01 5.22995627326274e-01 5.11469721107063e-03
9.05150000000000e-01 5.19998919384835e-01 5.09751317822747e-03
9.09450000000000e-01 5.17019382253279e-01 5.08032954997519e-03
9.13750000000000e-01 5.14056917544736e-01 5.06314725113696e-03
9.18050000000000e-01 5.11111427436084e-01 5.04596719032375e-03
9.22350000000000e-01 5.08182814664714e-01 5.02879026019371e-03
9.26650000000000e-01 5.05270982525325e-01 5.01161733770695e-03
9.30950000000000e-01 5.02375834866724e-01 4.99444928437506e-03
9.35250000000000e-01 4.99497276088654e-01 4.97728694650742e-03
9.39550000000000e-01 4.96635211138638e-01 4.96013115545167e-03
9.43850000000000e-01 4.93789545508839e-01 4.94298272783000e-03
9.48150000000000e-01 4.90960185232939e-01 4.92584246577227e-03
9.52450000000000e-01 4.88147036883039e-01 4.90871115714398e-03
9.56750000000000e-01 4.85350007566568e-01 4.89158957577047e-03
9.61050000000000e-01 4.82569004923223e-01 4.87447848165686e-03
9.65350000000000e-01 4.79803937121913e-01 4.85737862120460e-03
9.69650000000000e-01 4.77054712857730e-01 4.84029072742390e-03
9.73950000000000e-01 4.74321241348932e-01 4.82321552014172e-03
9.78250000000000e-01 4.71603432333950e-01 4.80615370620816e-03
9.82550000000000e-01 4.68901196068400e-01 4.78910597969771e-03
9.86850000000000e-01 4.66214443322125e-01 4.77207302210611e-03
9.91150000000000e-01 4.63543085376248e-01 4.75505550254633e-03
9.95450000000000e-01 4.60887034020240e-01 4.73805407793956e-03
9.99750000000000e-01 4.58246201549010e-01 4.72106939320246e-03
1.00405000000000e+00 4.55620500760006e-01 4.70410208143249e-03
1.00835000000000e+00 4.53009844950338e-01 4.68715276408903e-03
1.01265000000000e+00 4.50414147913915e-01 4.67022205117261e-03
1.01695000000000e+00 4.47833323938597e-01 4.65331054140027e-03
1.02125000000000e+00 4.45267287803364e-01 4.63641882237744e-03
1.02555000000000e+00 4.42715954775505e-01 4.61954747076861e-03
1.02985000000000e+00 4.40179240607816e-01 4.60269705246338e-03
1.03415000000000e+00 4.37657061535823e-01 4.58586812274083e-03
1.03845000000000e+00 4.35149334275011e-01 4.56906122643068e-03
1.04275000000000e+00 4.32655976018078e-01 4.55227689807182e-03
1.04705000000000e+00 4.30176904432196e-01 4.53551566206869e-03
1.05135000000000e+00 4.27712037656300e-01 4.51877803284480e-03
1.05565000000000e+00 4.25261294298374e-01 4.50206451499319e-03
1.05995000000000e+00 4.22824593432774e-01 4.48537560342488e-03
1.06425000000000e+00 4.20401854597550e-01 4.46871178351550e-03
1.06855000000000e+00 4.17992997791789e-01 4.45207353124858e-03
1.07285000000000e+00 4.15597943472975e-01 4.43546131335714e-03
1.07715000000000e+00 4.13216612554362e-01 4.41887558746225e-03
1.08145000000000e+00 4.10848926402363e-01 4.40231680221034e-03
1.08575000000000e+00 4.08494806833953e-01 4.38578539740770e-03
1.09005000000000e+00 4.06154176114085e-01 4.36928180415290e-03
1.09435000000000e+00 4.03826956953129e-01 4.35280644496756e-03
1.09865000000000e+00 4.01513072504314e-01 4.33635973392418e-03
1.10295000000000e+00 3.99212446361191e-01 4.31994207677220e-03
1.10725000000000e+00 3.96925002555115e-01 4.30355387106288e-03
1.11155000000000e+00 3.94650665552732e-01 4.28719550627163e-03
1.11585000000000e+00 3.92389360253484e-01 4.27086736391771e-03
1.12015000000000e+00 3.90141011987133e-01 4.25456981768360e-03
1.12445000000000e+00 3.87905546511293e-01 4.23830323353135e-03
1.12875000000000e+00 3.85682890008978e-01 4.22206796981688e-03
1.13305000000000e+00 3.83472969086166e-01 4.20586437740321e-03
1.13735000000000e+00 3.81275710769375e-01 4.18969279977251e-03
1.14165000000000e+00 3.79091042503253e-01 4.17355357313538e-03
1.14595000000000e+00 3.76918892148180e-01 4.15744702653806e-03
1.15025000000000e+00 3.74759187977892e-01 4.14137348196936e-03
1.15455000000000e+00 3.72611858677105e-01 4.12533325446522e-03
1.15885000000000e+00 3.70476833339167e-01 4.10932665221125e-03
1.16315000000000e+00 3.68354041463712e-01 4.09335397664479e-03
1.16745000000000e+00 3.66243412954332e-01 4.07741552255411e-03
1.17175000000000e+00 3.64144878116267e-01 4.06151157817757e-03
1.17605000000000e+00 3.62058367654096e-01 4.04564242530006e-03
1.18035000000000e+00 3.59983812669458e-01 4.02980833934807e-03
1.18465000000000e+00 3.57921144658768e-01 4.01400958948447e-03
1.18895000000000e+00 3.55870295510963e-01 3.99824643870066e-03
1.19325000000000e+00 3.53831197505245e-01 3.98251914390749e-03
1.19755000000000e+00 3.51803783308851e-01 3.96682795602564e-03
1.20185000000000e+00 3.49787985974827e-01 3.95117312007396e-03
1.20615000000000e+00 3.47783738939819e-01 3.93555487525626e-03
1.21045000000000e+00 3.45790976021871e-01 3.91997345504741e-03
1.21475000000000e+00 3.43809631418244e-01 3.90442908727790e-03
1.21905000000000e+00 3.41839639703243e-01 3.88892199421750e-03
1.22335000000000e+00 3.39880935826052e-01 3.87345239265680e-03
1.22765000000000e+00 3.37933455108591e-01 3.85802049398872e-03
1.23195000000000e+00 3.35997133243379e-01 3.84262650428795e-03
1.23625000000000e+00 3.34071906291408e-01 3.82727062438920e-03
1.24055000000000e+00 3.32157710680034e-01 3.81195304996479e-03
1.24485000000000e+00 3.30254483200879e-01 3.79667397160108e-03
1.24915000000000e+00 3.28362161007739e-01 3.78143357487380e-03
1.25345000000000e+00 3.26480681614516e-01 3.76623204042164e-03
1.25775000000000e+00 3.24609982893147e-01 3.75106954401941e-03
1.26205000000000e+00 3.22750003071557e-01 3.73594625665000e-03
1.26635000000000e+00 3.20900680731618e-01 3.72086234457530e-03
1.27065000000000e+00 3.19061954807124e-01 3.70581796940580e-03
1.27495000000000e+00 3.17233764581767e-01 3.69081328816966e-03
1.27925000000000e+00 3.15416049687141e-01 3.67584845338090e-03
1.28355000000000e+00 3.13608750100742e-01 3.66092361310587e-03
1.28785000000000e+00 3.11811806143989e-01 3.64603891102912e-03
1.29215000000000e+00 3.10025158480253e-01 3.63119448651863e-03
1.29645000000000e+00 3.08248748112897e-01 3.61639047468991e-03
1.30075000000000e+00 3.06482516383329e-01 3.60162700646886e-03
1.30505000000000e+00 3.04726404969063e-01 3.58690420865408e-03
1.30935000000000e+00 3.02980355881797e-01 3.57222220397857e-03
1.31365000000000e+00 3.01244311465492e-01 3.55758111117008e-03
1.31795000000000e+00 2.99518214394476e-01 3.54298104501035e-03
1.32225000000000e+00 2.97802007671543e-01 3.52842211639463e-03
1.32655000000000e+00 2.96095634626076e-01 3.51390443238888e-03
1.33085000000000e+00 2.94399038912177e-01 3.49942809628733e-03
1.33515000000000e+00 2.92712164506801e-01 3.48499320766889e-03
1.33945000000000e+00 2.91034955707909e-01 3.47059986245237e-03
1.34375000000000e+00 2.89367357132629e-01 3.45624815295187e-03
1.34805000000000e+00 2.87709313715429e-01 3.44193816792996e-03
1.35235000000000e+00 2.86060770706293e-01 3.42766999265159e-03
1.35665000000000e+00 2.84421673668919e-01 3.41344370893628e-03
