Energy (eV)          EEDF (eV^-(3/2))     First Anisotropy
1.62121212121212e-02 7.29215227048426e-02 3.36703875900537e-05
4.86363636363636e-02 7.25410804585001e-02 5.56414005112577e-05
8.10606060606061e-02 7.21626230348038e-02 7.35643572398685e-05
1.13484848484848e-01 7.17861400784232e-02 8.72485862803003e-05
1.45909090909091e-01 7.14116212877195e-02 9.87178506894427e-05
1.78333333333333e-01 7.10390564176150e-02 1.08735471097467e-04
2.10757575757576e-01 7.06684352716824e-02 1.17695567278866e-04
2.43181818181818e-01 7.02997477113872e-02 1.25835607776597e-04
2.75606060606061e-01 6.99329836485629e-02 1.33312740355080e-04
3.08030303030303e-01 6.95681330467290e-02 1.40237790695070e-04
3.40454545454545e-01 6.92051859243303e-02 1.46692618902993e-04
3.72878787878788e-01 6.88441323495288e-02 1.52739862699233e-04
4.05303030303030e-01 6.84849624444590e-02 1.58428806639744e-04
4.37727272727273e-01 6.81276663807906e-02 1.63799116109348e-04
4.70151515151515e-01 6.77722343833146e-02 1.68883318671583e-04
5.02575757575758e-01 6.74186567268415e-02 1.73708513589879e-04
5.35000000000000e-01 6.70669237363033e-02 1.78297584140674e-04
5.67424242424242e-01 6.67170257884862e-02 1.82670080780566e-04
5.99848484848485e-01 6.63689533090731e-02 1.86842877795924e-04
6.32272727272727e-01 6.60226967749389e-02 1.90830671114523e-04
6.64696969696970e-01 6.56782467119882e-02 1.94646362447253e-04
6.97121212121212e-01 6.53355936950888e-02 1.98301359123268e-04
7.29545454545455e-01 6.49947283492827e-02 2.01805812433386e-04
7.61969696969697e-01 6.46556413475620e-02 2.05168808512407e-04
7.94393939393939e-01 6.43183234125010e-02 2.08398523136469e-04
8.26818181818182e-01 6.39827653141882e-02 2.11502348468656e-04
8.59242424242424e-01 6.36489578717195e-02 2.14486997656134e-04
8.91666666666667e-01 6.33168919516439e-02 2.17358592235248e-04
9.24090909090909e-01 6.29865584678176e-02 2.20122734858405e-04
9.56515151515152e-01 6.26579483822268e-02 2.22784571283566e-04
9.88939393939394e-01 6.23310527033072e-02 2.25348843083444e-04
1.02136363636364e+00 6.20058624854412e-02 2.27819931481649e-04
1.05378787878788e+00 6.16823688333205e-02 2.30201896912451e-04
1.08621212121212e+00 6.13605628956542e-02 2.32498512756916e-04
1.11863636363636e+00 6.10404358673046e-02 2.34713293226075e-04
1.15106060606061e+00 6.07219789891111e-02 2.36849519514568e-04
1.18348484848485e+00 6.04051835449433e-02 2.38910260414439e-04
1.21590909090909e+00 6.00900408696010e-02 2.40898392777240e-04
1.24833333333333e+00 5.97765423402839e-02 2.42816619674288e-04
1.28075757575758e+00 5.94646793792021e-02 2.44667484517234e-04
1.31318181818182e+00 5.91544434509639e-02 2.46453383692604e-04
1.34560606060606e+00 5.88458260695188e-02 2.48176579554552e-04
1.37803030303030e+00 5.85388187906223e-02 2.49839212127485e-04
1.41045454545455e+00 5.82334132140989e-02 2.51443307762937e-04
1.44287878787879e+00 5.79296009815014e-02 2.52990787002804e-04
1.47530303030303e+00 5.76273737822732e-02 2.54483473296880e-04
1.50772727272727e+00 5.73267233470249e-02 2.55923100953675e-04
1.54015151515152e+00 5.70276414495171e-02 2.57311320617550e-04
1.57257575757576e+00 5.67301199045443e-02 2.58649704314951e-04
1.60500000000000e+00 5.64341505734502e-02 2.59939751584129e-04
1.63742424242424e+00 5.61397253580774e-02 2.61182895126560e-04
1.66984848484848e+00 5.58468362025204e-02 2.62380504344734e-04
1.70227272727273e+00 5.55554750911989e-02 2.63533888648765e-04
1.73469696969697e+00 5.52656340538279e-02 2.64644301944623e-04
1.76712121212121e+00 5.49773051599347e-02 2.65712946811641e-04
1.79954545454545e+00 5.46904805204204e-02 2.66740976811276e-04
1.83196969696970e+00 5.44051522857946e-02 2.67729498679026e-04
1.86439393939394e+00 5.41213126506809e-02 2.68679575729004e-04
1.89681818181818e+00 5.38389538488181e-02 2.69592231049729e-04
1.92924242424242e+00 5.35580681544595e-02 2.70468449009048e-04
1.96166666666667e+00 5.32786478807477e-02 2.71309176709631e-04
1.99409090909091e+00 5.30006853838187e-02 2.72115326653013e-04
2.02651515151515e+00 5.27241730582217e-02 2.72887779258991e-04
2.05893939393939e+00 5.24491033381798e-02 2.73627383831094e-04
2.09136363636364e+00 5.21754686960862e-02 2.74334959513175e-04
2.12378787878788e+00 5.19032616462604e-02 2.75011297431568e-04
2.15621212121212e+00 5.16324747407314e-02 2.75657162734479e-04
2.18863636363636e+00 5.13631005703794e-02 2.76273294879003e-04
2.22106060606061e+00 5.10951317647469e-02 2.76860409478849e-04
2.25348484848485e+00 5.08285609906517e-02 2.77419198523669e-04
2.28590909090909e+00 5.05633809555548e-02 2.77950332058188e-04
2.31833333333333e+00 5.02995844037512e-02 2.78454459793241e-04
2.35075757575758e+00 5.00371641173953e-02 2.78932211398759e-04
2.38318181818182e+00 4.97761129152078e-02 2.79384196829132e-04
2.41560606060606e+00 4.95164236555837e-02 2.79811007741948e-04
2.44803030303030e+00 4.92580892330557e-02 2.80213218866035e-04
2.48045454545455e+00 4.90011025792301e-02 2.80591388126311e-04
2.51287878787879e+00 4.87454566615776e-02 2.80946056808827e-04
2.54530303030303e+00 4.84911444863099e-02 2.81277750780805e-04
2.57772727272727e+00 4.82381590950861e-02 2.81586981672529e-04
2.61015151515152e+00 4.79864935658698e-02 2.81874246881694e-04
2.64257575757576e+00 4.77361410117954e-02 2.82140029622451e-04
2.67500000000000e+00 4.74870945838370e-02 2.82384799990931e-04
2.70742424242424e+00 4.72393474677335e-02 2.82609016001536e-04
2.73984848484848e+00 4.69928928847755e-02 2.82813123504451e-04
2.77227272727273e+00 4.67477240907394e-02 2.82997556150226e-04
2.80469696969697e+00 4.65038343783697e-02 2.83162736332772e-04
2.83712121212121e+00 4.62612170745019e-02 2.83309076109821e-04
2.86954545454545e+00 4.60198655407856e-02 2.83436977057728e-04
2.90196969696970e+00 4.57797731726809e-02 2.83546830174148e-04
2.93439393939394e+00 4.55409334017725e-02 2.83639016722465e-04
2.96681818181818e+00 4.53033396930702e-02 2.83713909058376e-04
2.99924242424242e+00 4.50669855456767e-02 2.83771870439490e-04
3.03166666666667e+00 4.48318644918394e-02 2.83813254882790e-04
3.06409090909091e+00 4.45979700991123e-02 2.83838407928212e-04
3.09651515151515e+00 4.43652959678186e-02 2.83847667388163e-04
3.12893939393939e+00 4.41338357316678e-02 2.83841363124823e-04
3.16136363636364e+00 4.39035830568590e-02 2.83819816874582e-04
3.19378787878788e+00 4.36745316441036e-02 2.83783342944518e-04
3.22621212121212e+00 4.34466752262364e-02 2.83732248897630e-04
3.25863636363636e+00 4.32200075687864e-02 2.83666835094204e-04
3.29106060606061e+00 4.29945224698116e-02 2.83587395345981e-04
3.32348484848485e+00 4.27702137590555e-02 2.83494216489580e-04
3.35590909090909e+00 4.25470752998076e-02 2.83387579010386e-04
3.38833333333333e+00 4.23251009866877e-02 2.83267757658263e-04
3.42075757575758e+00 4.21042847461705e-02 2.83135021186576e-04
3.45318181818182e+00 4.18846205357843e-02 2.82989632135312e-04
3.48560606060606e+00 4.16661023458595e-02 2.82831847408917e-04
3.51803030303030e+00 4.14487241974337e-02 2.82661918847598e-04
3.55045454545455e+00 4.12324801427390e-02 2.82480092956877e-04
3.58287878787879e+00 4.10173642644406e-02 2.82286610679835e-04
3.61530303030303e+00 4.08033706772815e-02 2.82081707935161e-04
3.64772727272727e+00 4.05904935260994e-02 2.81865616150013e-04
3.68015151515152e+00 4.03787269862798e-02 2.81638561983857e-04
3.71257575757576e+00 4.01680652630321e-02 2.81400767093694e-04
3.74500000000000e+00 3.99585025929375e-02 2.81152448637430e-04
3.77742424242424e+00 3.97500332420703e-02 2.80893819772895e-04
3.80984848484849e+00 3.95426515064199e-02 2.80625089379082e-04
3.84227272727273e+00 3.93363517112000e-02 2.80346461817169e-04
3.87469696969697e+00 3.91311282123097e-02 2.80058137403267e-04
3.90712121212121e+00 3.89269753945494e-02 2.79760312877701e-04
3.93954545454545e+00 3.87238876720147e-02 2.79453181125752e-04
3.97196969696970e+00 3.85218594874380e-02 2.79136930936725e-04
4.00439393939394e+00 3.83208853135666e-02 2.78811747449494e-04
4.03681818181818e+00 3.81209596514690e-02 2.78477812595347e-04
4.06924242424242e+00 3.79220770309015e-02 2.78135304819882e-04
4.10166666666667e+00 3.77242320096804e-02 2.77784398841830e-04
4.13409090909091e+00 3.75274191749833e-02 2.77425266074291e-04
4.16651515151515e+00 3.73316331417391e-02 2.77058075043824e-04
4.19893939393939e+00 3.71368685529702e-02 2.76682991114804e-04
4.23136363636364e+00 3.69431200791923e-02 2.76300176249308e-04
4.26378787878788e+00 3.67503824196455e-02 2.75909789406506e-04
4.29621212121212e+00 3.65586503007614e-02 2.75511986940182e-04
4.32863636363636e+00 3.63679184764834e-02 2.75106922171016e-04
4.36106060606061e+00 3.61781817281255e-02 2.74694745771953e-04
4.39348484848485e+00 3.59894348638013e-02 2.74275605368575e-04
4.42590909090909e+00 3.58016727195723e-02 2.73849645912122e-04
4.45833333333333e+00 3.56148901580061e-02 2.73417010051336e-04
4.49075757575758e+00 3.54290820684740e-02 2.72977837867409e-04
4.52318181818182e+00 3.52442433666042e-02 2.72532266641171e-04
4.55560606060606e+00 3.50603689953695e-02 2.72080431208505e-04
4.58803030303030e+00 3.48774539237129e-02 2.71622464314890e-04
4.62045454545455e+00 3.46954931468255e-02 2.71158496354942e-04
4.65287878787879e+00 3.45144816856226e-02 2.70688655143254e-04
4.68530303030303e+00 3.43344145877761e-02 2.70213066253579e-04
4.71772727272727e+00 3.41552869264012e-02 2.69731853357328e-04
4.75015151515152e+00 3.39770938003180e-02 2.69245137968411e-04
4.78257575757576e+00 3.37998303335483e-02 2.68753039217893e-04
4.81500000000000e+00 3.36234916762955e-02 2.68255674178215e-04
4.84742424242424e+00 3.34480730036905e-02 2.67753158187023e-04
4.87984848484848e+00 3.32735695160364e-02 2.67245604597371e-04
4.91227272727273e+00 3.30999764383258e-02 2.66733124556616e-04
4.94469696969697e+00 3.29272890211715e-02 2.66215827316783e-04
4.97712121212121e+00 3.27555025396077e-02 2.65693820544767e-04
5.00954545454545e+00 3.25846122933192e-02 2.65167210078107e-04
5.04196969696970e+00 3.24146136061780e-02 2.64636099708264e-04
5.07439393939394e+00 3.22455018271281e-02 2.64100591478223e-04
5.10681818181818e+00 3.20772723290382e-02 2.63560785979937e-04
5.13924242424242e+00 3.19099205089171e-02 2.63016782115701e-04
5.17166666666667e+00 3.17434417874682e-02 2.62468676886176e-04
5.20409090909091e+00 3.15778316099313e-02 2.61916565675885e-04
5.23651515151515e+00 3.14130854449838e-02 2.61360542538821e-04
5.26893939393939e+00 3.12491987849435e-02 2.60800699965569e-04
5.30136363636364e+00 3.10861671453394e-02 2.60237128675977e-04
5.33378787878788e+00 3.09239860657138e-02 2.59669917893474e-04
5.36621212121212e+00 3.07626511085692e-02 2.59099155619544e-04
5.39863636363636e+00 3.06021578595586e-02 2.58524928289234e-04
5.43106060606061e+00 3.04425019273660e-02 2.57947321038514e-04
5.46348484848485e+00 3.02836789432965e-02 2.57366417380890e-04
5.49590909090909e+00 3.01256845620293e-02 2.56782299467511e-04
5.52833333333333e+00 2.99685144606204e-02 2.56195048347644e-04
5.56075757575758e+00 2.98121643386795e-02 2.55604743749693e-04
5.59318181818182e+00 2.96566299179759e-02 2.55011463885687e-04
5.62560606060606e+00 2.95019069431557e-02 2.54415285701700e-04
5.65803030303030e+00 2.93479911807851e-02 2.53816285128611e-04
5.69045454545455e+00 2.91948784195172e-02 2.53214536868775e-04
5.72287878787879e+00 2.90425644697117e-02 2.52610114205248e-04
5.75530303030303e+00 2.88910451641191e-02 2.52003089242987e-04
5.78772727272727e+00 2.87403163569627e-02 2.51393533150533e-04
5.82015151515152e+00 2.85903739240949e-02 2.50781515952204e-04
5.85257575757576e+00 2.84412137626314e-02 2.50167106341965e-04
5.88500000000000e+00 2.82928317916031e-02 2.49550371916022e-04
5.91742424242424e+00 2.81452239510754e-02 2.48931379405839e-04
5.94984848484849e+00 2.79983862022945e-02 2.48310194475755e-04
5.98227272727273e+00 2.78523145273351e-02 2.47686881541575e-04
6.01469696969697e+00 2.77070049297228e-02 2.47061503994868e-04
6.04712121212121e+00 2.75624534335872e-02 2.46434124427846e-04
6.07954545454546e+00 2.74186560838006e-02 2.45804804436303e-04
6.11196969696970e+00 2.72756089456369e-02 2.45173604442776e-04
6.14439393939394e+00 2.71333081053672e-02 2.44540583913079e-04
6.17681818181818e+00 2.69917496694450e-02 2.43905801573387e-04
6.20924242424242e+00 2.68509297646366e-02 2.43269315218443e-04
6.24166666666667e+00 2.67108445376927e-02 2.42631181539217e-04
6.27409090909091e+00 2.65714901559166e-02 2.41991456332035e-04
6.30651515151515e+00 2.64328628063809e-02 2.41350194708229e-04
6.33893939393939e+00 2.62949586960506e-02 2.40707450907448e-04
6.37136363636364e+00 2.61577740514657e-02 2.40063278129864e-04
6.40378787878788e+00 2.60213051192840e-02 2.39417728738168e-04
6.43621212121212e+00 2.58855481655283e-02 2.38770854460188e-04
6.46863636363636e+00 2.57504994757014e-02 2.38122706116992e-04
6.50106060606061e+00 2.56161553546860e-02 2.37473333820744e-04
6.53348484848485e+00 2.54825121264391e-02 2.36822786718522e-04
6.56590909090909e+00 2.53495661345055e-02 2.36171113185193e-04
6.59833333333333e+00 2.52173137413001e-02 2.35518361017038e-04
6.63075757575758e+00 2.50857513282159e-02 2.34864577256874e-04
6.66318181818182e+00 2.49548752953294e-02 2.34209808036530e-04
6.69560606060606e+00 2.48246820618915e-02 2.33554098763511e-04
6.72803030303030e+00 2.46951680656363e-02 2.32897494308208e-04
6.76045454545455e+00 2.45663297628831e-02 2.32240038833745e-04
6.79287878787879e+00 2.44381636282517e-02 2.31581775642654e-04
6.82530303030303e+00 2.43106661551315e-02 2.30922747357409e-04
6.85772727272727e+00 2.41838338550166e-02 2.30262996101602e-04
6.89015151515152e+00 2.40576632576011e-02 2.29602563334434e-04
6.92257575757576e+00 2.39321509105041e-02 2.28941489701376e-04
6.95500000000000e+00 2.38072933797190e-02 2.28279815208932e-04
6.98742424242424e+00 2.36830872489723e-02 2.27617579400008e-04
7.01984848484848e+00 2.35595291198139e-02 2.26954821192869e-04
7.05227272727273e+00 2.34366156113503e-02 2.26291578735807e-04
7.08469696969697e+00 2.33143433606759e-02 2.25627889576244e-04
7.11712121212121e+00 2.31927090222539e-02 2.24963790830639e-04
7.14954545454545e+00 2.30717092680019e-02 2.24299319027810e-04
7.18196969696970e+00 2.29513407870340e-02 2.23634509967360e-04
7.21439393939394e+00 2.28316002860730e-02 2.22969398883539e-04
7.24681818181818e+00 2.27124844888545e-02 2.22304020609805e-04
7.27924242424242e+00 2.25939901362067e-02 2.21638409426358e-04
7.31166666666667e+00 2.24761139858014e-02 2.20972598922352e-04
7.34409090909091e+00 2.23588528125484e-02 2.20306622154658e-04
7.37651515151515e+00 2.22422034080214e-02 2.19640511807259e-04
7.40893939393939e+00 2.21261625805323e-02 2.18974300042968e-04
7.44136363636364e+00 2.20107271548908e-02 2.18308018369281e-04
7.47378787878788e+00 2.18958939727822e-02 2.17641697792186e-04
7.50621212121212e+00 2.17816598922133e-02 2.16975368970723e-04
7.53863636363636e+00 2.16680217875828e-02 2.16309062002351e-04
7.57106060606061e+00 2.15549765495963e-02 2.15642806574013e-04
7.60348484848485e+00 2.14425210850343e-02 2.14976631759293e-04
7.63590909090909e+00 2.13306523171105e-02 2.14310566165955e-04
7.66833333333333e+00 2.12193671849419e-02 2.13644638084128e-04
7.70075757575758e+00 2.11086626436146e-02 2.12978875347316e-04
7.73318181818182e+00 2.09985356639593e-02 2.12313305206606e-04
7.76560606060606e+00 2.08889832328946e-02 2.11647954473677e-04
7.79803030303030e+00 2.07800023529158e-02 2.10982849664513e-04
7.83045454545455e+00 2.06715900421565e-02 2.10318016864208e-04
7.86287878787879e+00 2.05637433341710e-02 2.09653481604450e-04
7.89530303030303e+00 2.04564592782642e-02 2.08989269002247e-04
7.92772727272727e+00 2.03497349389972e-02 2.08325403899349e-04
7.96015151515151e+00 2.02435673962458e-02 2.07661910730691e-04
7.99257575757576e+00 2.01379537449890e-02 2.06998813405108e-04
8.02500000000000e+00 2.00328910956263e-02 2.06336135439922e-04
8.05742424242424e+00 1.99283765734995e-02 2.05673900096226e-04
8.08984848484848e+00 1.98244073189479e-02 2.05012130250828e-04
8.12227272727273e+00 1.97209804871038e-02 2.04350848280150e-04
8.15469696969697e+00 1.96180932481958e-02 2.03690076190841e-04
8.18712121212121e+00 1.95157427870883e-02 2.03029835751017e-04
8.21954545454545e+00 1.94139263033321e-02 2.02370148365670e-04
8.25196969696970e+00 1.93126410109668e-02 2.01711034963647e-04
8.28439393939394e+00 1.92118841388121e-02 2.01052516124423e-04
8.31681818181818e+00 1.91116529300218e-02 2.00394612205428e-04
8.34924242424242e+00 1.90119446421327e-02 1.99737343220867e-04
8.38166666666667e+00 1.89127565468717e-02 1.99080728731666e-04
8.41409090909091e+00 1.88140859304363e-02 1.98424787968450e-04
8.44651515151515e+00 1.87159300930632e-02 1.97769539955281e-04
8.47893939393939e+00 1.86182863490741e-02 1.97115003391647e-04
8.51136363636364e+00 1.85211520266888e-02 1.96461196545305e-04
8.54378787878788e+00 1.84245244682948e-02 1.95808137371762e-04
8.57621212121212e+00 1.83284010300295e-02 1.95155843634339e-04
8.60863636363636e+00 1.82327790818240e-02 1.94504332733943e-04
8.64106060606061e+00 1.81376560073307e-02 1.93853621826593e-04
8.67348484848485e+00 1.80430292037438e-02 1.93203727662215e-04
8.70590909090909e+00 1.79488960820543e-02 1.92554666699457e-04
8.73833333333333e+00 1.78552540666511e-02 1.91906455221158e-04
8.77075757575758e+00 1.77621005953603e-02 1.91259109223642e-04
8.80318181818182e+00 1.76694331192709e-02 1.90612644316153e-04
8.83560606060606e+00 1.75772491029799e-02 1.89967075832350e-04
8.86803030303030e+00 1.74855460242064e-02 1.89322418942430e-04
8.90045454545455e+00 1.73943213738286e-02 1.88678688545458e-04
8.93287878787879e+00 1.73035726557142e-02 1.88035899171395e-04
8.96530303030303e+00 1.72132973869565e-02 1.87394065089371e-04
8.99772727272727e+00 1.71234930975004e-02 1.86753200416711e-04
9.03015151515152e+00 1.70341573301778e-02 1.86113319014044e-04
9.06257575757576e+00 1.69452876405420e-02 1.85474434389883e-04
9.09500000000000e+00 1.68568815970958e-02 1.84836559805885e-04
9.12742424242424e+00 1.67689367809287e-02 1.84199708382753e-04
9.15984848484849e+00 1.66814507857501e-02 1.83563892998116e-04
9.19227272727273e+00 1.65944212177293e-02 1.82929126193631e-04
9.22469696969697e+00 1.65078456957137e-02 1.82295420277295e-04
9.25712121212121e+00 1.64217218508785e-02 1.81662787426275e-04
9.28954545454545e+00 1.63360473267573e-02 1.81031239587547e-04
9.32196969696970e+00 1.62508197790869e-02 1.80400788387430e-04
9.35439393939394e+00 1.61660368760174e-02 1.79771445230989e-04
9.38681818181818e+00 1.60816962977723e-02 1.79143221402018e-04
9.41924242424242e+00 1.59977957366779e-02 1.78516127966250e-04
9.45166666666667e+00 1.59143328970123e-02 1.77890175683280e-04
9.48409090909091e+00 1.58313054952070e-02 1.77265375103182e-04
9.51651515151515e+00 1.57487112595187e-02 1.76641736663696e-04
9.54893939393939e+00 1.56665479300560e-02 1.76019270596016e-04
9.58136363636364e+00 1.55848132586328e-02 1.75397986838969e-04
9.61378787878788e+00 1.55035050089628e-02 1.74777895132958e-04
9.64621212121212e+00 1.54226209563410e-02 1.74159005114409e-04
9.67863636363636e+00 1.53421588876690e-02 1.73541326180120e-04
9.71106060606061e+00 1.52621166013944e-02 1.72924867579730e-04
9.74348484848485e+00 1.51824919073695e-02 1.72309638287028e-04
9.77590909090909e+00 1.51032826270362e-02 1.71695647090399e-04
9.80833333333333e+00 1.50244865931201e-02 1.71082902683766e-04
9.84075757575758e+00 1.49461016496539e-02 1.70471413578122e-04
9.87318181818182e+00 1.48681256518397e-02 1.69861188020927e-04
9.90560606060606e+00 1.47905564662272e-02 1.69252234084004e-04
9.93803030303030e+00 1.47133919704173e-02 1.68644559752003e-04
9.97045454545455e+00 1.46366300530838e-02 1.68038172836254e-04
1.00028787878788e+01 1.45602686138397e-02 1.67433080855270e-04
1.00353030303030e+01 1.44843055634837e-02 1.66829291488454e-04
1.00677272727273e+01 1.44087388230379e-02 1.66226811679760e-04
1.01001515151515e+01 1.43335663256446e-02 1.65625648251974e-04
1.01325757575758e+01 1.42587860144735e-02 1.65025808969904e-04
1.01650000000000e+01 1.41843958426994e-02 1.64427300219540e-04
1.01974242424242e+01 1.41103937756367e-02 1.63830128626860e-04
1.02298484848485e+01 1.40367777877650e-02 1.63234300682531e-04
