Energy (eV)          EEDF (eV^-(3/2))     First Anisotropy
1.56250000000000e-03 6.14851541219119e-01 4.08070547081271e-08
4.68750000000000e-03 6.14851507677990e-01 1.27154386280737e-07
7.81250000000000e-03 6.14851420379463e-01 3.15351457253287e-07
1.09375000000000e-02 6.14851275278041e-01 5.58000823088555e-07
1.40625000000000e-02 6.14851072459852e-01 8.38787354939660e-07
1.71875000000000e-02 6.14850813532744e-01 1.13590176008248e-06
2.03125000000000e-02 6.14850506225547e-01 1.43392430249572e-06
2.34375000000000e-02 6.14850155304418e-01 1.73808809417045e-06
2.65625000000000e-02 6.14849762656926e-01 2.05430143779859e-06
2.96875000000000e-02 6.14849328856279e-01 2.37995247467917e-06
3.28125000000000e-02 6.14848855982960e-01 2.70892540322575e-06
3.59375000000000e-02 6.14848346162307e-01 3.04757753519350e-06
3.90625000000000e-02 6.14847798466181e-01 3.40417685842117e-06
4.21875000000000e-02 6.14847211899862e-01 3.78267522041771e-06
4.53125000000000e-02 6.14846584296317e-01 4.18488994854724e-06
4.84375000000000e-02 6.14845914262933e-01 4.60835458428830e-06
5.15625000000000e-02 6.14845200576412e-01 5.03602437506788e-06
5.46875000000000e-02 6.14844446992319e-01 5.46691123158121e-06
5.78125000000000e-02 6.14843652250813e-01 5.91743728173453e-06
6.09375000000000e-02 6.14842815189346e-01 6.38757593232830e-06
6.40625000000000e-02 6.14841934639885e-01 6.87811273616958e-06
6.71875000000000e-02 6.14841009305235e-01 7.38979477484343e-06
7.03125000000000e-02 6.14840037900172e-01 7.90813340155882e-06
7.34375000000000e-02 6.14839022938467e-01 8.42181529595667e-06
7.65625000000000e-02 6.14837965849598e-01 8.94408143663421e-06
7.96875000000000e-02 6.14836865580785e-01 9.48472947369367e-06
8.28125000000000e-02 6.14835721099912e-01 1.00440127218885e-05
8.59375000000000e-02 6.14834531350692e-01 1.06223175709488e-05
8.90625000000000e-02 6.14833295264656e-01 1.12196747456575e-05
9.21875000000000e-02 6.14832011829397e-01 1.18359345237391e-05
9.53125000000000e-02 6.14830680056230e-01 1.24712672748668e-05
9.84375000000000e-02 6.14829298935798e-01 1.31258909845762e-05
1.01562500000000e-01 6.14827867470216e-01 1.37699144124983e-05
1.04687500000000e-01 6.14826391237318e-01 1.44020018187882e-05
1.07812500000000e-01 6.14824869318740e-01 1.50490394719533e-05
1.10937500000000e-01 6.14823301322127e-01 1.57085609128850e-05
1.14062500000000e-01 6.14821686845833e-01 1.63806369017182e-05
1.17187500000000e-01 6.14820025479725e-01 1.70653363526975e-05
1.20312500000000e-01 6.14818316805870e-01 1.77627266351830e-05
1.23437500000000e-01 6.14816560399125e-01 1.84728738313637e-05
1.26562500000000e-01 6.14814755827658e-01 1.91958429547614e-05
1.29687500000000e-01 6.14812902653389e-01 1.99316981458717e-05
1.32812500000000e-01 6.14811000432379e-01 2.06805028269482e-05
1.35937500000000e-01 6.14809048715166e-01 2.14423198389718e-05
1.39062500000000e-01 6.14807047047061e-01 2.22172115646997e-05
1.42187500000000e-01 6.14804994968409e-01 2.30052400324147e-05
1.45312500000000e-01 6.14802892014807e-01 2.38064670013351e-05
1.48437500000000e-01 6.14800737717309e-01 2.46209540370399e-05
1.51562500000000e-01 6.14798531602597e-01 2.54487625779106e-05
1.54687500000000e-01 6.14796273193137e-01 2.62899539904989e-05
1.57812500000000e-01 6.14793962007307e-01 2.71445896166505e-05
1.60937500000000e-01 6.14791597559525e-01 2.80127308120023e-05
1.64062500000000e-01 6.14789179360344e-01 2.88944389810915e-05
1.67187500000000e-01 6.14786706916556e-01 2.97897756032010e-05
1.70312500000000e-01 6.14784179731264e-01 3.06988018199556e-05
1.73437500000000e-01 6.14781597304031e-01 3.16215761606874e-05
1.76562500000000e-01 6.14778959131328e-01 3.25581454943751e-05
1.79687500000000e-01 6.14776264708127e-01 3.35085268475280e-05
1.82812500000000e-01 6.14773513531237e-01 3.44726645138041e-05
1.85937500000000e-01 6.14770705107652e-01 3.54503807133905e-05
1.89062500000000e-01 6.14767838965381e-01 3.64413097448503e-05
1.92187500000000e-01 6.14764914671535e-01 3.74449091050615e-05
1.95312500000000e-01 6.14761931840303e-01 3.84606906907413e-05
1.98437500000000e-01 6.14758890113807e-01 3.94883900587567e-05
2.01562500000000e-01 6.14755789144177e-01 4.04626621885994e-05
2.04687500000000e-01 6.14752639338216e-01 4.13818989671177e-05
2.07812500000000e-01 6.14749440434804e-01 4.23090053141277e-05
2.10937500000000e-01 6.14746192392615e-01 4.32425031803147e-05
2.14062500000000e-01 6.14742895169356e-01 4.41823453287994e-05
2.17187500000000e-01 6.14739548721728e-01 4.51284864670839e-05
2.20312500000000e-01 6.14736153005394e-01 4.60808831758575e-05
2.23437500000000e-01 6.14732707974951e-01 4.70394938202339e-05
2.26562500000000e-01 6.14729213583900e-01 4.80042784781440e-05
2.29687500000000e-01 6.14725669784625e-01 4.89751988804843e-05
2.32812500000000e-01 6.14722076528374e-01 4.99522183435085e-05
2.35937500000000e-01 6.14718433765233e-01 5.09353017315867e-05
2.39062500000000e-01 6.14714741444110e-01 5.19244153832641e-05
2.42187500000000e-01 6.14710999512723e-01 5.29195270652971e-05
2.45312500000000e-01 6.14707207917579e-01 5.39206059275074e-05
2.48437500000000e-01 6.14703366603966e-01 5.49276224394609e-05
2.51562500000000e-01 6.14699475515938e-01 5.59405483621094e-05
2.54687500000000e-01 6.14695534596304e-01 5.69593566974817e-05
2.57812500000000e-01 6.14691543786623e-01 5.79840216427442e-05
2.60937500000000e-01 6.14687503027188e-01 5.90145185600208e-05
2.64062500000000e-01 6.14683412257026e-01 6.00508239284720e-05
2.67187500000000e-01 6.14679271413887e-01 6.10929153129687e-05
2.70312500000000e-01 6.14675080434240e-01 6.21407711807305e-05
2.73437500000000e-01 6.14670839253286e-01 6.31943701324756e-05
2.76562500000000e-01 6.14666547805056e-01 6.42536879359063e-05
2.79687500000000e-01 6.14662206022821e-01 6.53186915851795e-05
2.82812500000000e-01 6.14657813839973e-01 6.63893252924167e-05
2.85937500000000e-01 6.14653371192276e-01 6.74654941034872e-05
2.89062500000000e-01 6.14648878020863e-01 6.85470422878198e-05
2.92187500000000e-01 6.14644334277189e-01 6.96337580801490e-05
2.95312500000000e-01 6.14639739925188e-01 7.07254510754732e-05
2.98437500000000e-01 6.14635094935901e-01 7.18220080856884e-05
3.01562500000000e-01 6.14630399282426e-01 7.29129910465102e-05
3.04687500000000e-01 6.14625654880383e-01 7.40761619641365e-05
3.07812500000000e-01 6.14620851683901e-01 7.53963354879845e-05
3.10937500000000e-01 6.14615980246618e-01 7.68663247447775e-05
3.14062500000000e-01 6.14611031691412e-01 7.84792164532349e-05
3.17187500000000e-01 6.14605997682084e-01 8.02283567866974e-05
3.20312500000000e-01 6.14600870396574e-01 8.21073404081740e-05
3.23437500000000e-01 6.14595642501591e-01 8.41100000527135e-05
3.26562500000000e-01 6.14590307128599e-01 8.62303966327235e-05
3.29687500000000e-01 6.14584857851058e-01 8.84628098109513e-05
3.32812500000000e-01 6.14579288662859e-01 9.08017290069819e-05
3.35937500000000e-01 6.14573593957883e-01 9.32418448388990e-05
3.39062500000000e-01 6.14567768510602e-01 9.57780409588806e-05
3.42187500000000e-01 6.14561807457695e-01 9.84053862516704e-05
3.45312500000000e-01 6.14555706280590e-01 1.01119127401169e-04
3.48437500000000e-01 6.14549460788896e-01 1.03914681778749e-04
3.51562500000000e-01 6.14543067104678e-01 1.06787630649862e-04
3.54687500000000e-01 6.14536521647511e-01 1.09733712688687e-04
3.57812500000000e-01 6.14529821120298e-01 1.12748817771672e-04
3.60937500000000e-01 6.14522962495779e-01 1.15828981048701e-04
3.64062500000000e-01 6.14515943003719e-01 1.18970377260999e-04
3.67187500000000e-01 6.14508760118725e-01 1.22169315294913e-04
3.70312500000000e-01 6.14501411548663e-01 1.25422232916458e-04
3.73437500000000e-01 6.14493895223648e-01 1.28725691411500e-04
3.76562500000000e-01 6.14486209285611e-01 1.32076369359233e-04
3.79687500000000e-01 6.14478352078512e-01 1.35471055017316e-04
3.82812500000000e-01 6.14470322139249e-01 1.38906634897420e-04
3.85937500000000e-01 6.14462118189639e-01 1.42380081664502e-04
3.89062500000000e-01 6.14453739129127e-01 1.45888439991095e-04
3.92187500000000e-01 6.14445184028734e-01 1.49428825552157e-04
3.95312500000000e-01 6.14436452124151e-01 1.52998461074806e-04
3.98437500000000e-01 6.14427542805755e-01 1.56594700217497e-04
4.01562500000000e-01 6.14418455609297e-01 1.60147833837949e-04
4.04687500000000e-01 6.14409199342723e-01 1.63740961623744e-04
4.07812500000000e-01 6.14399764066326e-01 1.67524483185833e-04
4.10937500000000e-01 6.14390140080997e-01 1.71492674981396e-04
4.14062500000000e-01 6.14380318277968e-01 1.75636848805152e-04
4.17187500000000e-01 6.14370290111386e-01 1.79948643869386e-04
4.20312500000000e-01 6.14360047572106e-01 1.84420015276230e-04
4.23437500000000e-01 6.14349583162649e-01 1.89043222956233e-04
4.26562500000000e-01 6.14338889873259e-01 1.93810821046023e-04
4.29687500000000e-01 6.14327961159012e-01 1.98715647680480e-04
4.32812500000000e-01 6.14316790917929e-01 2.03750815194699e-04
4.35937500000000e-01 6.14305373470042e-01 2.08909700694241e-04
4.39062500000000e-01 6.14293703537364e-01 2.14185936945773e-04
4.42187500000000e-01 6.14281776224740e-01 2.19573403649897e-04
4.45312500000000e-01 6.14269587001515e-01 2.25066219019478e-04
4.48437500000000e-01 6.14257131683993e-01 2.30658731668124e-04
4.51562500000000e-01 6.14244406418654e-01 2.36345512815648e-04
4.54687500000000e-01 6.14231407666091e-01 2.42121348757188e-04
4.57812500000000e-01 6.14218132185627e-01 2.47981233623583e-04
4.60937500000000e-01 6.14204577020593e-01 2.53920362410995e-04
4.64062500000000e-01 6.14190739484237e-01 2.59934124262663e-04
4.67187500000000e-01 6.14176617146217e-01 2.66018095980412e-04
4.70312500000000e-01 6.14162207819681e-01 2.72168035734803e-04
4.73437500000000e-01 6.14147509548890e-01 2.78379876820744e-04
4.76562500000000e-01 6.14132520597385e-01 2.84649720990997e-04
4.79687500000000e-01 6.14117239436727e-01 2.90973831054926e-04
4.82812500000000e-01 6.14101664735835e-01 2.97348621398303e-04
4.85937500000000e-01 6.14085795351099e-01 3.03770647731636e-04
4.89062500000000e-01 6.14069630317143e-01 3.10236596702327e-04
4.92187500000000e-01 6.14053168838328e-01 3.16743284140625e-04
4.95312500000000e-01 6.14036410279949e-01 3.23287674101096e-04
4.98437500000000e-01 6.14019354157967e-01 3.29866889846812e-04
5.01562500000000e-01 6.14002000129331e-01 3.36407863992754e-04
5.04687500000000e-01 6.13984356418573e-01 3.42925264565943e-04
5.07812500000000e-01 6.13966421154870e-01 3.49499730975513e-04
5.10937500000000e-01 6.13948193065303e-01 3.56123303437318e-04
5.14062500000000e-01 6.13929671110830e-01 3.62791578507149e-04
5.17187500000000e-01 6.13910854475424e-01 3.69500313697094e-04
5.20312500000000e-01 6.13891742555610e-01 3.76245422737037e-04
5.23437500000000e-01 6.13872334950411e-01 3.83022970963986e-04
5.26562500000000e-01 6.13852631451672e-01 3.89829170881942e-04
5.29687500000000e-01 6.13832632034751e-01 3.96660377863447e-04
5.32812500000000e-01 6.13812336849558e-01 4.03513085976198e-04
5.35937500000000e-01 6.13791746211939e-01 4.10383923951524e-04
5.39062500000000e-01 6.13770860595378e-01 4.17269651260968e-04
5.42187500000000e-01 6.13749680623020e-01 4.24167154291616e-04
5.45312500000000e-01 6.13728207059990e-01 4.31073442664678e-04
5.48437500000000e-01 6.13706440806001e-01 4.37985645670339e-04
5.51562500000000e-01 6.13684382888245e-01 4.44901008782240e-04
5.54687500000000e-01 6.13662034454549e-01 4.51816890304345e-04
5.57812500000000e-01 6.13639396766790e-01 4.58730758084191e-04
5.60937500000000e-01 6.13616471194556e-01 4.65640186342683e-04
5.64062500000000e-01 6.13593259209053e-01 4.72542852586060e-04
5.67187500000000e-01 6.13569762377235e-01 4.79436534629031e-04
5.70312500000000e-01 6.13545982356159e-01 4.86319107662284e-04
5.73437500000000e-01 6.13521920887555e-01 4.93188541251144e-04
5.76562500000000e-01 6.13497579792621e-01 5.00042896006124e-04
5.79687500000000e-01 6.13472960967054e-01 5.06880319552934e-04
5.82812500000000e-01 6.13448066376373e-01 5.13699041038536e-04
5.85937500000000e-01 6.13422898051616e-01 5.20497365595886e-04
5.89062500000000e-01 6.13397458085321e-01 5.27273669721512e-04
5.92187500000000e-01 6.13371748627763e-01 5.34026400047982e-04
5.95312500000000e-01 6.13345771883129e-01 5.40754087136406e-04
5.98437500000000e-01 6.13319530104433e-01 5.47455353680448e-04
6.01562500000000e-01 6.13293025589000e-01 5.54372716443907e-04
6.04687500000000e-01 6.13266237236982e-01 5.61981848196543e-04
6.07812500000000e-01 6.13239121837533e-01 5.70498452501320e-04
6.10937500000000e-01 6.13211638065640e-01 5.79886225750633e-04
6.14062500000000e-01 6.13183746726541e-01 5.90106760073552e-04
6.17187500000000e-01 6.13155410672920e-01 6.01122937328169e-04
6.20312500000000e-01 6.13126594725219e-01 6.12898886775012e-04
6.23437500000000e-01 6.13097265594947e-01 6.25399944263012e-04
6.26562500000000e-01 6.13067391810874e-01 6.38592612794300e-04
6.29687500000000e-01 6.13036943647989e-01 6.52444524363044e-04
6.32812500000000e-01 6.13005893059133e-01 6.66924403078202e-04
6.35937500000000e-01 6.12974213609185e-01 6.82002029474644e-04
6.39062500000000e-01 6.12941880411719e-01 6.97648205959060e-04
6.42187500000000e-01 6.12908870068042e-01 7.13834723390670e-04
6.45312500000000e-01 6.12875160608511e-01 7.30534328746651e-04
6.48437500000000e-01 6.12840731436048e-01 7.47720693811768e-04
6.51562500000000e-01 6.12805563271783e-01 7.65368384883346e-04
6.54687500000000e-01 6.12769638102722e-01 7.83452833463453e-04
6.57812500000000e-01 6.12732939131390e-01 8.01950307867886e-04
6.60937500000000e-01 6.12695450727355e-01 8.20837885732276e-04
6.64062500000000e-01 6.12657158380580e-01 8.40093427435331e-04
6.67187500000000e-01 6.12618048656517e-01 8.59695550360940e-04
6.70312500000000e-01 6.12578109152899e-01 8.79623603930711e-04
6.73437500000000e-01 6.12537328458149e-01 8.99857645337840e-04
6.76562500000000e-01 6.12495696111375e-01 9.20378415728789e-04
6.79687500000000e-01 6.12453202563898e-01 9.41167316603461e-04
6.82812500000000e-01 6.12409839142297e-01 9.62206385934567e-04
6.85937500000000e-01 6.12365598012977e-01 9.83478274011060e-04
6.89062500000000e-01 6.12320472148247e-01 1.00496622075418e-03
6.92187500000000e-01 6.12274455293705e-01 1.02665404179965e-03
6.95312500000000e-01 6.12227541936239e-01 1.04852611850901e-03
6.98437500000000e-01 6.12179727273026e-01 1.07056738328169e-03
7.01562500000000e-01 6.12131007181540e-01 1.09260625424800e-03
7.04687500000000e-01 6.12081393392800e-01 1.11496975146312e-03
7.07812500000000e-01 6.12030852409572e-01 1.13862467831708e-03
7.10937500000000e-01 6.11979308341262e-01 1.16400982277113e-03
7.14062500000000e-01 6.11926689020686e-01 1.19105224457879e-03
7.17187500000000e-01 6.11872925882117e-01 1.21968103088352e-03
7.20312500000000e-01 6.11817953843098e-01 1.24982724272077e-03
7.23437500000000e-01 6.11761711189918e-01 1.28142386298306e-03
7.26562500000000e-01 6.11704139466629e-01 1.31440574587746e-03
7.29687500000000e-01 6.11645183367479e-01 1.34870956771713e-03
7.32812500000000e-01 6.11584790632666e-01 1.38427377895396e-03
7.35937500000000e-01 6.11522911947320e-01 1.42103855740976e-03
7.39062500000000e-01 6.11459500843589e-01 1.45894576263758e-03
7.42187500000000e-01 6.11394513605772e-01 1.49793889140217e-03
7.45312500000000e-01 6.11327909178378e-01 1.53796303424056e-03
7.48437500000000e-01 6.11259649077040e-01 1.57896483307269e-03
7.51562500000000e-01 6.11189697302199e-01 1.62089243984294e-03
7.54687500000000e-01 6.11118020255467e-01 1.66369547616978e-03
7.57812500000000e-01 6.11044586658599e-01 1.70732499394534e-03
7.60937500000000e-01 6.10969367474994e-01 1.75173343691274e-03
7.64062500000000e-01 6.10892335833643e-01 1.79687460316192e-03
7.67187500000000e-01 6.10813466955467e-01 1.84270360849967e-03
7.70312500000000e-01 6.10732738081959e-01 1.88917685071085e-03
7.73437500000000e-01 6.10650128406081e-01 1.93625197455986e-03
7.76562500000000e-01 6.10565619005338e-01 1.98388783727369e-03
7.79687500000000e-01 6.10479192777005e-01 2.03204447408326e-03
7.82812500000000e-01 6.10390834375494e-01 2.08068306350295e-03
7.85937500000000e-01 6.10300530151836e-01 2.12976589290818e-03
7.89062500000000e-01 6.10208268095224e-01 2.17925632707146e-03
7.92187500000000e-01 6.10114037776338e-01 2.22911878024677e-03
7.95312500000000e-01 6.10017830292353e-01 2.27931870319148e-03
7.98437500000000e-01 6.09919638212295e-01 2.32982256410357e-03
8.01562500000000e-01 6.09819455524667e-01 2.38052733548486e-03
8.04687500000000e-01 6.09717283578785e-01 2.43112511958553e-03
8.07812500000000e-01 6.09613142470531e-01 2.48125356571802e-03
8.10937500000000e-01 6.09507064097036e-01 2.53077316612167e-03
8.14062500000000e-01 6.09399080053890e-01 2.57968686130161e-03
8.17187500000000e-01 6.09289221635146e-01 2.62799766201920e-03
8.20312500000000e-01 6.09177519833203e-01 2.67570865140981e-03
8.23437500000000e-01 6.09064005338590e-01 2.72282298677601e-03
8.26562500000000e-01 6.08948708539660e-01 2.76934390112466e-03
8.29687500000000e-01 6.08831659522206e-01 2.81527470445637e-03
8.32812500000000e-01 6.08712888069009e-01 2.86061878489279e-03
8.35937500000000e-01 6.08592423659329e-01 2.90537960960502e-03
8.39062500000000e-01 6.08470295468338e-01 2.94956072555631e-03
8.42187500000000e-01 6.08346532366521e-01 2.99316576013405e-03
8.45312500000000e-01 6.08221162919028e-01 3.03619842162674e-03
8.48437500000000e-01 6.08094215385000e-01 3.07866249957456e-03
8.51562500000000e-01 6.07965717716867e-01 3.12056186496243e-03
8.54687500000000e-01 6.07835697559636e-01 3.16190047033425e-03
8.57812500000000e-01 6.07704182250145e-01 3.20268234980279e-03
8.60937500000000e-01 6.07571198816325e-01 3.24291161894196e-03
8.64062500000000e-01 6.07436773976448e-01 3.28259247458963e-03
8.67187500000000e-01 6.07300934138368e-01 3.32172919456806e-03
8.70312500000000e-01 6.07163705398773e-01 3.36032613728913e-03
8.73437500000000e-01 6.07025113542439e-01 3.39838774121158e-03
8.76562500000000e-01 6.06885184041496e-01 3.43591852389480e-03
8.79687500000000e-01 6.06743942054750e-01 3.47292308047073e-03
8.82812500000000e-01 6.06601412427054e-01 3.50940608090296e-03
8.85937500000000e-01 6.06457619688852e-01 3.54537226792612e-03
8.89062500000000e-01 6.06312588055709e-01 3.58082645877153e-03
8.92187500000000e-01 6.06166341427629e-01 3.61577354348460e-03
8.95312500000000e-01 6.06018903388723e-01 3.65021849987686e-03
8.98437500000000e-01 6.05870297205107e-01 3.68416638956671e-03
9.01562500000000e-01 6.05720545824951e-01 3.71778182131329e-03
9.04687500000000e-01 6.05569658982423e-01 3.75140634120443e-03
9.07812500000000e-01 6.05417631885867e-01 3.78523774108455e-03
9.10937500000000e-01 6.05264458281877e-01 3.81928886690094e-03
9.14062500000000e-01 6.05110132375539e-01 3.85354887572822e-03
9.17187500000000e-01 6.04954648820379e-01 3.88800710745132e-03
9.20312500000000e-01 6.04798002708390e-01 3.92265308486920e-03
9.23437500000000e-01 6.04640189560149e-01 3.95747651374135e-03
9.26562500000000e-01 6.04481205315016e-01 3.99246728281476e-03
9.29687500000000e-01 6.04321046321409e-01 4.02761546374126e-03
9.32812500000000e-01 6.04159709327177e-01 4.06291131088634e-03
9.35937500000000e-01 6.03997191470059e-01 4.09834526110576e-03
9.39062500000000e-01 6.03833490268232e-01 4.13390793336447e-03
9.42187500000000e-01 6.03668603610951e-01 4.16959012830894e-03
9.45312500000000e-01 6.03502529749297e-01 4.20538282772586e-03
9.48437500000000e-01 6.03335267287007e-01 4.24127719393581e-03
9.51562500000000e-01 6.03166815171416e-01 4.27726456911080e-03
9.54687500000000e-01 6.02997172684498e-01 4.31333647448303e-03
9.57812500000000e-01 6.02826339434006e-01 4.34948460953068e-03
9.60937500000000e-01 6.02654315344721e-01 4.38570085104356e-03
9.64062500000000e-01 6.02481100649806e-01 4.42197725214172e-03
9.67187500000000e-01 6.02306695882271e-01 4.45830604124198e-03
9.70312500000000e-01 6.02131101866540e-01 4.49467962083831e-03
9.73437500000000e-01 6.01954319710142e-01 4.53109056596139e-03
9.76562500000000e-01 6.01776350795534e-01 4.56753162179105e-03
9.79687500000000e-01 6.01597196772121e-01 4.60399569922454e-03
9.82812500000000e-01 6.01416859548577e-01 4.64047586914902e-03
9.85937500000000e-01 6.01235341285476e-01 4.67696535326300e-03
