Energy (eV)          EEDF (eV^-(3/2))     First Anisotropy
9.03333333333333e-03 5.70770448415019e-01 3.87372874091565e-04
2.71000000000000e-02 5.64236075432790e-01 6.38146502853554e-04
4.51666666666667e-02 5.57776510185339e-01 8.38418522965182e-04
6.32333333333333e-02 5.51390896219560e-01 9.88150051631669e-04
8.13000000000000e-02 5.45078386916795e-01 1.11104402935349e-03
9.93666666666667e-02 5.38838145359115e-01 1.21612410979581e-03
1.17433333333333e-01 5.32669344193485e-01 1.30809065903843e-03
1.35500000000000e-01 5.26571165530475e-01 1.38980019638524e-03
1.53566666666667e-01 5.20542800907507e-01 1.46315909970018e-03
1.71633333333333e-01 5.14583451027343e-01 1.52952309148227e-03
1.89700000000000e-01 5.08692325786827e-01 1.58990186267459e-03
2.07766666666667e-01 5.02868644159171e-01 1.64507435118535e-03
2.25833333333333e-01 4.97111633997713e-01 1.69565840171433e-03
2.43900000000000e-01 4.91420532025539e-01 1.74215522766505e-03
2.61966666666667e-01 4.85794583727082e-01 1.78497907247173e-03
2.80033333333333e-01 4.80233043178915e-01 1.82447769367079e-03
2.98100000000000e-01 4.74735173019725e-01 1.86094694624633e-03
3.16166666666667e-01 4.69300244347924e-01 1.89464144638885e-03
3.34233333333333e-01 4.63927536570537e-01 1.92578251918990e-03
3.52300000000000e-01 4.58616337362014e-01 1.95456424373216e-03
3.70366666666667e-01 4.53365942566544e-01 1.98115814127175e-03
3.88433333333333e-01 4.48175656060275e-01 2.00571684489621e-03
4.06500000000000e-01 4.43044789703411e-01 2.02837701796704e-03
4.24566666666667e-01 4.37972663246569e-01 2.04926171428965e-03
4.42633333333333e-01 4.32958604203463e-01 2.06848228852633e-03
4.60700000000000e-01 4.28001947798883e-01 2.08613996521969e-03
4.78766666666667e-01 4.23102036878707e-01 2.10232714929029e-03
4.96833333333333e-01 4.18258221791159e-01 2.11712851207590e-03
5.14900000000000e-01 4.13469860332323e-01 2.13062190528542e-03
5.32966666666667e-01 4.08736317659534e-01 2.14287914490359e-03
5.51033333333333e-01 4.04056966179892e-01 2.15396667161264e-03
5.69100000000000e-01 3.99431185494419e-01 2.16394611727541e-03
5.87166666666667e-01 3.94858362314597e-01 2.17287480218446e-03
6.05233333333333e-01 3.90337890357211e-01 2.18080615863073e-03
6.23300000000000e-01 3.85869170287869e-01 2.18779009984595e-03
6.41366666666667e-01 3.81451609640551e-01 2.19387335078494e-03
6.59433333333333e-01 3.77084622718020e-01 2.19909973176399e-03
6.77500000000000e-01 3.72767630535268e-01 2.20351040865646e-03
6.95566666666667e-01 3.68500060741904e-01 2.20714412178643e-03
7.13633333333333e-01 3.64281347527592e-01 2.21003738275701e-03
7.31700000000000e-01 3.60110931565774e-01 2.21222464991259e-03
7.49766666666667e-01 3.55988259938802e-01 2.21373849208629e-03
7.67833333333333e-01 3.51912786047916e-01 2.21460972933637e-03
7.85900000000000e-01 3.47883969557545e-01 2.21486755953189e-03
8.03966666666667e-01 3.43901276323050e-01 2.21453967888055e-03
8.22033333333333e-01 3.39964178304879e-01 2.21365238515182e-03
8.40100000000000e-01 3.36072153513644e-01 2.21223067123563e-03
8.58166666666667e-01 3.32224685940369e-01 2.21029831607496e-03
8.76233333333333e-01 3.28421265474508e-01 2.20787796204917e-03
8.94300000000000e-01 3.24661387849938e-01 2.20499118557978e-03
9.12366666666667e-01 3.20944554577632e-01 2.20165856723228e-03
9.30433333333333e-01 3.17270272867253e-01 2.19789975083963e-03
9.48500000000000e-01 3.13638055574182e-01 2.19373349776133e-03
9.66566666666667e-01 3.10047421134520e-01 2.18917774196569e-03
9.84633333333333e-01 3.06497893490021e-01 2.18424963595790e-03
1.00270000000000e+00 3.02989002036241e-01 2.17896559163208e-03
1.02076666666667e+00 2.99520281569700e-01 2.17334133035919e-03
1.03883333333333e+00 2.96091272176138e-01 2.16739191309826e-03
1.05690000000000e+00 2.92701519230119e-01 2.16113176642703e-03
1.07496666666667e+00 2.89350573342051e-01 2.15457473925878e-03
1.09303333333333e+00 2.86037990204700e-01 2.14773411986964e-03
1.11110000000000e+00 2.82763330628646e-01 2.14062264957859e-03
1.12916666666667e+00 2.79526160481066e-01 2.13325257806037e-03
1.14723333333333e+00 2.76326050541891e-01 2.12563567395446e-03
1.16530000000000e+00 2.73162576533617e-01 2.11778323421682e-03
1.18336666666667e+00 2.70035319062357e-01 2.10970613302436e-03
1.20143333333333e+00 2.66943863482770e-01 2.10141482881197e-03
1.21950000000000e+00 2.63887799922962e-01 2.09291937037756e-03
1.23756666666667e+00 2.60866723227704e-01 2.08422944053951e-03
1.25563333333333e+00 2.57880232831370e-01 2.07535436048173e-03
1.27370000000000e+00 2.54927932778558e-01 2.06630309340703e-03
1.29176666666667e+00 2.52009431669387e-01 2.05708428383352e-03
1.30983333333333e+00 2.49124342539758e-01 2.04770625990002e-03
1.32790000000000e+00 2.46272282878255e-01 2.03817703515856e-03
1.34596666666667e+00 2.43452874573418e-01 2.02850434419749e-03
1.36403333333333e+00 2.40665743800748e-01 2.01869564339588e-03
1.38210000000000e+00 2.37910521036351e-01 2.00875811130025e-03
1.40016666666667e+00 2.35186841006097e-01 1.99869868111494e-03
1.41823333333333e+00 2.32494342578861e-01 1.98852404027587e-03
1.43630000000000e+00 2.29832668777298e-01 1.97824062974900e-03
1.45436666666667e+00 2.27201466728831e-01 1.96785467382014e-03
1.47243333333333e+00 2.24600387564639e-01 1.95737217877102e-03
1.49050000000000e+00 2.22029086427933e-01 1.94679893135781e-03
1.50856666666667e+00 2.19487222426688e-01 1.93614052624980e-03
1.52663333333333e+00 2.16974458537968e-01 1.92540236402523e-03
1.54470000000000e+00 2.14490461614009e-01 1.91458964902987e-03
1.56276666666667e+00 2.12034902336623e-01 1.90370741475072e-03
1.58083333333333e+00 2.09607455126489e-01 1.89276052129983e-03
1.59890000000000e+00 2.07207798147307e-01 1.88175365280794e-03
1.61696666666667e+00 2.04835613261816e-01 1.87069134097009e-03
1.63503333333333e+00 2.02490585945704e-01 1.85957796214938e-03
1.65310000000000e+00 2.00172405290075e-01 1.84841773442640e-03
1.67116666666667e+00 1.97880763959015e-01 1.83721473951464e-03
1.68923333333333e+00 1.95615358107818e-01 1.82597291958720e-03
1.70730000000000e+00 1.93375887383970e-01 1.81469607407716e-03
1.72536666666667e+00 1.91162054886207e-01 1.80338788013007e-03
1.74343333333333e+00 1.88973567086777e-01 1.79205188923450e-03
1.76150000000000e+00 1.86810133831127e-01 1.78069152384820e-03
1.77956666666667e+00 1.84671468298390e-01 1.76931009653026e-03
1.79763333333333e+00 1.82557286927436e-01 1.75791080643938e-03
1.81570000000000e+00 1.80467309415415e-01 1.74649673584465e-03
1.83376666666667e+00 1.78401258679634e-01 1.73507086806012e-03
1.85183333333333e+00 1.76358860787146e-01 1.72363608386115e-03
1.86990000000000e+00 1.74339844952310e-01 1.71219515792660e-03
1.88796666666667e+00 1.72343943499993e-01 1.70075077568168e-03
1.90603333333333e+00 1.70370891798494e-01 1.68930552967249e-03
1.92410000000000e+00 1.68420428256239e-01 1.67786191597639e-03
1.94216666666667e+00 1.66492294286264e-01 1.66642235004593e-03
1.96023333333333e+00 1.64586234242280e-01 1.65498916307290e-03
1.97830000000000e+00 1.62701995414611e-01 1.64356459839605e-03
1.99636666666667e+00 1.60839327995915e-01 1.63215082642730e-03
2.01443333333333e+00 1.58997985020202e-01 1.62074994103044e-03
2.03250000000000e+00 1.57177722358127e-01 1.60936395594898e-03
2.05056666666667e+00 1.55378298683894e-01 1.59799481888672e-03
2.06863333333333e+00 1.53599475417069e-01 1.58664440792039e-03
2.08670000000000e+00 1.51841016717303e-01 1.57531452796586e-03
2.10476666666667e+00 1.50102689452391e-01 1.56400692407660e-03
2.12283333333333e+00 1.48384263142716e-01 1.55272327790576e-03
2.14090000000000e+00 1.46685509955488e-01 1.54146520422483e-03
2.15896666666667e+00 1.45006204673914e-01 1.53023426349707e-03
2.17703333333333e+00 1.43346124644123e-01 1.51903195840087e-03
2.19510000000000e+00 1.41705049769004e-01 1.50785973041145e-03
2.21316666666667e+00 1.40082762478434e-01 1.49671897170091e-03
2.23123333333333e+00 1.38479047678565e-01 1.48561102173149e-03
2.24930000000000e+00 1.36893692745311e-01 1.47453716390883e-03
2.26736666666667e+00 1.35326487495606e-01 1.46349863685470e-03
2.28543333333333e+00 1.33777224138921e-01 1.45249663107730e-03
2.30350000000000e+00 1.32245697270463e-01 1.44153228570198e-03
2.32156666666667e+00 1.30731703843419e-01 1.43060669915850e-03
2.33963333333333e+00 1.29235043122597e-01 1.41972092593328e-03
2.35770000000000e+00 1.27755516677374e-01 1.40887597338223e-03
2.37576666666667e+00 1.26292928354907e-01 1.39807281187064e-03
2.39383333333333e+00 1.24847084235773e-01 1.38731237161071e-03
2.41190000000000e+00 1.23417792626726e-01 1.37659553955964e-03
2.42996666666667e+00 1.22004864034829e-01 1.36592316904688e-03
2.44803333333333e+00 1.20608111125000e-01 1.35529607669939e-03
2.46610000000000e+00 1.19227348712614e-01 1.34471503942681e-03
2.48416666666667e+00 1.17862393738525e-01 1.33418080356787e-03
2.50223333333333e+00 1.16513065228419e-01 1.32369408190462e-03
2.52030000000000e+00 1.15179184285305e-01 1.31325555073611e-03
2.53836666666667e+00 1.13860574065387e-01 1.30286585857278e-03
2.55643333333333e+00 1.12557059739145e-01 1.29252562324043e-03
2.57450000000000e+00 1.11268468483731e-01 1.28223542904246e-03
2.59256666666667e+00 1.09994629459678e-01 1.27199583502948e-03
2.61063333333333e+00 1.08735373773613e-01 1.26180737219287e-03
2.62870000000000e+00 1.07490534470598e-01 1.25167054071529e-03
2.64676666666667e+00 1.06259946511634e-01 1.24158581784018e-03
2.66483333333333e+00 1.05043446737936e-01 1.23155365515423e-03
2.68290000000000e+00 1.03840873863238e-01 1.22157447592586e-03
2.70096666666667e+00 1.02652068452074e-01 1.21164868259723e-03
2.71903333333333e+00 1.01476872885531e-01 1.20177665415484e-03
2.73710000000000e+00 1.00315131353546e-01 1.19195874355464e-03
2.75516666666667e+00 9.91666898339316e-02 1.18219528485806e-03
2.77323333333333e+00 9.80313960595445e-02 1.17248659068925e-03
2.79130000000000e+00 9.69090995105897e-02 1.16283294974548e-03
2.80936666666667e+00 9.57996513943662e-02 1.15323463359693e-03
2.82743333333333e+00 9.47029046137828e-02 1.14369189422910e-03
2.84550000000000e+00 9.36187137596907e-02 1.13420496163688e-03
2.86356666666667e+00 9.25469350913225e-02 1.12477405030633e-03
2.88163333333333e+00 9.14874265060937e-02 1.11539935684061e-03
2.89970000000000e+00 9.04400475319780e-02 1.10608105763584e-03
2.91776666666667e+00 8.94046593086166e-02 1.09681931506217e-03
2.93583333333333e+00 8.83811245583468e-02 1.08761427517106e-03
2.95390000000000e+00 8.73693075786330e-02 1.07846606545123e-03
2.97196666666667e+00 8.63690742238240e-02 1.06937480072492e-03
2.99003333333333e+00 8.53802918773519e-02 1.06034058093461e-03
3.00810000000000e+00 8.44028294442318e-02 1.05136348897696e-03
3.02616666666667e+00 8.34365573334446e-02 1.04244359632901e-03
3.04423333333333e+00 8.24813474312529e-02 1.03358096091250e-03
3.06230000000000e+00 8.15370730937816e-02 1.02477562500362e-03
3.08036666666667e+00 8.06036091300020e-02 1.01602762060330e-03
3.09843333333333e+00 7.96808317761178e-02 1.00733696737662e-03
3.11650000000000e+00 7.87686186882332e-02 9.98703670636498e-04
3.13456666666667e+00 7.78668489259199e-02 9.90127726471134e-04
3.15263333333333e+00 7.69754029276238e-02 9.81609119756481e-04
3.17070000000000e+00 7.60941625034301e-02 9.73147822211494e-04
3.18876666666667e+00 7.52230108191920e-02 9.64743797295102e-04
3.20683333333333e+00 7.43618323729146e-02 9.56396998289567e-04
3.22490000000000e+00 7.35105129876222e-02 9.48107366425140e-04
3.24296666666667e+00 7.26689397960312e-02 9.39874835558074e-04
3.26103333333333e+00 7.18370012178666e-02 9.31699330322732e-04
3.27910000000000e+00 7.10145869528399e-02 9.23580764323426e-04
3.29716666666667e+00 7.02015879658451e-02 9.15519044604468e-04
3.31523333333333e+00 6.93978964651692e-02 9.07514069868815e-04
3.33330000000000e+00 6.86034058955841e-02 8.99565728734990e-04
3.35136666666667e+00 6.78180109240491e-02 8.91673904009303e-04
3.36943333333333e+00 6.70416074187762e-02 8.83838470968801e-04
3.38750000000000e+00 6.62740924424408e-02 8.76059295681336e-04
3.40556666666667e+00 6.55153642383722e-02 8.68336239089581e-04
3.42363333333333e+00 6.47653222104386e-02 8.60669155356187e-04
3.44170000000000e+00 6.40238669163786e-02 8.53057890244829e-04
3.45976666666667e+00 6.32909000544650e-02 8.45502285025141e-04
3.47783333333333e+00 6.25663244441718e-02 8.38002174878062e-04
3.49590000000000e+00 6.18500440196326e-02 8.30557387335701e-04
3.51396666666667e+00 6.11419638167583e-02 8.23167746015905e-04
3.53203333333333e+00 6.04419899546561e-02 8.15833069085670e-04
3.55010000000000e+00 5.97500296292142e-02 8.08553167757853e-04
3.56816666666667e+00 5.90659911006601e-02 8.01327849863492e-04
3.58623333333333e+00 5.83897836756985e-02 7.94156918371323e-04
3.60430000000000e+00 5.77213177012251e-02 7.87040169939389e-04
3.62236666666667e+00 5.70605045523093e-02 7.79977398332717e-04
3.64043333333333e+00 5.64072566150222e-02 7.72968392996958e-04
3.65850000000000e+00 5.57614872802796e-02 7.66012937663040e-04
3.67656666666667e+00 5.51231109322356e-02 7.59110813617528e-04
3.69463333333333e+00 5.44920429317709e-02 7.52261798328476e-04
3.71270000000000e+00 5.38681996104671e-02 7.45465664101247e-04
3.73076666666667e+00 5.32514982593961e-02 7.38722181208318e-04
3.74883333333333e+00 5.26418571132419e-02 7.32031116565617e-04
3.76690000000000e+00 5.20391953444066e-02 7.25392232437673e-04
3.78496666666667e+00 5.14434330521820e-02 7.18805289433456e-04
3.80303333333333e+00 5.08544912474789e-02 7.12270045231358e-04
3.82110000000000e+00 5.02722918470642e-02 7.05786253331831e-04
3.83916666666667e+00 4.96967576631028e-02 6.99353665925494e-04
3.85723333333333e+00 4.91278123884685e-02 6.92972032664972e-04
3.87530000000000e+00 4.85653805911133e-02 6.86641099463467e-04
3.89336666666667e+00 4.80093877039650e-02 6.80360611240935e-04
3.91143333333333e+00 4.74597600107979e-02 6.74130310741018e-04
3.92950000000000e+00 4.69164246407322e-02 6.67949937373896e-04
3.94756666666667e+00 4.63793095584764e-02 6.61819229846092e-04
3.96563333333333e+00 4.58483435507346e-02 6.55737925021013e-04
3.98370000000000e+00 4.53234562208348e-02 6.49705756804355e-04
4.00176666666667e+00 4.48045779793051e-02 6.43722458662787e-04
4.01983333333333e+00 4.42916400307952e-02 6.37787762526535e-04
4.03790000000000e+00 4.37845743688337e-02 6.31901397715840e-04
4.05596666666667e+00 4.32833137667258e-02 6.26063093353583e-04
4.07403333333333e+00 4.27877917649680e-02 6.20272577308291e-04
4.09210000000000e+00 4.22979426661346e-02 6.14529575160113e-04
4.11016666666667e+00 4.18137015260844e-02 6.08833812512207e-04
4.12823333333333e+00 4.13350041418505e-02 6.03185013972698e-04
4.14630000000000e+00 4.08617870466527e-02 5.97582902158779e-04
4.16436666666667e+00 4.03939875014041e-02 5.92027199911269e-04
4.18243333333333e+00 3.99315434830568e-02 5.86517629314107e-04
4.20050000000000e+00 3.94743936797381e-02 5.81053910735244e-04
4.21856666666667e+00 3.90224774825476e-02 5.75635764948677e-04
4.23663333333333e+00 3.85757349743397e-02 5.70262912190139e-04
4.25470000000000e+00 3.81341069249832e-02 5.64935071233274e-04
4.27276666666667e+00 3.76975347834381e-02 5.59651961423360e-04
4.29083333333333e+00 3.72659606669576e-02 5.54413301767808e-04
4.30890000000000e+00 3.68393273564703e-02 5.49218810046380e-04
4.32696666666667e+00 3.64175782889259e-02 5.44068204760467e-04
4.34503333333333e+00 3.60006575469015e-02 5.38961204257067e-04
4.36310000000000e+00 3.55885098541029e-02 5.33897525871877e-04
4.38116666666667e+00 3.51810805679717e-02 5.28876887797765e-04
4.39923333333333e+00 3.47783156696786e-02 5.23899008241090e-04
4.41730000000000e+00 3.43801617597432e-02 5.18963604596325e-04
4.43536666666667e+00 3.39865660508922e-02 5.14070395237309e-04
4.45343333333333e+00 3.35974763584260e-02 5.09219098704651e-04
4.47150000000000e+00 3.32128410959538e-02 5.04409432910822e-04
4.48956666666667e+00 3.28326092684951e-02 4.99641116857534e-04
4.50763333333333e+00 3.24567304632045e-02 4.94913869853067e-04
4.52570000000000e+00 3.20851548452202e-02 4.90227410746630e-04
4.54376666666667e+00 3.17178331510010e-02 4.85581459575122e-04
4.56183333333333e+00 3.13547166793947e-02 4.80975736809314e-04
4.57990000000000e+00 3.09957572875984e-02 4.76409962616382e-04
4.59796666666667e+00 3.06409073847225e-02 4.71883858439039e-04
4.61603333333333e+00 3.02901199231899e-02 4.67397146269502e-04
4.63410000000000e+00 2.99433483948054e-02 4.62949547939235e-04
4.65216666666667e+00 2.96005468245397e-02 4.58540786633336e-04
4.67023333333333e+00 2.92616697622457e-02 4.54170586191247e-04
4.68830000000000e+00 2.89266722788358e-02 4.49838670422668e-04
4.70636666666667e+00 2.85955099602774e-02 4.45544764560026e-04
4.72443333333333e+00 2.82681388996149e-02 4.41288594584918e-04
4.74250000000000e+00 2.79445156932526e-02 4.37069886569186e-04
4.76056666666667e+00 2.76245974351537e-02 4.32888368068142e-04
4.77863333333333e+00 2.73083417091574e-02 4.28743767471816e-04
4.79670000000000e+00 2.69957065853641e-02 4.24635813370261e-04
4.81476666666667e+00 2.66866506145322e-02 4.20564235890038e-04
4.83283333333333e+00 2.63811328206777e-02 4.16528766069363e-04
4.85090000000000e+00 2.60791126975601e-02 4.12529135246681e-04
4.86896666666667e+00 2.57805502032704e-02 4.08565076342879e-04
4.88703333333333e+00 2.54854057531022e-02 4.04636323259404e-04
4.90510000000000e+00 2.51936402161362e-02 4.00742610289342e-04
4.92316666666667e+00 2.49052149100128e-02 3.96883673347612e-04
4.94123333333333e+00 2.46200915940641e-02 3.93059249391116e-04
4.95930000000000e+00 2.43382324659956e-02 3.89269075851540e-04
4.97736666666667e+00 2.40596001568359e-02 3.85512891815723e-04
4.99543333333333e+00 2.37841577243212e-02 3.81790437467119e-04
5.01350000000000e+00 2.35118686496701e-02 3.78101453539418e-04
5.03156666666667e+00 2.32426968327062e-02 3.74445682449171e-04
5.04963333333333e+00 2.29766065854839e-02 3.70822867757819e-04
5.06770000000000e+00 2.27135626291557e-02 3.67232753645283e-04
5.08576666666667e+00 2.24535300892605e-02 3.63675085996975e-04
5.10383333333333e+00 2.21964744895825e-02 3.60149611885542e-04
5.12190000000000e+00 2.19423617491081e-02 3.56656079063748e-04
5.13996666666667e+00 2.16911581774749e-02 3.53194237007723e-04
5.15803333333333e+00 2.14428304690542e-02 3.49763836417700e-04
5.17610000000000e+00 2.11973456999960e-02 3.46364628729538e-04
5.19416666666667e+00 2.09546713238326e-02 3.42996367115943e-04
5.21223333333333e+00 2.07147751657768e-02 3.39658806005543e-04
5.23030000000000e+00 2.04776254198527e-02 3.36351700612324e-04
5.24836666666667e+00 2.02431906446486e-02 3.33074807896613e-04
5.26643333333333e+00 2.00114397578227e-02 3.29827886101835e-04
5.28450000000000e+00 1.97823420333177e-02 3.26610694301135e-04
5.30256666666667e+00 1.95558670972577e-02 3.23422993319884e-04
5.32063333333333e+00 1.93319849226542e-02 3.20264545289355e-04
5.33870000000000e+00 1.91106658267013e-02 3.17135113209931e-04
5.35676666666667e+00 1.88918804668129e-02 3.14034461836753e-04
5.37483333333333e+00 1.86755998355208e-02 3.10962357249677e-04
5.39290000000000e+00 1.84617952578488e-02 3.07918566432495e-04
5.41096666666667e+00 1.82504383874851e-02 3.04902858123158e-04
5.42903333333333e+00 1.80415012018652e-02 3.01915002399485e-04
5.44710000000000e+00 1.78349559996236e-02 2.98954770273747e-04
5.46516666666667e+00 1.76307753968962e-02 2.96021934509009e-04
5.48323333333333e+00 1.74289323225813e-02 2.93116269219959e-04
5.50130000000000e+00 1.72294000158668e-02 2.90237549482275e-04
5.51936666666667e+00 1.70321520226581e-02 2.87385552116465e-04
5.53743333333333e+00 1.68371621910109e-02 2.84560055303286e-04
5.55550000000000e+00 1.66444046687313e-02 2.81760838207399e-04
5.57356666666667e+00 1.64538538999259e-02 2.78987681729984e-04
5.59163333333333e+00 1.62654846205989e-02 2.76240368138188e-04
5.60970000000000e+00 1.60792718563245e-02 2.73518680702550e-04
5.62776666666667e+00 1.58951909189133e-02 2.70822404419718e-04
5.64583333333333e+00 1.57132174021694e-02 2.68151325655399e-04
5.66390000000000e+00 1.55333271796314e-02 2.65505231795007e-04
5.68196666666667e+00 1.53554964013533e-02 2.62883911937711e-04
5.70003333333333e+00 1.51797014898132e-02 2.60287156552413e-04
