Energy (eV)          EEDF (eV^-(3/2))     First Anisotropy
1.13026315789474e-02 2.86182434365919e-01 1.73269735424591e-04
3.39078947368421e-02 2.83594188352594e-01 2.85784502899548e-04
5.65131578947368e-02 2.81029350553454e-01 3.76386578242439e-04
7.91184210526316e-02 2.78487709253475e-01 4.44683631632520e-04
1.01723684210526e-01 2.75969054666603e-01 5.01203965736156e-04
1.24328947368421e-01 2.73473178891877e-01 5.49941013681294e-04
1.46934210526316e-01 2.70999875927230e-01 5.92967700457881e-04
1.69539473684211e-01 2.68548941621432e-01 6.31539536954938e-04
1.92144736842105e-01 2.66120173670591e-01 6.66491646991352e-04
2.14750000000000e-01 2.63713371600872e-01 6.98415997654657e-04
2.37355263157895e-01 2.61328336741308e-01 7.27752057043776e-04
2.59960526315789e-01 2.58964872239687e-01 7.54837794795865e-04
2.82565789473684e-01 2.56622783012387e-01 7.79940466766140e-04
3.05171052631579e-01 2.54301875740177e-01 8.03276235651477e-04
3.27776315789474e-01 2.52001958852263e-01 8.25023238677442e-04
3.50381578947368e-01 2.49722842510574e-01 8.45330605987621e-04
3.72986842105263e-01 2.47464338587817e-01 8.64324871057716e-04
3.95592105263158e-01 2.45226260670952e-01 8.82114648387171e-04
4.18197368421053e-01 2.43008424026167e-01 8.98794120545142e-04
4.40802631578947e-01 2.40810645590420e-01 9.14445684537123e-04
4.63407894736842e-01 2.38632743956258e-01 9.29141998030301e-04
4.86013157894737e-01 2.36474539356971e-01 9.42947583026642e-04
5.08618421052632e-01 2.34335853651677e-01 9.55920100204974e-04
5.31223684210526e-01 2.32216510306630e-01 9.68111371526918e-04
5.53828947368421e-01 2.30116334392878e-01 9.79568213084831e-04
5.76434210526316e-01 2.28035152559297e-01 9.90333118504858e-04
5.99039473684211e-01 2.25972793022543e-01 1.00044482242115e-03
6.21644736842105e-01 2.23929085552910e-01 1.00993877229069e-03
6.44250000000000e-01 2.21903861460274e-01 1.01884752501176e-03
6.66855263157895e-01 2.19896953577148e-01 1.02720108118085e-03
6.89460526315790e-01 2.17908196254082e-01 1.03502717158755e-03
7.12065789473684e-01 2.15937425336602e-01 1.04235150282642e-03
7.34671052631579e-01 2.13984478154853e-01 1.04919796708489e-03
7.57276315789474e-01 2.12049193510169e-01 1.05558882526027e-03
7.79881578947369e-01 2.10131411661793e-01 1.06154486630434e-03
8.02486842105263e-01 2.08230974311304e-01 1.06708554525461e-03
8.25092105263158e-01 2.06347724596773e-01 1.07222910594737e-03
8.47697368421053e-01 2.04481507072468e-01 1.07699268925979e-03
8.70302631578947e-01 2.02632167698514e-01 1.08139242727282e-03
8.92907894736842e-01 2.00799553828171e-01 1.08544352812220e-03
9.15513157894737e-01 1.98983514195258e-01 1.08916035129018e-03
9.38118421052632e-01 1.97183898901653e-01 1.09255647517898e-03
9.60723684210526e-01 1.95400559403077e-01 1.09564475659312e-03
9.83328947368421e-01 1.93633348502449e-01 1.09843738554426e-03
1.00593421052632e+00 1.91882120332030e-01 1.10094593420113e-03
1.02853947368421e+00 1.90146730346614e-01 1.10318140358075e-03
1.05114473684211e+00 1.88427035290091e-01 1.10515425659757e-03
1.07375000000000e+00 1.86722893233497e-01 1.10687445865212e-03
1.09635526315789e+00 1.85034163514454e-01 1.10835151601743e-03
1.11896052631579e+00 1.83360706742772e-01 1.10959450060968e-03
1.14156578947368e+00 1.81702384774679e-01 1.11061207321368e-03
1.16417105263158e+00 1.80059060744950e-01 1.11141251363245e-03
1.18677631578947e+00 1.78430599011261e-01 1.11200375092496e-03
1.20938157894737e+00 1.76816865144965e-01 1.11239337064974e-03
1.23198684210526e+00 1.75217725960026e-01 1.11258864162877e-03
1.25459210526316e+00 1.73633049461214e-01 1.11259654073549e-03
1.27719736842105e+00 1.72062704835015e-01 1.11242375629382e-03
1.29980263157895e+00 1.70506562475756e-01 1.11207671034081e-03
1.32240789473684e+00 1.68964493937237e-01 1.11156157931366e-03
1.34501315789474e+00 1.67436371923792e-01 1.11088429472247e-03
1.36761842105263e+00 1.65922070313911e-01 1.11005056196790e-03
1.39022368421053e+00 1.64421464115029e-01 1.10906587789462e-03
1.41282894736842e+00 1.62934429454655e-01 1.10793552951829e-03
1.43543421052632e+00 1.61460843601835e-01 1.10666461015175e-03
1.45803947368421e+00 1.60000584924770e-01 1.10525803452208e-03
1.48064473684211e+00 1.58553532882049e-01 1.10372053610326e-03
1.50325000000000e+00 1.57119568042169e-01 1.10205668111481e-03
1.52585526315789e+00 1.55698572043733e-01 1.10027087997671e-03
1.54846052631579e+00 1.54290427595823e-01 1.09836739057611e-03
1.57106578947368e+00 1.52895018459584e-01 1.09635032190072e-03
1.59367105263158e+00 1.51512229465196e-01 1.09422364392048e-03
1.61627631578947e+00 1.50141946475401e-01 1.09199119869266e-03
1.63888157894737e+00 1.48784056377067e-01 1.08965669591903e-03
1.66148684210526e+00 1.47438447096655e-01 1.08722372341048e-03
1.68409210526316e+00 1.46105007565772e-01 1.08469575698725e-03
1.70669736842105e+00 1.44783627712930e-01 1.08207615559754e-03
1.72930263157895e+00 1.43474198477656e-01 1.07936817072015e-03
1.75190789473684e+00 1.42176611777907e-01 1.07657495526362e-03
1.77451315789474e+00 1.40890760502028e-01 1.07369955839334e-03
1.79711842105263e+00 1.39616538521617e-01 1.07074493403804e-03
1.81972368421053e+00 1.38353840660703e-01 1.06771394895470e-03
1.84232894736842e+00 1.37102562687844e-01 1.06460937737330e-03
1.86493421052632e+00 1.35862601327905e-01 1.06143390873610e-03
1.88753947368421e+00 1.34633854232847e-01 1.05819015505974e-03
1.91014473684211e+00 1.33416219973973e-01 1.05488064547802e-03
1.93275000000000e+00 1.32209598052724e-01 1.05150783332449e-03
1.95535526315789e+00 1.31013888872953e-01 1.04807410160606e-03
1.97796052631579e+00 1.29828993739273e-01 1.04458176265902e-03
2.00056578947368e+00 1.28654814843132e-01 1.04103305822566e-03
2.02317105263158e+00 1.27491255272279e-01 1.03743016438839e-03
2.04577631578947e+00 1.26338218984993e-01 1.03377519760768e-03
2.06838157894737e+00 1.25195610802736e-01 1.03007020930476e-03
2.09098684210526e+00 1.24063336418801e-01 1.02631719171492e-03
2.11359210526316e+00 1.22941302373789e-01 1.02251808348134e-03
2.13619736842105e+00 1.21829416048439e-01 1.01867476428575e-03
2.15880263157895e+00 1.20727585671551e-01 1.01478906029516e-03
2.18140789473684e+00 1.19635720296614e-01 1.01086274936393e-03
2.20401315789474e+00 1.18553729794819e-01 1.00689755573776e-03
2.22661842105263e+00 1.17481524862307e-01 1.00289515513614e-03
2.24922368421053e+00 1.16419016997899e-01 9.98857179611093e-04
2.27182894736842e+00 1.15366118496260e-01 9.94785212342600e-04
2.29443421052632e+00 1.14322742454545e-01 9.90680792391204e-04
2.31703947368421e+00 1.13288802751156e-01 9.86545419253083e-04
2.33964473684211e+00 1.12264214039060e-01 9.82380547759716e-04
2.36225000000000e+00 1.11248891751879e-01 9.78187592534251e-04
2.38485526315789e+00 1.10242752083616e-01 9.73967931293436e-04
2.40746052631579e+00 1.09245711986220e-01 9.69722903789113e-04
2.43006578947368e+00 1.08257689158734e-01 9.65453811089597e-04
2.45267105263158e+00 1.07278602052635e-01 9.61161918618467e-04
2.47527631578947e+00 1.06308369852826e-01 9.56848460086839e-04
2.49788157894737e+00 1.05346912471321e-01 9.52514632707756e-04
2.52048684210526e+00 1.04394150552127e-01 9.48161601056298e-04
2.54309210526316e+00 1.03450005453063e-01 9.43790500778934e-04
2.56569736842105e+00 1.02514399239602e-01 9.39402433931822e-04
2.58830263157895e+00 1.01587254689342e-01 9.34998472632548e-04
2.61090789473684e+00 1.00668495274589e-01 9.30579662565870e-04
2.63351315789474e+00 9.97580451563711e-02 9.26147018448958e-04
2.65611842105263e+00 9.88558291885108e-02 9.21701527489493e-04
2.67872368421053e+00 9.79617729009561e-02 9.17244152707505e-04
2.70132894736842e+00 9.70758024939346e-02 9.12775828528334e-04
2.72393421052632e+00 9.61978448416770e-02 9.08297464059670e-04
2.74653947368421e+00 9.53278274764477e-02 9.03809946246199e-04
2.76914473684211e+00 9.44656785828389e-02 8.99314135589703e-04
2.79175000000000e+00 9.36113270011719e-02 8.94810869258854e-04
2.81435526315789e+00 9.27647022121897e-02 8.90300963330071e-04
2.83696052631579e+00 9.19257343344155e-02 8.85785211677258e-04
2.85956578947368e+00 9.10943541155251e-02 8.81264385124522e-04
2.88217105263158e+00 9.02704929353026e-02 8.76739233529530e-04
2.90477631578947e+00 8.94540827912080e-02 8.72210488577472e-04
2.92738157894737e+00 8.86450562930016e-02 8.67678859819656e-04
2.94998684210526e+00 8.78433466654297e-02 8.63145037432214e-04
2.97259210526316e+00 8.70488877343692e-02 8.58609694876349e-04
2.99519736842105e+00 8.62616139215937e-02 8.54073485057861e-04
3.01780263157895e+00 8.54814602472097e-02 8.49537042959110e-04
3.04040789473684e+00 8.47083623163492e-02 8.45000988174484e-04
3.06301315789474e+00 8.39422563140750e-02 8.40465921189060e-04
3.08561842105263e+00 8.31830790075833e-02 8.35932425890463e-04
3.10822368421053e+00 8.24307677334248e-02 8.31401071989503e-04
3.13082894736842e+00 8.16852603925354e-02 8.26872411415441e-04
3.15343421052632e+00 8.09464954522304e-02 8.22346980713317e-04
3.17603947368421e+00 8.02144119339251e-02 8.17825303358473e-04
3.19864473684211e+00 7.94889494082899e-02 8.13307886265345e-04
3.22125000000000e+00 7.87700479970505e-02 8.08795222077276e-04
3.24385526315789e+00 7.80576483611852e-02 8.04287790786181e-04
3.26646052631579e+00 7.73516916983378e-02 7.99786058737807e-04
3.28906578947368e+00 7.66521197358712e-02 7.95290477839820e-04
3.31167105263158e+00 7.59588747323991e-02 7.90801487075582e-04
3.33427631578947e+00 7.52718994666125e-02 7.86319514583433e-04
3.35688157894737e+00 7.45911372327194e-02 7.81844974436923e-04
3.37948684210526e+00 7.39165318418143e-02 7.77378268703353e-04
3.40209210526316e+00 7.32480276111246e-02 7.72919789433758e-04
3.42469736842105e+00 7.25855693595727e-02 7.68469915546072e-04
3.44730263157895e+00 7.19291024089937e-02 7.64029014798657e-04
3.46990789473684e+00 7.12785725737844e-02 7.59597445695862e-04
3.49251315789474e+00 7.06339261565832e-02 7.55175554471515e-04
3.51511842105263e+00 6.99951099493474e-02 7.50763676980824e-04
3.53772368421053e+00 6.93620712233901e-02 7.46362140527570e-04
3.56032894736842e+00 6.87347577251688e-02 7.41971260944979e-04
3.58293421052632e+00 6.81131176772377e-02 7.37591344408877e-04
3.60553947368421e+00 6.74970997686528e-02 7.33222689191724e-04
3.62814473684211e+00 6.68866531508686e-02 7.28865582837706e-04
3.65075000000000e+00 6.62817274385727e-02 7.24520303901264e-04
3.67335526315789e+00 6.56822727004447e-02 7.20187123161003e-04
3.69596052631579e+00 6.50882394567458e-02 7.15866302772930e-04
3.71856578947368e+00 6.44995786736764e-02 7.11558095580968e-04
3.74117105263158e+00 6.39162417640481e-02 7.07262746255003e-04
3.76377631578947e+00 6.33381805785074e-02 7.02980492880480e-04
3.78638157894737e+00 6.27653474016771e-02 6.98711564354231e-04
3.80898684210526e+00 6.21976949527295e-02 6.94456181960320e-04
3.83159210526316e+00 6.16351763769258e-02 6.90214560896244e-04
3.85419736842105e+00 6.10777452418605e-02 6.85986907752990e-04
3.87680263157895e+00 6.05253555379436e-02 6.81773422030164e-04
3.89940789473684e+00 5.99779616702420e-02 6.77574297601862e-04
3.92201315789474e+00 5.94355184548245e-02 6.73389720278433e-04
3.94461842105263e+00 5.88979811191592e-02 6.69219869262961e-04
3.96722368421053e+00 5.83653052942471e-02 6.65064918560778e-04
3.98982894736842e+00 5.78374470110607e-02 6.60925034620219e-04
4.01243421052632e+00 5.73143627008664e-02 6.56800377732346e-04
4.03503947368421e+00 5.67960091876367e-02 6.52691103387319e-04
4.05764473684211e+00 5.62823436845813e-02 6.48597359991507e-04
4.08025000000000e+00 5.57733237943988e-02 6.44519290213063e-04
4.10285526315790e+00 5.52689075019573e-02 6.40457031912816e-04
4.12546052631579e+00 5.47690531721121e-02 6.36410717437793e-04
4.14806578947368e+00 5.42737195450933e-02 6.32380473037923e-04
4.17067105263158e+00 5.37828657366592e-02 6.28366419740356e-04
4.19327631578947e+00 5.32964512311289e-02 6.24368674585400e-04
4.21588157894737e+00 5.28144358781222e-02 6.20387348521089e-04
4.23848684210526e+00 5.23367798926539e-02 6.16422547629515e-04
4.26109210526316e+00 5.18634438484074e-02 6.12474374315971e-04
4.28369736842105e+00 5.13943886745626e-02 6.08542925271568e-04
4.30630263157895e+00 5.09295756558352e-02 6.04628292654522e-04
4.32890789473684e+00 5.04689664259832e-02 6.00730565234649e-04
4.35151315789474e+00 5.00125229647184e-02 5.96849826421844e-04
4.37411842105263e+00 4.95602075976970e-02 5.92986155403786e-04
4.39672368421053e+00 4.91119829902492e-02 5.89139628248395e-04
4.41932894736842e+00 4.86678121443714e-02 5.85310315995928e-04
4.44193421052632e+00 4.82276583986728e-02 5.81498285754347e-04
4.46453947368421e+00 4.77914854223196e-02 5.77703601762076e-04
4.48714473684211e+00 4.73592572121053e-02 5.73926323541549e-04
4.50975000000000e+00 4.69309380923571e-02 5.70166506953963e-04
4.53235526315790e+00 4.65064927090864e-02 5.66424204923916e-04
4.55496052631579e+00 4.60858860280478e-02 5.62699466855360e-04
4.57756578947368e+00 4.56690833309512e-02 5.58992338144566e-04
4.60017105263158e+00 4.52560502153088e-02 5.55302860861501e-04
4.62277631578947e+00 4.48467525888577e-02 5.51631074722077e-04
4.64538157894737e+00 4.44411566668078e-02 5.47977015383657e-04
4.66798684210526e+00 4.40392289716552e-02 5.44340715410087e-04
4.69059210526316e+00 4.36409363277921e-02 5.40722205208603e-04
4.71319736842105e+00 4.32462458588282e-02 5.37121511380007e-04
4.73580263157895e+00 4.28551249873736e-02 5.33538657649565e-04
4.75840789473684e+00 4.24675414298291e-02 5.29973665769981e-04
4.78101315789474e+00 4.20834631937790e-02 5.26426553924521e-04
4.80361842105263e+00 4.17028585777462e-02 5.22897337624816e-04
4.82622368421053e+00 4.13256961661564e-02 5.19386030581818e-04
4.84882894736842e+00 4.09519448267999e-02 5.15892643160064e-04
4.87143421052632e+00 4.05815737105617e-02 5.12417183243136e-04
4.89403947368421e+00 4.02145522465538e-02 5.08959657074309e-04
4.91664473684211e+00 3.98508501396430e-02 5.05520067760241e-04
4.93925000000000e+00 3.94904373701593e-02 5.02098416105449e-04
4.96185526315790e+00 3.91332841891891e-02 4.98694701182367e-04
4.98446052631579e+00 3.87793611168696e-02 4.95308919850343e-04
5.00706578947368e+00 3.84286389392658e-02 4.91941066351597e-04
5.02967105263158e+00 3.80810887080456e-02 4.88591132847661e-04
5.05227631578947e+00 3.77366817359853e-02 4.85259110190656e-04
5.07488157894737e+00 3.73953895946478e-02 4.81944986540640e-04
5.09748684210526e+00 3.70571841140404e-02 4.78648748131327e-04
5.12009210526316e+00 3.67220373782662e-02 4.75370380014114e-04
5.14269736842105e+00 3.63899217232659e-02 4.72109864719395e-04
5.16530263157895e+00 3.60608097364584e-02 4.68867182995948e-04
5.18790789473684e+00 3.57346742525352e-02 4.65642314528785e-04
5.21051315789474e+00 3.54114883512616e-02 4.62435236643121e-04
5.23311842105263e+00 3.50912253571039e-02 4.59245925018133e-04
5.25572368421053e+00 3.47738588351607e-02 4.56074354379993e-04
5.27832894736842e+00 3.44593625890220e-02 4.52920497247065e-04
5.30093421052632e+00 3.41477106603845e-02 4.49784324618639e-04
5.32353947368421e+00 3.38388773251149e-02 4.46665806644442e-04
5.34614473684211e+00 3.35328370911658e-02 4.43564911409539e-04
5.36875000000000e+00 3.32295646981800e-02 4.40481605599060e-04
5.39135526315790e+00 3.29290351136818e-02 4.37415854950261e-04
5.41396052631579e+00 3.26312235315904e-02 4.34367623856906e-04
5.43656578947368e+00 3.23361053696380e-02 4.31336875035072e-04
5.45917105263158e+00 3.20436562689576e-02 4.28323569948704e-04
5.48177631578947e+00 3.17538520904414e-02 4.25327669425300e-04
5.50438157894737e+00 3.14666689127831e-02 4.22349132532041e-04
5.52698684210526e+00 3.11820830320581e-02 4.19387917187082e-04
5.54959210526316e+00 3.09000709581983e-02 4.16443980754023e-04
5.57219736842105e+00 3.06206094130873e-02 4.13517278953431e-04
5.59480263157895e+00 3.03436753301334e-02 4.10607766453590e-04
5.61740789473684e+00 3.00692458508572e-02 4.07715397444562e-04
5.64001315789474e+00 2.97972983230380e-02 4.04840124584023e-04
5.66261842105263e+00 2.95278103002807e-02 4.01981899567998e-04
5.68522368421053e+00 2.92607595387134e-02 3.99140673685524e-04
5.70782894736842e+00 2.89961239951816e-02 3.96316396797684e-04
5.73043421052632e+00 2.87338818268121e-02 3.93509017888834e-04
5.75303947368421e+00 2.84740113878146e-02 3.90718485602736e-04
5.77564473684211e+00 2.82164912277248e-02 3.87944747253677e-04
5.79825000000000e+00 2.79613000909639e-02 3.85187749358869e-04
5.82085526315790e+00 2.77084169137430e-02 3.82447437999008e-04
5.84346052631579e+00 2.74578208227746e-02 3.79723758493006e-04
5.86606578947368e+00 2.72094911331336e-02 3.77016655121904e-04
5.88867105263158e+00 2.69634073478105e-02 3.74326071468457e-04
5.91127631578947e+00 2.67195491547481e-02 3.71651950911031e-04
5.93388157894737e+00 2.64778964251915e-02 3.68994235708239e-04
5.95648684210526e+00 2.62384292132395e-02 3.66352867489312e-04
5.97909210526316e+00 2.60011277529750e-02 3.63727787731298e-04
6.00169736842105e+00 2.57659724568590e-02 3.61118936872280e-04
6.02430263157895e+00 2.55329439152811e-02 3.58526254785605e-04
6.04690789473684e+00 2.53020228937800e-02 3.55949681240981e-04
6.06951315789474e+00 2.50731903314802e-02 3.53389155045398e-04
6.09211842105263e+00 2.48464273406429e-02 3.50844614501599e-04
6.11472368421053e+00 2.46217152039731e-02 3.48315997853850e-04
6.13732894736842e+00 2.43990353730981e-02 3.45803242455680e-04
6.15993421052632e+00 2.41783694681189e-02 3.43306285212934e-04
6.18253947368421e+00 2.39596992750015e-02 3.40825063014970e-04
6.20514473684211e+00 2.37430067440961e-02 3.38359511928318e-04
6.22775000000000e+00 2.35282739896890e-02 3.35909567624827e-04
6.25035526315790e+00 2.33154832874759e-02 3.33475165670645e-04
6.27296052631579e+00 2.31046170734518e-02 3.31056241258707e-04
6.29556578947368e+00 2.28956579421348e-02 3.28652728980733e-04
6.31817105263158e+00 2.26885886461173e-02 3.26264563099423e-04
6.34077631578947e+00 2.24833920936464e-02 3.23891677946268e-04
6.36338157894737e+00 2.22800513472328e-02 3.21534007174563e-04
6.38598684210526e+00 2.20785496232052e-02 3.19191484154304e-04
6.40859210526316e+00 2.18788702893647e-02 3.16864042356764e-04
6.43119736842105e+00 2.16809968636317e-02 3.14551614630664e-04
6.45380263157895e+00 2.14849130136025e-02 3.12254133584236e-04
6.47640789473684e+00 2.12906025542761e-02 3.09971531957024e-04
6.49901315789474e+00 2.10980494467376e-02 3.07703741918487e-04
6.52161842105263e+00 2.09072377977173e-02 3.05450695437570e-04
6.54422368421053e+00 2.07181518573883e-02 3.03212324642321e-04
6.56682894736842e+00 2.05307760180846e-02 3.00988561140211e-04
6.58943421052632e+00 2.03450948138637e-02 2.98779336375496e-04
6.61203947368421e+00 2.01610929183719e-02 2.96584581977209e-04
6.63464473684211e+00 1.99787551435966e-02 2.94404229100430e-04
6.65725000000000e+00 1.97980664394330e-02 2.92238208771851e-04
6.67985526315790e+00 1.96190118916143e-02 2.90086452122269e-04
6.70246052631579e+00 1.94415767207595e-02 2.87948890166371e-04
6.72506578947369e+00 1.92657462808954e-02 2.85825453614453e-04
6.74767105263158e+00 1.90915060590263e-02 2.83716073091428e-04
6.77027631578947e+00 1.89188416731512e-02 2.81620679458272e-04
6.79288157894737e+00 1.87477388710928e-02 2.79539203201309e-04
6.81548684210526e+00 1.85781835300710e-02 2.77471574751350e-04
6.83809210526316e+00 1.84101616547805e-02 2.75417724794583e-04
6.86069736842105e+00 1.82436593762516e-02 2.73377583680627e-04
6.88330263157895e+00 1.80786629514278e-02 2.71351081731420e-04
6.90590789473684e+00 1.79151587613023e-02 2.69338149541916e-04
6.92851315789474e+00 1.77531333098093e-02 2.67338717406391e-04
6.95111842105263e+00 1.75925732234062e-02 2.65352715617323e-04
6.97372368421053e+00 1.74334652492673e-02 2.63380074756347e-04
6.99632894736842e+00 1.72757962542039e-02 2.61420725138221e-04
7.01893421052632e+00 1.71195532242522e-02 2.59474597099919e-04
7.04153947368421e+00 1.69647232629217e-02 2.57541621282320e-04
7.06414473684211e+00 1.68112935901441e-02 2.55621728091208e-04
7.08675000000000e+00 1.66592515418662e-02 2.53714847976927e-04
7.10935526315790e+00 1.65085845683517e-02 2.51820911622007e-04
7.13196052631579e+00 1.63592802333648e-02 2.49939849759781e-04
