Energy (eV)          EEDF (eV^-(3/2))     First Anisotropy
1.31632653061224e-03 4.95323772224505e+00 2.56879370698666e-03
3.94897959183674e-03 4.91831783492380e+00 4.24111414655253e-03
6.58163265306122e-03 4.88364412971927e+00 5.59691202856988e-03
9.21428571428571e-03 4.84921487106729e+00 6.62580364932127e-03
1.18469387755102e-02 4.81502833574240e+00 7.48298685393138e-03
1.44795918367347e-02 4.78108281236297e+00 8.22715462554338e-03
1.71122448979592e-02 4.74737660183075e+00 8.88868781670609e-03
1.97448979591837e-02 4.71390801721559e+00 9.48593678295071e-03
2.23775510204082e-02 4.68067538309831e+00 1.00310745680349e-02
2.50102040816327e-02 4.64767703605622e+00 1.05327067286071e-02
2.76428571428571e-02 4.61491132452098e+00 1.09972049876227e-02
3.02755102040816e-02 4.58237660830780e+00 1.14294565720124e-02
3.29081632653061e-02 4.55007125902360e+00 1.18333160635927e-02
3.55408163265306e-02 4.51799365955646e+00 1.22118931429263e-02
3.81734693877551e-02 4.48614220429253e+00 1.25677439519560e-02
4.08061224489796e-02 4.45451529901703e+00 1.29030030891120e-02
4.34387755102041e-02 4.42311136059534e+00 1.32194773044633e-02
4.60714285714286e-02 4.39192881719874e+00 1.35187137861605e-02
4.87040816326531e-02 4.36096610794778e+00 1.38020510129323e-02
5.13367346938776e-02 4.33022168303228e+00 1.40706573111461e-02
5.39693877551020e-02 4.29969400362448e+00 1.43255606640904e-02
5.66020408163265e-02 4.26938154163303e+00 1.45676720028059e-02
5.92346938775510e-02 4.23928277984383e+00 1.47978037095929e-02
6.18673469387755e-02 4.20939621164172e+00 1.50166844787117e-02
6.45000000000000e-02 4.17972034108157e+00 1.52249713484273e-02
6.71326530612245e-02 4.15025368280716e+00 1.54232596102851e-02
6.97653061224490e-02 4.12099476184860e+00 1.56120909597004e-02
7.23979591836735e-02 4.09194211367694e+00 1.57919602867455e-02
7.50306122448980e-02 4.06309428412560e+00 1.59633214204358e-02
7.76632653061225e-02 4.03444982920429e+00 1.61265919412942e-02
8.02959183673469e-02 4.00600731517441e+00 1.62821572958438e-02
8.29285714285714e-02 3.97776531833719e+00 1.64303743206840e-02
8.55612244897959e-02 3.94972242506459e+00 1.65715742523983e-02
8.81938775510204e-02 3.92187723172517e+00 1.67060653727916e-02
9.08265306122449e-02 3.89422834452176e+00 1.68341352688294e-02
9.34591836734694e-02 3.86677437954178e+00 1.69560528235951e-02
9.60918367346939e-02 3.83951396257332e+00 1.70720699640134e-02
9.87244897959184e-02 3.81244572912035e+00 1.71824231682458e-02
1.01357142857143e-01 3.78556832440521e+00 1.72873348736240e-02
1.03989795918367e-01 3.75888040302522e+00 1.73870146524870e-02
1.06622448979592e-01 3.73238062913886e+00 1.74816602865668e-02
1.09255102040816e-01 3.70606767609620e+00 1.75714586542566e-02
1.11887755102041e-01 3.67994022705963e+00 1.76565866447704e-02
1.14520408163265e-01 3.65399697424132e+00 1.77372119958696e-02
1.17153061224490e-01 3.62823661907331e+00 1.78134938774231e-02
1.19785714285714e-01 3.60265787214250e+00 1.78855835510079e-02
1.22418367346939e-01 3.57725945312607e+00 1.79536249340799e-02
1.25051020408163e-01 3.55204009072746e+00 1.80177551116790e-02
1.27683673469388e-01 3.52699852261264e+00 1.80781048015974e-02
1.30316326530612e-01 3.50213349534701e+00 1.81347987782117e-02
1.32948979591837e-01 3.47744376433228e+00 1.81879562592522e-02
1.35581632653061e-01 3.45292809374484e+00 1.82376912597017e-02
1.38214285714286e-01 3.42858525647358e+00 1.82841129162441e-02
1.40846938775510e-01 3.40441403405844e+00 1.83273257850054e-02
1.43479591836735e-01 3.38041321662942e+00 1.83674301154632e-02
1.46112244897959e-01 3.35658160284603e+00 1.84045221028173e-02
1.48744897959184e-01 3.33291799983713e+00 1.84386941208863e-02
1.51377551020408e-01 3.30942122314126e+00 1.84700349631236e-02
1.54010204081633e-01 3.28609009650580e+00 1.84986299640039e-02
1.56642857142857e-01 3.26292345225725e+00 1.85245612362321e-02
1.59275510204082e-01 3.23992013080890e+00 1.85479078947995e-02
1.61908163265306e-01 3.21707898074902e+00 1.85687461367824e-02
1.64540816326531e-01 3.19439885878327e+00 1.85871494165424e-02
1.67173469387755e-01 3.17187862967744e+00 1.86031885840645e-02
1.69806122448980e-01 3.14951716620066e+00 1.86169320140508e-02
1.72438775510204e-01 3.12731334906894e+00 1.86284457265585e-02
1.75071428571429e-01 3.10526606688907e+00 1.86377934997880e-02
1.77704081632653e-01 3.08337421610313e+00 1.86450369757188e-02
1.80336734693878e-01 3.06163670093325e+00 1.86502357592007e-02
1.82969387755102e-01 3.04005243332673e+00 1.86534475108985e-02
1.85602040816327e-01 3.01862033290155e+00 1.86547280346028e-02
1.88234693877551e-01 2.99733932689229e+00 1.86541313593374e-02
1.90867346938776e-01 2.97620835009646e+00 1.86517098166455e-02
1.93500000000000e-01 2.95522634482115e+00 1.86475141337614e-02
1.96132653061224e-01 2.93439226073100e+00 1.86415934407156e-02
1.98765306122449e-01 2.91370505509578e+00 1.86339953765232e-02
2.01397959183673e-01 2.89316369243511e+00 1.86247661919943e-02
2.04030612244898e-01 2.87276714456869e+00 1.86139507446870e-02
2.06663265306122e-01 2.85251439056478e+00 1.86015925748074e-02
2.09295918367347e-01 2.83240441668915e+00 1.85877339570635e-02
2.11928571428571e-01 2.81243621635431e+00 1.85724159498106e-02
2.14561224489796e-01 2.79260879006913e+00 1.85556784416603e-02
2.17193877551020e-01 2.77292114538879e+00 1.85375601957180e-02
2.19826530612245e-01 2.75337229686509e+00 1.85180988915649e-02
2.22459183673469e-01 2.73396126599723e+00 1.84973311651996e-02
2.25091836734694e-01 2.71468708118275e+00 1.84752926470372e-02
2.27724489795918e-01 2.69554877766893e+00 1.84520179980323e-02
2.30357142857143e-01 2.67654539750445e+00 1.84275409440980e-02
2.32989795918367e-01 2.65767598949150e+00 1.84018943089051e-02
2.35622448979592e-01 2.63893960913812e+00 1.83751100616454e-02
2.38255102040816e-01 2.62033531853813e+00 1.83472192970347e-02
2.40887755102041e-01 2.60186218654451e+00 1.83182522972560e-02
2.43520408163265e-01 2.58351928850052e+00 1.82882385928758e-02
2.46153061224490e-01 2.56530570626819e+00 1.82572069379189e-02
2.48785714285714e-01 2.54722052818232e+00 1.82251853518336e-02
2.51418367346939e-01 2.52926284900490e+00 1.81922011432787e-02
2.54051020408163e-01 2.51143176987977e+00 1.81582809328998e-02
2.56683673469388e-01 2.49372639828762e+00 1.81234506751391e-02
2.59316326530612e-01 2.47614584800133e+00 1.80877356791491e-02
2.61948979591837e-01 2.45868923904157e+00 1.80511606288028e-02
2.64581632653061e-01 2.44135569763282e+00 1.80137496019131e-02
2.67214285714286e-01 2.42414435615962e+00 1.79755260887043e-02
2.69846938775510e-01 2.40705435312313e+00 1.79365130095036e-02
2.72479591836735e-01 2.39008483309800e+00 1.78967327317486e-02
2.75112244897959e-01 2.37323494668957e+00 1.78562070863300e-02
2.77744897959184e-01 2.35650385049130e+00 1.78149573832995e-02
2.80377551020408e-01 2.33989070704266e+00 1.77730044403854e-02
2.83010204081633e-01 2.32339468473281e+00 1.77303685570463e-02
2.85642857142857e-01 2.30701495792321e+00 1.76870695556145e-02
2.88275510204082e-01 2.29075070674075e+00 1.76431268221842e-02
2.90908163265306e-01 2.27460111709238e+00 1.75985592782166e-02
2.93540816326531e-01 2.25856538062433e+00 1.75533854069313e-02
2.96173469387755e-01 2.24264269468166e+00 1.75076232653649e-02
2.98806122448980e-01 2.22683226226806e+00 1.74612904959965e-02
3.01438775510204e-01 2.21113329200601e+00 1.74144043379704e-02
3.04071428571429e-01 2.19554499809707e+00 1.73669816379110e-02
3.06704081632653e-01 2.18006660028267e+00 1.73190388603675e-02
3.09336734693878e-01 2.16469732380498e+00 1.72705920979174e-02
3.11969387755102e-01 2.14943639936814e+00 1.72216570809148e-02
3.14602040816327e-01 2.13428306309979e+00 1.71722491869102e-02
3.17234693877551e-01 2.11923655651279e+00 1.71223834497518e-02
3.19867346938775e-01 2.10429612646725e+00 1.70720745683939e-02
3.22500000000000e-01 2.08946102513289e+00 1.70213369265837e-02
3.25132653061225e-01 2.07473050990937e+00 1.69701845673795e-02
3.27765306122449e-01 2.06010384351664e+00 1.69186312237306e-02
3.30397959183673e-01 2.04558029382955e+00 1.68666903490424e-02
3.33030612244898e-01 2.03115913388438e+00 1.68143750901967e-02
3.35663265306122e-01 2.01683964184243e+00 1.67616983063563e-02
3.38295918367347e-01 2.00262110095392e+00 1.67086725759853e-02
3.40928571428571e-01 1.98850279952208e+00 1.66553102036470e-02
3.43561224489796e-01 1.97448403086754e+00 1.66016232266014e-02
3.46193877551020e-01 1.96056409329296e+00 1.65476234212016e-02
3.48826530612245e-01 1.94674229004789e+00 1.64933223090817e-02
3.51459183673469e-01 1.93301792929394e+00 1.64387311631827e-02
3.54091836734694e-01 1.91939032407011e+00 1.63838610135979e-02
3.56724489795918e-01 1.90585879225841e+00 1.63287226532340e-02
3.59357142857143e-01 1.89242265654974e+00 1.62733266433165e-02
3.61989795918367e-01 1.87908124440996e+00 1.62176833187329e-02
3.64622448979592e-01 1.86583388804624e+00 1.61618028026036e-02
3.67255102040816e-01 1.85267992434031e+00 1.61056949830036e-02
3.69887755102041e-01 1.83961869491597e+00 1.60493695368412e-02
3.72520408163265e-01 1.82664954600468e+00 1.59928359538166e-02
3.75153061224490e-01 1.81377182844693e+00 1.59361035121130e-02
3.77785714285714e-01 1.80098489765969e+00 1.58791812926093e-02
3.80418367346939e-01 1.78828811360424e+00 1.58220781832588e-02
3.83051020408163e-01 1.77568084075403e+00 1.57648028833505e-02
3.85683673469388e-01 1.76316244806294e+00 1.57073639076561e-02
3.88316326530612e-01 1.75073230893366e+00 1.56497695904684e-02
3.90948979591837e-01 1.73838980118633e+00 1.55920280895189e-02
3.93581632653061e-01 1.72613430702743e+00 1.55341473898013e-02
3.96214285714286e-01 1.71396521301880e+00 1.54761353073042e-02
3.98846938775510e-01 1.70188191004699e+00 1.54179994926348e-02
4.01479591836735e-01 1.68988379329275e+00 1.53597474345485e-02
4.04112244897959e-01 1.67797026220074e+00 1.53013864633895e-02
4.06744897959184e-01 1.66614072044949e+00 1.52429237544456e-02
4.09377551020408e-01 1.65439457592154e+00 1.51843663390643e-02
4.12010204081633e-01 1.64273124064748e+00 1.51257210841478e-02
4.14642857142857e-01 1.63115013085608e+00 1.50669947111262e-02
4.17275510204082e-01 1.61965066686489e+00 1.50081938150476e-02
4.19908163265306e-01 1.60823227307822e+00 1.49493248433246e-02
4.22540816326531e-01 1.59689437795827e+00 1.48903941067354e-02
4.25173469387755e-01 1.58563641399651e+00 1.48314077822350e-02
4.27806122448980e-01 1.57445781768532e+00 1.47723719156948e-02
4.30438775510204e-01 1.56335802948975e+00 1.47132924245819e-02
4.33071428571429e-01 1.55233649381952e+00 1.46541751005674e-02
4.35704081632653e-01 1.54139265900121e+00 1.45950256120729e-02
4.38336734693878e-01 1.53052597725066e+00 1.45358495067649e-02
4.40969387755102e-01 1.51973590464553e+00 1.44766522139835e-02
4.43602040816327e-01 1.50902190109810e+00 1.44174390471148e-02
4.46234693877551e-01 1.49838343032822e+00 1.43582152059092e-02
4.48867346938776e-01 1.48781995983645e+00 1.42989857787445e-02
4.51500000000000e-01 1.47733096087744e+00 1.42397557515148e-02
4.54132653061225e-01 1.46691590841214e+00 1.41805299896416e-02
4.56765306122449e-01 1.45657428114588e+00 1.41213132536769e-02
4.59397959183673e-01 1.44630556143748e+00 1.40621102150320e-02
4.62030612244898e-01 1.43610923529507e+00 1.40029254374057e-02
4.64663265306122e-01 1.42598479235039e+00 1.39437633856622e-02
4.67295918367347e-01 1.41593172583323e+00 1.38846284277601e-02
4.69928571428571e-01 1.40594953254606e+00 1.38255248366342e-02
4.72561224489796e-01 1.39603771283886e+00 1.37664567920418e-02
4.75193877551020e-01 1.38619577058409e+00 1.37074283823673e-02
4.77826530612245e-01 1.37642321315185e+00 1.36484436063779e-02
4.80459183673469e-01 1.36671955138527e+00 1.35895063749529e-02
4.83091836734694e-01 1.35708429957598e+00 1.35306205127730e-02
4.85724489795918e-01 1.34751697543980e+00 1.34717897599702e-02
4.88357142857143e-01 1.33801710009262e+00 1.34130177737437e-02
4.90989795918367e-01 1.32858419802644e+00 1.33543081299398e-02
4.93622448979592e-01 1.31921779708553e+00 1.32956643303048e-02
4.96255102040816e-01 1.30991742842539e+00 1.32370897867877e-02
4.98887755102041e-01 1.30068262654191e+00 1.31785878345429e-02
5.01520408163265e-01 1.29151292919510e+00 1.31201617450575e-02
5.04153061224490e-01 1.28240787740370e+00 1.30618147099897e-02
5.06785714285714e-01 1.27336701542226e+00 1.30035498484547e-02
5.09418367346939e-01 1.26438989071826e+00 1.29453702083894e-02
5.12051020408163e-01 1.25547605394953e+00 1.28872787678883e-02
5.14683673469388e-01 1.24662505894170e+00 1.28292784365086e-02
5.17316326530612e-01 1.23783646266589e+00 1.27713720565555e-02
5.19948979591837e-01 1.22910982521654e+00 1.27135624043307e-02
5.22581632653061e-01 1.22044470978938e+00 1.26558521913623e-02
5.25214285714286e-01 1.21184068265959e+00 1.25982440656157e-02
5.27846938775510e-01 1.20329731316006e+00 1.25407406126693e-02
5.30479591836735e-01 1.19481417365983e+00 1.24833443568714e-02
5.33112244897959e-01 1.18639083954274e+00 1.24260577624750e-02
5.35744897959184e-01 1.17802688918609e+00 1.23688832347495e-02
5.38377551020408e-01 1.16972190393963e+00 1.23118231259079e-02
5.41010204081633e-01 1.16147546809036e+00 1.22548797215685e-02
5.43642857142857e-01 1.15328716888454e+00 1.21980552515776e-02
5.46275510204082e-01 1.14515659646395e+00 1.21413519009472e-02
5.48908163265306e-01 1.13708334385985e+00 1.20847717959357e-02
5.51540816326531e-01 1.12906700697258e+00 1.20283170100370e-02
5.54173469387755e-01 1.12110718455138e+00 1.19719895649512e-02
5.56806122448980e-01 1.11320347817422e+00 1.19157914315324e-02
5.59438775510204e-01 1.10535549222796e+00 1.18597245307192e-02
5.62071428571429e-01 1.09756283388846e+00 1.18037907344457e-02
5.64704081632653e-01 1.08982511310098e+00 1.17479918665369e-02
5.67336734693878e-01 1.08214194256063e+00 1.16923297035892e-02
5.69969387755102e-01 1.07451293769297e+00 1.16368059758310e-02
5.72602040816327e-01 1.06693771663478e+00 1.15814223679671e-02
5.75234693877551e-01 1.05941590021497e+00 1.15261805200095e-02
5.77867346938776e-01 1.05194711193553e+00 1.14710820280899e-02
5.80500000000000e-01 1.04453097795277e+00 1.14161284494231e-02
5.83132653061225e-01 1.03716712704680e+00 1.13613212905264e-02
5.85765306122449e-01 1.02985519063842e+00 1.13066620163946e-02
5.88397959183673e-01 1.02259480273499e+00 1.12521520597817e-02
5.91030612244898e-01 1.01538559992412e+00 1.11977928091042e-02
5.93663265306122e-01 1.00822722135541e+00 1.11435856134729e-02
5.96295918367347e-01 1.00111930872243e+00 1.10895317834057e-02
5.98928571428571e-01 9.94061506244799e-01 1.10356325915290e-02
6.01561224489796e-01 9.87053460650338e-01 1.09818892732656e-02
6.04193877551020e-01 9.80094821157411e-01 1.09283030275089e-02
6.06826530612245e-01 9.73185239457359e-01 1.08748750172865e-02
6.09459183673469e-01 9.66324369697072e-01 1.08216063704097e-02
6.12091836734694e-01 9.59511868461672e-01 1.07684981801149e-02
6.14724489795918e-01 9.52747394757330e-01 1.07155515056898e-02
6.17357142857143e-01 9.46030609994190e-01 1.06627673730903e-02
6.19989795918367e-01 9.39361177969426e-01 1.06101467755465e-02
6.22622448979592e-01 9.32738764850412e-01 1.05576906777471e-02
6.25255102040816e-01 9.26163039148242e-01 1.05054000055886e-02
6.27887755102041e-01 9.19633671730634e-01 1.04532756539949e-02
6.30520408163265e-01 9.13150335775772e-01 1.04013184948386e-02
6.33153061224490e-01 9.06712706765906e-01 1.03495293664215e-02
6.35785714285714e-01 9.00320462471108e-01 1.02979090777296e-02
6.38418367346939e-01 8.93973282933142e-01 1.02464584089668e-02
6.41051020408163e-01 8.87670850449452e-01 1.01951781120797e-02
6.43683673469388e-01 8.81412849557253e-01 1.01440689112730e-02
6.46316326530612e-01 8.75198967017747e-01 1.00931315035157e-02
6.48948979591837e-01 8.69028891800440e-01 1.00423665590363e-02
6.51581632653061e-01 8.62902315067576e-01 9.99177472181126e-03
6.54214285714286e-01 8.56818930158681e-01 9.94135661004760e-03
6.56846938775510e-01 8.50778432575208e-01 9.89111281665405e-03
6.59479591836735e-01 8.44780519965301e-01 9.84104390970342e-03
6.62112244897959e-01 8.38824892108656e-01 9.79115043288875e-03
6.64744897959184e-01 8.32911250901494e-01 9.74143290597007e-03
6.67377551020408e-01 8.27039300341646e-01 9.69189182829000e-03
6.70010204081633e-01 8.21208746505645e-01 9.64252766992937e-03
6.72642857142857e-01 8.15419297558417e-01 9.59334087833479e-03
6.75275510204082e-01 8.09670663714127e-01 9.54433188503628e-03
6.77908163265306e-01 8.03962557229901e-01 9.49550109657958e-03
6.80540816326531e-01 7.98294692391429e-01 9.44684889810538e-03
6.83173469387755e-01 7.92666785498661e-01 9.39837565374637e-03
6.85806122448980e-01 7.87078554851608e-01 9.35008170701616e-03
6.88438775510204e-01 7.81529720736240e-01 9.30196738119379e-03
6.91071428571429e-01 7.76020005410487e-01 9.25403297969981e-03
6.93704081632653e-01 7.70549133090334e-01 9.20627878646396e-03
6.96336734693878e-01 7.65116829936022e-01 9.15870506629170e-03
6.98969387755102e-01 7.59722824038337e-01 9.11131206522160e-03
7.01602040816327e-01 7.54366845405004e-01 9.06410001087636e-03
7.04234693877551e-01 7.49048625947165e-01 9.01706911280910e-03
7.06867346938776e-01 7.43767899465969e-01 8.97021956284247e-03
7.09500000000000e-01 7.38524401639241e-01 8.92355153806707e-03
7.12132653061225e-01 7.33317870001464e-01 8.87706519313398e-03
7.14765306122449e-01 7.28148043951138e-01 8.83076066595274e-03
7.17397959183673e-01 7.23014664717112e-01 8.78463808346329e-03
7.20030612244898e-01 7.17917475352549e-01 8.73869755373910e-03
7.22663265306122e-01 7.12856220722065e-01 8.69293916904643e-03
7.25295918367347e-01 7.07830647488959e-01 8.64736300614567e-03
7.27928571428571e-01 7.02840504102529e-01 8.60196912658920e-03
7.30561224489796e-01 6.97885540785486e-01 8.55675757701250e-03
7.33193877551020e-01 6.92965509521447e-01 8.51172838942188e-03
7.35826530612245e-01 6.88080164042520e-01 8.46688158147525e-03
7.38459183673469e-01 6.83229259816986e-01 8.42221715676015e-03
7.41091836734694e-01 6.78412554037049e-01 8.37773510506847e-03
7.43724489795918e-01 6.73629805606689e-01 8.33343540266376e-03
7.46357142857143e-01 6.68880775129591e-01 8.28931801254543e-03
7.48989795918367e-01 6.64165224897162e-01 8.24538288470806e-03
7.51622448979592e-01 6.59482918876635e-01 8.20162995870840e-03
7.54255102040816e-01 6.54833622693528e-01 8.15805915694462e-03
7.56887755102041e-01 6.50217103637191e-01 8.11467038956537e-03
7.59520408163265e-01 6.45633130631773e-01 8.07146355944591e-03
7.62153061224490e-01 6.41081474230491e-01 8.02843855530498e-03
7.64785714285714e-01 6.36561906604140e-01 7.98559525432714e-03
7.67418367346939e-01 6.32074201529690e-01 7.94293352239339e-03
7.70051020408163e-01 6.27618134378966e-01 7.90045321430929e-03
7.72683673469388e-01 6.23193482107398e-01 7.85815417402790e-03
7.75316326530612e-01 6.18800023242865e-01 7.81603623486990e-03
7.77948979591837e-01 6.14437537874601e-01 7.77409921973962e-03
7.80581632653061e-01 6.10105807642192e-01 7.73234294133727e-03
7.83214285714286e-01 6.05804615724648e-01 7.69076720236950e-03
7.85846938775510e-01 6.01533746829547e-01 7.64937179575432e-03
7.88479591836735e-01 5.97292987182260e-01 7.60815650482359e-03
7.91112244897959e-01 5.93082124515249e-01 7.56712110352248e-03
7.93744897959184e-01 5.88900948057446e-01 7.52626535660494e-03
7.96377551020408e-01 5.84749248523697e-01 7.48558902181746e-03
7.99010204081633e-01 5.80626818099502e-01 7.44509184408364e-03
8.01642857142857e-01 5.76533450445066e-01 7.40477355970530e-03
8.04275510204082e-01 5.72468940670430e-01 7.36463390062289e-03
8.06908163265306e-01 5.68433085330090e-01 7.32467258846249e-03
8.09540816326531e-01 5.64425682412816e-01 7.28488933676908e-03
8.12173469387755e-01 5.60446531331538e-01 7.24528385117976e-03
8.14806122448980e-01 5.56495432913310e-01 7.20585582959647e-03
8.17438775510204e-01 5.52572189389334e-01 7.16660496235544e-03
8.20071428571429e-01 5.48676604385066e-01 7.12753093239138e-03
8.22704081632653e-01 5.44808482910386e-01 7.08863341540212e-03
8.25336734693878e-01 5.40967631349836e-01 7.04991208000892e-03
8.27969387755102e-01 5.37153857452932e-01 7.01136658791424e-03
8.30602040816327e-01 5.33366970324536e-01 6.97299659405865e-03
