Energy (eV)          EEDF (eV^-(3/2))     First Anisotropy
5.83928571428571e-02 3.84848190501745e-02 2.72094415303119e-05
1.75178571428571e-01 3.80130755445912e-02 4.48057728381176e-05
2.91964285714286e-01 3.75471146270719e-02 5.88191349680655e-05
4.08750000000000e-01 3.70868654183964e-02 6.92667570318665e-05
5.25535714285714e-01 3.66322579041583e-02 7.78175254439247e-05
6.42321428571429e-01 3.61832229287678e-02 8.51075785497582e-05
7.59107142857143e-01 3.57396921838789e-02 9.14686710161069e-05
8.75892857142857e-01 3.53015981998164e-02 9.71026501015279e-05
9.92678571428571e-01 3.48688743331621e-02 1.02144375198232e-04
1.10946428571429e+00 3.44414547566231e-02 1.06689856289081e-04
1.22625000000000e+00 3.40192744530111e-02 1.10810674838188e-04
1.34303571428571e+00 3.36022691962606e-02 1.14562109590196e-04
1.45982142857143e+00 3.31903755544240e-02 1.17988050685590e-04
1.57660714285714e+00 3.27835308667988e-02 1.21124137579523e-04
1.69339285714286e+00 3.23816732465600e-02 1.23999852007968e-04
1.81017857142857e+00 3.19847415623851e-02 1.26639965960239e-04
1.92696428571429e+00 3.15926754304404e-02 1.29065571418009e-04
2.04375000000000e+00 3.12054152112866e-02 1.31294834289322e-04
2.16053571428571e+00 3.08229019925623e-02 1.33343556735835e-04
2.27732142857143e+00 3.04450775877930e-02 1.35225605216458e-04
2.39410714285714e+00 3.00718845202052e-02 1.36953241850503e-04
2.51089285714286e+00 2.97032660209200e-02 1.38537384463230e-04
2.62767857142857e+00 2.93391660151609e-02 1.39987814283943e-04
2.74446428571429e+00 2.89795291142737e-02 1.41313341908873e-04
2.86125000000000e+00 2.86243006112362e-02 1.42521943640294e-04
2.97803571428571e+00 2.82734264670546e-02 1.43620873002529e-04
3.09482142857143e+00 2.79268533075902e-02 1.44616753283677e-04
3.21160714285714e+00 2.75845284106137e-02 1.45515654979647e-04
3.32839285714286e+00 2.72463997024052e-02 1.46323160863798e-04
3.44517857142857e+00 2.69124157463881e-02 1.47044421763271e-04
3.56196428571429e+00 2.65825257356033e-02 1.47684203113188e-04
3.67875000000000e+00 2.62566794877633e-02 1.48246925945467e-04
3.79553571428571e+00 2.59348274338955e-02 1.48736701822245e-04
3.91232142857143e+00 2.56169206143861e-02 1.49157363208274e-04
4.02910714285714e+00 2.53029106680798e-02 1.49512490013496e-04
4.14589285714286e+00 2.49927498282512e-02 1.49805432712612e-04
4.26267857142857e+00 2.46863909128531e-02 1.50039333165326e-04
4.37946428571429e+00 2.43837873175248e-02 1.50217142129634e-04
4.49625000000000e+00 2.40848930105779e-02 1.50341635635003e-04
4.61303571428571e+00 2.37896625232212e-02 1.50415429164781e-04
4.72982142857143e+00 2.34980509453265e-02 1.50440990364862e-04
4.84660714285714e+00 2.32100139160008e-02 1.50420650469594e-04
4.96339285714286e+00 2.29255076193516e-02 1.50356614456170e-04
5.08017857142857e+00 2.26444887759433e-02 1.50250970595120e-04
5.19696428571429e+00 2.23669146363378e-02 1.50105698337939e-04
5.31375000000000e+00 2.20927429761953e-02 1.49922676177256e-04
5.43053571428571e+00 2.18219320877099e-02 1.49703688454180e-04
5.54732142857143e+00 2.15544407753437e-02 1.49450431594685e-04
5.66410714285714e+00 2.12902283475419e-02 1.49164519833878e-04
5.78089285714286e+00 2.10292546125024e-02 1.48847490356130e-04
5.89767857142857e+00 2.07714798705974e-02 1.48500808345022e-04
6.01446428571429e+00 2.05168649084211e-02 1.48125870986243e-04
6.13125000000000e+00 2.02653709940964e-02 1.47724011761656e-04
6.24803571428571e+00 2.00169598696871e-02 1.47296504121404e-04
6.36482142857143e+00 1.97715937470277e-02 1.46844564908393e-04
6.48160714285714e+00 1.95292353003697e-02 1.46369357553327e-04
6.59839285714286e+00 1.92898476622662e-02 1.45871994953781e-04
6.71517857142857e+00 1.90533944167953e-02 1.45353542436831e-04
6.83196428571429e+00 1.88198395940845e-02 1.44815019965578e-04
6.94875000000000e+00 1.85891476658654e-02 1.44257404720461e-04
7.06553571428571e+00 1.83612835387009e-02 1.43681633257109e-04
7.18232142857143e+00 1.81362125499801e-02 1.43088603549761e-04
7.29910714285714e+00 1.79139004613455e-02 1.42479176924056e-04
7.41589285714286e+00 1.76943134547524e-02 1.41854179795676e-04
7.53267857142857e+00 1.74774181263758e-02 1.41214405550863e-04
7.64946428571429e+00 1.72631814815784e-02 1.40560615835735e-04
7.76625000000000e+00 1.70515709307317e-02 1.39893542225578e-04
7.88303571428571e+00 1.68425542831378e-02 1.39213887577851e-04
7.99982142857143e+00 1.66360997432264e-02 1.38522327331445e-04
8.11660714285714e+00 1.64321759046503e-02 1.37819510750379e-04
8.23339285714286e+00 1.62307517465502e-02 1.37106062035984e-04
8.35017857142857e+00 1.60317966280563e-02 1.36382581595720e-04
8.46696428571429e+00 1.58352802836644e-02 1.35649646827882e-04
8.58375000000000e+00 1.56411728193288e-02 1.34907813264316e-04
8.70053571428571e+00 1.54494447069866e-02 1.34157615462576e-04
8.81732142857143e+00 1.52600667809726e-02 1.33399567874018e-04
8.93410714285714e+00 1.50730102326962e-02 1.32634165683788e-04
9.05089285714286e+00 1.48882466071257e-02 1.31861885554992e-04
9.16767857142857e+00 1.47057477978115e-02 1.31083186526913e-04
9.28446428571429e+00 1.45254860426396e-02 1.30298510505716e-04
9.40125000000000e+00 1.43474339201921e-02 1.29508283082596e-04
9.51803571428571e+00 1.41715643447984e-02 1.28712914145912e-04
9.63482142857143e+00 1.39978505631753e-02 1.27912798484489e-04
9.75160714285714e+00 1.38262661496134e-02 1.27108316377244e-04
9.86839285714286e+00 1.36567850026847e-02 1.26299834109165e-04
9.98517857142857e+00 1.34893813407282e-02 1.25487704541465e-04
1.01019642857143e+01 1.33240296984370e-02 1.24672267667724e-04
1.02187500000000e+01 1.31607049221592e-02 1.23853851360774e-04
1.03355357142857e+01 1.29993821651864e-02 1.23032770818646e-04
1.04523214285714e+01 1.28400368885273e-02 1.22209329728664e-04
1.05691071428571e+01 1.26826448523924e-02 1.21383821263443e-04
1.06858928571429e+01 1.25271821141222e-02 1.20556527563340e-04
1.08026785714286e+01 1.23736250245410e-02 1.19727720430078e-04
1.09194642857143e+01 1.22219502243666e-02 1.18897661695213e-04
1.10362500000000e+01 1.20721346406534e-02 1.18066603832966e-04
1.11530357142857e+01 1.19241554819614e-02 1.17234789514015e-04
1.12698214285714e+01 1.17779902389005e-02 1.16402452457175e-04
1.13866071428571e+01 1.16336166766446e-02 1.15569818277042e-04
1.15033928571429e+01 1.14910128329206e-02 1.14737103971013e-04
1.16201785714286e+01 1.13501570146647e-02 1.13904518478574e-04
1.17369642857143e+01 1.12110277947278e-02 1.13072262956690e-04
1.18537500000000e+01 1.10736040086133e-02 1.12240531274336e-04
1.19705357142857e+01 1.09378647501290e-02 1.11409509572413e-04
1.20873214285714e+01 1.08037893716328e-02 1.10579376974839e-04
1.22041071428571e+01 1.06713574774239e-02 1.09750306298678e-04
1.23208928571429e+01 1.05405489218103e-02 1.08922463562088e-04
1.24376785714286e+01 1.04113438060426e-02 1.08096008443397e-04
1.25544642857143e+01 1.02837224752905e-02 1.07271094490819e-04
1.26712500000000e+01 1.01576655156516e-02 1.06447869528419e-04
1.27880357142857e+01 1.00331537502288e-02 1.05626475234619e-04
1.29048214285714e+01 9.91016823915338e-03 1.04807047743558e-04
1.30216071428571e+01 9.78869027372875e-03 1.03989718247317e-04
1.31383928571429e+01 9.66870137458788e-03 1.03174612532927e-04
1.32551785714286e+01 9.55018328888079e-03 1.02361851364530e-04
1.33719642857143e+01 9.43311798750127e-03 1.01551550645564e-04
1.34887500000000e+01 9.31748766234254e-03 1.00743821756618e-04
1.36055357142857e+01 9.20327472275327e-03 9.99387711587743e-05
1.37223214285714e+01 9.09046179539553e-03 9.91365009073235e-05
1.38391071428571e+01 8.97903171903824e-03 9.83371091674009e-05
1.39558928571429e+01 8.86896754281133e-03 9.75406897834851e-05
1.40726785714286e+01 8.76025252362581e-03 9.67473326011481e-05
1.41894642857143e+01 8.65287012362962e-03 9.59571235940968e-05
1.43062500000000e+01 8.54680400769038e-03 9.51701451484706e-05
1.44230357142857e+01 8.44203804018816e-03 9.43864756936853e-05
1.45398214285714e+01 8.33855628475261e-03 9.36061901448042e-05
1.46566071428571e+01 8.23634299962159e-03 9.28293603474250e-05
1.47733928571429e+01 8.13538263599423e-03 9.20560546804615e-05
1.48901785714286e+01 8.03565983566454e-03 9.12863383295396e-05
1.50069642857143e+01 7.93715942868735e-03 9.05202733875440e-05
1.51237500000000e+01 7.83986643106947e-03 8.97579190960117e-05
1.52405357142857e+01 7.74376604186343e-03 8.89993315040876e-05
1.53573214285714e+01 7.64884364281774e-03 8.82445638519356e-05
1.54741071428571e+01 7.55508479422966e-03 8.74936669569622e-05
1.55908928571429e+01 7.46247523339714e-03 8.67466888491747e-05
1.57076785714286e+01 7.37100087244828e-03 8.60036750052435e-05
1.58244642857143e+01 7.28064779620014e-03 8.52646684287689e-05
1.59412500000000e+01 7.19140226004098e-03 8.45297098567753e-05
1.60580357142857e+01 7.10325068729371e-03 8.37988374461847e-05
1.61748214285714e+01 7.01617966880585e-03 8.30720871078851e-05
1.62916071428571e+01 6.93017595923580e-03 8.23494928437356e-05
1.64083928571429e+01 6.84522647560233e-03 8.16310864130007e-05
1.65251785714286e+01 6.76131829529353e-03 8.09168975339804e-05
1.66419642857143e+01 6.67843865410266e-03 8.02069539485322e-05
1.67587500000000e+01 6.59657494428556e-03 7.95012815997969e-05
1.68755357142857e+01 6.51571471216654e-03 7.87999043449611e-05
1.69923214285714e+01 6.43584565768830e-03 7.81028442476216e-05
1.71091071428571e+01 6.35695563108037e-03 7.74101218730699e-05
1.72258928571429e+01 6.27903263150321e-03 7.67217559838716e-05
1.73426785714286e+01 6.20206480522193e-03 7.60377637144803e-05
1.74594642857143e+01 6.12604044380443e-03 7.53581606233870e-05
1.75762500000000e+01 6.05094798233961e-03 7.46829608468643e-05
1.76930357142857e+01 5.97677599726149e-03 7.40121768364592e-05
1.78098214285714e+01 5.90351320587484e-03 7.33458196157882e-05
1.79266071428571e+01 5.83114846336156e-03 7.26838990401815e-05
1.80433928571429e+01 5.75967076151583e-03 7.20264235193233e-05
1.81601785714286e+01 5.68906922706898e-03 7.13734001691198e-05
1.82769642857143e+01 5.61933312003653e-03 7.07248348540397e-05
1.83937500000000e+01 5.55045183208384e-03 7.00807323206956e-05
1.85105357142857e+01 5.48241488454714e-03 6.94410959583310e-05
1.86273214285714e+01 5.41521192794692e-03 6.88059280250805e-05
1.87441071428571e+01 5.34883273929413e-03 6.81752298769589e-05
1.88608928571429e+01 5.28326722091226e-03 6.75490017154318e-05
1.89776785714286e+01 5.21850539890085e-03 6.69272427200018e-05
1.90944642857143e+01 5.15453742161914e-03 6.63099510826984e-05
1.92112500000000e+01 5.09135355818697e-03 6.56971241245608e-05
1.93280357142857e+01 5.02894419668370e-03 6.50887580773775e-05
1.94448214285714e+01 4.96729984365867e-03 6.44848482835630e-05
1.95616071428571e+01 4.90641112170396e-03 6.38853893986134e-05
1.96783928571429e+01 4.84626876835911e-03 6.32903751615710e-05
1.97951785714286e+01 4.78686363470180e-03 6.26997985111307e-05
1.99119642857143e+01 4.72818668395680e-03 6.21136516137888e-05
2.00287500000000e+01 4.67022899012091e-03 6.15319259657585e-05
2.01455357142857e+01 4.61298173632286e-03 6.09546121942274e-05
2.02623214285714e+01 4.55643621433785e-03 6.03817002343283e-05
2.03791071428571e+01 4.50058382239794e-03 5.98131795085419e-05
2.04958928571429e+01 4.44541606417494e-03 5.92490387180723e-05
2.06126785714286e+01 4.39092454748764e-03 5.86892659448059e-05
2.07294642857143e+01 4.33710098302580e-03 5.81338486743209e-05
2.08462500000000e+01 4.28393718308886e-03 5.75827738852865e-05
2.09630357142857e+01 4.23142506009156e-03 5.70360278686039e-05
2.10798214285714e+01 4.17955662608798e-03 5.64935963844088e-05
2.11966071428571e+01 4.12832399079410e-03 5.59554648213511e-05
2.13133928571429e+01 4.07771936064437e-03 5.54216180070339e-05
2.14301785714286e+01 4.02773503760581e-03 5.48920402977563e-05
2.15469642857143e+01 3.97836341800760e-03 5.43667155973379e-05
2.16637500000000e+01 3.92959699138406e-03 5.38456274357240e-05
2.17805357142857e+01 3.88142833911249e-03 5.33287588044580e-05
2.18973214285714e+01 3.83385013395049e-03 5.28160922962188e-05
2.20141071428571e+01 3.78685513824852e-03 5.23076102464646e-05
2.21308928571429e+01 3.74043620307555e-03 5.18032945612229e-05
2.22476785714286e+01 3.69458626713130e-03 5.13031267962571e-05
2.23644642857143e+01 3.64929835567257e-03 5.08070881724481e-05
2.24812500000000e+01 3.60456557945197e-03 5.03151596450525e-05
2.25980357142857e+01 3.56038113347571e-03 4.98273217540759e-05
2.27148214285714e+01 3.51673829655703e-03 4.93435547484704e-05
2.28316071428571e+01 3.47363042969905e-03 4.88638387122836e-05
2.29483928571429e+01 3.43105097528516e-03 4.83881534082295e-05
2.30651785714286e+01 3.38899345608127e-03 4.79164783476415e-05
2.31819642857143e+01 3.34745147425086e-03 4.74487928030283e-05
2.32987500000000e+01 3.30641871038157e-03 4.69850758692106e-05
2.34155357142857e+01 3.26588892235195e-03 4.65253063272588e-05
2.35323214285714e+01 3.22585594490290e-03 4.60694627551889e-05
2.36491071428571e+01 3.18631368817342e-03 4.56175236404553e-05
2.37658928571429e+01 3.14725613695152e-03 4.51694672378607e-05
2.38826785714286e+01 3.10867734975901e-03 4.47252716314701e-05
2.39994642857143e+01 3.07057145794801e-03 4.42849147448333e-05
2.41162500000000e+01 3.03293266480801e-03 4.38483743950337e-05
2.42330357142857e+01 2.99575524453175e-03 4.34156281689708e-05
2.43498214285714e+01 2.95903354180589e-03 4.29866535221412e-05
2.44666071428571e+01 2.92276197048425e-03 4.25614278790759e-05
2.45833928571429e+01 2.88693501289520e-03 4.21399285042642e-05
2.47001785714286e+01 2.85154721900209e-03 4.17221325570290e-05
2.48169642857143e+01 2.81659320557451e-03 4.13080170998193e-05
2.49337500000000e+01 2.78206765536924e-03 4.08975591460634e-05
2.50505357142857e+01 2.74796531618619e-03 4.04907355476785e-05
2.51673214285714e+01 2.71428100047905e-03 4.00875230833073e-05
2.52841071428571e+01 2.68100958415239e-03 3.96878985480905e-05
2.54008928571429e+01 2.64814600592151e-03 3.92918386364030e-05
2.55176785714286e+01 2.61568526654236e-03 3.88993199905484e-05
2.56344642857143e+01 2.58362242805135e-03 3.85103192074580e-05
2.57512500000000e+01 2.55195261301401e-03 3.81248128811082e-05
2.58680357142857e+01 2.52067100366299e-03 3.77427775002288e-05
2.59848214285714e+01 2.48977284152897e-03 3.73641895272084e-05
2.61016071428571e+01 2.45925342634932e-03 3.69890254784059e-05
2.62183928571429e+01 2.42910811547683e-03 3.66172618176025e-05
2.63351785714286e+01 2.39933232317334e-03 3.62488749992627e-05
2.64519642857143e+01 2.36992151991241e-03 3.58838414739107e-05
2.65687500000000e+01 2.34087123169014e-03 3.55221377257736e-05
2.66855357142857e+01 2.31217703923781e-03 3.51637401797540e-05
2.68023214285714e+01 2.28383457767313e-03 3.48086252720554e-05
2.69191071428571e+01 2.25583953550949e-03 3.44567695220891e-05
2.70358928571429e+01 2.22818765411013e-03 3.41081494356483e-05
2.71526785714286e+01 2.20087472704018e-03 3.37627415433888e-05
2.72694642857143e+01 2.17389659942699e-03 3.34205224050979e-05
2.73862500000000e+01 2.14724916732800e-03 3.30814686431369e-05
2.75030357142857e+01 2.12092837701141e-03 3.27455568578351e-05
2.76198214285714e+01 2.09493022462737e-03 3.24127636907480e-05
2.77366071428571e+01 2.06925075530820e-03 3.20830658890931e-05
2.78533928571429e+01 2.04388606266466e-03 3.17564402177471e-05
2.79701785714286e+01 2.01883228819162e-03 3.14328634935021e-05
2.80869642857143e+01 1.99408562068122e-03 3.11123125884182e-05
2.82037500000000e+01 1.96964229564310e-03 3.07947644595583e-05
2.83205357142857e+01 1.94549859464704e-03 3.04801960720327e-05
2.84373214285714e+01 1.92165084501377e-03 3.01685844557017e-05
2.85541071428571e+01 1.89809541899727e-03 2.98599067629580e-05
2.86708928571429e+01 1.87482873332011e-03 2.95541401887264e-05
2.87876785714286e+01 1.85184724862834e-03 2.92512620009832e-05
2.89044642857143e+01 1.82914746895312e-03 2.89512495433560e-05
2.90212500000000e+01 1.80672594117896e-03 2.86540802615805e-05
2.91380357142857e+01 1.78457925444286e-03 2.83597316334896e-05
2.92548214285714e+01 1.76270403984410e-03 2.80681812198761e-05
2.93716071428571e+01 1.74109696970089e-03 2.77794067163448e-05
2.94883928571429e+01 1.71975475712189e-03 2.74933858805752e-05
2.96051785714286e+01 1.69867415550610e-03 2.72100965595320e-05
2.97219642857143e+01 1.67785195804918e-03 2.69295166914349e-05
2.98387500000000e+01 1.65728499725548e-03 2.66516243293194e-05
2.99555357142857e+01 1.63697014438896e-03 2.63763975773387e-05
3.00723214285714e+01 1.61690430920110e-03 2.61038146364133e-05
3.01891071428571e+01 1.59708443925493e-03 2.58338538507873e-05
3.03058928571429e+01 1.57750751952997e-03 2.55664936418839e-05
3.04226785714286e+01 1.55817057196357e-03 2.53017125325829e-05
3.05394642857143e+01 1.53907065499794e-03 2.50394891486709e-05
3.06562500000000e+01 1.52020486313268e-03 2.47798022398354e-05
3.07730357142857e+01 1.50157032642265e-03 2.45226306216993e-05
3.08898214285714e+01 1.48316421022347e-03 2.42679532168174e-05
3.10066071428571e+01 1.46498371457644e-03 2.40157490965024e-05
3.11233928571429e+01 1.44702607384455e-03 2.37659974206646e-05
3.12401785714286e+01 1.42928855629165e-03 2.35186774594826e-05
3.13569642857143e+01 1.41176846366704e-03 2.32737685944252e-05
3.14737500000000e+01 1.39446313079493e-03 2.30312503369728e-05
3.15905357142857e+01 1.37736992511533e-03 2.27911022758589e-05
3.17073214285714e+01 1.36048624644626e-03 2.25533041139064e-05
3.18241071428571e+01 1.34380952642392e-03 2.23178357056243e-05
3.19408928571429e+01 1.32733722816729e-03 2.20846770024770e-05
3.20576785714286e+01 1.31106684589217e-03 2.18538080722443e-05
3.21744642857143e+01 1.29499590453012e-03 2.16252090996892e-05
3.22912500000000e+01 1.27912195935184e-03 2.13988604032581e-05
3.24080357142857e+01 1.26344259554731e-03 2.11747423870585e-05
3.25248214285714e+01 1.24795542800387e-03 2.09528355739718e-05
3.26416071428571e+01 1.23265810079655e-03 2.07331206394623e-05
3.27583928571429e+01 1.21754828687909e-03 2.05155783617829e-05
3.28751785714286e+01 1.20262368772993e-03 2.03001896392741e-05
3.29919642857143e+01 1.18788203300263e-03 2.00869354907429e-05
3.31087500000000e+01 1.17332108018047e-03 1.98757970703711e-05
3.32255357142857e+01 1.15893861419232e-03 1.96667556239912e-05
3.33423214285714e+01 1.14473244720584e-03 1.94597925188691e-05
3.34591071428571e+01 1.13070041816329e-03 1.92548892741222e-05
3.35758928571429e+01 1.11684039249697e-03 1.90520275154017e-05
3.36926785714286e+01 1.10315026180449e-03 1.88511889903631e-05
3.38094642857143e+01 1.08962794352812e-03 1.86523555688097e-05
3.39262500000000e+01 1.07627138063794e-03 1.84555092560026e-05
3.40430357142857e+01 1.06307854128046e-03 1.82606321528485e-05
3.41598214285714e+01 1.05004741858602e-03 1.80677064826962e-05
3.42766071428571e+01 1.03717603024592e-03 1.78767146187158e-05
3.43933928571429e+01 1.02446241825039e-03 1.76876390426500e-05
3.45101785714286e+01 1.01190464859078e-03 1.75004623586516e-05
3.46269642857143e+01 9.99500810965373e-04 1.73151672932368e-05
3.47437500000000e+01 9.87249018488747e-04 1.71317367071775e-05
3.48605357142857e+01 9.75147407370322e-04 1.69501535592406e-05
3.49773214285714e+01 9.63194136735164e-04 1.67704009303093e-05
3.50941071428571e+01 9.51387388238600e-04 1.65924620480349e-05
3.52108928571429e+01 9.39725365825072e-04 1.64163202492872e-05
3.53276785714286e+01 9.28206295454890e-04 1.62419589925357e-05
3.54444642857143e+01 9.16828424834415e-04 1.60693618576507e-05
3.55612500000000e+01 9.05590023149469e-04 1.58985125565304e-05
3.56780357142857e+01 8.94489380771168e-04 1.57293949000729e-05
3.57948214285714e+01 8.83524809089369e-04 1.55619928198969e-05
3.59116071428571e+01 8.72694640161375e-04 1.53962903905459e-05
3.60283928571429e+01 8.61997226489989e-04 1.52322717952959e-05
3.61451785714286e+01 8.51430940772873e-04 1.50699213372441e-05
3.62619642857143e+01 8.40994175655039e-04 1.49092234389851e-05
3.63787500000000e+01 8.30685343484318e-04 1.47501626521111e-05
3.64955357142857e+01 8.20502876042156e-04 1.45927236271252e-05
3.66123214285714e+01 8.10445224388907e-04 1.44368911330056e-05
3.67291071428571e+01 8.00510858543553e-04 1.42826500772117e-05
3.68458928571429e+01 7.90698267279452e-04 1.41299854745481e-05
