Energy (eV)          EEDF (eV^-(3/2))     First Anisotropy
3.41000000000000e-02 1.10981543562921e+00 1.78436002645269e-03
1.02300000000000e-01 1.03574025602205e+00 2.85776048569853e-03
1.70500000000000e-01 9.66609260878050e-01 3.54459828459670e-03
2.38700000000000e-01 9.02092448162333e-01 3.94393529160435e-03
3.06900000000000e-01 8.41881841988867e-01 4.18638222605058e-03
3.75100000000000e-01 7.85690022474308e-01 4.32599717378891e-03
4.43300000000000e-01 7.33248753717439e-01 4.39285533890317e-03
5.11500000000000e-01 6.84307703354804e-01 4.40617915034900e-03
5.79700000000000e-01 6.38633247580232e-01 4.37927340886051e-03
6.47900000000000e-01 5.96007355923931e-01 4.32182592027978e-03
7.16100000000000e-01 5.56226550467540e-01 4.24113674072070e-03
7.84300000000000e-01 5.19100934526899e-01 4.14284049864120e-03
8.52500000000000e-01 4.84453286165860e-01 4.03136176460225e-03
9.20700000000000e-01 4.52118212213965e-01 3.91021808239078e-03
9.88900000000000e-01 4.21941358749642e-01 3.78223043456778e-03
1.05710000000000e+00 3.93778674280078e-01 3.64967454711423e-03
1.12530000000000e+00 3.67495722100524e-01 3.51439277743169e-03
1.19350000000000e+00 3.42967038550512e-01 3.37787881059301e-03
1.26170000000000e+00 3.20075534103587e-01 3.24134303567810e-03
1.32990000000000e+00 2.98711934431588e-01 3.10576384409554e-03
1.39810000000000e+00 2.78774258775380e-01 2.97192844354738e-03
1.46630000000000e+00 2.60167333131985e-01 2.84046571482415e-03
1.53450000000000e+00 2.42802335934278e-01 2.71187292895746e-03
1.60270000000000e+00 2.26596374054520e-01 2.58653765815011e-03
1.67090000000000e+00 2.11472087107737e-01 2.46475587625014e-03
1.73910000000000e+00 1.97357278166078e-01 2.34674700428649e-03
1.80730000000000e+00 1.84184569121309e-01 2.23266648253271e-03
1.87550000000000e+00 1.71891079050325e-01 2.12261632239320e-03
1.94370000000000e+00 1.60418124048302e-01 2.01665399560328e-03
2.01190000000000e+00 1.49710937096637e-01 1.91479994564447e-03
2.08010000000000e+00 1.39718406628447e-01 1.81704395058511e-03
2.14830000000000e+00 1.30392832543632e-01 1.72335052333801e-03
2.21650000000000e+00 1.21689698508844e-01 1.63366350143232e-03
2.28470000000000e+00 1.13567459455396e-01 1.54790995155758e-03
2.35290000000000e+00 1.05987343260743e-01 1.46600349269247e-03
2.42110000000000e+00 9.89131656668111e-02 1.38784712435604e-03
2.48930000000000e+00 9.23111575517142e-02 1.31333563249554e-03
2.55750000000000e+00 8.61498037302897e-02 1.24235763406276e-03
2.62570000000000e+00 8.03996925139805e-02 1.17479731189964e-03
2.69390000000000e+00 7.50333753119147e-02 1.11053588374848e-03
2.76210000000000e+00 7.00252356029802e-02 1.04945284270632e-03
2.83030000000000e+00 6.53513666534237e-02 9.91427001009382e-04
2.89850000000000e+00 6.09894573962484e-02 9.36337364467562e-04
2.96670000000000e+00 5.69186859276481e-02 8.84063861014638e-04
3.03490000000000e+00 5.31196201120741e-02 8.34487943574863e-04
3.10310000000000e+00 4.95741248214663e-02 7.87493084668948e-04
3.17130000000000e+00 4.62652753658476e-02 7.42965177812938e-04
3.23950000000000e+00 4.31772767020356e-02 7.00792858735086e-04
3.30770000000000e+00 4.02953880348096e-02 6.60867757694890e-04
3.37590000000000e+00 3.76058524506093e-02 6.23084692690368e-04
3.44410000000000e+00 3.50958312478669e-02 5.87341812047343e-04
3.51230000000000e+00 3.27533426504947e-02 5.53540693767703e-04
3.58050000000000e+00 3.05672046119700e-02 5.21586408046215e-04
3.64870000000000e+00 2.85269814369901e-02 4.91387548526282e-04
3.71690000000000e+00 2.66229339658917e-02 4.62856237135942e-04
3.78510000000000e+00 2.48459730840352e-02 4.35908106710960e-04
3.85330000000000e+00 2.31876163342288e-02 4.10462265059226e-04
3.92150000000000e+00 2.16399474250767e-02 3.86441243638712e-04
3.98970000000000e+00 2.01955784419640e-02 3.63770933600595e-04
4.05790000000000e+00 1.88476145802871e-02 3.42380511581691e-04
4.12610000000000e+00 1.75896212325823e-02 3.22202357309192e-04
4.19430000000000e+00 1.64155932724403e-02 3.03171964799863e-04
4.26250000000000e+00 1.53199263885813e-02 2.85227848690207e-04
4.33070000000000e+00 1.42973903322509e-02 2.68311447019191e-04
4.39890000000000e+00 1.33431039502318e-02 2.52367021597065e-04
4.46710000000000e+00 1.24525118842904e-02 2.37341556929365e-04
4.53530000000000e+00 1.16213628258288e-02 2.23184658521263e-04
4.60350000000000e+00 1.08456892219422e-02 2.09848451261707e-04
4.67170000000000e+00 1.01217883360048e-02 1.97287478476857e-04
4.73990000000000e+00 9.44620457237624e-03 1.85458602146422e-04
4.80810000000000e+00 8.81571298085478e-03 1.74320904692775e-04
4.87630000000000e+00 8.22730386213322e-03 1.63835592679851e-04
4.94450000000000e+00 7.67816840077171e-03 1.53965902695361e-04
5.01270000000000e+00 7.16568525710478e-03 1.44677009634782e-04
5.08090000000000e+00 6.68740805407811e-03 1.35935937557770e-04
5.14910000000000e+00 6.24105369928263e-03 1.27711473246350e-04
5.21730000000000e+00 5.82449148644017e-03 1.19974082558538e-04
5.28550000000000e+00 5.43573292431588e-03 1.12695829640398e-04
5.35370000000000e+00 5.07292224450489e-03 1.05850299033207e-04
5.42190000000000e+00 4.73432754278143e-03 9.94125206899612e-05
5.49010000000000e+00 4.41833251172302e-03 9.33588978963722e-05
5.55830000000000e+00 4.12342872514469e-03 8.76671380753699e-05
5.62650000000000e+00 3.84820843751251e-03 8.23161864406171e-05
5.69470000000000e+00 3.59135786396377e-03 7.72861624532676e-05
5.76290000000000e+00 3.35165090885555e-03 7.25582990269375e-05
5.83110000000000e+00 3.12794331290444e-03 6.81148844183127e-05
5.89930000000000e+00 2.91916719097826e-03 6.39392067347875e-05
5.96750000000000e+00 2.72432593446563e-03 6.00155009858047e-05
6.03570000000000e+00 2.54248945388936e-03 5.63288986009880e-05
6.10390000000000e+00 2.37278973905394e-03 5.28653793355596e-05
6.17210000000000e+00 2.21441671553328e-03 4.96117254817841e-05
6.24030000000000e+00 2.06661437771909e-03 4.65554783041677e-05
6.30850000000000e+00 1.92867717997095e-03 4.36848966157420e-05
6.37670000000000e+00 1.79994666864082e-03 4.09889174129001e-05
6.44490000000000e+00 1.67980833889473e-03 3.84571184868454e-05
6.51310000000000e+00 1.56768870132750e-03 3.60796829306772e-05
6.58130000000000e+00 1.46305254436763e-03 3.38473654624225e-05
6.64950000000000e+00 1.36540037940443e-03 3.17514604858715e-05
6.71770000000000e+00 1.27426605644130e-03 2.97837718128275e-05
6.78590000000000e+00 1.18921453889351e-03 2.79365839723171e-05
6.85410000000000e+00 1.10983982690812e-03 2.62026350343663e-05
6.92230000000000e+00 1.03576301929298e-03 2.45750908781177e-05
6.99050000000000e+00 9.66630504803211e-04 2.30475208363029e-05
7.05870000000000e+00 9.02112274151208e-04 2.16138746503797e-05
7.12690000000000e+00 8.41900344682316e-04 2.02684606729634e-05
7.19510000000000e+00 7.85707290196339e-04 1.90059252565206e-05
7.26330000000000e+00 7.33264868896829e-04 1.78212332696243e-05
7.33150000000000e+00 6.84322742918582e-04 1.67096496843894e-05
7.39970000000000e+00 6.38647283320893e-04 1.56667221810001e-05
7.46790000000000e+00 5.96020454842145e-04 1.46882647174970e-05
7.53610000000000e+00 5.56238775091985e-04 1.37703420152076e-05
7.60430000000000e+00 5.19112343212744e-04 1.29092549123695e-05
7.67250000000000e+00 4.84463933373330e-04 1.21015265406111e-05
7.74070000000000e+00 4.52128148768312e-04 1.13438892810045e-05
7.80890000000000e+00 4.21950632083759e-04 1.06332724584077e-05
7.87710000000000e+00 3.93787328660927e-04 9.96679073473755e-06
7.94530000000000e+00 3.67503798840446e-04 9.34173316368987e-06
8.01350000000000e+00 3.42974576204438e-04 8.75555287122024e-06
8.08170000000000e+00 3.20082568653078e-04 8.20585732784037e-06
8.14990000000000e+00 2.98718499456597e-04 7.69039918045328e-06
8.21810000000000e+00 2.78780385614551e-04 7.20706761305823e-06
8.28630000000000e+00 2.60173051032249e-04 6.75388020719749e-06
8.35450000000000e+00 2.42807672190463e-04 6.32897527449433e-06
8.42270000000000e+00 2.26601354139649e-04 5.93060463504698e-06
8.49090000000000e+00 2.11476734794624e-04 5.55712681679680e-06
8.55910000000000e+00 1.97361615640807e-04 5.20700065228303e-06
8.62730000000000e+00 1.84188617089145e-04 4.87877925043248e-06
8.69550000000000e+00 1.71894856834548e-04 4.57110432221132e-06
8.76370000000000e+00 1.60421649682451e-04 4.28270084009049e-06
8.83190000000000e+00 1.49714227410593e-04 4.01237201234783e-06
8.90010000000000e+00 1.39721477328772e-04 3.75899455424992e-06
8.96830000000000e+00 1.30395698288547e-04 3.52151423912783e-06
9.03650000000000e+00 1.21692372978198e-04 3.29894171328367e-06
9.10470000000000e+00 1.13569955415972e-04 3.09034855954276e-06
9.17290000000000e+00 1.05989672627197e-04 2.89486359509969e-06
9.24110000000000e+00 9.89153395585507e-05 2.71166939009841e-06
9.30930000000000e+00 9.23131863459756e-05 2.53999899413759e-06
9.37750000000000e+00 8.61516971116757e-05 2.37913285860522e-06
9.44570000000000e+00 8.04014595206905e-05 2.22839594342234e-06
9.51390000000000e+00 7.50350243788888e-05 2.08715499741610e-06
9.58210000000000e+00 7.00267746021644e-05 1.95481600214972e-06
9.65030000000000e+00 6.53528029313470e-05 1.83082176961113e-06
9.71850000000000e+00 6.09907978090921e-05 1.71464968470682e-06
9.78670000000000e+00 5.69199368739743e-05 1.60580958402231e-06
9.85490000000000e+00 5.31207875633698e-05 1.50384176279780e-06
9.92310000000000e+00 4.95752143506485e-05 1.40831510252891e-06
9.99130000000000e+00 4.62662921738663e-05 1.31882531203785e-06
1.00595000000000e+01 4.31782256427008e-05 1.23499327527263e-06
1.01277000000000e+01 4.02962736379614e-05 1.15646349948128e-06
1.01959000000000e+01 3.76066789437411e-05 1.08290265777569e-06
1.02641000000000e+01 3.50966025763064e-05 1.01399822044721e-06
1.03323000000000e+01 3.27540624962365e-05 9.49457169724579e-07
1.04005000000000e+01 3.05678764112521e-05 8.89004792973808e-07
1.04687000000000e+01 2.85276083966972e-05 8.32383549632734e-07
1.05369000000000e+01 2.66235190788634e-05 7.79352007448306e-07
1.06051000000000e+01 2.48465191433526e-05 7.29683843845214e-07
1.06733000000000e+01 2.31881259465472e-05 6.83166908499922e-07
1.07415000000000e+01 2.16404230230692e-05 6.39602343425685e-07
1.08097000000000e+01 2.01960222959335e-05 5.98803757092467e-07
1.08779000000000e+01 1.88480288090041e-05 5.60596449311497e-07
1.09461000000000e+01 1.75900078133989e-05 5.24816683808123e-07
1.10143000000000e+01 1.64159540507294e-05 4.91311005589521e-07
1.10825000000000e+01 1.53202630865452e-05 4.59935600386039e-07
1.11507000000000e+01 1.42977045571428e-05 4.30555693607178e-07
1.12189000000000e+01 1.33433972020282e-05 4.03044986406117e-07
1.12871000000000e+01 1.24527855628507e-05 3.77285126590640e-07
1.13553000000000e+01 1.16216182375784e-05 3.53165212253863e-07
1.14235000000000e+01 1.08459275861083e-05 3.30581326125755e-07
1.14917000000000e+01 1.01220107904368e-05 3.09436098766667e-07
1.15599000000000e+01 9.44641217897733e-06 2.89638298837103e-07
1.16281000000000e+01 8.81590673065070e-06 2.71102448784400e-07
1.16963000000000e+01 8.22748468000328e-06 2.53748464387210e-07
1.17645000000000e+01 7.67833714986370e-06 2.37501316692814e-07
1.18327000000000e+01 7.16584274295524e-06 2.22290714971009e-07
1.19009000000000e+01 6.68755502845767e-06 2.08050809391716e-07
1.19691000000000e+01 6.24119086378461e-06 1.94719912211848e-07
1.20373000000000e+01 5.82461949582970e-06 1.82240236330774e-07
1.21055000000000e+01 5.43585238965546e-06 1.70557650143097e-07
1.21737000000000e+01 5.07303373607136e-06 1.59621447682665e-07
1.22419000000000e+01 4.73443159278821e-06 1.49384133113083e-07
1.23101000000000e+01 4.41842961686069e-06 1.39801218677621e-07
1.23783000000000e+01 4.12351934895197e-06 1.30831035275612e-07
1.24465000000000e+01 3.84829301258900e-06 1.22434554883386e-07
1.25147000000000e+01 3.59143679403500e-06 1.14575224085621e-07
1.25829000000000e+01 3.35172457070018e-06 1.07218808027988e-07
1.26511000000000e+01 3.12801205815285e-06 1.00333244144257e-07
1.27193000000000e+01 2.91923134779110e-06 9.38885050507072e-08
1.27875000000000e+01 2.72438580910031e-06 8.78564700380149e-08
1.28557000000000e+01 2.54254533216196e-06 8.22108046258462e-08
1.29239000000000e+01 2.37284188770363e-06 7.69268476782932e-08
1.29921000000000e+01 2.21446538349558e-06 7.19815056092220e-08
1.30603000000000e+01 2.06665979731420e-06 6.73531532356413e-08
1.31285000000000e+01 1.92871956801274e-06 6.30215408644818e-08
1.31967000000000e+01 1.79998622747182e-06 5.89677072237800e-08
1.32649000000000e+01 1.67984525735202e-06 5.51738978733140e-08
1.33331000000000e+01 1.56772315564411e-06 5.16234887523238e-08
1.34013000000000e+01 1.46308469901386e-06 4.83009145431435e-08
1.34695000000000e+01 1.36543038787290e-06 4.51916015494769e-08
1.35377000000000e+01 1.27429406197972e-06 4.22819048067328e-08
1.36059000000000e+01 1.18924067518844e-06 3.95590491593713e-08
1.36741000000000e+01 1.10986421872313e-06 3.70110740566760e-08
1.37423000000000e+01 1.03578578306425e-06 3.46267818338145e-08
1.38105000000000e+01 9.66651749195320e-07 3.23956892595510e-08
1.38787000000000e+01 9.02132100575871e-07 3.03079821455780e-08
1.39469000000000e+01 8.41918847782470e-07 2.83544728252077e-08
1.40151000000000e+01 7.85724558297933e-07 2.65265603211403e-08
1.40833000000000e+01 7.33280984430451e-07 2.48161930332706e-08
1.41515000000000e+01 6.84337782812949e-07 2.32158337880421e-08
1.42197000000000e+01 6.38661319370081e-07 2.17184271007511e-08
1.42879000000000e+01 5.96033554048295e-07 2.03173685114894e-08
1.43561000000000e+01 5.56250999985148e-07 1.90064758641187e-08
1.44243000000000e+01 5.19123752149374e-07 1.77799624058443e-08
1.44925000000000e+01 4.84474580814847e-07 1.66324115926130e-08
1.45607000000000e+01 4.52138085541084e-07 1.55587534927494e-08
1.46289000000000e+01 4.21959905621723e-07 1.45542426879864e-08
1.46971000000000e+01 3.93795983232018e-07 1.36144375773644e-08
1.47653000000000e+01 3.67511875757913e-07 1.27351809954058e-08
1.48335000000000e+01 3.42982114024058e-07 1.19125820615293e-08
1.49017000000000e+01 3.20089603357203e-07 1.11429991828821e-08
1.49699000000000e+01 2.98725064625920e-07 1.04230241376580e-08
1.50381000000000e+01 2.78786512588404e-07 9.74946717055202e-09
1.51063000000000e+01 2.60178769058204e-07 9.11934303630097e-09
1.51745000000000e+01 2.42813008563952e-07 8.52985793128931e-09
1.52427000000000e+01 2.26606334334252e-07 7.97839725697605e-09
1.53109000000000e+01 2.11481382583678e-07 7.46251416244277e-09
1.53791000000000e+01 1.97365953210884e-07 6.97991881668083e-09
1.54473000000000e+01 1.84192665145964e-07 6.52846836434979e-09
1.55155000000000e+01 1.71898634701815e-07 6.10615752165646e-09
1.55837000000000e+01 1.60425175394099e-07 5.71110977173881e-09
1.56519000000000e+01 1.49717517796876e-07 5.34156912150244e-09
1.57201000000000e+01 1.39724548096597e-07 4.99589238426019e-09
1.57883000000000e+01 1.30398564096456e-07 4.67254195477762e-09
1.58565000000000e+01 1.21695047506342e-07 4.37007904543723e-09
1.59247000000000e+01 1.13572451431414e-07 4.08715735421275e-09
1.59929000000000e+01 1.05992002044854e-07 3.82251713699840e-09
1.60611000000000e+01 9.89175134980753e-08 3.57497965857516e-09
1.61293000000000e+01 9.23152151848325e-08 3.34344199812425e-09
1.61975000000000e+01 8.61535905346807e-08 3.12687218672304e-09
1.62657000000000e+01 8.04032265662414e-08 2.92430465568846e-09
1.63339000000000e+01 7.50366734821114e-08 2.73483597597208e-09
1.64021000000000e+01 7.00283136351776e-08 2.55762087006612e-09
1.64703000000000e+01 6.53542392408413e-08 2.39186847905524e-09
1.65385000000000e+01 6.09921382513995e-08 2.23683886855114e-09
1.66067000000000e+01 5.69211878477976e-08 2.09183975827844e-09
1.66749000000000e+01 5.31219550403271e-08 1.95622346104782e-09
1.67431000000000e+01 4.95763039037795e-08 1.82938401775815e-09
1.68113000000000e+01 4.62673090042352e-08 1.71075451591785e-09
1.68795000000000e+01 4.31791746042243e-08 1.59980457997086e-09
1.69477000000000e+01 4.02971592605791e-08 1.49603802245744e-09
1.70159000000000e+01 3.76075054550397e-08 1.39899064573732e-09
1.70841000000000e+01 3.50973739216999e-08 1.30822818465657e-09
1.71523000000000e+01 3.27547823578005e-08 1.22334438115131e-09
1.72205000000000e+01 3.05685482253003e-08 1.14395918235509e-09
1.72887000000000e+01 2.85282353701848e-08 1.06971705431315e-09
1.73569000000000e+01 2.66241042046958e-08 1.00028540391057e-09
1.74251000000000e+01 2.48470652146722e-08 9.35353102091539e-10
1.74933000000000e+01 2.31886355700668e-08 8.74629101888862e-10
1.75615000000000e+01 2.16408986315151e-08 8.17841145195436e-10
1.76297000000000e+01 2.01964661596588e-08 7.64734552596869e-10
1.76979000000000e+01 1.88484430468257e-08 7.15071090946452e-10
1.77661000000000e+01 1.75903944027124e-08 6.68627913703253e-10
1.78343000000000e+01 1.64163148369481e-08 6.25196569371856e-10
1.79025000000000e+01 1.53205997919095e-08 5.84582073679861e-10
1.79707000000000e+01 1.42980187889412e-08 5.46602041407945e-10
1.80389000000000e+01 1.33436904602699e-08 5.11085874048255e-10
1.81071000000000e+01 1.24530592474262e-08 4.77873999711246e-10
1.81753000000000e+01 1.16218736549416e-08 4.46817161929880e-10
1.82435000000000e+01 1.08461659555135e-08 4.17775754224321e-10
1.83117000000000e+01 1.01222332497583e-08 3.90619197490859e-10
1.83799000000000e+01 9.44661979014147e-09 3.65225357466594e-10
1.84481000000000e+01 8.81610048470511e-09 3.41479999697301e-10
1.85163000000000e+01 8.22766550184759e-09 3.19276279600460e-10
1.85845000000000e+01 7.67850590266467e-09 2.98514265369607e-10
1.86527000000000e+01 7.16600023226714e-09 2.79100491610469e-10
1.87209000000000e+01 6.68770200606763e-09 2.60947541734438e-10
1.87891000000000e+01 6.24132803130137e-09 2.43973657261411e-10
1.88573000000000e+01 5.82474750803278e-09 2.28102372302435e-10
1.89255000000000e+01 5.43597185762079e-09 2.13262171603416e-10
1.89937000000000e+01 5.07314523008831e-09 1.99386170634954e-10
1.90619000000000e+01 4.73453564508192e-09 1.86411816310456e-10
1.91301000000000e+01 4.41852672413264e-09 1.74280607005632e-10
1.91983000000000e+01 4.12360997475107e-09 1.62937830637590e-10
1.92665000000000e+01 3.84837758952436e-09 1.52332319641402e-10
1.93347000000000e+01 3.59151572584102e-09 1.42416221756618e-10
1.94029000000000e+01 3.35179823416381e-09 1.33144785605981e-10
1.94711000000000e+01 3.12808080491220e-09 1.24476160113946e-10
1.95393000000000e+01 2.91929550601403e-09 1.16371206873782e-10
1.96075000000000e+01 2.72444568505094e-09 1.08793324629255e-10
1.96757000000000e+01 2.54260121166268e-09 1.01708285090460e-10
1.97439000000000e+01 2.37289403749947e-09 9.50840793535519e-11
1.98121000000000e+01 2.21451405252753e-09 8.88907742410207e-11
1.98803000000000e+01 2.06670521790757e-09 8.31003779230962e-11
1.99485000000000e+01 1.92876195698616e-09 7.76867142219835e-11
2.00167000000000e+01 1.80002578717226e-09 7.26253050390932e-11
2.00849000000000e+01 1.67988217662071e-09 6.78932603814451e-11
2.01531000000000e+01 1.56775761071797e-09 6.34691754971203e-11
2.02213000000000e+01 1.46311685436679e-09 5.93330346611643e-11
2.02895000000000e+01 1.36546039700091e-09 5.54661211828756e-11
2.03577000000000e+01 1.27432206813365e-09 5.18509332330122e-11
2.04259000000000e+01 1.18926681205778e-09 4.84711051153039e-11
2.04941000000000e+01 1.10988861107421e-09 4.53113336308455e-11
2.05623000000000e+01 1.03580854733580e-09 4.23573092065727e-11
2.06305000000000e+01 9.66672994054318e-10 3.95956514802059e-11
2.06987000000000e+01 9.02151927436255e-10 3.70138490538637e-11
2.07669000000000e+01 8.41937351289260e-10 3.46002031470933e-11
2.08351000000000e+01 7.85741826779017e-10 3.23437748974170e-11
2.09033000000000e+01 7.33297100318232e-10 3.02343360727311e-11
2.09715000000000e+01 6.84352823037837e-10 2.82623229750879e-11
2.10397000000000e+01 6.38675355727727e-10 2.64187933296055e-11
2.11079000000000e+01 5.96046653542314e-10 2.46953859655540e-11
2.11761000000000e+01 5.56263225146966e-10 2.30842831091116e-11
2.12443000000000e+01 5.19135161336725e-10 2.15781751189276e-11
2.13125000000000e+01 4.84485228490351e-10 2.01702275065276e-11
2.13807000000000e+01 4.52148022532225e-10 1.88540500937882e-11
2.14489000000000e+01 4.21969179363480e-10 1.76236681692471e-11
2.15171000000000e+01 3.93804637993299e-10 1.64734955139379e-11
