Energy (eV)          EEDF (eV^-(3/2))     First Anisotropy
7.92857142857143e-03 2.16910798730003e+00 2.11690495582426e-03
2.37857142857143e-02 2.11613897404331e+00 3.46457806033756e-03
3.96428571428571e-02 2.06446344958151e+00 4.49215221274912e-03
5.55000000000000e-02 2.01404982698241e+00 5.22492593201163e-03
7.13571428571429e-02 1.96486729106527e+00 5.79765211563463e-03
8.72142857142857e-02 1.91688577895226e+00 6.26271174317517e-03
1.03071428571429e-01 1.87007596203141e+00 6.64792345033313e-03
1.18928571428571e-01 1.82440922778712e+00 6.97050393071736e-03
1.34785714285714e-01 1.77985766242401e+00 7.24214144332555e-03
1.50642857142857e-01 1.73639403384354e+00 7.47128200802097e-03
1.66500000000000e-01 1.69399177494249e+00 7.66430979903570e-03
1.82357142857143e-01 1.65262496760409e+00 7.82621736173319e-03
1.98214285714286e-01 1.61226832614557e+00 7.96101389821381e-03
2.14071428571429e-01 1.57289718260399e+00 8.07198797946504e-03
2.29928571428571e-01 1.53448747139978e+00 8.16188420057156e-03
2.45785714285714e-01 1.49701571462500e+00 8.23302624161291e-03
2.61642857142857e-01 1.46045900769765e+00 8.28740524017536e-03
2.77500000000000e-01 1.42479500535844e+00 8.32674488148261e-03
2.93357142857143e-01 1.39000190812903e+00 8.35255043483896e-03
3.09214285714286e-01 1.35605844862714e+00 8.36614636211183e-03
3.25071428571429e-01 1.32294387893854e+00 8.36870567020504e-03
3.40928571428571e-01 1.29063795780688e+00 8.36127319953496e-03
3.56785714285714e-01 1.25912093826057e+00 8.34478429793580e-03
3.72642857142857e-01 1.22837355554429e+00 8.32008000060115e-03
3.88500000000000e-01 1.19837701534245e+00 8.28791949422133e-03
4.04357142857143e-01 1.16911298236157e+00 8.24899047355303e-03
4.20214285714286e-01 1.14056356890622e+00 8.20391778744829e-03
4.36071428571429e-01 1.11271132416781e+00 8.15327073218406e-03
4.51928571428571e-01 1.08553922348150e+00 8.09756927532086e-03
4.67785714285714e-01 1.05903065791948e+00 8.03728936484761e-03
4.83642857142857e-01 1.03316942413973e+00 7.97286750719474e-03
4.99500000000000e-01 1.00793971448119e+00 7.90470473075953e-03
5.15357142857143e-01 9.83326107347577e-01 7.83317005255299e-03
5.31214285714286e-01 9.59313557639065e-01 7.75860349750783e-03
5.47071428571429e-01 9.35887387701411e-01 7.68131875369648e-03
5.62928571428571e-01 9.13033278304537e-01 7.60160553654745e-03
5.78785714285714e-01 8.90737259889688e-01 7.51973167265955e-03
5.94642857142857e-01 8.68985704031048e-01 7.43594495930001e-03
6.10500000000000e-01 8.47765315105108e-01 7.35047482400196e-03
6.26357142857143e-01 8.27063122195569e-01 7.26353382334370e-03
6.42214285714286e-01 8.06866471067191e-01 7.17531897882123e-03
6.58071428571429e-01 7.87163016530895e-01 7.08601298152528e-03
6.73928571428571e-01 7.67940714863646e-01 6.99578529595834e-03
6.89785714285714e-01 7.49187816446604e-01 6.90479315069966e-03
7.05642857142857e-01 7.30892858583467e-01 6.81318244206355e-03
7.21500000000000e-01 7.13044658493755e-01 6.72108855584122e-03
7.37357142857143e-01 6.95632306500033e-01 6.62863712601874e-03
7.53214285714286e-01 6.78645159289821e-01 6.53594471948608e-03
7.69071428571429e-01 6.62072833481002e-01 6.44311946350331e-03
7.84928571428571e-01 6.45905199250739e-01 6.35026163294862e-03
8.00785714285714e-01 6.30132374143542e-01 6.25746418244757e-03
8.16642857142857e-01 6.14744717030805e-01 6.16481323907070e-03
8.32500000000000e-01 5.99732822217581e-01 6.07238855570404e-03
8.48357142857143e-01 5.85087513709913e-01 5.98026393658262e-03
8.64214285714286e-01 5.70799839555289e-01 5.88850762356995e-03
8.80071428571429e-01 5.56861066422598e-01 5.79718265390853e-03
8.95928571428572e-01 5.43262674246228e-01 5.70634720072615e-03
9.11785714285714e-01 5.29996351018131e-01 5.61605488287547e-03
9.27642857142857e-01 5.17053987707224e-01 5.52635505486909e-03
9.43500000000000e-01 5.04427673302698e-01 5.43729307567460e-03
9.59357142857143e-01 4.92109689990707e-01 5.34891056429696e-03
9.75214285714286e-01 4.80092508399212e-01 5.26124563212149e-03
9.91071428571429e-01 4.68368783034101e-01 5.17433309961399e-03
1.00692857142857e+00 4.56931347776178e-01 5.08820470227297e-03
1.02278571428571e+00 4.45773211531776e-01 5.00288929851811e-03
1.03864285714286e+00 4.34887553794480e-01 4.91841301664067e-03
1.05450000000000e+00 4.24267720817376e-01 4.83479943797773e-03
1.07035714285714e+00 4.13907221231293e-01 4.75206978132636e-03
1.08621428571429e+00 4.03799722184687e-01 4.67024302512059e-03
1.10207142857143e+00 3.93939045387879e-01 4.58933602980335e-03
1.11792857142857e+00 3.84319163597286e-01 4.50936368762402e-03
1.13378571428571e+00 3.74934196663572e-01 4.43033907362641e-03
1.14964285714286e+00 3.65778407953739e-01 4.35227350415262e-03
1.16550000000000e+00 3.56846201077010e-01 4.27517667334696e-03
1.18135714285714e+00 3.48132116225428e-01 4.19905677332365e-03
1.19721428571429e+00 3.39630826918163e-01 4.12392056952499e-03
1.21307142857143e+00 3.31337136680899e-01 4.04977347776469e-03
1.22892857142857e+00 3.23245976068562e-01 3.97661966480376e-03
1.24478571428571e+00 3.15352399362404e-01 3.90446215133278e-03
1.26064285714286e+00 3.07651581558999e-01 3.83330284205525e-03
1.27650000000000e+00 3.00138815599072e-01 3.76314261946857e-03
1.29235714285714e+00 2.92809509307607e-01 3.69398142566994e-03
1.30821428571429e+00 2.85659182649314e-01 3.62581830919696e-03
1.32407142857143e+00 2.78683464940284e-01 3.55865147404615e-03
1.33992857142857e+00 2.71878092329710e-01 3.49247834849532e-03
1.35578571428571e+00 2.65238905036460e-01 3.42729565668084e-03
1.37164285714286e+00 2.58761844815447e-01 3.36309943218421e-03
1.38750000000000e+00 2.52442952614614e-01 3.29988508356310e-03
1.40335714285714e+00 2.46278366013931e-01 3.23764745088935e-03
1.41921428571429e+00 2.40264316912659e-01 3.17638083468860e-03
1.43507142857143e+00 2.34397129187347e-01 3.11607902710851e-03
1.45092857142857e+00 2.28673216563716e-01 3.05673535959063e-03
1.46678571428571e+00 2.23089080302736e-01 2.99834275325448e-03
1.48264285714286e+00 2.17641307068855e-01 2.94089372284344e-03
1.49850000000000e+00 2.12326566950600e-01 2.88438042303461e-03
1.51435714285714e+00 2.07141611315562e-01 2.82879468787699e-03
1.53021428571429e+00 2.02083270862080e-01 2.77412804826668e-03
1.54607142857143e+00 1.97148453651754e-01 2.72037175150910e-03
1.56192857142857e+00 1.92334143312293e-01 2.66751679456499e-03
1.57778571428571e+00 1.87637397098753e-01 2.61555395979734e-03
1.59364285714286e+00 1.83055344100003e-01 2.56447381334420e-03
1.60950000000000e+00 1.78585183567567e-01 2.51426673806945e-03
1.62535714285714e+00 1.74224183117988e-01 2.46492296119525e-03
1.64121428571429e+00 1.69969677091888e-01 2.41643256434834e-03
1.65707142857143e+00 1.65819064900846e-01 2.36878549547836e-03
1.67292857142857e+00 1.61769809510581e-01 2.32197159209211e-03
1.68878571428571e+00 1.57819435815696e-01 2.27598060671607e-03
1.70464285714286e+00 1.53965529130789e-01 2.23080220216063e-03
1.72050000000000e+00 1.50205733780254e-01 2.18642597503891e-03
1.73635714285714e+00 1.46537751591060e-01 2.14284147512900e-03
1.75221428571429e+00 1.42959340510949e-01 2.10003821058747e-03
1.76807142857143e+00 1.39468313219270e-01 2.05800565480232e-03
1.78392857142857e+00 1.36062535847338e-01 2.01673326259228e-03
1.79978571428571e+00 1.32739926615431e-01 1.97621048835200e-03
1.81564285714286e+00 1.29498454563419e-01 1.93642677971850e-03
1.83150000000000e+00 1.26336138361253e-01 1.89737159435363e-03
1.84735714285714e+00 1.23251045044774e-01 1.85903441345368e-03
1.86321428571429e+00 1.20241288852289e-01 1.82140474383224e-03
1.87907142857143e+00 1.17305030057089e-01 1.78447212141837e-03
1.89492857142857e+00 1.14440473888304e-01 1.74822612247066e-03
1.91078571428571e+00 1.11645869387439e-01 1.71265637646954e-03
1.92664285714286e+00 1.08919508340526e-01 1.67775255911442e-03
1.94250000000000e+00 1.06259724275121e-01 1.64350440425617e-03
1.95835714285714e+00 1.03664891399604e-01 1.60990171323713e-03
1.97421428571429e+00 1.01133423623748e-01 1.57693435497444e-03
1.99007142857143e+00 9.86637735774626e-02 1.54459226725370e-03
2.00592857142857e+00 9.62544317009941e-02 1.51286546439250e-03
2.02178571428571e+00 9.39039252853770e-02 1.48174404633978e-03
2.03764285714286e+00 9.16108175741386e-02 1.45121819156877e-03
2.05350000000000e+00 8.93737069177884e-02 1.42127816549940e-03
2.06935714285714e+00 8.71912258836271e-02 1.39191432685760e-03
2.08521428571429e+00 8.50620404312929e-02 1.36311712651602e-03
2.10107142857143e+00 8.29848490879598e-02 1.33487710736404e-03
2.11692857142857e+00 8.09583821815114e-02 1.30718490943775e-03
2.13278571428571e+00 7.89814010351268e-02 1.28003127627143e-03
2.14864285714286e+00 7.70526972116322e-02 1.25340704802186e-03
2.16450000000000e+00 7.51710918009258e-02 1.22730316734365e-03
2.18035714285714e+00 7.33354346727160e-02 1.20171068361627e-03
2.19621428571429e+00 7.15446037825818e-02 1.17662075105078e-03
2.21207142857143e+00 6.97975044786376e-02 1.15202462766845e-03
2.22792857142857e+00 6.80930688553503e-02 1.12791367862453e-03
2.24378571428571e+00 6.64302550773636e-02 1.10427938056729e-03
2.25964285714286e+00 6.48080467438557e-02 1.08111331518325e-03
2.27550000000000e+00 6.32254522881181e-02 1.05840717322343e-03
2.29135714285714e+00 6.16815043501553e-02 1.03615275720847e-03
2.30721428571429e+00 6.01752591926408e-02 1.01434197914224e-03
2.32307142857143e+00 5.87057961180622e-02 9.92966858961923e-04
2.33892857142857e+00 5.72722169243004e-02 9.72019526579464e-04
2.35478571428571e+00 5.58736453368563e-02 9.51492224798022e-04
2.37064285714286e+00 5.45092264741620e-02 9.31377303374489e-04
2.38650000000000e+00 5.31781263417496e-02 9.11667221705835e-04
2.40235714285714e+00 5.18795313054001e-02 8.92354550453780e-04
2.41821428571429e+00 5.06126475996206e-02 8.73431969091858e-04
2.43407142857143e+00 4.93767008376434e-02 8.54892264073413e-04
2.44992857142857e+00 4.81709355528138e-02 8.36728329969373e-04
2.46578571428571e+00 4.69946147217677e-02 8.18933171344345e-04
2.48164285714286e+00 4.58470193146691e-02 8.01499897373746e-04
2.49750000000000e+00 4.47274478691299e-02 7.84421723563551e-04
2.51335714285714e+00 4.36352160477301e-02 7.67691972614718e-04
2.52921428571429e+00 4.25696562243833e-02 7.51304071951759e-04
2.54507142857143e+00 4.15301170723787e-02 7.35251551774303e-04
2.56092857142857e+00 4.05159631781070e-02 7.19528045565780e-04
2.57678571428571e+00 3.95265746405666e-02 7.04127291224051e-04
2.59264285714286e+00 3.85613466930414e-02 6.89043126233834e-04
2.60850000000000e+00 3.76196893442453e-02 6.74269488693940e-04
2.62435714285714e+00 3.67010270066552e-02 6.59800417654180e-04
2.64021428571429e+00 3.58047981484385e-02 6.45630050719727e-04
2.65607142857143e+00 3.49304549470968e-02 6.31752622095422e-04
2.67192857142857e+00 3.40774629641572e-02 6.18162462664316e-04
2.68778571428571e+00 3.32453008087509e-02 6.04854000589569e-04
2.70364285714286e+00 3.24334598193862e-02 5.91821757020560e-04
2.71950000000000e+00 3.16414437617452e-02 5.79060346629304e-04
2.73535714285714e+00 3.08687685164632e-02 5.66564477588608e-04
2.75121428571429e+00 3.01149617862385e-02 5.54328949309369e-04
2.76707142857143e+00 2.93795628046213e-02 5.42348650547798e-04
2.78292857142857e+00 2.86621220620783e-02 5.30618559197571e-04
2.79878571428571e+00 2.79622010233632e-02 5.19133742522163e-04
2.81464285714286e+00 2.72793718598419e-02 5.07889353360447e-04
2.83050000000000e+00 2.66132171950222e-02 4.96880630320327e-04
2.84635714285714e+00 2.59633298422471e-02 4.86102897520433e-04
2.86221428571429e+00 2.53293125582466e-02 4.75551562492140e-04
2.87807142857143e+00 2.47107777982857e-02 4.65222114392468e-04
2.89392857142857e+00 2.41073474855096e-02 4.55110123613460e-04
2.90978571428571e+00 2.35186527734852e-02 4.45211241761491e-04
2.92564285714286e+00 2.29443338210480e-02 4.35521198321730e-04
2.94150000000000e+00 2.23840395780455e-02 4.26035800617638e-04
2.95735714285714e+00 2.18374275649452e-02 4.16750933404053e-04
2.97321428571429e+00 2.13041636654708e-02 4.07662556948572e-04
2.98907142857143e+00 2.07839219207246e-02 3.98766705374155e-04
3.00492857142857e+00 2.02763843349912e-02 3.90059486159679e-04
3.02078571428571e+00 1.97812406762139e-02 3.81537079951327e-04
3.03664285714286e+00 1.92981882866104e-02 3.73195737642899e-04
3.05250000000000e+00 1.88269319022885e-02 3.65031780180443e-04
3.06835714285714e+00 1.83671834680570e-02 3.57041598069452e-04
3.08421428571429e+00 1.79186619629535e-02 3.49221649638815e-04
3.10007142857143e+00 1.74810932271328e-02 3.41568459524229e-04
3.11592857142857e+00 1.70542097983785e-02 3.34078618112243e-04
3.13178571428571e+00 1.66377507444426e-02 3.26748781245401e-04
3.14764285714286e+00 1.62314615037475e-02 3.19575667675609e-04
3.16350000000000e+00 1.58350937335303e-02 3.12556058771362e-04
3.17935714285714e+00 1.54484051542229e-02 3.05686797983317e-04
3.19521428571429e+00 1.50711594026581e-02 2.98964789286544e-04
3.21107142857143e+00 1.47031258865057e-02 2.92386995807177e-04
3.22692857142857e+00 1.43440796466461e-02 2.85950439246380e-04
3.24278571428571e+00 1.39938012162747e-02 2.79652199523566e-04
3.25864285714286e+00 1.36520764869122e-02 2.73489412561799e-04
3.27450000000000e+00 1.33186965805727e-02 2.67459269938895e-04
3.29035714285714e+00 1.29934577189842e-02 2.61559018342001e-04
3.30621428571429e+00 1.26761611000842e-02 2.55785958179323e-04
3.32207142857143e+00 1.23666127756187e-02 2.50137442346727e-04
3.33792857142857e+00 1.20646235352925e-02 2.44610875656430e-04
3.35378571428571e+00 1.17700087883597e-02 2.39203714449816e-04
3.36964285714286e+00 1.14825884509212e-02 2.33913464676423e-04
3.38550000000000e+00 1.12021868383225e-02 2.28737681518225e-04
3.40135714285714e+00 1.09286325552434e-02 2.23673968853955e-04
3.41721428571429e+00 1.06617583917903e-02 2.18719978028733e-04
3.43307142857143e+00 1.04014012205703e-02 2.13873406753805e-04
3.44892857142857e+00 1.01474018991781e-02 2.09131998556313e-04
3.46478571428571e+00 9.89960517067813e-03 2.04493542383652e-04
3.48064285714286e+00 9.65785956880844e-03 1.99955870940779e-04
3.49650000000000e+00 9.42201732741091e-03 1.95516860308053e-04
3.51235714285714e+00 9.19193428805526e-03 1.91174429428814e-04
3.52821428571429e+00 8.96746981262043e-03 1.86926539024032e-04
3.54407142857143e+00 8.74848669674401e-03 1.82771190616253e-04
3.55992857142857e+00 8.53485108774671e-03 1.78706426010674e-04
3.57578571428571e+00 8.32643240098903e-03 1.74730326905999e-04
3.59164285714286e+00 8.12310324013594e-03 1.70841013458050e-04
3.60750000000000e+00 7.92473932092746e-03 1.67036643905055e-04
3.62335714285714e+00 7.73121939353599e-03 1.63315414086753e-04
3.63921428571429e+00 7.54242516902142e-03 1.59675556490726e-04
3.65507142857143e+00 7.35824124654935e-03 1.56115339390571e-04
3.67092857142857e+00 7.17855504431272e-03 1.52633066364124e-04
3.68678571428571e+00 7.00325672922725e-03 1.49227075920654e-04
3.70264285714286e+00 6.83223914986461e-03 1.45895740262019e-04
3.71850000000000e+00 6.66539777229537e-03 1.42637464924459e-04
3.73435714285714e+00 6.50263061482713e-03 1.39450688333802e-04
3.75021428571429e+00 6.34383818613237e-03 1.36333880970318e-04
3.76607142857143e+00 6.18892342404455e-03 1.33285544610751e-04
3.78192857142857e+00 6.03779163742075e-03 1.30304211886442e-04
3.79778571428571e+00 5.89035044704662e-03 1.27388445932956e-04
3.81364285714286e+00 5.74650972922530e-03 1.24536839323186e-04
3.82950000000000e+00 5.60618156178288e-03 1.21748013731219e-04
3.84535714285714e+00 5.46928016921114e-03 1.19020619525564e-04
3.86121428571429e+00 5.33572187061614e-03 1.16353335039937e-04
3.87707142857143e+00 5.20542502824979e-03 1.13744865908897e-04
3.89292857142857e+00 5.07830999858256e-03 1.11193944666469e-04
3.90878571428571e+00 4.95429908262871e-03 1.08699330421609e-04
3.92464285714286e+00 4.83331647849818e-03 1.06259807940575e-04
3.94050000000000e+00 4.71528823595634e-03 1.03874187335952e-04
3.95635714285714e+00 4.60014221031092e-03 1.01541303698023e-04
3.97221428571429e+00 4.48780801862316e-03 9.92600164596487e-05
3.98807142857143e+00 4.37821699642583e-03 9.70292088156593e-05
4.00392857142857e+00 4.27130215654822e-03 9.48477873611457e-05
4.01978571428571e+00 4.16699814735872e-03 9.27146817942457e-05
4.03564285714286e+00 4.06524121285557e-03 9.06288441278112e-05
4.05150000000000e+00 3.96596915442696e-03 8.85892484049072e-05
4.06735714285714e+00 3.86912129208706e-03 8.65948903672056e-05
4.08321428571429e+00 3.77463842763858e-03 8.46447869030656e-05
4.09907142857143e+00 3.68246280827475e-03 8.27379755414266e-05
4.11492857142857e+00 3.59253809192941e-03 8.08735141279423e-05
4.13078571428571e+00 3.50480931217391e-03 7.90504805552886e-05
4.14664285714286e+00 3.41922284464902e-03 7.72679720866157e-05
4.16250000000000e+00 3.33572637488531e-03 7.55251050975678e-05
4.17835714285714e+00 3.25426886571616e-03 7.38210147798387e-05
4.19421428571429e+00 3.17480052628847e-03 7.21548546624935e-05
4.21007142857143e+00 3.09727278145353e-03 7.05257961717965e-05
4.22592857142857e+00 3.02163824260890e-03 6.89330283428210e-05
4.24178571428571e+00 2.94785067818845e-03 6.73757575765527e-05
4.25764285714286e+00 2.87586498542789e-03 6.58532070598165e-05
4.27350000000000e+00 2.80563716328578e-03 6.43646165330670e-05
4.28935714285714e+00 2.73712428504845e-03 6.29092420267511e-05
4.30521428571429e+00 2.67028447226072e-03 6.14863554468826e-05
4.32107142857143e+00 2.60507686898471e-03 6.00952441929825e-05
4.33692857142857e+00 2.54146161726381e-03 5.87352109024709e-05
4.35278571428571e+00 2.47939983231397e-03 5.74055732332626e-05
4.36864285714286e+00 2.41885357877549e-03 5.61056633668357e-05
4.38450000000000e+00 2.35978584792672e-03 5.48348278005029e-05
4.40035714285714e+00 2.30216053465309e-03 5.35924271139903e-05
4.41621428571429e+00 2.24594241551699e-03 5.23778356111967e-05
4.43207142857143e+00 2.19109712711015e-03 5.11904409891749e-05
4.44792857142857e+00 2.13759114540743e-03 5.00296441124804e-05
4.46378571428571e+00 2.08539176491006e-03 4.88948588196104e-05
4.47964285714286e+00 2.03446707867076e-03 4.77855114976271e-05
4.49550000000000e+00 1.98478595912010e-03 4.67010408972863e-05
4.51135714285714e+00 1.93631803870404e-03 4.56408979271653e-05
4.52721428571429e+00 1.88903369143584e-03 4.46045453444327e-05
4.54307142857143e+00 1.84290401469093e-03 4.35914574685034e-05
4.55892857142857e+00 1.79790081183430e-03 4.26011199825273e-05
4.57478571428571e+00 1.75399657468564e-03 4.16330297618331e-05
4.59064285714286e+00 1.71116446671836e-03 4.06866945100604e-05
4.60650000000000e+00 1.66937830692619e-03 3.97616325953623e-05
4.62235714285714e+00 1.62861255354447e-03 3.88573728694331e-05
4.63821428571429e+00 1.58884228853142e-03 3.79734544009249e-05
4.65407142857143e+00 1.55004320225793e-03 3.71094262281088e-05
4.66992857142857e+00 1.51219157888977e-03 3.62648471847694e-05
4.68578571428571e+00 1.47526428164528e-03 3.54392857487403e-05
4.70164285714286e+00 1.43923873866400e-03 3.46323197308542e-05
4.71750000000000e+00 1.40409292943163e-03 3.38435361303738e-05
4.73335714285714e+00 1.36980537109382e-03 3.30725309763757e-05
4.74921428571429e+00 1.33635510540156e-03 3.23189090981981e-05
4.76507142857143e+00 1.30372168583560e-03 3.15822839120734e-05
4.78092857142857e+00 1.27188516530684e-03 3.08622772688381e-05
4.79678571428571e+00 1.24082608376159e-03 3.01585193206604e-05
4.81264285714286e+00 1.21052545629564e-03 2.94706482552999e-05
4.82850000000000e+00 1.18096476173214e-03 2.87983101689369e-05
4.84435714285714e+00 1.15212593111468e-03 2.81411589275112e-05
4.86021428571429e+00 1.12399133672577e-03 2.74988559692667e-05
4.87607142857143e+00 1.09654378125855e-03 2.68710701209087e-05
4.89192857142857e+00 1.06976648746801e-03 2.62574774647101e-05
4.90778571428571e+00 1.04364308774973e-03 2.56577612215973e-05
4.92364285714286e+00 1.01815761414262e-03 2.50716115242465e-05
4.93950000000000e+00 9.93294488718494e-04 2.44987253055466e-05
4.95535714285714e+00 9.69038513907207e-04 2.39388061776586e-05
4.97121428571429e+00 9.45374863259101e-04 2.33915642623356e-05
4.98707142857143e+00 9.22289072338438e-04 2.28567160326924e-05
5.00292857142857e+00 8.99767030016088e-04 2.23339841974845e-05
