Energy (eV)          EEDF (eV^-(3/2))     First Anisotropy
9.18181818181818e-03 2.25929216485146e-01 1.14139360479956e-04
2.75454545454545e-02 2.24510711949892e-01 1.88518609983485e-04
4.59090909090909e-02 2.23101113550457e-01 2.48977441685037e-04
6.42727272727273e-02 2.21700365363040e-01 2.94976442472316e-04
8.26363636363636e-02 2.20308411821618e-01 3.33396476736372e-04
1.01000000000000e-01 2.18925197710736e-01 3.66836832387228e-04
1.19363636363636e-01 2.17550668160047e-01 3.96641526612039e-04
1.37727272727273e-01 2.16184768634128e-01 4.23621511960808e-04
1.56090909090909e-01 2.14827444960852e-01 4.48314194612104e-04
1.74454545454545e-01 2.13478643294936e-01 4.71099100646962e-04
1.92818181818182e-01 2.12138310122844e-01 4.92256949281847e-04
2.11181818181818e-01 2.10806392282544e-01 5.12002838858213e-04
2.29545454545455e-01 2.09482836937274e-01 5.30506248936237e-04
2.47909090909091e-01 2.08167591577176e-01 5.47903767522698e-04
2.66272727272727e-01 2.06860604033333e-01 5.64307558169497e-04
2.84636363636364e-01 2.05561822458330e-01 5.79811195043416e-04
3.03000000000000e-01 2.04271195326274e-01 5.94493801729116e-04
3.21363636363636e-01 2.02988671443588e-01 6.08423069711750e-04
3.39727272727273e-01 2.01714199929687e-01 6.21657503059682e-04
3.58090909090909e-01 2.00447730231473e-01 6.34248120993849e-04
3.76454545454545e-01 1.99189212109025e-01 6.46239773335268e-04
3.94818181818182e-01 1.97938595634769e-01 6.57672166076664e-04
4.13181818181818e-01 1.96695831201235e-01 6.68580678341098e-04
4.31545454545455e-01 1.95460869508918e-01 6.78997018126907e-04
4.49909090909091e-01 1.94233661565223e-01 6.88949750864130e-04
4.68272727272727e-01 1.93014158690766e-01 6.98464735587578e-04
4.86636363636364e-01 1.91802312508869e-01 7.07565485426162e-04
5.05000000000000e-01 1.90598074944284e-01 7.16273464809401e-04
5.23363636363636e-01 1.89401398228453e-01 7.24608342227973e-04
5.41727272727273e-01 1.88212234888029e-01 7.32588202280773e-04
5.60090909090909e-01 1.87030537752289e-01 7.40229725919460e-04
5.78454545454545e-01 1.85856259944312e-01 7.47548346315147e-04
5.96818181818182e-01 1.84689354879574e-01 7.54558379789073e-04
6.15181818181818e-01 1.83529776270052e-01 7.61273141749697e-04
6.33545454545455e-01 1.82377478116258e-01 7.67705047445677e-04
6.51909090909091e-01 1.81232414705805e-01 7.73865697255555e-04
6.70272727272727e-01 1.80094540616884e-01 7.79765953991256e-04
6.88636363636364e-01 1.78963810711028e-01 7.85416010938518e-04
7.07000000000000e-01 1.77840180131621e-01 7.90825449476794e-04
7.25363636363636e-01 1.76723604306892e-01 7.96003292810427e-04
7.43727272727273e-01 1.75614038941778e-01 8.00958052485660e-04
7.62090909090909e-01 1.74511440022386e-01 8.05697769824183e-04
7.80454545454545e-01 1.73415763809594e-01 8.10230054332029e-04
7.98818181818182e-01 1.72326966837556e-01 8.14562115622875e-04
8.17181818181818e-01 1.71245005916099e-01 8.18700794368167e-04
8.35545454545454e-01 1.70169838124797e-01 8.22652590233228e-04
8.53909090909091e-01 1.69101420811476e-01 8.26423684985674e-04
8.72272727272727e-01 1.68039711594285e-01 8.30019965550118e-04
8.90636363636364e-01 1.66984668356172e-01 8.33447044966405e-04
9.09000000000000e-01 1.65936249243389e-01 8.36710279430541e-04
9.27363636363636e-01 1.64894412667289e-01 8.39814786056458e-04
9.45727272727273e-01 1.63859117298065e-01 8.42765458055616e-04
9.64090909090909e-01 1.62830322067630e-01 8.45566978593047e-04
9.82454545454545e-01 1.61807986164606e-01 8.48223834609428e-04
1.00081818181818e+00 1.60792069032849e-01 8.50740327404662e-04
1.01918181818182e+00 1.59782530372904e-01 8.53120585067402e-04
1.03754545454545e+00 1.58779330133384e-01 8.55368569327087e-04
1.05590909090909e+00 1.57782428527933e-01 8.57488090299192e-04
1.07427272727273e+00 1.56791786000890e-01 8.59482813000985e-04
1.09263636363636e+00 1.55807363254505e-01 8.61356258461407e-04
1.11100000000000e+00 1.54829121246659e-01 8.63111823076475e-04
1.12936363636364e+00 1.53857021162508e-01 8.64752777754533e-04
1.14772727272727e+00 1.52891024448264e-01 8.66282275967288e-04
1.16609090909091e+00 1.51931092775332e-01 8.67703361908906e-04
1.18445454545455e+00 1.50977188064218e-01 8.69018968539325e-04
1.20281818181818e+00 1.50029272482411e-01 8.70231933799873e-04
1.22118181818182e+00 1.49087308419099e-01 8.71345000043337e-04
1.23954545454545e+00 1.48151258507520e-01 8.72360813221432e-04
1.25790909090909e+00 1.47221085622978e-01 8.73281937745576e-04
1.27627272727273e+00 1.46296752858955e-01 8.74110855260426e-04
1.29463636363636e+00 1.45378223548115e-01 8.74849963239070e-04
1.31300000000000e+00 1.44465461260344e-01 8.75501588714426e-04
1.33136363636364e+00 1.43558429780205e-01 8.76067984960016e-04
1.34972727272727e+00 1.42657093133346e-01 8.76551336039444e-04
1.36809090909091e+00 1.41761415557918e-01 8.76953761608751e-04
1.38645454545455e+00 1.40871361523300e-01 8.77277313224956e-04
1.40481818181818e+00 1.39986895728253e-01 8.77523986454173e-04
1.42318181818182e+00 1.39107983080549e-01 8.77695718663566e-04
1.44154545454545e+00 1.38234588714600e-01 8.77794386737954e-04
1.45990909090909e+00 1.37366677989701e-01 8.77821818449926e-04
1.47827272727273e+00 1.36504216470680e-01 8.77779790040104e-04
1.49663636363636e+00 1.35647169944557e-01 8.77670023744663e-04
1.51500000000000e+00 1.34795504418807e-01 8.77494198519390e-04
1.53336363636364e+00 1.33949186102996e-01 8.77253946072822e-04
1.55172727272727e+00 1.33108181429928e-01 8.76950853817059e-04
1.57009090909091e+00 1.32272457032324e-01 8.76586468086874e-04
1.58845454545455e+00 1.31441979757834e-01 8.76162290053719e-04
1.60681818181818e+00 1.30616716667387e-01 8.75679785450570e-04
1.62518181818182e+00 1.29796635018434e-01 8.75140381881540e-04
1.64354545454545e+00 1.28981702279148e-01 8.74545466117552e-04
1.66190909090909e+00 1.28171886126840e-01 8.73896393351234e-04
1.68027272727273e+00 1.27367154431977e-01 8.73194484457090e-04
1.69863636363636e+00 1.26567475271652e-01 8.72441023246410e-04
1.71700000000000e+00 1.25772816928031e-01 8.71637265296798e-04
1.73536363636364e+00 1.24983147873108e-01 8.70784433962729e-04
1.75372727272727e+00 1.24198436785948e-01 8.69883722485334e-04
1.77209090909091e+00 1.23418652533335e-01 8.68936296351566e-04
1.79045454545455e+00 1.22643764181999e-01 8.67943289282876e-04
1.80881818181818e+00 1.21873740997134e-01 8.66905811373050e-04
1.82718181818182e+00 1.21108552428389e-01 8.65824946344057e-04
1.84554545454545e+00 1.20348168121483e-01 8.64701748812563e-04
1.86390909090909e+00 1.19592557916776e-01 8.63537252094325e-04
1.88227272727273e+00 1.18841691835860e-01 8.62332465474319e-04
1.90063636363636e+00 1.18095540092616e-01 8.61088371490897e-04
1.91900000000000e+00 1.17354073091810e-01 8.59805933431675e-04
1.93736363636364e+00 1.16617261416258e-01 8.58486091547442e-04
1.95572727272727e+00 1.15885075841092e-01 8.57129764666306e-04
1.97409090909091e+00 1.15157487317461e-01 8.55737852030920e-04
1.99245454545455e+00 1.14434466982642e-01 8.54311229529532e-04
2.01081818181818e+00 1.13715986158693e-01 8.52850756674453e-04
2.02918181818182e+00 1.13002016340582e-01 8.51357273971057e-04
2.04754545454545e+00 1.12292529205823e-01 8.49831600306612e-04
2.06590909090909e+00 1.11587496613166e-01 8.48274539675168e-04
2.08427272727273e+00 1.10886890591214e-01 8.46686878585793e-04
2.10263636363636e+00 1.10190683347610e-01 8.45069383491718e-04
2.12100000000000e+00 1.09498847267756e-01 8.43422807276892e-04
2.13936363636364e+00 1.08811354903891e-01 8.41747885748429e-04
2.15772727272727e+00 1.08128178987012e-01 8.40045338931046e-04
2.17609090909091e+00 1.07449292413013e-01 8.38315872558733e-04
2.19445454545455e+00 1.06774668251126e-01 8.36560174599402e-04
2.21281818181818e+00 1.06104279742687e-01 8.34778921333854e-04
2.23118181818182e+00 1.05438100290987e-01 8.32972774899640e-04
2.24954545454545e+00 1.04776103469334e-01 8.31142380858194e-04
2.26790909090909e+00 1.04118263019855e-01 8.29288374071198e-04
2.28627272727273e+00 1.03464552843731e-01 8.27411376292333e-04
2.30463636363636e+00 1.02814947008919e-01 8.25511993782648e-04
2.32300000000000e+00 1.02169419748961e-01 8.23590822994608e-04
2.34136363636364e+00 1.01527945453611e-01 8.21648447358419e-04
2.35972727272727e+00 1.00890498678891e-01 8.19685438354484e-04
2.37809090909091e+00 1.00257054135190e-01 8.17702356759913e-04
2.39645454545455e+00 9.96275866943802e-02 8.15699749472021e-04
2.41481818181818e+00 9.90020713886770e-02 8.13678154860016e-04
2.43318181818182e+00 9.83804834018891e-02 8.11638100501384e-04
2.45154545454545e+00 9.77627980762217e-02 8.09580100942023e-04
2.46990909090909e+00 9.71489909111756e-02 8.07504662881167e-04
2.48827272727273e+00 9.65390375551102e-02 8.05412282957096e-04
2.50663636363636e+00 9.59329138117672e-02 8.03303445556429e-04
2.52500000000000e+00 9.53305956391858e-02 8.01178627839576e-04
2.54336363636364e+00 9.47320591415781e-02 7.99038296810989e-04
2.56172727272727e+00 9.41372805778867e-02 7.96882910228809e-04
2.58009090909091e+00 9.35462363514884e-02 7.94712917668205e-04
2.59845454545455e+00 9.29589030162307e-02 7.92528757629107e-04
2.61681818181818e+00 9.23752572753874e-02 7.90330862283817e-04
2.63518181818182e+00 9.17952759740530e-02 7.88119655404120e-04
2.65354545454545e+00 9.12189361049279e-02 7.85895550311353e-04
2.67190909090909e+00 9.06462148073027e-02 7.83658954483235e-04
2.69027272727273e+00 9.00770893597172e-02 7.81410267528654e-04
2.70863636363636e+00 8.95115371855145e-02 7.79149879185316e-04
2.72700000000000e+00 8.89495358518414e-02 7.76878173791369e-04
2.74536363636364e+00 8.83910630625674e-02 7.74595527620708e-04
2.76372727272727e+00 8.78360966656093e-02 7.72302309667524e-04
2.78209090909091e+00 8.72846146439682e-02 7.69998882566612e-04
2.80045454545455e+00 8.67365951208844e-02 7.67685599964767e-04
2.81881818181818e+00 8.61920163588730e-02 7.65362810756202e-04
2.83718181818182e+00 8.56508567530769e-02 7.63030857190191e-04
2.85554545454545e+00 8.51130948362145e-02 7.60690073000714e-04
2.87390909090909e+00 8.45787092776408e-02 7.58340787521433e-04
2.89227272727273e+00 8.40476788769226e-02 7.55983323837886e-04
2.91063636363636e+00 8.35199825685955e-02 7.53617996961520e-04
2.92900000000000e+00 8.29955994212393e-02 7.51245117828612e-04
2.94736363636364e+00 8.24745086312734e-02 7.48864990878228e-04
2.96572727272727e+00 8.19566895292604e-02 7.46477914737342e-04
2.98409090909091e+00 8.14421215720611e-02 7.44084183026385e-04
3.00245454545455e+00 8.09307843472596e-02 7.41684081970671e-04
3.02081818181818e+00 8.04226575722718e-02 7.39277894195942e-04
3.03918181818182e+00 7.99177210885066e-02 7.36865897003585e-04
3.05754545454545e+00 7.94159548656175e-02 7.34448360665871e-04
3.07590909090909e+00 7.89173390006346e-02 7.32025552116812e-04
3.09427272727273e+00 7.84218537123135e-02 7.29597733268601e-04
3.11263636363636e+00 7.79294793452289e-02 7.27165159347801e-04
3.13100000000000e+00 7.74401963689193e-02 7.24728082485275e-04
3.14936363636364e+00 7.69539853724231e-02 7.22286749515070e-04
3.16772727272727e+00 7.64708270697303e-02 7.19841402578112e-04
3.18609090909091e+00 7.59907022928832e-02 7.17392279833053e-04
3.20445454545455e+00 7.55135919957926e-02 7.14939613285722e-04
3.22281818181818e+00 7.50394772534125e-02 7.12483632202280e-04
3.24118181818182e+00 7.45683392565877e-02 7.10024561537595e-04
3.25954545454545e+00 7.41001593157246e-02 7.07562620382396e-04
3.27790909090909e+00 7.36349188599862e-02 7.05098025284966e-04
3.29627272727273e+00 7.31725994323014e-02 7.02630988717234e-04
3.31463636363636e+00 7.27131826929015e-02 7.00161717559202e-04
3.33300000000000e+00 7.22566504185287e-02 6.97690416332107e-04
3.35136363636364e+00 7.18029844976046e-02 6.95217285197010e-04
3.36972727272727e+00 7.13521669349639e-02 6.92742520490528e-04
3.38809090909091e+00 7.09041798457626e-02 6.90266315356252e-04
3.40645454545455e+00 7.04590054587819e-02 6.87788857771129e-04
3.42481818181818e+00 7.00166261156631e-02 6.85310333623661e-04
3.44318181818182e+00 6.95770242663437e-02 6.82830925281871e-04
3.46154545454545e+00 6.91401824722381e-02 6.80350810178519e-04
3.47990909090909e+00 6.87060834054912e-02 6.77870163808720e-04
3.49827272727273e+00 6.82747098445535e-02 6.75389158332311e-04
3.51663636363636e+00 6.78460446772486e-02 6.72907961193019e-04
3.53500000000000e+00 6.74200709000386e-02 6.70426738037929e-04
3.55336363636364e+00 6.69967716137373e-02 6.67945650896418e-04
3.57172727272727e+00 6.65761300276346e-02 6.65464858658216e-04
3.59009090909091e+00 6.61581294540992e-02 6.62984517637161e-04
3.60845454545455e+00 6.57427533114477e-02 6.60504779775278e-04
3.62681818181818e+00 6.53299851232358e-02 6.58025795425605e-04
3.64518181818182e+00 6.49198085142010e-02 6.55547712047033e-04
3.66354545454545e+00 6.45122072130282e-02 6.53070672914701e-04
3.68190909090909e+00 6.41071650516572e-02 6.50594819831281e-04
3.70027272727273e+00 6.37046659613459e-02 6.48120291853174e-04
3.71863636363636e+00 6.33046939753400e-02 6.45647224031710e-04
3.73700000000000e+00 6.29072332281908e-02 6.43175750055292e-04
3.75536363636364e+00 6.25122679519390e-02 6.40706000591174e-04
3.77372727272727e+00 6.21197824797204e-02 6.38238103713798e-04
3.79209090909091e+00 6.17297612409673e-02 6.35772185410327e-04
3.81045454545455e+00 6.13421887639094e-02 6.33308367945104e-04
3.82881818181818e+00 6.09570496749150e-02 6.30846772380687e-04
3.84718181818182e+00 6.05743286948740e-02 6.28387517387461e-04
3.86554545454545e+00 6.01940106416097e-02 6.25930718067547e-04
3.88390909090909e+00 5.98160804292347e-02 6.23476488412289e-04
3.90227272727273e+00 5.94405230646399e-02 6.21024940140096e-04
3.92063636363636e+00 5.90673236498227e-02 6.18576181548610e-04
3.93900000000000e+00 5.86964673812545e-02 6.16130319910380e-04
3.95736363636364e+00 5.83279395464732e-02 6.13687459961373e-04
3.97572727272727e+00 5.79617255272438e-02 6.11247704286542e-04
3.99409090909091e+00 5.75978107952813e-02 6.08811153774548e-04
4.01245454545455e+00 5.72361809144352e-02 6.06377906126967e-04
4.03081818181818e+00 5.68768215400774e-02 6.03948058146209e-04
4.04918181818182e+00 5.65197184158691e-02 6.01521704649115e-04
4.06754545454545e+00 5.61648573758690e-02 5.99098937393781e-04
4.08590909090909e+00 5.58122243439353e-02 5.96679847310732e-04
4.10427272727273e+00 5.54618053305842e-02 5.94264523442225e-04
4.12263636363636e+00 5.51135864350272e-02 5.91853051894546e-04
4.14100000000000e+00 5.47675538445830e-02 5.89445518013822e-04
4.15936363636364e+00 5.44236938316275e-02 5.87042005007465e-04
4.17772727272727e+00 5.40819927563719e-02 5.84642594292030e-04
4.19609090909091e+00 5.37424370630395e-02 5.82247365903361e-04
4.21445454545455e+00 5.34050132817793e-02 5.79856397136679e-04
4.23281818181818e+00 5.30697080280970e-02 5.77469764626181e-04
4.25118181818182e+00 5.27365079999572e-02 5.75087543352911e-04
4.26954545454545e+00 5.24053999796314e-02 5.72709805664787e-04
4.28790909090909e+00 5.20763708331419e-02 5.70336623305245e-04
4.30627272727273e+00 5.17494075074445e-02 5.67968066444545e-04
4.32463636363636e+00 5.14244970322149e-02 5.65604202722906e-04
4.34300000000000e+00 5.11016265193028e-02 5.63245099229457e-04
4.36136363636364e+00 5.07807831599939e-02 5.60890821243864e-04
4.37972727272727e+00 5.04619542274590e-02 5.58541432551007e-04
4.39809090909091e+00 5.01451270733271e-02 5.56196995811786e-04
4.41645454545455e+00 4.98302891293665e-02 5.53857571321474e-04
4.43481818181818e+00 4.95174279069551e-02 5.51523218902699e-04
4.45318181818182e+00 4.92065309944778e-02 5.49193996998737e-04
4.47154545454545e+00 4.88975860589491e-02 5.46869961778021e-04
4.48990909090909e+00 4.85905808454963e-02 5.44551168981254e-04
4.50827272727273e+00 4.82855031748273e-02 5.42237673035853e-04
4.52663636363636e+00 4.79823409448011e-02 5.39929526181513e-04
4.54500000000000e+00 4.76810821299185e-02 5.37626780272718e-04
4.56336363636364e+00 4.73817147788620e-02 5.35329485628858e-04
4.58172727272727e+00 4.70842270166566e-02 5.33037691319518e-04
4.60009090909091e+00 4.67886070415943e-02 5.30751445500505e-04
4.61845454545455e+00 4.64948431267114e-02 5.28470794279325e-04
4.63681818181818e+00 4.62029236192970e-02 5.26195783440355e-04
4.65518181818182e+00 4.59128369385498e-02 5.23926457615616e-04
4.67354545454545e+00 4.56245715770064e-02 5.21662859465824e-04
4.69190909090909e+00 4.53381161000598e-02 5.19405031364346e-04
4.71027272727273e+00 4.50534591436800e-02 5.17153014587268e-04
4.72863636363636e+00 4.47705894157959e-02 5.14906848513474e-04
4.74700000000000e+00 4.44894956958221e-02 5.12666572268310e-04
4.76536363636364e+00 4.42101668324422e-02 5.10432223672266e-04
4.78372727272727e+00 4.39325917455202e-02 5.08203839500014e-04
4.80209090909091e+00 4.36567594233341e-02 5.05981455785466e-04
4.82045454545455e+00 4.33826589238774e-02 5.03765106784368e-04
4.83881818181818e+00 4.31102793744018e-02 5.01554826548090e-04
4.85718181818182e+00 4.28396099693041e-02 4.99350648164942e-04
4.87554545454545e+00 4.25706399713858e-02 4.97152603010859e-04
4.89390909090909e+00 4.23033587114043e-02 4.94960722285895e-04
4.91227272727273e+00 4.20377555860173e-02 4.92775036273159e-04
4.93063636363636e+00 4.17738200590005e-02 4.90595573606645e-04
4.94900000000000e+00 4.15115416608086e-02 4.88422362771526e-04
4.96736363636364e+00 4.12509099865733e-02 4.86255431142305e-04
4.98572727272727e+00 4.09919146977980e-02 4.84094805218391e-04
5.00409090909091e+00 4.07345455198644e-02 4.81940510901434e-04
5.02245454545455e+00 4.04787922431813e-02 4.79792572545941e-04
5.04081818181818e+00 4.02246447227586e-02 4.77651014396667e-04
5.05918181818182e+00 3.99720928762995e-02 4.75515859893857e-04
5.07754545454545e+00 3.97211266853113e-02 4.73387130987058e-04
5.09590909090909e+00 3.94717361946891e-02 4.71264849538818e-04
5.11427272727273e+00 3.92239115108570e-02 4.69149036645839e-04
5.13263636363636e+00 3.89776428028448e-02 4.67039711968560e-04
5.15100000000000e+00 3.87329203018781e-02 4.64936895101958e-04
5.16936363636364e+00 3.84897342995696e-02 4.62840604694754e-04
5.18772727272727e+00 3.82480751494225e-02 4.60750858664028e-04
5.20609090909091e+00 3.80079332645803e-02 4.58667674447698e-04
5.22445454545455e+00 3.77692991188421e-02 4.56591068135205e-04
5.24281818181818e+00 3.75321632462659e-02 4.54521055781382e-04
5.26118181818182e+00 3.72965162394426e-02 4.52457652769885e-04
5.27954545454545e+00 3.70623487504785e-02 4.50400873184547e-04
5.29790909090909e+00 3.68296514906070e-02 4.48350731092662e-04
5.31627272727273e+00 3.65984152285073e-02 4.46307239922933e-04
5.33463636363636e+00 3.63686307912560e-02 4.44270411851158e-04
5.35300000000000e+00 3.61402890639456e-02 4.42240259053715e-04
5.37136363636364e+00 3.59133809880473e-02 4.40216792900635e-04
5.38972727272727e+00 3.56878975627471e-02 4.38200024151350e-04
5.40809090909091e+00 3.54638298429116e-02 4.36189963184801e-04
5.42645454545455e+00 3.52411689399866e-02 4.34186619202797e-04
5.44481818181818e+00 3.50199060216277e-02 4.32190001432107e-04
5.46318181818182e+00 3.48000323101370e-02 4.30200118540861e-04
5.48154545454545e+00 3.45815390833323e-02 4.28216978062142e-04
5.49990909090909e+00 3.43644176741859e-02 4.26240587568326e-04
5.51827272727273e+00 3.41486594693006e-02 4.24270954100650e-04
5.53663636363636e+00 3.39342559097529e-02 4.22308083605932e-04
5.55500000000000e+00 3.37211984907371e-02 4.20351982083843e-04
5.57336363636364e+00 3.35094787600817e-02 4.18402654847150e-04
5.59172727272727e+00 3.32990883194382e-02 4.16460106700312e-04
5.61009090909091e+00 3.30900188224396e-02 4.14524342149443e-04
5.62845454545455e+00 3.28822619754968e-02 4.12595364672026e-04
5.64681818181818e+00 3.26758095374548e-02 4.10673177817455e-04
5.66518181818182e+00 3.24706533181741e-02 4.08757784671588e-04
5.68354545454545e+00 3.22667851793013e-02 4.06849187328155e-04
5.70190909090909e+00 3.20641970339329e-02 4.04947387964052e-04
5.72027272727273e+00 3.18628808452321e-02 4.03052388316050e-04
5.73863636363636e+00 3.16628286271763e-02 4.01164189164052e-04
5.75700000000000e+00 3.14640324442259e-02 3.99282791381716e-04
5.77536363636364e+00 3.12664844099774e-02 3.97408195257981e-04
5.79372727272727e+00 3.10701766882229e-02 3.95540400660258e-04
