Energy (eV)          EEDF (eV^-(3/2))     First Anisotropy
8.65384615384615e-02 6.67495766559651e-02 6.86674835132174e-05
2.59615384615385e-01 6.50029688084018e-02 1.12283499890249e-04
4.32692307692308e-01 6.33020637073339e-02 1.45325464003883e-04
6.05769230769231e-01 6.16456654683244e-02 1.68728737595420e-04
7.78846153846154e-01 6.00326094991767e-02 1.86888567553902e-04
9.51923076923077e-01 5.84617616810964e-02 2.01518383188407e-04
1.12500000000000e+00 5.69320175681527e-02 2.13530502183993e-04
1.29807692307692e+00 5.54423016245176e-02 2.23490852108032e-04
1.47115384615385e+00 5.39915664485058e-02 2.31784420741878e-04
1.64423076923077e+00 5.25787920376470e-02 2.38689894681867e-04
1.81730769230769e+00 5.12029850981099e-02 2.44418243464252e-04
1.99038461538462e+00 4.98631783168858e-02 2.49134652294764e-04
2.16346153846154e+00 4.85584296866559e-02 2.52971897686595e-04
2.33653846153846e+00 4.72878218622073e-02 2.56038967218609e-04
2.50961538461538e+00 4.60504614950010e-02 2.58426861444601e-04
2.68269230769231e+00 4.48454786081507e-02 2.60212639609793e-04
2.85576923076923e+00 4.36720259986928e-02 2.61462330561325e-04
3.02884615384615e+00 4.25292786269068e-02 2.62233079831397e-04
3.20192307692308e+00 4.14164330381523e-02 2.62574766571485e-04
3.37500000000000e+00 4.03327068088692e-02 2.62531248115107e-04
3.54807692307692e+00 3.92773379849255e-02 2.62141332621849e-04
3.72115384615385e+00 3.82495845499597e-02 2.61439549887912e-04
3.89423076923077e+00 3.72487239011562e-02 2.60456771252796e-04
4.06730769230769e+00 3.62740523490439e-02 2.59220714555145e-04
4.24038461538461e+00 3.53248846145046e-02 2.57756359651931e-04
4.41346153846154e+00 3.44005533478036e-02 2.56086292168029e-04
4.58653846153846e+00 3.35004086657960e-02 2.54230992862109e-04
4.75961538461538e+00 3.26238176882695e-02 2.52209082095536e-04
4.93269230769231e+00 3.17701640936451e-02 2.50037526707441e-04
5.10576923076923e+00 3.09388476909498e-02 2.47731818462248e-04
5.27884615384615e+00 3.01292839922788e-02 2.45306127944497e-04
5.45192307692308e+00 2.93409038023544e-02 2.42773436990333e-04
5.62500000000000e+00 2.85731528227890e-02 2.40145655211673e-04
5.79807692307692e+00 2.78254912577286e-02 2.37433722035794e-04
5.97115384615385e+00 2.70973934359360e-02 2.34647696082937e-04
6.14423076923077e+00 2.63883474400664e-02 2.31796834300537e-04
6.31730769230769e+00 2.56978547502494e-02 2.28889662559817e-04
6.49038461538461e+00 2.50254298899520e-02 2.25934038682110e-04
6.66346153846154e+00 2.43706000849425e-02 2.22937208015852e-04
6.83653846153846e+00 2.37329049338790e-02 2.19905854078992e-04
7.00961538461538e+00 2.31118960815019e-02 2.16846144138473e-04
7.18269230769231e+00 2.25071369036529e-02 2.13763769644616e-04
7.35576923076923e+00 2.19182022028546e-02 2.10663983519016e-04
7.52884615384615e+00 2.13446779066993e-02 2.07551633985140e-04
7.70192307692308e+00 2.07861607769232e-02 2.04431194703246e-04
7.87500000000000e+00 2.02422581281133e-02 2.01306792858522e-04
8.04807692307692e+00 1.97125875493230e-02 1.98182234758315e-04
8.22115384615385e+00 1.91967766359930e-02 1.95061028974201e-04
8.39423076923077e+00 1.86944627275316e-02 1.91946407614064e-04
8.56730769230769e+00 1.82052926541447e-02 1.88841346064734e-04
8.74038461538461e+00 1.77289224866569e-02 1.85748581217633e-04
8.91346153846154e+00 1.72650172948337e-02 1.82670627774856e-04
9.08653846153846e+00 1.68132509134739e-02 1.79609793772004e-04
9.25961538461539e+00 1.63733057114568e-02 1.76568194918397e-04
9.43269230769231e+00 1.59448723685368e-02 1.73547767426000e-04
9.60576923076923e+00 1.55276496592428e-02 1.70550280322419e-04
9.77884615384615e+00 1.51213442396671e-02 1.67577346866554e-04
9.95192307692308e+00 1.47256704413166e-02 1.64630434597859e-04
1.01250000000000e+01 1.43403500729654e-02 1.61710875971803e-04
1.02980769230769e+01 1.39651122163471e-02 1.58819876194818e-04
1.04711538461538e+01 1.35996930503637e-02 1.55958521963539e-04
1.06442307692308e+01 1.32438356534262e-02 1.53127790514636e-04
1.08173076923077e+01 1.28972898267041e-02 1.50328555954035e-04
1.09903846153846e+01 1.25598119151912e-02 1.47561595520025e-04
1.11634615384615e+01 1.22311646457244e-02 1.44827596647145e-04
1.13365384615385e+01 1.19111169505815e-02 1.42127163637729e-04
1.15096153846154e+01 1.15994438082811e-02 1.39460822164301e-04
1.16826923076923e+01 1.12959260854030e-02 1.36829025130757e-04
1.18557692307692e+01 1.10003503800431e-02 1.34232156726624e-04
1.20288461538462e+01 1.07125088793253e-02 1.31670537571583e-04
1.22019230769231e+01 1.04321992055453e-02 1.29144429595152e-04
1.23750000000000e+01 1.01592242765381e-02 1.26654039393924e-04
1.25480769230769e+01 9.89339216501867e-03 1.24199521579499e-04
1.27211538461538e+01 9.63451597006073e-03 1.21780982813164e-04
1.28942307692308e+01 9.38241367910582e-03 1.19398485643205e-04
1.30673076923077e+01 9.13690804224091e-03 1.17052051039960e-04
1.32403846153846e+01 8.89782644579936e-03 1.14741660949854e-04
1.34134615384615e+01 8.66500079647325e-03 1.12467261480097e-04
1.35865384615385e+01 8.43826739751661e-03 1.10228765934652e-04
1.37596153846154e+01 8.21746683556188e-03 1.08026056546081e-04
1.39326923076923e+01 8.00244386855301e-03 1.05858987168587e-04
1.41057692307692e+01 7.79304731512553e-03 1.03727384879057e-04
1.42788461538462e+01 7.58912995280313e-03 1.01631052358257e-04
1.44519230769231e+01 7.39054840988768e-03 9.95697701672213e-05
1.46250000000000e+01 7.19716306623137e-03 9.75432980970264e-05
1.47980769230769e+01 7.00883795381511e-03 9.55513765645688e-05
1.49711538461538e+01 6.82544066500236e-03 9.35937285087627e-05
1.51442307692308e+01 6.64684225550053e-03 9.16700612064820e-05
1.53173076923077e+01 6.47291715504769e-03 8.97800672843407e-05
1.54903846153846e+01 6.30354307804987e-03 8.79234257803977e-05
1.56634615384615e+01 6.13860094091397e-03 8.60998036569436e-05
1.58365384615385e+01 5.97797477493160e-03 8.43088572515396e-05
1.60096153846154e+01 5.82155164589583e-03 8.25502329072886e-05
1.61826923076923e+01 5.66922157470622e-03 8.08235682620863e-05
1.63557692307692e+01 5.52087745914613e-03 7.91284928487125e-05
1.65288461538462e+01 5.37641500132098e-03 7.74646292341728e-05
1.67019230769231e+01 5.23573263152292e-03 7.58315941148582e-05
1.68750000000000e+01 5.09873143777767e-03 7.42289988253702e-05
1.70480769230769e+01 4.96531509552856e-03 7.26564498969226e-05
1.72211538461538e+01 4.83538980227766e-03 7.11135499661223e-05
1.73942307692308e+01 4.70886420921350e-03 6.95998986496656e-05
1.75673076923077e+01 4.58564935781026e-03 6.81150929062307e-05
1.77403846153846e+01 4.46565861661672e-03 6.66587274460189e-05
1.79134615384615e+01 4.34880762239230e-03 6.52303954542159e-05
1.80865384615385e+01 4.23501421869927e-03 6.38296892881798e-05
1.82596153846154e+01 4.12419839885122e-03 6.24562006451568e-05
1.84326923076923e+01 4.01628224966547e-03 6.11095211784968e-05
1.86057692307692e+01 3.91118989612475e-03 5.97892426685446e-05
1.87788461538462e+01 3.80884744973567e-03 5.84949575627724e-05
1.89519230769231e+01 3.70918295483455e-03 5.72262594972908e-05
1.91250000000000e+01 3.61212633859222e-03 5.59827434391168e-05
1.92980769230769e+01 3.51760936126362e-03 5.47640058697695e-05
1.94711538461538e+01 3.42556556968867e-03 5.35696452111225e-05
1.96442307692308e+01 3.33593024905694e-03 5.23992622370675e-05
1.98173076923077e+01 3.24864037792308e-03 5.12524601519205e-05
1.99903846153846e+01 3.16363458347883e-03 5.01288447072212e-05
2.01634615384615e+01 3.08085309968755e-03 4.90280245351115e-05
2.03365384615385e+01 3.00023772394950e-03 4.79496114710027e-05
2.05096153846154e+01 2.92173177662691e-03 4.68932205294402e-05
2.06826923076923e+01 2.84528006119560e-03 4.58584701851021e-05
2.08557692307692e+01 2.77082882508419e-03 4.48449823617800e-05
2.10288461538462e+01 2.69832572295842e-03 4.38523826737619e-05
2.12019230769231e+01 2.62771977881680e-03 4.28803006599801e-05
2.13750000000000e+01 2.55896135052589e-03 4.19283697694146e-05
2.15480769230769e+01 2.49200209461124e-03 4.09962273782770e-05
2.17211538461538e+01 2.42679493320561e-03 4.00835149740616e-05
2.18942307692308e+01 2.36329401999037e-03 3.91898783343567e-05
2.20673076923077e+01 2.30145470828813e-03 3.83149674863810e-05
2.22403846153846e+01 2.24123351940582e-03 3.74584366956337e-05
2.24134615384615e+01 2.18258811288300e-03 3.66199446036271e-05
2.25865384615385e+01 2.12547725588715e-03 3.57991543619457e-05
2.27596153846154e+01 2.06986079450737e-03 3.49957335367797e-05
2.29326923076923e+01 2.01569962552398e-03 3.42093542214392e-05
2.31057692307692e+01 1.96295566869012e-03 3.34396929554540e-05
2.32788461538462e+01 1.91159184064635e-03 3.26864308163707e-05
2.34519230769231e+01 1.86157202814443e-03 3.19492535094534e-05
2.36250000000000e+01 1.81286106289659e-03 3.12278512926529e-05
2.37980769230769e+01 1.76542469665264e-03 3.05219189251834e-05
2.39711538461538e+01 1.71922957772181e-03 2.98311557309919e-05
2.41442307692308e+01 1.67424322690919e-03 2.91552656610144e-05
2.43173076923077e+01 1.63043401488922e-03 2.84939572098861e-05
2.44903846153846e+01 1.58777113979616e-03 2.78469433541316e-05
2.46634615384615e+01 1.54622460609338e-03 2.72139415929977e-05
2.48365384615385e+01 1.50576520294681e-03 2.65946739887547e-05
2.50096153846154e+01 1.46636448386960e-03 2.59888670539432e-05
2.51826923076923e+01 1.42799474672262e-03 2.53962517807322e-05
2.53557692307692e+01 1.39062901409188e-03 2.48165635412300e-05
2.55288461538462e+01 1.35424101476530e-03 2.42495421061791e-05
2.57019230769231e+01 1.31880516480799e-03 2.36949316638044e-05
2.58750000000000e+01 1.28429654972927e-03 2.31524807287900e-05
2.60480769230769e+01 1.25069090683849e-03 2.26219420684916e-05
2.62211538461538e+01 1.21796460857526e-03 2.21030727083285e-05
2.63942307692308e+01 1.18609464549983e-03 2.15956339376930e-05
2.65673076923077e+01 1.15505861025074e-03 2.10993912186137e-05
2.67403846153846e+01 1.12483468167928e-03 2.06141141100457e-05
2.69134615384615e+01 1.09540160984830e-03 2.01395762629136e-05
2.70865384615385e+01 1.06673870074337e-03 1.96755554159356e-05
2.72596153846154e+01 1.03882580184143e-03 1.92218332887908e-05
2.74326923076923e+01 1.01164328794227e-03 1.87781955726400e-05
2.76057692307692e+01 9.85172047275622e-04 1.83444318340675e-05
2.77788461538462e+01 9.59393468352922e-04 1.79203355003398e-05
2.79519230769231e+01 9.34289426586709e-04 1.75057038457067e-05
2.81250000000000e+01 9.09842271648059e-04 1.71003379040141e-05
2.82980769230769e+01 8.86034814973977e-04 1.67040423937879e-05
2.84711538461538e+01 8.62850317935933e-04 1.63166256979617e-05
2.86442307692308e+01 8.40272479812193e-04 1.59378998447606e-05
2.88173076923077e+01 8.18285426415105e-04 1.55676804232787e-05
2.89903846153846e+01 7.96873698857524e-04 1.52057865103371e-05
2.91634615384615e+01 7.76022242906563e-04 1.48520406461892e-05
2.93365384615385e+01 7.55716398171757e-04 1.45062688114477e-05
2.95096153846154e+01 7.35941887874775e-04 1.41683003348451e-05
2.96826923076923e+01 7.16684808811880e-04 1.38379678678472e-05
2.98557692307692e+01 6.97931621516795e-04 1.35151073009220e-05
3.00288461538462e+01 6.79669140930484e-04 1.31995577357832e-05
3.02019230769231e+01 6.61884526937746e-04 1.28911614589173e-05
3.03750000000000e+01 6.44565275405310e-04 1.25897638654780e-05
3.05480769230769e+01 6.27699209335967e-04 1.22952133921528e-05
3.07211538461538e+01 6.11274470473436e-04 1.20073614878020e-05
3.08942307692308e+01 5.95279510795141e-04 1.17260625853851e-05
3.10673076923077e+01 5.79703084450721e-04 1.14511740298484e-05
3.12403846153846e+01 5.64534239807468e-04 1.11825560141226e-05
3.14134615384615e+01 5.49762311896726e-04 1.09200715488931e-05
3.15865384615385e+01 5.35376914766084e-04 1.06635864336424e-05
3.17596153846154e+01 5.21367934227889e-04 1.04129691809109e-05
3.19326923076923e+01 5.07725520748265e-04 1.01680909865726e-05
3.21057692307692e+01 4.94440082481217e-04 9.92882566064930e-06
3.22788461538462e+01 4.81502278649343e-04 9.69504959672937e-06
3.24519230769231e+01 4.68903012849258e-04 9.46664174262995e-06
3.26250000000000e+01 4.56633426699359e-04 9.24348353750559e-06
3.27980769230769e+01 4.44684893575734e-04 9.02545885539262e-06
3.29711538461538e+01 4.33049012656637e-04 8.81245397490527e-06
3.31442307692308e+01 4.21717602903963e-04 8.60435755012847e-06
3.33173076923077e+01 4.10682697349369e-04 8.40106055171461e-06
3.34903846153846e+01 3.99936537461241e-04 8.20245621379193e-06
3.36634615384615e+01 3.89471567786461e-04 8.00844000426403e-06
3.38365384615385e+01 3.79280430539580e-04 7.81890959625591e-06
3.40096153846154e+01 3.69355960463168e-04 7.63376480782429e-06
3.41826923076923e+01 3.59691179790121e-04 7.45290757340185e-06
3.43557692307692e+01 3.50279293310666e-04 7.27624188847170e-06
3.45288461538462e+01 3.41113683677222e-04 7.10367378091686e-06
3.47019230769231e+01 3.32187906667649e-04 6.93511128345479e-06
3.48750000000000e+01 3.23495686683071e-04 6.77046438332265e-06
3.50480769230769e+01 3.15030912311795e-04 6.60964497656974e-06
3.52211538461538e+01 3.06787632105197e-04 6.45256684048188e-06
3.53942307692308e+01 2.98760050319107e-04 6.29914560703282e-06
3.55673076923077e+01 2.90942522864136e-04 6.14929871611777e-06
3.57403846153846e+01 2.83329553316447e-04 6.00294537294414e-06
3.59134615384615e+01 2.75915789117456e-04 5.86000652164790e-06
3.60865384615385e+01 2.68696017745033e-04 5.72040481987624e-06
3.62596153846154e+01 2.61665163070886e-04 5.58406459178341e-06
3.64326923076923e+01 2.54818281791664e-04 5.45091180295289e-06
3.66057692307692e+01 2.48150559935430e-04 5.32087401711317e-06
3.67788461538462e+01 2.41657309531842e-04 5.19388037131537e-06
3.69519230769231e+01 2.35333965260164e-04 5.06986155200910e-06
3.71250000000000e+01 2.29176081258489e-04 4.94874975565492e-06
3.72980769230769e+01 2.23179327982087e-04 4.83047865263063e-06
3.74711538461538e+01 2.17339489207765e-04 4.71498336372804e-06
3.76442307692308e+01 2.11652459020099e-04 4.60220043748903e-06
3.78173076923077e+01 2.06114238941418e-04 4.49206781379076e-06
3.79903846153846e+01 2.00720935106558e-04 4.38452479040214e-06
3.81634615384615e+01 1.95468755567903e-04 4.27951200081002e-06
3.83365384615385e+01 1.90354007585679e-04 4.17697139282814e-06
3.85096153846154e+01 1.85373095046457e-04 4.07684619249000e-06
3.86826923076923e+01 1.80522515934813e-04 3.97908088311610e-06
3.88557692307692e+01 1.75798859859120e-04 3.88362117197196e-06
3.90288461538462e+01 1.71198805690337e-04 3.79041396972294e-06
3.92019230769231e+01 1.66719119189636e-04 3.69940737060826e-06
3.93750000000000e+01 1.62356650747157e-04 3.61055062208163e-06
3.95480769230769e+01 1.58108333156986e-04 3.52379409680416e-06
3.97211538461538e+01 1.53971179492977e-04 3.43908927339133e-06
3.98942307692308e+01 1.49942280975690e-04 3.35638871782718e-06
4.00673076923077e+01 1.46018804938489e-04 3.27564605550590e-06
4.02403846153846e+01 1.42197992826585e-04 3.19681594539538e-06
4.04134615384615e+01 1.38477158286132e-04 3.11985406203853e-06
4.05865384615385e+01 1.34853685246308e-04 3.04471707817295e-06
4.07596153846154e+01 1.31325026089904e-04 2.97136263729808e-06
4.09326923076923e+01 1.27888699862146e-04 2.89974933675996e-06
4.11057692307692e+01 1.24542290518347e-04 2.82983670236178e-06
4.12788461538462e+01 1.21283445249716e-04 2.76158517185709e-06
4.14519230769231e+01 1.18109872804136e-04 2.69495607900591e-06
4.16250000000000e+01 1.15019341883722e-04 2.62991163044210e-06
4.17980769230769e+01 1.12009679568932e-04 2.56641488421988e-06
4.19711538461538e+01 1.09078769812497e-04 2.50442973445440e-06
4.21442307692308e+01 1.06224551929536e-04 2.44392089648188e-06
4.23173076923077e+01 1.03445019156240e-04 2.38485388561995e-06
4.24903846153846e+01 1.00738217232673e-04 2.32719499744274e-06
4.26634615384615e+01 9.81022430479394e-05 2.27091129351354e-06
4.28365384615385e+01 9.55352432825634e-05 2.21597058759674e-06
4.30096153846154e+01 9.30354131120910e-05 2.16234142499125e-06
4.31826923076923e+01 9.06009949381557e-05 2.10999306916373e-06
4.33557692307692e+01 8.82302771473455e-05 2.05889548258529e-06
4.35288461538462e+01 8.59215929242421e-05 2.00901931374146e-06
4.37019230769231e+01 8.36733190627238e-05 1.96033588457612e-06
4.38750000000000e+01 8.14838748304205e-05 1.91281717302064e-06
4.40480769230769e+01 7.93517208525567e-05 1.86643579672209e-06
4.42211538461538e+01 7.72753580442043e-05 1.82116500101773e-06
4.43942307692308e+01 7.52533265414371e-05 1.77697864730873e-06
4.45673076923077e+01 7.32842046799701e-05 1.73385119705695e-06
4.47403846153846e+01 7.13666079913908e-05 1.69175769686249e-06
4.49134615384615e+01 6.94991882426596e-05 1.65067376734573e-06
4.50865384615385e+01 6.76806324750250e-05 1.61057559239594e-06
4.52596153846154e+01 6.59096620853675e-05 1.57143990370612e-06
4.54326923076923e+01 6.41850319272409e-05 1.53324397038061e-06
4.56057692307692e+01 6.25055294317969e-05 1.49596558457160e-06
4.57788461538462e+01 6.08699737663231e-05 1.45958305141118e-06
4.59519230769231e+01 5.92772149927153e-05 1.42407517927380e-06
4.61250000000000e+01 5.77261332628158e-05 1.38942126667405e-06
4.62980769230769e+01 5.62156380278509e-05 1.35560109001982e-06
4.64711538461538e+01 5.47446672814980e-05 1.32259489432784e-06
4.66442307692308e+01 5.33121868031897e-05 1.29038338424241e-06
4.68173076923077e+01 5.19171894343706e-05 1.25894771205626e-06
4.69903846153846e+01 5.05586943675336e-05 1.22826946650277e-06
4.71634615384615e+01 4.92357464653285e-05 1.19833066420265e-06
4.73365384615385e+01 4.79474155801433e-05 1.16911374138828e-06
4.75096153846154e+01 4.66927959031422e-05 1.14060154239348e-06
4.76826923076923e+01 4.54710053274099e-05 1.11277731167217e-06
4.78557692307692e+01 4.42811848253044e-05 1.08562468309330e-06
4.80288461538462e+01 4.31224978519642e-05 1.05912767222750e-06
4.82019230769231e+01 4.19941297495180e-05 1.03327066888318e-06
4.83750000000000e+01 4.08952871769040e-05 1.00803842733617e-06
4.85480769230769e+01 3.98251975499123e-05 9.83416057169651e-07
4.87211538461538e+01 3.87831085046232e-05 9.59389016182421e-07
4.88942307692308e+01 3.77682873616664e-05 9.35943103525516e-07
4.90673076923077e+01 3.67800206133826e-05 9.13064450783235e-07
4.92403846153846e+01 3.58176134202431e-05 8.90739513604215e-07
4.94134615384615e+01 3.48803891281996e-05 8.68955065186491e-07
4.95865384615385e+01 3.39676887869387e-05 8.47698189971289e-07
4.97596153846154e+01 3.30788706886195e-05 8.26956275114393e-07
4.99326923076923e+01 3.22133099167011e-05 8.06717004415080e-07
5.01057692307692e+01 3.13703979049148e-05 7.86968350374467e-07
5.02788461538462e+01 3.05495420144488e-05 7.67698568339717e-07
5.04519230769231e+01 2.97501651121120e-05 7.48896190835225e-07
5.06250000000000e+01 2.89717051663146e-05 7.30550020310830e-07
5.07980769230769e+01 2.82136148504416e-05 7.12649122325303e-07
5.09711538461538e+01 2.74753611625246e-05 6.95182820175417e-07
5.11442307692308e+01 2.67564250459168e-05 6.78140689695740e-07
5.13173076923077e+01 2.60563010259069e-05 6.61512552647323e-07
5.14903846153846e+01 2.53744968530240e-05 6.45288470498676e-07
5.16634615384615e+01 2.47105331609285e-05 6.29458739502683e-07
5.18365384615385e+01 2.40639431253120e-05 6.14013885929445e-07
5.20096153846154e+01 2.34342721370596e-05 5.98944659770464e-07
5.21826923076923e+01 2.28210774826221e-05 5.84242030155923e-07
5.23557692307692e+01 2.22239280316266e-05 5.69897179486000e-07
5.25288461538462e+01 2.16424039371848e-05 5.55901499017656e-07
5.27019230769231e+01 2.10760963372063e-05 5.42246584590737e-07
5.28750000000000e+01 2.05246070681224e-05 5.28924231266603e-07
5.30480769230769e+01 1.99875483839468e-05 5.15926428277181e-07
5.32211538461538e+01 1.94645426867009e-05 5.03245354985065e-07
5.33942307692308e+01 1.89552222578253e-05 4.90873376970701e-07
5.35673076923077e+01 1.84592290006961e-05 4.78803041149795e-07
5.37403846153846e+01 1.79762141879683e-05 4.67027071170531e-07
5.39134615384615e+01 1.75058382190947e-05 4.55538363717359e-07
5.40865384615385e+01 1.70477703787991e-05 4.44329984930655e-07
5.42596153846154e+01 1.66016886054915e-05 4.33395165773906e-07
5.44326923076923e+01 1.61672792648323e-05 4.22727298596026e-07
5.46057692307692e+01 1.57442369284569e-05 4.12319932808783e-07
