Energy (eV)          EEDF (eV^-(3/2))     First Anisotropy
3.92500000000000e-02 3.38620507159235e+00 8.07748951352511e-03
1.17750000000000e-01 2.84656954855340e+00 1.23168281011168e-02
1.96250000000000e-01 2.39293191742258e+00 1.37609533998893e-02
2.74750000000000e-01 2.01158730315572e+00 1.37917612319900e-02
3.53250000000000e-01 1.69101487959413e+00 1.31867348805582e-02
4.31750000000000e-01 1.42152981305996e+00 1.22741966254512e-02
5.10250000000000e-01 1.19499067323601e+00 1.12269604928075e-02
5.88750000000000e-01 1.00455347190162e+00 1.01434546436259e-02
6.67250000000000e-01 8.44464898773568e-01 9.08101197703224e-03
7.45750000000000e-01 7.09888507886706e-01 8.07249725627315e-03
8.24250000000000e-01 5.96758603420340e-01 7.13561416714694e-03
9.02750000000000e-01 5.01657410705724e-01 6.27849777977371e-03
9.81250000000000e-01 4.21711821620289e-01 5.50323111885029e-03
1.05975000000000e+00 3.54506594937208e-01 4.80812120937959e-03
1.13825000000000e+00 2.98011389320577e-01 4.18919773913816e-03
1.21675000000000e+00 2.50519424555448e-01 3.64120778144531e-03
1.29525000000000e+00 2.10595917903260e-01 3.15827591913086e-03
1.37375000000000e+00 1.77034737790164e-01 2.73433853665957e-03
1.45225000000000e+00 1.48821965290084e-01 2.36342411442604e-03
1.53075000000000e+00 1.25105262556179e-01 2.03982797988671e-03
1.60925000000000e+00 1.05168122788481e-01 1.75821471796114e-03
1.68775000000000e+00 8.84082238018268e-02 1.51367124977351e-03
1.76625000000000e+00 7.43192312323937e-02 1.30172664414723e-03
1.84475000000000e+00 6.24755016383428e-02 1.11834992273897e-03
1.92325000000000e+00 5.25192233589908e-02 9.59933758096080e-04
2.00175000000000e+00 4.41496066441946e-02 8.23269590824462e-04
2.08025000000000e+00 3.71137964762654e-02 7.05518006596123e-04
2.15875000000000e+00 3.11992335511052e-02 6.04177012305194e-04
2.23725000000000e+00 2.62272326356831e-02 5.17049993201482e-04
2.31575000000000e+00 2.20475842972070e-02 4.42214521521341e-04
2.39425000000000e+00 1.85340169164892e-02 3.77992752954996e-04
2.47275000000000e+00 1.55803818881066e-02 3.22923841002357e-04
2.55125000000000e+00 1.30974467581971e-02 2.75738585484409e-04
2.62975000000000e+00 1.10101994171757e-02 2.35336384592389e-04
2.70825000000000e+00 9.25558190416830e-03 2.00764461261998e-04
2.78675000000000e+00 7.78058535898365e-03 1.71199270781148e-04
2.86525000000000e+00 6.54064856810001e-03 1.45929957456517e-04
2.94375000000000e+00 5.49831172303685e-03 1.24343706621095e-04
3.02225000000000e+00 4.62208471972167e-03 1.05912828959369e-04
3.10075000000000e+00 3.88549580897259e-03 9.01834131926132e-05
3.17925000000000e+00 3.26629185681665e-03 7.67653877959344e-05
3.25775000000000e+00 2.74576605365785e-03 6.53238405842099e-05
3.33625000000000e+00 2.30819276167427e-03 5.55714552552848e-05
3.41475000000000e+00 1.94035242658345e-03 4.72619352897219e-05
3.49325000000000e+00 1.63113220085542e-03 4.01842972636133e-05
3.57175000000000e+00 1.37119021277602e-03 3.41579271498251e-05
3.65025000000000e+00 1.15267333857227e-03 2.90283042457280e-05
3.72875000000000e+00 9.68979951195422e-04 2.46633077747017e-05
3.80725000000000e+00 8.14560478150429e-04 2.09500308535531e-05
3.88575000000000e+00 6.84749743011804e-04 1.77920353483945e-05
3.96425000000000e+00 5.75626025484802e-04 1.51069891495652e-05
4.04275000000000e+00 4.83892582066611e-04 1.28246346022927e-05
4.12125000000000e+00 4.06778047920758e-04 1.08850432727108e-05
4.19975000000000e+00 3.41952710999493e-04 9.23711795836737e-06
4.27825000000000e+00 2.87458128966392e-04 7.83730792405797e-06
4.35675000000000e+00 2.41647962571590e-04 6.64850781551854e-06
4.43525000000000e+00 2.03138237993010e-04 5.63911463264820e-06
4.51375000000000e+00 1.70765535516071e-04 4.78222058597834e-06
4.59225000000000e+00 1.43551841387409e-04 4.05492266744724e-06
4.67075000000000e+00 1.20675000979788e-04 3.43773238789964e-06
4.74925000000000e+00 1.01443880626871e-04 2.91407141384712e-06
4.82775000000000e+00 8.52774877405014e-05 2.46984081557798e-06
4.90625000000000e+00 7.16874184070305e-05 2.09305335439145e-06
4.98475000000000e+00 6.02631021859232e-05 1.77351972142710e-06
5.06325000000000e+00 5.06593983403211e-05 1.50258092356464e-06
5.14175000000000e+00 4.25861687685040e-05 1.27288011915818e-06
5.22025000000000e+00 3.57995126234263e-05 1.07816816088587e-06
5.29875000000000e+00 3.00943978088659e-05 9.13137924929549e-07
5.37725000000000e+00 2.52984667418523e-05 7.73283212760471e-07
5.45575000000000e+00 2.12668292468726e-05 6.54778619489549e-07
5.53425000000000e+00 1.78776852696536e-05 5.54377284566763e-07
5.61275000000000e+00 1.50286451680515e-05 4.69323888357609e-07
5.69125000000000e+00 1.26336364121246e-05 3.97280642018495e-07
5.76975000000000e+00 1.06203032415099e-05 3.36264347015267e-07
5.84825000000000e+00 8.92782072099054e-06 2.84592882269046e-07
5.92675000000000e+00 7.50505715454655e-06 2.40839717921993e-07
6.00525000000000e+00 6.30902934246656e-06 2.03795260836888e-07
6.08375000000000e+00 5.30360401319408e-06 1.72434013134223e-07
6.16225000000000e+00 4.45840619878484e-06 1.45886675599369e-07
6.24075000000000e+00 3.74790157483722e-06 1.23416456336289e-07
6.31925000000000e+00 3.15062504140960e-06 1.04398954764911e-07
6.39775000000000e+00 2.64853223953417e-06 8.83050846729808e-08
6.47625000000000e+00 2.22645441195169e-06 7.46865798723458e-08
6.55475000000000e+00 1.87164013883064e-06 6.31636940748332e-08
6.63325000000000e+00 1.57337010381957e-06 5.34147646094192e-08
6.71175000000000e+00 1.32263325210574e-06 4.51673590195370e-08
6.79025000000000e+00 1.11185455687062e-06 3.81907656651878e-08
6.86875000000000e+00 9.34666169677659e-07 3.22896252853475e-08
6.94725000000000e+00 7.85715041002039e-07 2.72985309725010e-08
7.02575000000000e+00 6.60501198914412e-07 2.30774499597445e-08
7.10425000000000e+00 5.55241800145511e-07 1.95078426939025e-08
7.18275000000000e+00 4.66756846369898e-07 1.64893734394174e-08
7.26125000000000e+00 3.92373113076281e-07 1.39371226172620e-08
7.33975000000000e+00 3.29843388613444e-07 1.17792246487045e-08
7.41825000000000e+00 2.77278583537523e-07 9.95486660185847e-09
7.49675000000000e+00 2.33090659211841e-07 8.41259273340233e-09
7.57525000000000e+00 1.95944651471643e-07 7.10886833761105e-09
7.65375000000000e+00 1.64718339937635e-07 6.00686338048017e-09
7.73225000000000e+00 1.38468344545433e-07 5.07542239610735e-09
7.81075000000000e+00 1.16401625031021e-07 4.28819221556439e-09
7.88925000000000e+00 9.78515223413876e-08 3.62288342136594e-09
7.96775000000000e+00 8.22576181558922e-08 3.06064508914479e-09
8.04625000000000e+00 6.91488040530838e-08 2.58553549080083e-09
8.12475000000000e+00 5.81290488245103e-08 2.18407407398890e-09
8.20325000000000e+00 4.88654339509378e-08 1.84486227258371e-09
8.28175000000000e+00 4.10780957799988e-08 1.55826260226097e-09
8.36025000000000e+00 3.45317705477651e-08 1.31612710601593e-09
8.43875000000000e+00 2.90286868103586e-08 1.11156758002419e-09
8.51725000000000e+00 2.44025905584046e-08 9.38761167869568e-10
8.59575000000000e+00 2.05137225066842e-08 7.92785892359145e-10
8.67425000000000e+00 1.72445958175660e-08 6.69481525694595e-10
8.75275000000000e+00 1.44964466987558e-08 5.65331903406203e-10
8.83125000000000e+00 1.21862506441470e-08 4.77365384477463e-10
8.90975000000000e+00 1.02442141752378e-08 4.03070665869023e-10
8.98825000000000e+00 8.61166630595664e-09 3.40325588085754e-10
9.06675000000000e+00 7.23928602980689e-09 2.87336931306913e-10
9.14525000000000e+00 6.08561227983339e-09 2.42589508915050e-10
9.22375000000000e+00 5.11579134571740e-09 2.04803125493867e-10
9.30225000000000e+00 4.30052390613908e-09 1.72896186708823e-10
9.38075000000000e+00 3.61517986513585e-09 1.45954935032999e-10
9.45925000000000e+00 3.03905425072202e-09 1.23207443202481e-10
9.53775000000000e+00 2.55474169567619e-09 1.04001630960499e-10
9.61625000000000e+00 2.14761060289589e-09 8.77866837901393e-11
9.69475000000000e+00 1.80536110929606e-09 7.40973480873751e-11
9.77325000000000e+00 1.51765349387070e-09 6.25406582547594e-11
9.85175000000000e+00 1.27579580373038e-09 5.27847197595489e-11
9.93025000000000e+00 1.07248126096609e-09 4.45492302109609e-11
1.00087500000000e+01 9.01567517121650e-10 3.75974695898981e-11
1.00872500000000e+01 7.57891086317635e-10 3.17295322828504e-11
1.01657500000000e+01 6.37111350854292e-10 2.67766086916895e-11
1.02442500000000e+01 5.35579426536839e-10 2.25961538965334e-11
1.03227500000000e+01 4.50227926005248e-10 1.90678059726786e-11
1.04012500000000e+01 3.78478289701525e-10 1.60899378099078e-11
1.04797500000000e+01 3.18162884844513e-10 1.35767442501531e-11
1.05582500000000e+01 2.67459518939416e-10 1.14557815526983e-11
1.06367500000000e+01 2.24836389405581e-10 9.66588904241253e-12
1.07152500000000e+01 1.89005806192259e-10 8.15543365772129e-12
1.07937500000000e+01 1.58885289293384e-10 6.88082729729957e-12
1.08722500000000e+01 1.33564865875936e-10 5.80527462686835e-12
1.09507500000000e+01 1.12279579033373e-10 4.89771556913515e-12
1.10292500000000e+01 9.43863776243481e-11 4.13193224625503e-12
1.11077500000000e+01 7.93446890141798e-11 3.48579483202698e-12
1.11862500000000e+01 6.67000878009422e-11 2.94062473303783e-12
1.12647500000000e+01 5.60705671410261e-11 2.48065686631985e-12
1.13432500000000e+01 4.71349979163281e-11 2.09258563068321e-12
1.14217500000000e+01 3.96234270822394e-11 1.76518155996371e-12
1.15002500000000e+01 3.33089220992131e-11 1.48896766684022e-12
1.15787500000000e+01 2.80007150595198e-11 1.25594619299728e-12
1.16572500000000e+01 2.35384393859728e-11 1.05936792374367e-12
1.17357500000000e+01 1.97872849871649e-11 8.93537443755458e-13
1.18142500000000e+01 1.66339255013061e-11 7.53648740061881e-13
1.18927500000000e+01 1.39830945863707e-11 6.35646428039184e-13
1.19712500000000e+01 1.17547078226386e-11 5.36108610793927e-13
1.20497500000000e+01 9.88144327724699e-12 4.52148002840126e-13
1.21282500000000e+01 8.30670763703690e-12 3.81328473100549e-13
1.22067500000000e+01 6.98292646440523e-12 3.21594604946537e-13
1.22852500000000e+01 5.87010692297395e-12 2.71212244871621e-13
1.23637500000000e+01 4.93462955149158e-12 2.28718327151968e-13
1.24422500000000e+01 4.14823258417198e-12 1.92878528505752e-13
1.25207500000000e+01 3.48715813270821e-12 1.62651531949283e-13
1.25992500000000e+01 2.93143443521267e-12 1.37158869202639e-13
1.26777500000000e+01 2.46427248806090e-12 1.15659471564848e-13
1.27562500000000e+01 2.07155883224565e-12 9.75281947566812e-14
1.28347500000000e+01 1.74142917077801e-12 8.22376977026626e-14
1.29132500000000e+01 1.46390993566384e-12 6.93431518744010e-14
1.29917500000000e+01 1.23061697581296e-12 5.84693394167869e-14
1.30702500000000e+01 1.03450226292255e-12 4.92997671682780e-14
1.31487500000000e+01 8.69640963050167e-13 4.15674818439849e-14
1.32272500000000e+01 7.31052441082427e-13 3.50473207457580e-14
1.33057500000000e+01 6.14549790453862e-13 2.95493738075606e-14
1.33842500000000e+01 5.16613342249005e-13 2.49134677683334e-14
1.34627500000000e+01 4.34284332263106e-13 2.10045127943170e-14
1.35412500000000e+01 3.65075513590406e-13 1.77085767978887e-14
1.36197500000000e+01 3.06896014251218e-13 1.49295737377375e-14
1.36982500000000e+01 2.57988169726864e-13 1.25864699413321e-14
1.37767500000000e+01 2.16874422046207e-13 1.06109274765563e-14
1.38552500000000e+01 1.82312681188724e-13 8.94531624689917e-15
1.39337500000000e+01 1.53258800224674e-13 7.54103715823829e-15
1.40122500000000e+01 1.28835030526441e-13 6.35710771284270e-15
1.40907500000000e+01 1.08303504049464e-13 5.35896898756560e-15
1.41692500000000e+01 9.10439415542735e-14 4.51747936765735e-15
1.42477500000000e+01 7.65349133113201e-14 3.80806582036562e-15
1.43262500000000e+01 6.43380861545787e-14 3.21000805981179e-15
1.44047500000000e+01 5.40849809706618e-14 2.70583480847526e-15
1.44832500000000e+01 4.54658405531180e-14 2.28081461234818e-15
1.45617500000000e+01 3.82202715079601e-14 1.92252641043804e-15
1.46402500000000e+01 3.21293774924394e-14 1.62049737413160e-15
1.47187500000000e+01 2.70091461238489e-14 1.36589748494986e-15
1.47972500000000e+01 2.27048897698401e-14 1.15128196693100e-15
1.48757500000000e+01 1.90865722706205e-14 9.70374079969114e-16
1.49542500000000e+01 1.60448804083397e-14 8.17881953159633e-16
1.50327500000000e+01 1.34879214385807e-14 6.89344126521515e-16
1.51112500000000e+01 1.13384469128711e-14 5.80999304045472e-16
1.51897500000000e+01 9.53151892094091e-15 4.89676525040999e-16
1.52682500000000e+01 8.01254824742567e-15 4.12702554632904e-16
1.53467500000000e+01 6.73564517364317e-15 3.47823795210420e-16
1.54252500000000e+01 5.66223310041209e-15 2.93140443189552e-16
1.55037500000000e+01 4.75988310798463e-15 2.47050971871840e-16
1.55822500000000e+01 4.00133424390962e-15 2.08205321814404e-16
1.56607500000000e+01 3.36366994068113e-15 1.90657284331715e-16
