Energy (eV)          EEDF (eV^-(3/2))     First Anisotropy
1.13793103448276e-02 4.24548457432176e-01 2.93412108145221e-04
3.41379310344828e-02 4.19522474548075e-01 4.83263526899561e-04
5.68965517241379e-02 4.14555991359558e-01 6.34677473302002e-04
7.96551724137931e-02 4.09648303484876e-01 7.47728115502825e-04
1.02413793103448e-01 4.04798714879964e-01 8.40389614110761e-04
1.25172413793103e-01 4.00006537759804e-01 9.19508819142506e-04
1.47931034482759e-01 3.95271092432374e-01 9.88654252790980e-04
1.70689655172414e-01 3.90591707285100e-01 1.04999578968874e-03
1.93448275862069e-01 3.85967718656070e-01 1.10498233564614e-03
2.16206896551724e-01 3.81398470763216e-01 1.15464482626898e-03
2.38965517241379e-01 3.76883315538899e-01 1.19975146344106e-03
2.61724137931034e-01 3.72421612612171e-01 1.24089517324776e-03
2.84482758620690e-01 3.68012729209755e-01 1.27854648760380e-03
3.07241379310345e-01 3.63656040015429e-01 1.31308729727240e-03
3.30000000000000e-01 3.59350927132586e-01 1.34483336136057e-03
3.52758620689655e-01 3.55096779992340e-01 1.37404987469357e-03
3.75517241379310e-01 3.50892995228347e-01 1.40096254656887e-03
3.98275862068966e-01 3.46738976629884e-01 1.42576569270581e-03
4.21034482758621e-01 3.42634135054544e-01 1.44862828439311e-03
4.43793103448276e-01 3.38577888314150e-01 1.46969854440337e-03
4.66551724137931e-01 3.34569661122859e-01 1.48910750246377e-03
4.89310344827586e-01 3.30608885013506e-01 1.50697179408955e-03
5.12068965517241e-01 3.26694998232107e-01 1.52339588128262e-03
5.34827586206897e-01 3.22827445683310e-01 1.53847384093154e-03
5.57586206896552e-01 3.19005678843185e-01 1.55229082323047e-03
5.80344827586207e-01 3.15229155688134e-01 1.56492425009375e-03
6.03103448275862e-01 3.11497340597753e-01 1.57644480642843e-03
6.25862068965517e-01 3.07809704299310e-01 1.58691726785452e-03
6.48620689655172e-01 3.04165723791565e-01 1.59640120340032e-03
6.71379310344828e-01 3.00564882253254e-01 1.60495156618028e-03
6.94137931034483e-01 2.97006668987214e-01 1.61261919730403e-03
7.16896551724138e-01 2.93490579347125e-01 1.61945126362627e-03
7.39655172413793e-01 2.90016114650885e-01 1.62549163086110e-03
7.62413793103448e-01 2.86582782125006e-01 1.63078118718803e-03
7.85172413793104e-01 2.83190094834002e-01 1.63535813012971e-03
8.07931034482759e-01 2.79837571598196e-01 1.63925821340288e-03
8.30689655172414e-01 2.76524736938714e-01 1.64251496440507e-03
8.53448275862069e-01 2.73251121005601e-01 1.64515987834445e-03
8.76206896551724e-01 2.70016259514913e-01 1.64722259022895e-03
8.98965517241379e-01 2.66819693671551e-01 1.64873102618114e-03
9.21724137931035e-01 2.63660970115616e-01 1.64971153796333e-03
9.44482758620690e-01 2.60539640857610e-01 1.65018902743437e-03
9.67241379310345e-01 2.57455263204810e-01 1.65018705455858e-03
9.90000000000000e-01 2.54407399708640e-01 1.64972793462814e-03
1.01275862068966e+00 2.51395618102215e-01 1.64883282941165e-03
1.03551724137931e+00 2.48419491232805e-01 1.64752182730059e-03
1.05827586206897e+00 2.45478597004537e-01 1.64581401566741e-03
1.08103448275862e+00 2.42572518318496e-01 1.64372754792775e-03
1.10379310344828e+00 2.39700843013568e-01 1.64127970431283e-03
1.12655172413793e+00 2.36863163807981e-01 1.63848694743546e-03
1.14931034482759e+00 2.34059078241543e-01 1.63536497655850e-03
1.17206896551724e+00 2.31288188595157e-01 1.63192876412295e-03
1.19482758620690e+00 2.28550101905671e-01 1.62819260561414e-03
1.21758620689655e+00 2.25844429837797e-01 1.62417016613279e-03
1.24034482758621e+00 2.23170788653531e-01 1.61987450637481e-03
1.26310344827586e+00 2.20528799157724e-01 1.61531812000203e-03
1.28586206896552e+00 2.17918086644308e-01 1.61051296494696e-03
1.30862068965517e+00 2.15338280843144e-01 1.60547049244964e-03
1.33137931034483e+00 2.12789015867516e-01 1.60020167403751e-03
1.35413793103448e+00 2.10269930162199e-01 1.59471702661013e-03
1.37689655172414e+00 2.07780666452249e-01 1.58902663581840e-03
1.39965517241379e+00 2.05320871692298e-01 1.58314017788510e-03
1.42241379310345e+00 2.02890197016483e-01 1.57706693997126e-03
1.44517241379310e+00 2.00488297688961e-01 1.57081583922928e-03
1.46793103448276e+00 1.98114833055022e-01 1.56439544064399e-03
1.49068965517241e+00 1.95769466492773e-01 1.55781397622769e-03
1.51344827586207e+00 1.93451865350279e-01 1.55107935322828e-03
1.53620689655172e+00 1.91161700944335e-01 1.54419917392160e-03
1.55896551724138e+00 1.88898648467275e-01 1.53718075460263e-03
1.58172413793103e+00 1.86662386956645e-01 1.53003113088893e-03
1.60448275862069e+00 1.84452599249679e-01 1.52275707264444e-03
1.62724137931034e+00 1.82268971938325e-01 1.51536509559091e-03
1.65000000000000e+00 1.80111195324786e-01 1.50786147227319e-03
1.67275862068966e+00 1.77978963377593e-01 1.50025224241866e-03
1.69551724137931e+00 1.75871973688207e-01 1.49254322273449e-03
1.71827586206897e+00 1.73789927428142e-01 1.48474001618876e-03
1.74103448275862e+00 1.71732529306571e-01 1.47684802080172e-03
1.76379310344828e+00 1.69699487528443e-01 1.46887243797860e-03
1.78655172413793e+00 1.67690513753104e-01 1.46081828041820e-03
1.80931034482759e+00 1.65705323053398e-01 1.45269038152282e-03
1.83206896551724e+00 1.63743633864695e-01 1.44449339677533e-03
1.85482758620690e+00 1.61805167977040e-01 1.43623181439993e-03
1.87758620689655e+00 1.59889650463206e-01 1.42790996575957e-03
1.90034482758621e+00 1.57996809650674e-01 1.41953202554268e-03
1.92310344827586e+00 1.56126377083099e-01 1.41110201963138e-03
1.94586206896552e+00 1.54278087482234e-01 1.40262383068801e-03
1.96862068965517e+00 1.52451678710313e-01 1.39410120348435e-03
1.99137931034483e+00 1.50646891732864e-01 1.38553774999054e-03
2.01413793103448e+00 1.48863470581968e-01 1.37693695422979e-03
2.03689655172414e+00 1.47101162319973e-01 1.36830217692116e-03
2.05965517241379e+00 1.45359717003609e-01 1.35963665992282e-03
2.08241379310345e+00 1.43638887648543e-01 1.35094353047650e-03
2.10517241379310e+00 1.41938430194344e-01 1.34222580527169e-03
2.12793103448276e+00 1.40258103469875e-01 1.33348639433743e-03
2.15068965517241e+00 1.38597669159084e-01 1.32472810622847e-03
2.17344827586207e+00 1.36956891759768e-01 1.31595364718218e-03
2.19620689655172e+00 1.35335538572744e-01 1.30716562751346e-03
2.21896551724138e+00 1.33733379646010e-01 1.29836656792437e-03
2.24172413793103e+00 1.32150187749828e-01 1.28955889808830e-03
2.26448275862069e+00 1.30585738344506e-01 1.28074496121826e-03
2.28724137931034e+00 1.29039809548547e-01 1.27192701697643e-03
2.31000000000000e+00 1.27512182107181e-01 1.26310724427050e-03
2.33275862068966e+00 1.26002639361266e-01 1.25428774394014e-03
2.35551724137931e+00 1.24510967216561e-01 1.24547054134011e-03
2.37827586206897e+00 1.23036954113369e-01 1.23665758882750e-03
2.40103448275862e+00 1.21580390996525e-01 1.22785076815438e-03
2.42379310344828e+00 1.20141071285748e-01 1.21905189276999e-03
2.44655172413793e+00 1.18718790846342e-01 1.21026271003815e-03
2.46931034482759e+00 1.17313347960242e-01 1.20148490452548e-03
2.49206896551724e+00 1.15924543291920e-01 1.19272009656865e-03
2.51482758620690e+00 1.14552179876763e-01 1.18396984660288e-03
2.53758620689655e+00 1.13196063076295e-01 1.17523565946419e-03
2.56034482758621e+00 1.11856000556255e-01 1.16651898262207e-03
2.58310344827586e+00 1.10531802259316e-01 1.15782120917491e-03
2.60586206896552e+00 1.09223280378128e-01 1.14914367956712e-03
2.62862068965517e+00 1.07930249328686e-01 1.14048768324644e-03
2.65137931034483e+00 1.06652525724007e-01 1.13185446026500e-03
2.67413793103448e+00 1.05389928348114e-01 1.12324520282280e-03
2.69689655172414e+00 1.04142278130348e-01 1.11466105676042e-03
2.71965517241379e+00 1.02909398119963e-01 1.10610312300318e-03
2.74241379310345e+00 1.01691113461031e-01 1.09757245895391e-03
2.76517241379310e+00 1.00487251367643e-01 1.08907007984021e-03
2.78793103448276e+00 9.92976410994008e-02 1.08059696001709e-03
2.81068965517241e+00 9.81221139372049e-02 1.07215403513009e-03
2.83344827586207e+00 9.69605031552887e-02 1.06374220059790e-03
2.85620689655172e+00 9.58126440098067e-02 1.05536231462786e-03
2.87896551724138e+00 9.46783737031017e-02 1.04701520123005e-03
2.90172413793103e+00 9.35575313647839e-02 1.03870164849126e-03
2.92448275862069e+00 9.24499580289151e-02 1.03042241059620e-03
2.94724137931034e+00 9.13554966114629e-02 1.02217820886229e-03
2.97000000000000e+00 9.02739918880221e-02 1.01396973274200e-03
2.99275862068966e+00 8.92052904717981e-02 1.00579764079308e-03
3.01551724137931e+00 8.81492407918540e-02 9.97662561618021e-04
3.03827586206897e+00 8.71056930716150e-02 9.89565094775571e-04
3.06103448275862e+00 8.60744993076246e-02 9.81505811663776e-04
3.08379310344828e+00 8.50555132485535e-02 9.73485256375012e-04
3.10655172413793e+00 8.40485903744576e-02 9.65503946525195e-04
3.12931034482759e+00 8.30535878762806e-02 9.57562374782825e-04
3.15206896551724e+00 8.20703646325306e-02 9.49661007452720e-04
3.17482758620690e+00 8.10987811985710e-02 9.41800286705401e-04
3.19758620689655e+00 8.01386997774379e-02 9.33980632813892e-04
3.22034482758621e+00 7.91899842034664e-02 9.26202442593909e-04
3.24310344827586e+00 7.82524999229780e-02 9.18466090857883e-04
3.26586206896552e+00 7.73261139751974e-02 9.10771931084235e-04
3.28862068965517e+00 7.64106949733950e-02 9.03120296066870e-04
3.31137931034483e+00 7.55061130862528e-02 8.95511498545848e-04
3.33413793103448e+00 7.46122400194486e-02 8.87945831818184e-04
3.35689655172414e+00 7.37289489974646e-02 8.80423570331671e-04
3.37965517241379e+00 7.28561147456051e-02 8.72944970262240e-04
3.40241379310345e+00 7.19936134722289e-02 8.65510270073131e-04
3.42517241379310e+00 7.11413228511923e-02 8.58119691058272e-04
3.44793103448276e+00 7.02991220045003e-02 8.50773437869924e-04
3.47068965517241e+00 6.94668914851625e-02 8.43471699607017e-04
3.49344827586207e+00 6.86445132579372e-02 8.36214648569570e-04
3.51620689655172e+00 6.78318706896073e-02 8.29002441911647e-04
3.53896551724138e+00 6.70288485253493e-02 8.21835223305192e-04
3.56172413793103e+00 6.62353328747748e-02 8.14713121593455e-04
3.58448275862069e+00 6.54512111957780e-02 8.07636251840845e-04
3.60724137931035e+00 6.46763722785737e-02 8.00604715763614e-04
3.63000000000000e+00 6.39107062299252e-02 7.93618602148563e-04
3.65275862068966e+00 6.31541044575575e-02 7.86677987259519e-04
3.67551724137931e+00 6.24064596547566e-02 7.79782935232223e-04
3.69827586206897e+00 6.16676657851516e-02 7.72933498458915e-04
3.72103448275862e+00 6.09376180676745e-02 7.66129717961760e-04
3.74379310344828e+00 6.02162129617000e-02 7.59371623755622e-04
3.76655172413793e+00 5.95033481523600e-02 7.52659235200847e-04
3.78931034482759e+00 5.87989225360331e-02 7.45992561812785e-04
3.81206896551724e+00 5.81028362042094e-02 7.39371602182542e-04
3.83482758620690e+00 5.74149904347624e-02 7.32796345248718e-04
3.85758620689655e+00 5.67352876724503e-02 7.26266771580263e-04
3.88034482758621e+00 5.60636315169315e-02 7.19782852222100e-04
3.90310344827586e+00 5.53999267090921e-02 7.13344549484595e-04
3.92586206896552e+00 5.47440791175357e-02 7.06951817233190e-04
3.94862068965517e+00 5.40959957252332e-02 7.00604601170132e-04
3.97137931034483e+00 5.34555846163300e-02 6.94302839108630e-04
3.99413793103448e+00 5.28227549631094e-02 6.88046461238743e-04
4.01689655172414e+00 5.21974170131123e-02 6.81835390386539e-04
4.03965517241379e+00 5.15794820764070e-02 6.75669542266502e-04
4.06241379310345e+00 5.09688625130105e-02 6.69548825726284e-04
4.08517241379310e+00 5.03654717204591e-02 6.63473142985064e-04
4.10793103448276e+00 4.97692241215251e-02 6.57442389865310e-04
4.13068965517241e+00 4.91800351520804e-02 6.51456456391972e-04
4.15344827586207e+00 4.85978212477245e-02 6.45515225880305e-04
4.17620689655172e+00 4.80224998361080e-02 6.39618575907861e-04
4.19896551724138e+00 4.74539893210045e-02 6.33766379297140e-04
4.22172413793103e+00 4.68922090721584e-02 6.27958503147474e-04
4.24448275862069e+00 4.63370794138489e-02 6.22194809424782e-04
4.26724137931035e+00 4.57885216135897e-02 6.16475155152403e-04
4.29000000000000e+00 4.52464578709633e-02 6.10799392596810e-04
4.31275862068966e+00 4.47108113065855e-02 6.05167369448095e-04
4.33551724137931e+00 4.41815059512030e-02 5.99578928995390e-04
4.35827586206897e+00 4.36584667349184e-02 5.94033910297825e-04
4.38103448275862e+00 4.31416194765437e-02 5.88532148350755e-04
4.40379310344828e+00 4.26308908730790e-02 5.83073474247238e-04
4.42655172413793e+00 4.21262084893159e-02 5.77657715335196e-04
4.44931034482759e+00 4.16275007475648e-02 5.72284695675198e-04
4.47206896551724e+00 4.11346969164194e-02 5.66954235266017e-04
4.49482758620690e+00 4.06477271040071e-02 5.61666150808138e-04
4.51758620689655e+00 4.01665222447621e-02 5.56420256476826e-04
4.54034482758621e+00 3.96910140907459e-02 5.51216363104476e-04
4.56310344827586e+00 3.92211352019677e-02 5.46054278634593e-04
4.58586206896552e+00 3.87568189368199e-02 5.40933808251080e-04
4.60862068965517e+00 3.82979994426262e-02 5.35854754503921e-04
4.63137931034483e+00 3.78446116463020e-02 5.30816917431577e-04
4.65413793103448e+00 3.73965912451248e-02 5.25820094679538e-04
4.67689655172414e+00 3.69538746976151e-02 5.20864081615857e-04
4.69965517241379e+00 3.65163992145245e-02 5.15948671443822e-04
4.72241379310345e+00 3.60841027499299e-02 5.11073655310972e-04
4.74517241379310e+00 3.56569239924340e-02 5.06238822415288e-04
4.76793103448276e+00 3.52348023564696e-02 5.01443960108383e-04
4.79068965517241e+00 3.48176779737069e-02 4.96688854241584e-04
4.81344827586207e+00 3.44054916837213e-02 4.91973288519628e-04
4.83620689655172e+00 3.39981850281513e-02 4.87297045094061e-04
4.85896551724138e+00 3.35957002398338e-02 4.82659905165061e-04
4.88172413793103e+00 3.31979802354782e-02 4.78061648301966e-04
4.90448275862069e+00 3.28049686075695e-02 4.73502052788866e-04
4.92724137931035e+00 3.24166096163686e-02 4.68980895709059e-04
4.95000000000000e+00 3.20328481820072e-02 4.64497953027209e-04
4.97275862068966e+00 3.16536298766752e-02 4.60052999669002e-04
4.99551724137931e+00 3.12789009169019e-02 4.55645809598497e-04
5.01827586206897e+00 3.09086081559281e-02 4.51276155893510e-04
5.04103448275862e+00 3.05426990761683e-02 4.46943810818693e-04
5.06379310344828e+00 3.01811217817625e-02 4.42648545896389e-04
5.08655172413793e+00 2.98238249912153e-02 4.38390131975544e-04
5.10931034482759e+00 2.94707580301235e-02 4.34168339500099e-04
5.13206896551724e+00 2.91218708233206e-02 4.29982937964093e-04
5.15482758620690e+00 2.87771138897985e-02 4.25833696383446e-04
5.17758620689655e+00 2.84364383336463e-02 4.21720383775031e-04
5.20034482758621e+00 2.80997958378037e-02 4.17642768585664e-04
5.22310344827586e+00 2.77671386572081e-02 4.13600618961688e-04
5.24586206896552e+00 2.74384196120229e-02 4.09593702804822e-04
5.26862068965517e+00 2.71135920809464e-02 4.05621787826383e-04
5.29137931034483e+00 2.67926099945993e-02 4.01684641599931e-04
5.31413793103448e+00 2.64754278289910e-02 3.97782031612078e-04
5.33689655172414e+00 2.61620005990630e-02 3.93913725311880e-04
5.35965517241379e+00 2.58522838523091e-02 3.90079490158927e-04
5.38241379310345e+00 2.55462336624703e-02 3.86279093669688e-04
5.40517241379310e+00 2.52438066233055e-02 3.82512303462499e-04
5.42793103448276e+00 2.49449598424345e-02 3.78778887301188e-04
5.45068965517241e+00 2.46496509352555e-02 3.75078613300449e-04
5.47344827586207e+00 2.43578380184096e-02 3.71411249472991e-04
5.49620689655172e+00 2.40694797054265e-02 3.67776564100086e-04
5.51896551724138e+00 2.37845350992544e-02 3.64174326108297e-04
5.54172413793103e+00 2.35029637869974e-02 3.60604304596226e-04
5.56448275862069e+00 2.32247258341850e-02 3.57066269042073e-04
5.58724137931035e+00 2.29497817791074e-02 3.53559989338378e-04
5.61000000000000e+00 2.26780926272192e-02 3.50085235825652e-04
5.63275862068966e+00 2.24096198456089e-02 3.46641779324819e-04
5.65551724137931e+00 2.21443253575335e-02 3.43229391168587e-04
5.67827586206897e+00 2.18821715370189e-02 3.39847843231882e-04
5.70103448275862e+00 2.16231212035229e-02 3.36496907961175e-04
5.72379310344828e+00 2.13671376166623e-02 3.33176358402786e-04
5.74655172413793e+00 2.11141844710021e-02 3.29885968230254e-04
5.76931034482759e+00 2.08642258909059e-02 3.26625511904968e-04
5.79206896551724e+00 2.06172264250297e-02 3.23394764295341e-04
5.81482758620690e+00 2.03731510425618e-02 3.20193500973682e-04
5.83758620689655e+00 2.01319651269742e-02 3.17021498518348e-04
5.86034482758621e+00 1.98936344715441e-02 3.13878534116615e-04
5.88310344827586e+00 1.96581252745018e-02 3.10764385727874e-04
5.90586206896552e+00 1.94254041342378e-02 3.07678832104823e-04
5.92862068965517e+00 1.91954380445643e-02 3.04621652813855e-04
5.95137931034483e+00 1.89681943900351e-02 3.01592628254694e-04
5.97413793103448e+00 1.87436409413189e-02 2.98591539679166e-04
5.99689655172414e+00 1.85217458506291e-02 2.95618169209304e-04
6.01965517241379e+00 1.83024776472066e-02 2.92672299854864e-04
6.04241379310345e+00 1.80858052328561e-02 2.89753715529989e-04
6.06517241379310e+00 1.78716978775363e-02 2.86862201069227e-04
6.08793103448276e+00 1.76601252150005e-02 2.83997542242886e-04
6.11068965517241e+00 1.74510572384908e-02 2.81159525880864e-04
6.13344827586207e+00 1.72444642961510e-02 2.78347939556622e-04
6.15620689655172e+00 1.70403170878228e-02 2.75562571821888e-04
6.17896551724138e+00 1.68385866598795e-02 2.72803212445854e-04
6.20172413793104e+00 1.66392444014595e-02 2.70069652086233e-04
6.22448275862069e+00 1.64422620404086e-02 2.67361682415760e-04
6.24724137931034e+00 1.62476116392704e-02 2.64679096133383e-04
6.27000000000000e+00 1.60552655913237e-02 2.62021686974961e-04
6.29275862068966e+00 1.58651966166671e-02 2.59389249723383e-04
6.31551724137931e+00 1.56773777583506e-02 2.56781580218130e-04
6.33827586206897e+00 1.54917823785514e-02 2.54198475364494e-04
6.36103448275862e+00 1.53083841547968e-02 2.51639733142264e-04
6.38379310344828e+00 1.51271570762306e-02 2.49105152613867e-04
6.40655172413793e+00 1.49480754399238e-02 2.46594533932116e-04
6.42931034482759e+00 1.47711138472298e-02 2.44107678437569e-04
6.45206896551724e+00 1.45962471999153e-02 2.41644388392902e-04
6.47482758620690e+00 1.44234506974074e-02 2.39204467171928e-04
6.49758620689655e+00 1.42526998324620e-02 2.36787719452436e-04
6.52034482758621e+00 1.40839703879624e-02 2.34393950940181e-04
6.54310344827586e+00 1.39172384334841e-02 2.32022968468847e-04
6.56586206896552e+00 1.37524803219009e-02 2.29674580004921e-04
6.58862068965517e+00 1.35896726860316e-02 2.27348594652208e-04
6.61137931034483e+00 1.34287924353252e-02 2.25044822656029e-04
6.63413793103448e+00 1.32698167525863e-02 2.22763075406956e-04
6.65689655172414e+00 1.31127230907392e-02 2.20503165444307e-04
6.67965517241379e+00 1.29574891696301e-02 2.18264906459357e-04
6.70241379310345e+00 1.28040929728668e-02 2.16048113298138e-04
6.72517241379310e+00 1.26525127446965e-02 2.13852601963958e-04
6.74793103448276e+00 1.25027269869201e-02 2.11678189619623e-04
6.77068965517241e+00 1.23547144558433e-02 2.09524694662795e-04
6.79344827586207e+00 1.22084541590521e-02 2.07391936505566e-04
6.81620689655172e+00 1.20639253530756e-02 2.05279735724606e-04
6.83896551724138e+00 1.19211075397983e-02 2.03187914214513e-04
6.86172413793104e+00 1.17799804637696e-02 2.01116294959150e-04
6.88448275862069e+00 1.16405241093319e-02 1.99064702109430e-04
6.90724137931034e+00 1.15027186977811e-02 1.97032960983659e-04
6.93000000000000e+00 1.13665446845616e-02 1.95020898067675e-04
6.95275862068966e+00 1.12319827564948e-02 1.93028341014723e-04
6.97551724137931e+00 1.10990138290393e-02 1.91055118645104e-04
6.99827586206897e+00 1.09676190435847e-02 1.89101060945647e-04
7.02103448275862e+00 1.08377797647767e-02 1.87165999068954e-04
7.04379310344828e+00 1.07094775778743e-02 1.85249765332436e-04
7.06655172413793e+00 1.05826942861377e-02 1.83352193217154e-04
7.08931034482759e+00 1.04574119082480e-02 1.81473117427174e-04
7.11206896551724e+00 1.03336126755856e-02 1.79612373704318e-04
7.13482758620690e+00 1.02112790302278e-02 1.77769798949544e-04
7.15758620689655e+00 1.00903936219365e-02 1.75945231346987e-04
7.18034482758621e+00 9.97093930587290e-03 1.74138510172021e-04
