Energy (eV)          EEDF (eV^-(3/2))     First Anisotropy
6.25000000000000e-02 6.70006406039392e-02 5.87892883842552e-05
1.87500000000000e-01 6.57298385674125e-02 9.64815386453943e-05
3.12500000000000e-01 6.44831398499204e-02 1.25796608308470e-04
4.37500000000000e-01 6.32600872834925e-02 1.47134732810614e-04
5.62500000000000e-01 6.20602323712688e-02 1.64175299449955e-04
6.87500000000000e-01 6.08831351230353e-02 1.78335862172315e-04
8.12500000000000e-01 5.97283638938780e-02 1.90363145019063e-04
9.37500000000000e-01 5.85954952258979e-02 2.00715834648488e-04
1.06250000000000e+00 5.74841136929274e-02 2.09703201036563e-04
1.18750000000000e+00 5.63938117481925e-02 2.17547343644958e-04
1.31250000000000e+00 5.53241895748645e-02 2.24415218575980e-04
1.43750000000000e+00 5.42748549394455e-02 2.30436758874866e-04
1.56250000000000e+00 5.32454230479356e-02 2.35715875153817e-04
1.68750000000000e+00 5.22355164047279e-02 2.40337508735654e-04
1.81250000000000e+00 5.12447646741796e-02 2.44372355749351e-04
1.93750000000000e+00 5.02728045448089e-02 2.47880146644342e-04
2.06250000000000e+00 4.93192795960677e-02 2.50911992078606e-04
2.18750000000000e+00 4.83838401676413e-02 2.53512104218816e-04
2.31250000000000e+00 4.74661432312265e-02 2.55719087726820e-04
2.43750000000000e+00 4.65658522647427e-02 2.57566926658600e-04
2.56250000000000e+00 4.56826371289281e-02 2.59085751663676e-04
2.68750000000000e+00 4.48161739462763e-02 2.60302445328077e-04
2.81250000000000e+00 4.39661449822704e-02 2.61241126191789e-04
2.93750000000000e+00 4.31322385288677e-02 2.61923540402617e-04
3.06250000000000e+00 4.23141487901965e-02 2.62369382067736e-04
3.18750000000000e+00 4.15115757704192e-02 2.62596557862821e-04
3.31250000000000e+00 4.07242251637234e-02 2.62621407560137e-04
3.43750000000000e+00 3.99518082463988e-02 2.62458889329710e-04
3.56250000000000e+00 3.91940417709615e-02 2.62122736617118e-04
3.68750000000000e+00 3.84506478622866e-02 2.61625591883214e-04
3.81250000000000e+00 3.77213539157101e-02 2.60979121353272e-04
3.93750000000000e+00 3.70058924970645e-02 2.60194114060779e-04
4.06250000000000e+00 3.63040012446094e-02 2.59280567810732e-04
4.18750000000000e+00 3.56154227728233e-02 2.58247764176518e-04
4.31250000000000e+00 3.49399045780192e-02 2.57104334246076e-04
4.43750000000000e+00 3.42771989457507e-02 2.55858316519462e-04
4.56250000000000e+00 3.36270628599748e-02 2.54517208111197e-04
4.68750000000000e+00 3.29892579139370e-02 2.53088010212230e-04
4.81250000000000e+00 3.23635502227466e-02 2.51577268606404e-04
4.93750000000000e+00 3.17497103376111e-02 2.49991109906896e-04
5.06250000000000e+00 3.11475131616960e-02 2.48335274072689e-04
5.18750000000000e+00 3.05567378675814e-02 2.46615143678643e-04
5.31250000000000e+00 2.99771678162844e-02 2.44835770341603e-04
5.43750000000000e+00 2.94085904778160e-02 2.43001898645869e-04
5.56250000000000e+00 2.88507973532467e-02 2.41117987862295e-04
5.68750000000000e+00 2.83035838982489e-02 2.39188231714286e-04
5.81250000000000e+00 2.77667494480897e-02 2.37216576409278e-04
5.93750000000000e+00 2.72400971440473e-02 2.35206737125314e-04
6.06250000000000e+00 2.67234338612215e-02 2.33162213117619e-04
6.18750000000000e+00 2.62165701377147e-02 2.31086301589011e-04
6.31250000000000e+00 2.57193201051558e-02 2.28982110450214e-04
6.43750000000000e+00 2.52315014205414e-02 2.26852570080673e-04
6.56250000000000e+00 2.47529351993702e-02 2.24700444187349e-04
6.68750000000000e+00 2.42834459500459e-02 2.22528339847538e-04
6.81250000000000e+00 2.38228615095232e-02 2.20338716811979e-04
6.93750000000000e+00 2.33710129801759e-02 2.18133896135900e-04
7.06250000000000e+00 2.29277346678611e-02 2.15916068198271e-04
7.18750000000000e+00 2.24928640211592e-02 2.13687300163007e-04
7.31250000000000e+00 2.20662415717650e-02 2.11449542930191e-04
7.43750000000000e+00 2.16477108760114e-02 2.09204637620441e-04
7.56250000000000e+00 2.12371184574998e-02 2.06954321631095e-04
7.68750000000000e+00 2.08343137508209e-02 2.04700234299059e-04
7.81250000000000e+00 2.04391490463413e-02 2.02443922201742e-04
7.93750000000000e+00 2.00514794360383e-02 2.00186844124486e-04
8.06250000000000e+00 1.96711627603614e-02 1.97930375720202e-04
8.18750000000000e+00 1.92980595561024e-02 1.95675813884495e-04
8.31250000000000e+00 1.89320330052535e-02 1.93424380867509e-04
8.43750000000000e+00 1.85729488848359e-02 1.91177228141742e-04
8.56250000000000e+00 1.82206755176797e-02 1.88935440043437e-04
8.68750000000000e+00 1.78750837241377e-02 1.86700037203562e-04
8.81250000000000e+00 1.75360467747148e-02 1.84471979783096e-04
8.93750000000000e+00 1.72034403435960e-02 1.82252170526037e-04
9.06250000000000e+00 1.68771424630555e-02 1.80041457642479e-04
9.18750000000000e+00 1.65570334787310e-02 1.77840637533061e-04
9.31250000000000e+00 1.62429960057461e-02 1.75650457365232e-04
9.43750000000000e+00 1.59349148856651e-02 1.73471617510902e-04
9.56250000000000e+00 1.56326771442634e-02 1.71304773854316e-04
9.68750000000000e+00 1.53361719501005e-02 1.69150539978343e-04
9.81250000000000e+00 1.50452905738771e-02 1.67009489236723e-04
9.93750000000000e+00 1.47599263485639e-02 1.64882156719239e-04
1.00625000000000e+01 1.44799746302866e-02 1.62769041116297e-04
1.01875000000000e+01 1.42053327599527e-02 1.60670606488934e-04
1.03125000000000e+01 1.39359000256060e-02 1.58587283949810e-04
1.04375000000000e+01 1.36715776254953e-02 1.56519473260360e-04
1.05625000000000e+01 1.34122686318437e-02 1.54467544348959e-04
1.06875000000000e+01 1.31578779553044e-02 1.52431838754570e-04
1.08125000000000e+01 1.29083123100917e-02 1.50412671000052e-04
1.09375000000000e+01 1.26634801797727e-02 1.48410329899069e-04
1.10625000000000e+01 1.24232917837078e-02 1.46425079800218e-04
1.11875000000000e+01 1.21876590441279e-02 1.44457161771800e-04
1.13125000000000e+01 1.19564955538363e-02 1.42506794730446e-04
1.14375000000000e+01 1.17297165445225e-02 1.40574176516547e-04
1.15625000000000e+01 1.15072388556780e-02 1.38659484919329e-04
1.16875000000000e+01 1.12889809041003e-02 1.36762878654185e-04
1.18125000000000e+01 1.10748626539771e-02 1.34884498294720e-04
1.19375000000000e+01 1.08648055875360e-02 1.33024467161867e-04
1.20625000000000e+01 1.06587326762524e-02 1.31182892172206e-04
1.21875000000000e+01 1.04565683526028e-02 1.29359864647551e-04
1.23125000000000e+01 1.02582384823538e-02 1.27555461087765e-04
1.24375000000000e+01 1.00636703373771e-02 1.25769743908580e-04
1.25625000000000e+01 9.87279256897961e-03 1.24002762146152e-04
1.26875000000000e+01 9.68553518173999e-03 1.22254552129974e-04
1.28125000000000e+01 9.50182950784093e-03 1.20525138125671e-04
1.29375000000000e+01 9.32160818188852e-03 1.18814532949116e-04
1.30625000000000e+01 9.14480511620917e-03 1.17122738553224e-04
1.31875000000000e+01 8.97135547661508e-03 1.15449746588714e-04
1.33125000000000e+01 8.80119565862931e-03 1.13795538940066e-04
1.34375000000000e+01 8.63426326416192e-03 1.12160088237824e-04
1.35625000000000e+01 8.47049707862835e-03 1.10543358348326e-04
1.36875000000000e+01 8.30983704850187e-03 1.08945304841915e-04
1.38125000000000e+01 8.15222425929179e-03 1.07365875440590e-04
1.39375000000000e+01 7.99760091393934e-03 1.05805010446047e-04
1.40625000000000e+01 7.84591031162334e-03 1.04262643148987e-04
1.41875000000000e+01 7.69709682696782e-03 1.02738700220531e-04
1.43125000000000e+01 7.55110588964407e-03 1.01233102086529e-04
1.44375000000000e+01 7.40788396435950e-03 9.97457632855371e-05
1.45625000000000e+01 7.26737853122614e-03 9.82765928111674e-05
1.46875000000000e+01 7.12953806650144e-03 9.68254944395082e-05
1.48125000000000e+01 6.99431202369434e-03 9.53923670422551e-05
1.49375000000000e+01 6.86165081502974e-03 9.39771048861760e-05
1.50625000000000e+01 6.73150579326455e-03 9.25795979195053e-05
1.51875000000000e+01 6.60382923384856e-03 9.11997320458202e-05
1.53125000000000e+01 6.47857431742374e-03 8.98373893859505e-05
1.54375000000000e+01 6.35569511265545e-03 8.84924485284153e-05
1.55625000000000e+01 6.23514655938928e-03 8.71647847688792e-05
1.56875000000000e+01 6.11688445212737e-03 8.58542703391034e-05
1.58125000000000e+01 6.00086542381810e-03 8.45607746258250e-05
1.59375000000000e+01 5.88704692995331e-03 8.32841643799794e-05
1.60625000000000e+01 5.77538723296709e-03 8.20243039166916e-05
1.61875000000000e+01 5.66584538693049e-03 8.07810553064060e-05
1.63125000000000e+01 5.55838122253654e-03 7.95542785575245e-05
1.64375000000000e+01 5.45295533237003e-03 7.83438317909182e-05
1.65625000000000e+01 5.34952905645675e-03 7.71495714066280e-05
1.66875000000000e+01 5.24806446808669e-03 7.59713522430955e-05
1.68125000000000e+01 5.14852435990628e-03 7.48090277292260e-05
1.69375000000000e+01 5.05087223027431e-03 7.36624500295743e-05
1.70625000000000e+01 4.95507226987668e-03 7.25314701829334e-05
1.71875000000000e+01 4.86108934859502e-03 7.14159382346102e-05
1.73125000000000e+01 4.76888900262439e-03 7.03157033626317e-05
1.74375000000000e+01 4.67843742183528e-03 6.92306139981336e-05
1.75625000000000e+01 4.58970143737537e-03 6.81605179401712e-05
1.76875000000000e+01 4.50264850950640e-03 6.71052624651732e-05
1.78125000000000e+01 4.41724671567173e-03 6.60646944312655e-05
1.79375000000000e+01 4.33346473879030e-03 6.50386603776628e-05
1.80625000000000e+01 4.25127185577253e-03 6.40270066193375e-05
1.81875000000000e+01 4.17063792625410e-03 6.30295793371476e-05
1.83125000000000e+01 4.09153338154336e-03 6.20462246636139e-05
1.84375000000000e+01 4.01392921377843e-03 6.10767887645224e-05
1.85625000000000e+01 3.93779696528994e-03 6.01211179165173e-05
1.86875000000000e+01 3.86310871816550e-03 5.91790585808491e-05
1.88125000000000e+01 3.78983708401215e-03 5.82504574734337e-05
1.89375000000000e+01 3.71795519391292e-03 5.73351616313706e-05
1.90625000000000e+01 3.64743668857396e-03 5.64330184760597e-05
1.91875000000000e+01 3.57825570865848e-03 5.55438758730627e-05
1.93125000000000e+01 3.51038688530409e-03 5.46675821888336e-05
1.94375000000000e+01 3.44380533081994e-03 5.38039863444491e-05
1.95625000000000e+01 3.37848662956034e-03 5.29529378664587e-05
1.96875000000000e+01 3.31440682897148e-03 5.21142869349703e-05
1.98125000000000e+01 3.25154243080795e-03 5.12878844290872e-05
1.99375000000000e+01 3.18987038251587e-03 5.04735819698007e-05
2.00625000000000e+01 3.12936806877945e-03 4.96712319604429e-05
2.01875000000000e+01 3.07001330322792e-03 4.88806876248012e-05
2.03125000000000e+01 3.01178432029966e-03 4.81018030429871e-05
2.04375000000000e+01 2.95465976726078e-03 4.73344331851537e-05
2.05625000000000e+01 2.89861869637496e-03 4.65784339431485e-05
2.06875000000000e+01 2.84364055722185e-03 4.58336621601866e-05
2.08125000000000e+01 2.78970518916124e-03 4.50999756586254e-05
2.09375000000000e+01 2.73679281394002e-03 4.43772332659244e-05
2.10625000000000e+01 2.68488402843947e-03 4.36652948388581e-05
2.11875000000000e+01 2.63395979756009e-03 4.29640212860551e-05
2.13125000000000e+01 2.58400144724136e-03 4.22732745889401e-05
2.14375000000000e+01 2.53499065761390e-03 4.15929178211418e-05
2.15625000000000e+01 2.48690945628155e-03 4.09228151664263e-05
2.16875000000000e+01 2.43974021173083e-03 4.02628319352253e-05
2.18125000000000e+01 2.39346562686539e-03 3.96128345798164e-05
2.19375000000000e+01 2.34806873266315e-03 3.89726907082111e-05
2.20625000000000e+01 2.30353288195369e-03 3.83422690968077e-05
2.21875000000000e+01 2.25984174331369e-03 3.77214397018587e-05
2.23125000000000e+01 2.21697929507817e-03 3.71100736698107e-05
2.24375000000000e+01 2.17492981946526e-03 3.65080433465578e-05
2.25625000000000e+01 2.13367789681247e-03 3.59152222856605e-05
2.26875000000000e+01 2.09320839992225e-03 3.53314852555747e-05
2.28125000000000e+01 2.05350648851484e-03 3.47567082459332e-05
2.29375000000000e+01 2.01455760378620e-03 3.41907684729235e-05
2.30625000000000e+01 1.97634746306938e-03 3.36335443838003e-05
2.31875000000000e+01 1.93886205459692e-03 3.30849156605738e-05
2.33125000000000e+01 1.90208763236277e-03 3.25447632229077e-05
2.34375000000000e+01 1.86601071108153e-03 3.20129692302688e-05
2.35625000000000e+01 1.83061806124341e-03 3.14894170833565e-05
2.36875000000000e+01 1.79589670426290e-03 3.09739914248483e-05
2.38125000000000e+01 1.76183390771948e-03 3.04665781394924e-05
2.39375000000000e+01 1.72841718068864e-03 2.99670643535815e-05
2.40625000000000e+01 1.69563426916138e-03 2.94753384338311e-05
2.41875000000000e+01 1.66347315155067e-03 2.89912899856971e-05
2.43125000000000e+01 1.63192203428306e-03 2.85148098511575e-05
2.44375000000000e+01 1.60096934747399e-03 2.80457901059817e-05
2.45625000000000e+01 1.57060374068502e-03 2.75841240565175e-05
2.46875000000000e+01 1.54081407876165e-03 2.71297062360175e-05
2.48125000000000e+01 1.51158943775000e-03 2.66824324005287e-05
2.49375000000000e+01 1.48291910089096e-03 2.62421995243674e-05
2.50625000000000e+01 1.45479255469034e-03 2.58089057952030e-05
2.51875000000000e+01 1.42719948506352e-03 2.53824506087677e-05
2.53125000000000e+01 1.40012977355328e-03 2.49627345632162e-05
2.54375000000000e+01 1.37357349361930e-03 2.45496594531529e-05
2.55625000000000e+01 1.34752090699807e-03 2.41431282633435e-05
2.56875000000000e+01 1.32196246013188e-03 2.37430451621305e-05
2.58125000000000e+01 1.29688878066545e-03 2.33493154945714e-05
2.59375000000000e+01 1.27229067400910e-03 2.29618457753100e-05
2.60625000000000e+01 1.24815911996705e-03 2.25805436812029e-05
2.61875000000000e+01 1.22448526942969e-03 2.22053180437152e-05
2.63125000000000e+01 1.20126044112860e-03 2.18360788410953e-05
2.64375000000000e+01 1.17847611845309e-03 2.14727371903477e-05
2.65625000000000e+01 1.15612394632712e-03 2.11152053390152e-05
2.66875000000000e+01 1.13419572814551e-03 2.07633966567831e-05
2.68125000000000e+01 1.11268342276818e-03 2.04172256269182e-05
2.69375000000000e+01 1.09157914157149e-03 2.00766078375557e-05
2.70625000000000e+01 1.07087514555539e-03 1.97414599728426e-05
2.71875000000000e+01 1.05056384250557e-03 1.94116998039491e-05
2.73125000000000e+01 1.03063778420934e-03 1.90872461799619e-05
2.74375000000000e+01 1.01108966372438e-03 1.87680190186650e-05
2.75625000000000e+01 9.91912312699209e-04 1.84539392972187e-05
2.76875000000000e+01 9.73098698744585e-04 1.81449290427491e-05
2.78125000000000e+01 9.54641922854679e-04 1.78409113228514e-05
2.79375000000000e+01 9.36535216877197e-04 1.75418102360203e-05
2.80625000000000e+01 9.18771941031482e-04 1.72475509020148e-05
2.81875000000000e+01 9.01345581473680e-04 1.69580594521612e-05
2.83125000000000e+01 8.84249747908103e-04 1.66732630196066e-05
2.84375000000000e+01 8.67478171243885e-04 1.63930897295285e-05
2.85625000000000e+01 8.51024701296089e-04 1.61174686893053e-05
2.86875000000000e+01 8.34883304530417e-04 1.58463299786567e-05
2.88125000000000e+01 8.19048061850695e-04 1.55796046397580e-05
2.89375000000000e+01 8.03513166428327e-04 1.53172246673375e-05
2.90625000000000e+01 7.88272921572909e-04 1.50591229987593e-05
2.91875000000000e+01 7.73321738643241e-04 1.48052335040974e-05
2.93125000000000e+01 7.58654134997954e-04 1.45554909762089e-05
2.94375000000000e+01 7.44264731985010e-04 1.43098311208084e-05
2.95625000000000e+01 7.30148252969336e-04 1.40681905465498e-05
2.96875000000000e+01 7.16299521397865e-04 1.38305067551175e-05
2.98125000000000e+01 7.02713458901282e-04 1.35967181313365e-05
2.99375000000000e+01 6.89385083431770e-04 1.33667639333003e-05
3.00625000000000e+01 6.76309507436078e-04 1.31405842825219e-05
3.01875000000000e+01 6.63481936063242e-04 1.29181201541139e-05
3.03125000000000e+01 6.50897665406300e-04 1.26993133669972e-05
3.04375000000000e+01 6.38552080777356e-04 1.24841065741456e-05
3.05625000000000e+01 6.26440655015359e-04 1.22724432528664e-05
3.06875000000000e+01 6.14558946825984e-04 1.20642676951225e-05
3.08125000000000e+01 6.02902599152991e-04 1.18595249978954e-05
3.09375000000000e+01 5.91467337580486e-04 1.16581610535968e-05
3.10625000000000e+01 5.80248968765477e-04 1.14601225405263e-05
3.11875000000000e+01 5.69243378900164e-04 1.12653569133807e-05
3.13125000000000e+01 5.58446532203392e-04 1.10738123938156e-05
3.14375000000000e+01 5.47854469440724e-04 1.08854379610634e-05
3.15625000000000e+01 5.37463306472573e-04 1.07001833426069e-05
3.16875000000000e+01 5.27269232829879e-04 1.05179990049133e-05
3.18125000000000e+01 5.17268510316799e-04 1.03388361442276e-05
3.19375000000000e+01 5.07457471639901e-04 1.01626466774295e-05
3.20625000000000e+01 4.97832519063354e-04 9.98938323295403e-06
3.21875000000000e+01 4.88390123089633e-04 9.81899914177752e-06
3.23125000000000e+01 4.79126821165236e-04 9.65144842847052e-06
3.24375000000000e+01 4.70039216410962e-04 9.48668580231935e-06
3.25625000000000e+01 4.61123976376260e-04 9.32466664851577e-06
3.26875000000000e+01 4.52377831817215e-04 9.16534701941843e-06
3.28125000000000e+01 4.43797575497703e-04 9.00868362588509e-06
3.29375000000000e+01 4.35380061013292e-04 8.85463382867642e-06
3.30625000000000e+01 4.27122201637441e-04 8.70315562993482e-06
3.31875000000000e+01 4.19020969189596e-04 8.55420766473594e-06
3.33125000000000e+01 4.11073392924741e-04 8.40774919271486e-06
3.34375000000000e+01 4.03276558444021e-04 8.26374008976837e-06
3.35625000000000e+01 3.95627606626023e-04 8.12214083983259e-06
3.36875000000000e+01 3.88123732578327e-04 7.98291252673755e-06
3.38125000000000e+01 3.80762184608944e-04 7.84601682613812e-06
3.39375000000000e+01 3.73540263217265e-04 7.71141599752228e-06
3.40625000000000e+01 3.66455320104144e-04 7.57907287629743e-06
3.41875000000000e+01 3.59504757200759e-04 7.44895086595464e-06
3.43125000000000e+01 3.52686025715896e-04 7.32101393031075e-06
3.44375000000000e+01 3.45996625201294e-04 7.19522658582914e-06
3.45625000000000e+01 3.39434102634732e-04 7.07155389401884e-06
3.46875000000000e+01 3.32996051520489e-04 6.94996145391228e-06
3.48125000000000e+01 3.26680111006884e-04 6.83041539462192e-06
3.49375000000000e+01 3.20483965020539e-04 6.71288236797547e-06
3.50625000000000e+01 3.14405341417072e-04 6.59732954122965e-06
3.51875000000000e+01 3.08442011147891e-04 6.48372458986317e-06
3.53125000000000e+01 3.02591787442800e-04 6.37203569044774e-06
3.54375000000000e+01 2.96852525008102e-04 6.26223151359744e-06
3.55625000000000e+01 2.91222119239915e-04 6.15428121699718e-06
3.56875000000000e+01 2.85698505452404e-04 6.04815443850809e-06
3.58125000000000e+01 2.80279658120660e-04 5.94382128935191e-06
3.59375000000000e+01 2.74963590137929e-04 5.84125234737265e-06
3.60625000000000e+01 2.69748352086941e-04 5.74041865037510e-06
3.61875000000000e+01 2.64632031525046e-04 5.64129168954140e-06
3.63125000000000e+01 2.59612752282920e-04 5.54384340292365e-06
3.64375000000000e+01 2.54688673776568e-04 5.44804616901360e-06
3.65625000000000e+01 2.49857990332375e-04 5.35387280038803e-06
3.66875000000000e+01 2.45118930524962e-04 5.26129653742961e-06
3.68125000000000e+01 2.40469756527597e-04 5.17029104212396e-06
3.69375000000000e+01 2.35908763474934e-04 5.08083039193080e-06
3.70625000000000e+01 2.31434278837827e-04 4.99288907372997e-06
3.71875000000000e+01 2.27044661810014e-04 4.90644197784148e-06
3.73125000000000e+01 2.22738302706427e-04 4.82146439211919e-06
3.74375000000000e+01 2.18513622372917e-04 4.73793199611743e-06
3.75625000000000e+01 2.14369071607171e-04 4.65582085533035e-06
3.76875000000000e+01 2.10303130590618e-04 4.57510741550335e-06
3.78125000000000e+01 2.06314308331104e-04 4.49576849701621e-06
3.79375000000000e+01 2.02401142116144e-04 4.41778128933723e-06
3.80625000000000e+01 1.98562196976542e-04 4.34112334554796e-06
3.81875000000000e+01 1.94796065160179e-04 4.26577257693792e-06
3.83125000000000e+01 1.91101365615790e-04 4.19170724766877e-06
3.84375000000000e+01 1.87476743486529e-04 4.11890596950751e-06
3.85625000000000e+01 1.83920869613134e-04 4.04734769662773e-06
3.86875000000000e+01 1.80432440046528e-04 3.97701172047895e-06
3.88125000000000e+01 1.77010175569653e-04 3.90787766472290e-06
3.89375000000000e+01 1.73652821228375e-04 3.83992548023648e-06
3.90625000000000e+01 1.70359145871295e-04 3.77313544018072e-06
3.91875000000000e+01 1.67127941698277e-04 3.70748813513518e-06
3.93125000000000e+01 1.63958023817546e-04 3.64296446829716e-06
3.94375000000000e+01 1.60848229811187e-04 3.57954565074490e-06
