Energy (eV)          EEDF (eV^-(3/2))     First Anisotropy
4.32075471698113e-04 2.32599182008141e+01 1.07677681362825e-02
1.29622641509434e-03 2.31089658799987e+01 1.77827313336021e-02
2.16037735849057e-03 2.29589932097948e+01 2.34807462850134e-02
3.02452830188679e-03 2.28099938332644e+01 2.78129391966826e-02
3.88867924528302e-03 2.26619614336463e+01 3.14288301767873e-02
4.75283018867925e-03 2.25148897351525e+01 3.45738547125285e-02
5.61698113207547e-03 2.23687725033275e+01 3.73749573512498e-02
6.48113207547170e-03 2.22236035438228e+01 3.99087557617361e-02
7.34528301886792e-03 2.20793767023605e+01 4.22260375741004e-02
8.20943396226415e-03 2.19360858649571e+01 4.43626797776463e-02
9.07358490566038e-03 2.17937249571102e+01 4.63452266384268e-02
9.93773584905660e-03 2.16522879436353e+01 4.81940230550783e-02
1.08018867924528e-02 2.15117688289675e+01 4.99251034522916e-02
1.16660377358491e-02 2.13721616552847e+01 5.15513940146277e-02
1.25301886792453e-02 2.12334605053058e+01 5.30835124532057e-02
1.33943396226415e-02 2.10956594981620e+01 5.45303190161572e-02
1.42584905660377e-02 2.09587527930024e+01 5.58993077596795e-02
1.51226415094340e-02 2.08227345859045e+01 5.71968918153891e-02
1.59867924528302e-02 2.06875991099678e+01 5.84286151816932e-02
1.68509433962264e-02 2.05533406371378e+01 5.95993139272410e-02
1.77150943396226e-02 2.04199534751822e+01 6.07132402964142e-02
1.85792452830189e-02 2.02874319700958e+01 6.17741599044213e-02
1.94433962264151e-02 2.01557705033395e+01 6.27854288495549e-02
2.03075471698113e-02 2.00249634940077e+01 6.37500555484827e-02
2.11716981132075e-02 1.98950053968013e+01 6.46707511450272e-02
2.20358490566038e-02 1.97658907019568e+01 6.55499703491080e-02
2.29000000000000e-02 1.96376139364355e+01 6.63899456248970e-02
2.37641509433962e-02 1.95101696617856e+01 6.71927154697549e-02
2.46283018867925e-02 1.93835524757471e+01 6.79601481831244e-02
2.54924528301887e-02 1.92577570102539e+01 6.86939619665010e-02
2.63566037735849e-02 1.91327779329127e+01 6.93957419695752e-02
2.72207547169811e-02 1.90086099455024e+01 7.00669550785809e-02
2.80849056603774e-02 1.88852477838447e+01 7.07089622530818e-02
2.89490566037736e-02 1.87626862186437e+01 7.13230295662764e-02
2.98132075471698e-02 1.86409200538436e+01 7.19103376211613e-02
3.06773584905660e-02 1.85199441277857e+01 7.24719897960678e-02
3.15415094339623e-02 1.83997533116535e+01 7.30090194812510e-02
3.24056603773585e-02 1.82803425105522e+01 7.35223964037085e-02
3.32698113207547e-02 1.81617066623233e+01 7.40130323897452e-02
3.41339622641509e-02 1.80438407373904e+01 7.44817861382485e-02
3.49981132075472e-02 1.79267397393802e+01 7.49294677902035e-02
3.58622641509434e-02 1.78103987037978e+01 7.53568428515521e-02
3.67264150943396e-02 1.76948126988996e+01 7.57646357274101e-02
3.75905660377358e-02 1.75799768244291e+01 7.61535329022461e-02
3.84547169811321e-02 1.74658862124370e+01 7.65241857936968e-02
3.93188679245283e-02 1.73525360260729e+01 7.68772133357048e-02
4.01830188679245e-02 1.72399214603575e+01 7.72132042778676e-02
4.10471698113208e-02 1.71280377412479e+01 7.75327194207287e-02
4.19113207547170e-02 1.70168801254744e+01 7.78362933594908e-02
4.27754716981132e-02 1.69064439009831e+01 7.81244363514668e-02
4.36396226415094e-02 1.67967243858771e+01 7.83976358866300e-02
4.45037735849057e-02 1.66877169290581e+01 7.86563581442517e-02
4.53679245283019e-02 1.65794169092076e+01 7.89010493345914e-02
4.62320754716981e-02 1.64718197353941e+01 7.91321368974478e-02
4.70962264150943e-02 1.63649208462779e+01 7.93500307380473e-02
4.79603773584906e-02 1.62587157099465e+01 7.95551241086968e-02
4.88245283018868e-02 1.61531998242587e+01 7.97477946721580e-02
4.96886792452830e-02 1.60483687159386e+01 7.99284053642972e-02
5.05528301886792e-02 1.59442179410866e+01 8.00973052108014e-02
5.14169811320755e-02 1.58407430843045e+01 8.02548300904855e-02
5.22811320754717e-02 1.57379397591809e+01 8.04013034141760e-02
5.31452830188679e-02 1.56358036076017e+01 8.05370368759106e-02
5.40094339622642e-02 1.55343302995877e+01 8.06623309209440e-02
5.48735849056604e-02 1.54335155335650e+01 8.07774754071618e-02
5.57377358490566e-02 1.53333550355774e+01 8.08827501139562e-02
5.66018867924528e-02 1.52338445596990e+01 8.09784252341325e-02
5.74660377358491e-02 1.51349798872711e+01 8.10647618397114e-02
5.83301886792453e-02 1.50367568272960e+01 8.11420123121134e-02
5.91943396226415e-02 1.49391712156974e+01 8.12104207510927e-02
6.00584905660377e-02 1.48422189156948e+01 8.12702233321476e-02
6.09226415094340e-02 1.47458958172165e+01 8.13216487487497e-02
6.17867924528302e-02 1.46501978367408e+01 8.13649184233153e-02
6.26509433962264e-02 1.45551209174993e+01 8.14002469057121e-02
6.35150943396226e-02 1.44606610288037e+01 8.14278421524310e-02
6.43792452830189e-02 1.43668141663672e+01 8.14479058045818e-02
6.52433962264151e-02 1.42735763516512e+01 8.14606334554085e-02
6.61075471698113e-02 1.41809436321717e+01 8.14662148791385e-02
6.69716981132076e-02 1.40889120809761e+01 8.14648343441981e-02
6.78358490566038e-02 1.39974777964897e+01 8.14566707229667e-02
6.87000000000000e-02 1.39066369026772e+01 8.14418977781449e-02
6.95641509433962e-02 1.38163855484426e+01 8.14206843462302e-02
7.04283018867925e-02 1.37267199078947e+01 8.13931945250276e-02
7.12924528301887e-02 1.36376361797632e+01 8.13595878563216e-02
7.21566037735849e-02 1.35491305876520e+01 8.13200194776408e-02
7.30207547169811e-02 1.34611993795690e+01 8.12746403550541e-02
7.38849056603774e-02 1.33738388277780e+01 8.12235973338305e-02
7.47490566037736e-02 1.32870452289264e+01 8.11670333537510e-02
7.56132075471698e-02 1.32008149035071e+01 8.11050875736379e-02
7.64773584905660e-02 1.31151441960782e+01 8.10378955023766e-02
7.73415094339623e-02 1.30300294747377e+01 8.09655891282229e-02
7.82056603773585e-02 1.29454671313342e+01 8.08882970222450e-02
7.90698113207547e-02 1.28614535810409e+01 8.08061445183351e-02
7.99339622641509e-02 1.27779852622129e+01 8.07192537284164e-02
8.07981132075472e-02 1.26950586364886e+01 8.06277437104727e-02
8.16622641509434e-02 1.26126701883034e+01 8.05317305552844e-02
8.25264150943396e-02 1.25308164250718e+01 8.04313274807459e-02
8.33905660377359e-02 1.24494938767130e+01 8.03266449261908e-02
8.42547169811321e-02 1.23686990958255e+01 8.02177906386934e-02
8.51188679245283e-02 1.22884286572239e+01 8.01048697597003e-02
8.59830188679245e-02 1.22086791581062e+01 7.99879848901234e-02
8.68471698113208e-02 1.21294472176754e+01 7.98672362261431e-02
8.77113207547170e-02 1.20507294770037e+01 7.97427215479783e-02
8.85754716981132e-02 1.19725225991076e+01 7.96145363478609e-02
8.94396226415094e-02 1.18948232685165e+01 7.94827738860317e-02
9.03037735849057e-02 1.18176281914181e+01 7.93475252548916e-02
9.11679245283019e-02 1.17409340952367e+01 7.92088794442777e-02
9.20320754716981e-02 1.16647377287724e+01 7.90669233877237e-02
9.28962264150943e-02 1.15890358618554e+01 7.89217420746566e-02
9.37603773584906e-02 1.15138252852151e+01 7.87734185276703e-02
9.46245283018868e-02 1.14391028105383e+01 7.86220339089061e-02
9.54886792452830e-02 1.13648652700752e+01 7.84676675606139e-02
9.63528301886793e-02 1.12911095167604e+01 7.83103970538244e-02
9.72169811320755e-02 1.12178324238278e+01 7.81502982386375e-02
9.80811320754717e-02 1.11450308849263e+01 7.79874452774005e-02
9.89452830188679e-02 1.10727018138021e+01 7.78219107393865e-02
9.98094339622641e-02 1.10008421441732e+01 7.76537655248196e-02
1.00673584905660e-01 1.09294488300007e+01 7.74830790949463e-02
1.01537735849057e-01 1.08585188444417e+01 7.73099194194359e-02
1.02401886792453e-01 1.07880491805851e+01 7.71343528845882e-02
1.03266037735849e-01 1.07180368510339e+01 7.69564445102159e-02
1.04130188679245e-01 1.06484788877789e+01 7.67762579261564e-02
1.04994339622642e-01 1.05793723420727e+01 7.65938554076499e-02
1.05858490566038e-01 1.05107142843046e+01 7.64092979095537e-02
1.06722641509434e-01 1.04425018038763e+01 7.62226450994512e-02
1.07586792452830e-01 1.03747320090788e+01 7.60339553896598e-02
1.08450943396226e-01 1.03074020269695e+01 7.58432859681209e-02
1.09315094339623e-01 1.02405090032510e+01 7.56506928284564e-02
1.10179245283019e-01 1.01740501021494e+01 7.54562307990936e-02
1.11043396226415e-01 1.01080225062947e+01 7.52599535713494e-02
1.11907547169811e-01 1.00424234166009e+01 7.50619137267051e-02
1.12771698113208e-01 9.97725005214748e+00 7.48621627632356e-02
1.13635849056604e-01 9.91249965006169e+00 7.46607511212321e-02
1.14500000000000e-01 9.84816946540111e+00 7.44577281105285e-02
1.15364150943396e-01 9.78425677148398e+00 7.42531422289631e-02
1.16228301886792e-01 9.72075885842526e+00 7.40470409887313e-02
1.17092452830189e-01 9.65767303437901e+00 7.38394707391493e-02
1.17956603773585e-01 9.59499662496884e+00 7.36304769897988e-02
1.18820754716981e-01 9.53272697317452e+00 7.34201043309297e-02
1.19684905660377e-01 9.47086143921934e+00 7.32083964542274e-02
1.20549056603774e-01 9.40939740045820e+00 7.29953961729886e-02
1.21413207547170e-01 9.34833225126644e+00 7.27811454417286e-02
1.22277358490566e-01 9.28766340292940e+00 7.25656853752783e-02
1.23141509433962e-01 9.22738828353245e+00 7.23490562672434e-02
1.24005660377358e-01 9.16750433785231e+00 7.21312976079703e-02
1.24869811320755e-01 9.10800902724863e+00 7.19124481021515e-02
1.25733962264151e-01 9.04889982955633e+00 7.16925456858438e-02
1.26598113207547e-01 8.99017423897869e+00 7.14716275430275e-02
1.27462264150943e-01 8.93182976598108e+00 7.12497301217310e-02
1.28326415094340e-01 8.87386393718546e+00 7.10268891497139e-02
1.29190566037736e-01 8.81627429526552e+00 7.08031396497593e-02
1.30054716981132e-01 8.75905839884252e+00 7.05785158731527e-02
1.30918867924528e-01 8.70221382273156e+00 7.03530515598071e-02
1.31783018867925e-01 8.64573815678273e+00 7.01267797880622e-02
1.32647169811321e-01 8.58962900684175e+00 6.98997328214146e-02
1.33511320754717e-01 8.53388399429191e+00 6.96719423732732e-02
1.34375471698113e-01 8.47850075595328e+00 6.94434395357379e-02
1.35239622641509e-01 8.42347694398244e+00 6.92142547923162e-02
1.36103773584906e-01 8.36881022577306e+00 6.89844180303164e-02
1.36967924528302e-01 8.31449828385691e+00 6.87539585529575e-02
1.37832075471698e-01 8.26053881580569e+00 6.85229050911905e-02
1.38696226415094e-01 8.20692953413323e+00 6.82912858151197e-02
1.39560377358491e-01 8.15366816619886e+00 6.80591283452341e-02
1.40424528301887e-01 8.10075245411088e+00 6.78264597634400e-02
1.41288679245283e-01 8.04818015463087e+00 6.75933066236979e-02
1.42152830188679e-01 7.99594903907857e+00 6.73596949624552e-02
1.43016981132075e-01 7.94405689323742e+00 6.71256503088165e-02
1.43881132075472e-01 7.89250151726067e+00 6.68911976944918e-02
1.44745283018868e-01 7.84128072557813e+00 6.66563615944550e-02
1.45609433962264e-01 7.79039234708492e+00 6.64211661447574e-02
1.46473584905660e-01 7.73983422420010e+00 6.61856350124967e-02
1.47337735849057e-01 7.68960421362975e+00 6.59497912630922e-02
1.48201886792453e-01 7.63970018598953e+00 6.57136575823860e-02
1.49066037735849e-01 7.59012002571434e+00 6.54772562137684e-02
1.49930188679245e-01 7.54086163096871e+00 6.52406089666139e-02
1.50794339622642e-01 7.49192291355764e+00 6.50037372245166e-02
1.51658490566038e-01 7.44330179883810e+00 6.47666619533635e-02
1.52522641509434e-01 7.39499622563109e+00 6.45294037092202e-02
1.53386792452830e-01 7.34700414613421e+00 6.42919826460318e-02
1.54250943396226e-01 7.29932352583484e+00 6.40544185231121e-02
1.55115094339623e-01 7.25195234342403e+00 6.38167307125420e-02
1.55979245283019e-01 7.20488859071073e+00 6.35789382064009e-02
1.56843396226415e-01 7.15813027253665e+00 6.33410596237932e-02
1.57707547169811e-01 7.11167540669166e+00 6.31031132177556e-02
1.58571698113208e-01 7.06552202382980e+00 6.28651168819993e-02
1.59435849056604e-01 7.01966816738576e+00 6.26270881575125e-02
1.60300000000000e-01 6.97411189349197e+00 6.23890441806562e-02
1.61164150943396e-01 6.92885127112220e+00 6.21510018655899e-02
1.62028301886792e-01 6.88388438132755e+00 6.19129777927857e-02
1.62892452830189e-01 6.83920931784134e+00 6.16749880951909e-02
1.63756603773585e-01 6.79482418676820e+00 6.14370486444552e-02
1.64620754716981e-01 6.75072710650378e+00 6.11991749963000e-02
1.65484905660377e-01 6.70691620765493e+00 6.09613823962163e-02
1.66349056603774e-01 6.66338963296052e+00 6.07236857850363e-02
1.67213207547170e-01 6.62014553721267e+00 6.04860998043952e-02
1.68077358490566e-01 6.57718208717853e+00 6.02486388021015e-02
1.68941509433962e-01 6.53449746152249e+00 6.00113168373471e-02
1.69805660377359e-01 6.49208985072912e+00 5.97741476858313e-02
1.70669811320755e-01 6.44995745702637e+00 5.95371448448266e-02
1.71533962264151e-01 6.40809849430941e+00 5.93003215381093e-02
1.72398113207547e-01 6.36651118806484e+00 5.90636907207802e-02
1.73262264150943e-01 6.32519377529554e+00 5.88272650840064e-02
1.74126415094340e-01 6.28414450444587e+00 5.85910570596644e-02
1.74990566037736e-01 6.24336163532743e+00 5.83550788248915e-02
1.75854716981132e-01 6.20284343904532e+00 5.81193422569800e-02
1.76718867924528e-01 6.16258819810815e+00 5.78838590872869e-02
1.77583018867925e-01 6.12259420580203e+00 5.76486408056424e-02
1.78447169811321e-01 6.08285976667466e+00 5.74136985626735e-02
1.79311320754717e-01 6.04338319627692e+00 5.71790433270615e-02
1.80175471698113e-01 6.00416282109139e+00 5.69446858382612e-02
1.81039622641509e-01 5.96519697846149e+00 5.67106366104755e-02
1.81903773584906e-01 5.92648401652091e+00 5.64769059365477e-02
1.82767924528302e-01 5.88802229412366e+00 5.62435038917827e-02
1.83632075471698e-01 5.84981018077444e+00 5.60104403377126e-02
1.84496226415094e-01 5.81184605655949e+00 5.57777249257419e-02
1.85360377358491e-01 5.77412831207802e+00 5.55453671007567e-02
1.86224528301887e-01 5.73665534837395e+00 5.53133761047006e-02
1.87088679245283e-01 5.69942557686809e+00 5.50817609800387e-02
1.87952830188679e-01 5.66243741929084e+00 5.48505305731639e-02
1.88816981132075e-01 5.62568930761524e+00 5.46196935377483e-02
1.89681132075472e-01 5.58917968399051e+00 5.43892583380316e-02
1.90545283018868e-01 5.55290700067601e+00 5.41592332094273e-02
1.91409433962264e-01 5.51686972012712e+00 5.39296262902405e-02
1.92273584905660e-01 5.48106631447303e+00 5.37004455389437e-02
1.93137735849057e-01 5.44549526591159e+00 5.34716986496051e-02
1.94001886792453e-01 5.41015506649091e+00 5.32433931865395e-02
1.94866037735849e-01 5.37504421804538e+00 5.30155365431329e-02
1.95730188679245e-01 5.34016123213220e+00 5.27881359447356e-02
1.96594339622642e-01 5.30550462996829e+00 5.25611984515016e-02
1.97458490566038e-01 5.27107294236755e+00 5.23347309611776e-02
1.98322641509434e-01 5.23686470967862e+00 5.21087402118433e-02
1.99186792452830e-01 5.20287848172298e+00 5.18832327846108e-02
2.00050943396226e-01 5.16911281773343e+00 5.16582151062451e-02
2.00915094339623e-01 5.13556628629316e+00 5.14336934517726e-02
2.01779245283019e-01 5.10223746527491e+00 5.12096739470456e-02
2.02643396226415e-01 5.06912494178078e+00 5.09861625712407e-02
2.03507547169811e-01 5.03622731208229e+00 5.07631651593242e-02
2.04371698113208e-01 5.00354318156089e+00 5.05406874044674e-02
2.05235849056604e-01 4.97107116464880e+00 5.03187348604303e-02
2.06100000000000e-01 4.93880988477034e+00 5.00973129074461e-02
2.06964150943396e-01 4.90675797440808e+00 4.98764268644653e-02
2.07828301886792e-01 4.87491407466909e+00 4.96560819180104e-02
2.08692452830189e-01 4.84327683560525e+00 4.94362830494164e-02
2.09556603773585e-01 4.81184491602934e+00 4.92170351496462e-02
2.10420754716981e-01 4.78061698345819e+00 4.89983429836897e-02
2.11284905660377e-01 4.74959171405616e+00 4.87802111926639e-02
2.12149056603774e-01 4.71876779257907e+00 4.85626442958928e-02
2.13013207547170e-01 4.68814391231839e+00 4.83456466929305e-02
2.13877358490566e-01 4.65771877504588e+00 4.81292226655785e-02
2.14741509433962e-01 4.62749109095853e+00 4.79133763798502e-02
2.15605660377358e-01 4.59745957862389e+00 4.76981118878899e-02
2.16469811320755e-01 4.56762296492577e+00 4.74834331298909e-02
2.17333962264151e-01 4.53797998501028e+00 4.72693439359703e-02
2.18198113207547e-01 4.50852938223215e+00 4.70558480280034e-02
2.19062264150943e-01 4.47926990810150e+00 4.68429490214338e-02
2.19926415094340e-01 4.45020032223091e+00 4.66306504270519e-02
2.20790566037736e-01 4.42131939228282e+00 4.64189556527474e-02
2.21654716981132e-01 4.39262589391730e+00 4.62078679739567e-02
2.22518867924528e-01 4.36411861084320e+00 4.59973906296602e-02
2.23383018867925e-01 4.33579633445572e+00 4.57875267611127e-02
2.24247169811321e-01 4.30765786409777e+00 4.55782793491460e-02
2.25111320754717e-01 4.27970200690428e+00 4.53696513123891e-02
2.25975471698113e-01 4.25192757775164e+00 4.51616454764867e-02
2.26839622641509e-01 4.22433339920745e+00 4.49542645756442e-02
2.27703773584906e-01 4.19691830148064e+00 4.47475112541679e-02
2.28567924528302e-01 4.16968112237182e+00 4.45413880679762e-02
2.29432075471698e-01 4.14262070722407e+00 4.43358974860859e-02
2.30296226415094e-01 4.11573590887393e+00 4.41310418920618e-02
2.31160377358491e-01 4.08902558760282e+00 4.39268235854483e-02
2.32024528301887e-01 4.06248861108874e+00 4.37232447832000e-02
2.32888679245283e-01 4.03612385435820e+00 4.35203076210657e-02
2.33752830188679e-01 4.00993019973860e+00 4.33180141549575e-02
2.34616981132075e-01 3.98390653681078e+00 4.31163663622966e-02
2.35481132075472e-01 3.95805176236201e+00 4.29153661433343e-02
2.36345283018868e-01 3.93236478033919e+00 4.27150152953546e-02
2.37209433962264e-01 3.90684450188889e+00 4.25153155956986e-02
2.38073584905660e-01 3.88148984505024e+00 4.23162687484787e-02
2.38937735849057e-01 3.85629973497150e+00 4.21178763300496e-02
2.39801886792453e-01 3.83127310377644e+00 4.19201398739756e-02
2.40666037735849e-01 3.80640889051920e+00 4.17230608441764e-02
2.41530188679245e-01 3.78170604113921e+00 4.15266406361062e-02
2.42394339622642e-01 3.75716350841654e+00 4.13308805779196e-02
2.43258490566038e-01 3.73278025192755e+00 4.11357819316214e-02
2.44122641509434e-01 3.70855523800070e+00 4.09413458941968e-02
2.44986792452830e-01 3.68448743967280e+00 4.07475735987237e-02
2.45850943396226e-01 3.66057583664543e+00 4.05544661154592e-02
2.46715094339623e-01 3.63681941524171e+00 4.03620244529195e-02
2.47579245283019e-01 3.61321716836333e+00 4.01702495589468e-02
2.48443396226415e-01 3.58976809544787e+00 3.99791423217521e-02
2.49307547169811e-01 3.56647120242634e+00 3.97887035709373e-02
2.50171698113208e-01 3.54332550168106e+00 3.95989340785098e-02
2.51035849056604e-01 3.52033001200381e+00 3.94098345598840e-02
2.51900000000000e-01 3.49748375855421e+00 3.92214056514990e-02
2.52764150943396e-01 3.47478577289061e+00 3.90336479822053e-02
2.53628301886792e-01 3.45223509271125e+00 3.88465621272382e-02
2.54492452830189e-01 3.42983076203242e+00 3.86601485610909e-02
2.55356603773585e-01 3.40757183107457e+00 3.84744077305833e-02
2.56220754716981e-01 3.38545735622201e+00 3.82893400315955e-02
2.57084905660377e-01 3.36348639998294e+00 3.81049458099634e-02
2.57949056603774e-01 3.34165803094972e+00 3.79212253623542e-02
2.58813207547170e-01 3.31997132375933e+00 3.77381789371349e-02
2.59677358490566e-01 3.29842535905419e+00 3.75558067352254e-02
2.60541509433962e-01 3.27701922344314e+00 3.73741089109298e-02
2.61405660377359e-01 3.25575200946279e+00 3.71930855727648e-02
2.62269811320755e-01 3.23462281553897e+00 3.70127367842774e-02
2.63133962264151e-01 3.21363074594859e+00 3.68330625648505e-02
2.63998113207547e-01 3.19277491078160e+00 3.66540628904838e-02
2.64862264150943e-01 3.17205442590331e+00 3.64757376945723e-02
2.65726415094340e-01 3.15146841291687e+00 3.62980868686773e-02
2.66590566037736e-01 3.13101599912607e+00 3.61211102632729e-02
2.67454716981132e-01 3.11069631749832e+00 3.59448076683336e-02
2.68318867924528e-01 3.09050850668839e+00 3.57691788748478e-02
2.69183018867925e-01 3.07045171081946e+00 3.55942236349877e-02
2.70047169811321e-01 3.05052507963026e+00 3.54199416213264e-02
2.70911320754717e-01 3.03072776837752e+00 3.52463324898225e-02
2.71775471698113e-01 3.01105893780021e+00 3.50733958596312e-02
2.72639622641509e-01 2.99151775408394e+00 3.49011313137853e-02
