Energy (eV)          EEDF (eV^-(3/2))     First Anisotropy
5.22972972972973e-03 9.47229241891534e-01 5.77586984034449e-04
1.56891891891892e-02 9.38426026348854e-01 9.52530539101681e-04
2.61486486486487e-02 9.29704624856918e-01 1.25419468497589e-03
3.66081081081081e-02 9.21064276990307e-01 1.48140076888093e-03
4.70675675675676e-02 9.12504229492659e-01 1.66926971656933e-03
5.75270270270270e-02 9.04023736059533e-01 1.83112807019812e-03
6.79864864864865e-02 8.95622057344335e-01 1.97389588850744e-03
7.84459459459459e-02 8.87298460884797e-01 2.10176591012486e-03
8.89054054054054e-02 8.79052220999625e-01 2.21752796086769e-03
9.93648648648649e-02 8.70882618773527e-01 2.32316024180326e-03
1.09824324324324e-01 8.62788941921994e-01 2.42013183022493e-03
1.20283783783784e-01 8.54770484893463e-01 2.50957288684300e-03
1.30743243243243e-01 8.46826548549536e-01 2.59237738979599e-03
1.41202702702703e-01 8.38956440386893e-01 2.66926863568281e-03
1.51662162162162e-01 8.31159474264914e-01 2.74084288335084e-03
1.62121621621622e-01 8.23434970377613e-01 2.80759943595982e-03
1.72581081081081e-01 8.15782255333546e-01 2.86996207224768e-03
1.83040540540541e-01 8.08200661908936e-01 2.92829466198850e-03
1.93500000000000e-01 8.00689529165870e-01 2.98291280880184e-03
2.03959459459459e-01 7.93248202228963e-01 3.03409269848170e-03
2.14418918918919e-01 7.85876032384409e-01 3.08207793283876e-03
2.24878378378378e-01 7.78572376875982e-01 3.12708488990954e-03
2.35337837837838e-01 7.71336598988545e-01 3.16930698053554e-03
2.45797297297297e-01 7.64168067860229e-01 3.20891807221922e-03
2.56256756756757e-01 7.57066158553125e-01 3.24607526651778e-03
2.66716216216216e-01 7.50030251905418e-01 3.28092119383324e-03
2.77175675675676e-01 7.43059734486218e-01 3.31358588403031e-03
2.87635135135135e-01 7.36153998615540e-01 3.34418835490652e-03
2.98094594594595e-01 7.29312442213153e-01 3.37283793524989e-03
3.08554054054054e-01 7.22534468840203e-01 3.39963538630606e-03
3.19013513513514e-01 7.15819487556866e-01 3.42467385855672e-03
3.29472972972973e-01 7.09166912957648e-01 3.44803971050080e-03
3.39932432432432e-01 7.02576165036852e-01 3.46981321548581e-03
3.50391891891892e-01 6.96046669218384e-01 3.49006917282187e-03
3.60851351351351e-01 6.89577856228236e-01 3.50887744085228e-03
3.71310810810811e-01 6.83169162119496e-01 3.52630340193580e-03
3.81770270270270e-01 6.76820028151181e-01 3.54240837182055e-03
3.92229729729730e-01 6.70529900809029e-01 3.55724995737439e-03
4.02689189189189e-01 6.64298231705381e-01 3.57088238452384e-03
4.13148648648649e-01 6.58124477534968e-01 3.58335676831224e-03
4.23608108108108e-01 6.52008100071351e-01 3.59472137384075e-03
4.34067567567568e-01 6.45948566061545e-01 3.60502184005984e-03
4.44527027027027e-01 6.39945347236182e-01 3.61430138159807e-03
4.54986486486487e-01 6.33997920208522e-01 3.62260097109330e-03
4.65445945945946e-01 6.28105766482113e-01 3.62995950277073e-03
4.75905405405405e-01 6.22268372353874e-01 3.63641394113322e-03
4.86364864864865e-01 6.16485228919512e-01 3.64199945492632e-03
4.96824324324324e-01 6.10755831980400e-01 3.64674953961451e-03
5.07283783783784e-01 6.05079682046988e-01 3.65069612813925e-03
5.17743243243243e-01 5.99456284249219e-01 3.65386969273019e-03
5.28202702702703e-01 5.93885148338137e-01 3.65629933565271e-03
5.38662162162162e-01 5.88365788609730e-01 3.65801288104173e-03
5.49121621621622e-01 5.82897723864431e-01 3.65903694287463e-03
5.59581081081081e-01 5.77480477394428e-01 3.65939700325306e-03
5.70040540540541e-01 5.72113576903113e-01 3.65911747710467e-03
5.80500000000000e-01 5.66796554501896e-01 3.65822177286067e-03
5.90959459459459e-01 5.61528946632387e-01 3.65673234915967e-03
6.01418918918919e-01 5.56310294062081e-01 3.65467076674442e-03
6.11878378378378e-01 5.51140141809118e-01 3.65205773717526e-03
6.22337837837838e-01 5.46018039136954e-01 3.64891316748521e-03
6.32797297297297e-01 5.40943539481566e-01 3.64525620227680e-03
6.43256756756757e-01 5.35916200445207e-01 3.64110526104305e-03
6.53716216216216e-01 5.30935583733405e-01 3.63647808004103e-03
6.64175675675676e-01 5.26001255117932e-01 3.63139173800594e-03
6.74635135135135e-01 5.21112784420730e-01 3.62586269316004e-03
6.85094594594595e-01 5.16269745447395e-01 3.61990681171645e-03
6.95554054054054e-01 5.11471715978369e-01 3.61353939540337e-03
7.06013513513514e-01 5.06718277704421e-01 3.60677520776765e-03
7.16472972972973e-01 5.02009016217267e-01 3.59962849839836e-03
7.26932432432433e-01 4.97343520946954e-01 3.59211302616525e-03
7.37391891891892e-01 4.92721385151966e-01 3.58424208062460e-03
7.47851351351352e-01 4.88142205858434e-01 3.57602850263460e-03
7.58310810810811e-01 4.83605583849779e-01 3.56748470334573e-03
7.68770270270270e-01 4.79111123607671e-01 3.55862268255942e-03
7.79229729729730e-01 4.74658433301261e-01 3.54945404457323e-03
7.89689189189189e-01 4.70247124735287e-01 3.53999001885540e-03
8.00148648648649e-01 4.65876813316990e-01 3.53024146878732e-03
8.10608108108108e-01 4.61547118038620e-01 3.52021891046737e-03
8.21067567567568e-01 4.57257661422861e-01 3.50993252553097e-03
8.31527027027027e-01 4.53008069510838e-01 3.49939217399306e-03
8.41986486486487e-01 4.48797971809030e-01 3.48860740681869e-03
8.52445945945946e-01 4.44627001277035e-01 3.47758747748779e-03
8.62905405405406e-01 4.40494794275910e-01 3.46634135335640e-03
8.73364864864865e-01 4.36400990555736e-01 3.45487772610071e-03
8.83824324324324e-01 4.32345233205327e-01 3.44320502201568e-03
8.94283783783784e-01 4.28327168639623e-01 3.43133141147195e-03
9.04743243243243e-01 4.24346446550718e-01 3.41926481827626e-03
9.15202702702703e-01 4.20402719895108e-01 3.40701292738459e-03
9.25662162162162e-01 4.16495644850135e-01 3.39458319692180e-03
9.36121621621622e-01 4.12624880784520e-01 3.38198286078548e-03
9.46581081081081e-01 4.08790090240822e-01 3.36921893978271e-03
9.57040540540541e-01 4.04990938889837e-01 3.35629824815692e-03
9.67500000000000e-01 4.01227095517320e-01 3.34322740040180e-03
9.77959459459460e-01 3.97498231979541e-01 3.33001281808686e-03
9.88418918918919e-01 3.93804023189952e-01 3.31666073609251e-03
9.98878378378379e-01 3.90144147075853e-01 3.30317721043378e-03
1.00933783783784e+00 3.86518284557960e-01 3.28956811927719e-03
1.01979729729730e+00 3.82926119529553e-01 3.27583917261638e-03
1.03025675675676e+00 3.79367338818083e-01 3.26199591844097e-03
1.04071621621622e+00 3.75841632161515e-01 3.24804374549558e-03
1.05117567567568e+00 3.72348692181278e-01 3.23398788906495e-03
1.06163513513514e+00 3.68888214355466e-01 3.21983342867061e-03
1.07209459459459e+00 3.65459897023548e-01 3.20558531406527e-03
1.08255405405405e+00 3.62063441265437e-01 3.19124835529582e-03
1.09301351351351e+00 3.58698550970938e-01 3.17682721237893e-03
1.10347297297297e+00 3.55364932781799e-01 3.16232642137110e-03
1.11393243243243e+00 3.52062296066133e-01 3.14775039091731e-03
1.12439189189189e+00 3.48790352893081e-01 3.13310340603908e-03
1.13485135135135e+00 3.45548818007711e-01 3.11838963178416e-03
1.14531081081081e+00 3.42337408806148e-01 3.10361311674364e-03
1.15577027027027e+00 3.39155845310935e-01 3.08877779644272e-03
1.16622972972973e+00 3.36003850146626e-01 3.07388749661533e-03
1.17668918918919e+00 3.32881148515585e-01 3.05894593635033e-03
1.18714864864865e+00 3.29787468174064e-01 3.04395673113638e-03
1.19760810810811e+00 3.26722539408455e-01 3.02892339581099e-03
1.20806756756757e+00 3.23686095011768e-01 3.01384934739458e-03
1.21852702702703e+00 3.20677870260342e-01 2.99873790783244e-03
1.22898648648649e+00 3.17697602890761e-01 2.98359230664498e-03
1.23944594594595e+00 3.14745033076992e-01 2.96841568348910e-03
1.24990540540541e+00 3.11819903407733e-01 2.95321109063467e-03
1.26036486486487e+00 3.08921958863970e-01 2.93798148991456e-03
1.27082432432432e+00 3.06050946818817e-01 2.92272977149938e-03
1.28128378378378e+00 3.03206616948699e-01 2.90745874511013e-03
1.29174324324324e+00 3.00388721278908e-01 2.89217113098132e-03
1.30220270270270e+00 2.97597014139324e-01 2.87686957886392e-03
1.31266216216216e+00 2.94831252142997e-01 2.86155666438459e-03
1.32312162162162e+00 2.92091194164930e-01 2.84623489101711e-03
1.33358108108108e+00 2.89376601321054e-01 2.83090669199282e-03
1.34404054054054e+00 2.86687236947405e-01 2.81557443215217e-03
1.35450000000000e+00 2.84022866579488e-01 2.80024040974117e-03
1.36495945945946e+00 2.81383257931832e-01 2.78490685815003e-03
1.37541891891892e+00 2.78768180877746e-01 2.76957594759825e-03
1.38587837837838e+00 2.76177407429258e-01 2.75424978677490e-03
1.39633783783784e+00 2.73610711717238e-01 2.73893042442877e-03
1.40679729729730e+00 2.71067869971702e-01 2.72361985090892e-03
1.41725675675676e+00 2.68548660502303e-01 2.70831999966103e-03
1.42771621621622e+00 2.66052863679007e-01 2.69303274868033e-03
1.43817567567568e+00 2.63580261912944e-01 2.67775992192261e-03
1.44863513513514e+00 2.61130639637436e-01 2.66250328638168e-03
1.45909459459459e+00 2.58703783305440e-01 2.64726456639320e-03
1.46955405405405e+00 2.56299481321818e-01 2.63204543623699e-03
1.48001351351351e+00 2.53917524074418e-01 2.61684751255750e-03
1.49047297297297e+00 2.51557703899149e-01 2.60167236890692e-03
1.50093243243243e+00 2.49219815061874e-01 2.58652153245972e-03
1.51139189189189e+00 2.46903653740480e-01 2.57139648516766e-03
1.52185135135135e+00 2.44609018007100e-01 2.55629866488273e-03
1.53231081081081e+00 2.42335707810515e-01 2.54122946644947e-03
1.54277027027027e+00 2.40083524958711e-01 2.52619024276773e-03
1.55322972972973e+00 2.37852273101600e-01 2.51118230582849e-03
1.56368918918919e+00 2.35641757713893e-01 2.49620692771575e-03
1.57414864864865e+00 2.33451786078161e-01 2.48126534158576e-03
1.58460810810811e+00 2.31282167268020e-01 2.46635874262456e-03
1.59506756756757e+00 2.29132712131487e-01 2.45148828897330e-03
1.60552702702703e+00 2.27003233274493e-01 2.43665510263173e-03
1.61598648648649e+00 2.24893545044542e-01 2.42186027033820e-03
1.62644594594595e+00 2.22803463514526e-01 2.40710484442619e-03
1.63690540540541e+00 2.20732806466690e-01 2.39238984365891e-03
1.64736486486487e+00 2.18681393376748e-01 2.37771625066973e-03
1.65782432432432e+00 2.16649045410103e-01 2.36308502294463e-03
1.66828378378378e+00 2.14635585370080e-01 2.34849708676903e-03
1.67874324324324e+00 2.12640837718951e-01 2.33395333103717e-03
1.68920270270270e+00 2.10664628550375e-01 2.31945461844852e-03
1.69966216216216e+00 2.08706785574234e-01 2.30500178270967e-03
1.71012162162162e+00 2.06767138101613e-01 2.29059562923107e-03
1.72058108108108e+00 2.04845517029920e-01 2.27623693580624e-03
1.73104054054054e+00 2.02941754828142e-01 2.26192645327431e-03
1.74150000000000e+00 2.01055685522239e-01 2.24766490616683e-03
1.75195945945946e+00 1.99187144680674e-01 2.23345299333705e-03
1.76241891891892e+00 1.97335969400079e-01 2.21929138857298e-03
1.77287837837838e+00 1.95501998291052e-01 2.20518074119856e-03
1.78333783783784e+00 1.93685071464089e-01 2.19112167665924e-03
1.79379729729730e+00 1.91885030515642e-01 2.17711479709190e-03
1.80425675675676e+00 1.90101718514310e-01 2.16316068188176e-03
1.81471621621622e+00 1.88334979987156e-01 2.14925988820593e-03
1.82517567567568e+00 1.86584660906154e-01 2.13541295156379e-03
1.83563513513514e+00 1.84850608674758e-01 2.12162038359422e-03
1.84609459459459e+00 1.83132672123680e-01 2.10788268073934e-03
1.85655405405405e+00 1.81430701470259e-01 2.09420031927456e-03
1.86701351351351e+00 1.79744548333072e-01 2.08057375023149e-03
1.87747297297297e+00 1.78074065709701e-01 2.06700340824437e-03
1.88793243243243e+00 1.76419107963916e-01 2.05348970919719e-03
1.89839189189189e+00 1.74779530812977e-01 2.04003305067229e-03
1.90885135135135e+00 1.73155191315059e-01 2.02663381238822e-03
1.91931081081081e+00 1.71545947856786e-01 2.01329235662744e-03
1.92977027027027e+00 1.69951660140887e-01 2.00000902865422e-03
1.94022972972973e+00 1.68372189173965e-01 1.98678415712365e-03
1.95068918918919e+00 1.66807397254374e-01 1.97361805447830e-03
1.96114864864865e+00 1.65257147960223e-01 1.96051101733786e-03
1.97160810810811e+00 1.63721306137476e-01 1.94746332688159e-03
1.98206756756757e+00 1.62199737888173e-01 1.93447524921905e-03
1.99252702702703e+00 1.60692310558751e-01 1.92154703575349e-03
2.00298648648649e+00 1.59198892728487e-01 1.90867892353701e-03
2.01344594594595e+00 1.57719354198032e-01 1.89587113561732e-03
2.02390540540541e+00 1.56253565978064e-01 1.88312388137690e-03
2.03436486486487e+00 1.54801400278045e-01 1.87043735471545e-03
2.04482432432432e+00 1.53362730501934e-01 1.85781174086529e-03
2.05528378378378e+00 1.51937431216414e-01 1.84524721236198e-03
2.06574324324324e+00 1.50525378160859e-01 1.83274392492983e-03
2.07620270270270e+00 1.49126448229475e-01 1.82030202444909e-03
2.08666216216216e+00 1.47740519460572e-01 1.80792164501455e-03
2.09712162162162e+00 1.46367471025929e-01 1.79560290922461e-03
2.10758108108108e+00 1.45007183220257e-01 1.78334592846401e-03
2.11804054054054e+00 1.43659537450769e-01 1.77115080318030e-03
2.12850000000000e+00 1.42324416226834e-01 1.75901762315462e-03
2.13895945945946e+00 1.41001703149740e-01 1.74694646776551e-03
2.14941891891892e+00 1.39691282902540e-01 1.73493740624646e-03
2.15987837837838e+00 1.38393041240006e-01 1.72299049793956e-03
2.17033783783784e+00 1.37106864978663e-01 1.71110579254313e-03
2.18079729729730e+00 1.35832641986924e-01 1.69928333035279e-03
2.19125675675676e+00 1.34570261175312e-01 1.68752314249811e-03
2.20171621621622e+00 1.33319612486779e-01 1.67582525117374e-03
2.21217567567568e+00 1.32080586887105e-01 1.66418966986542e-03
2.22263513513514e+00 1.30853076355398e-01 1.65261640183372e-03
2.23309459459459e+00 1.29636973879981e-01 1.64110544557909e-03
2.24355405405405e+00 1.28432173433018e-01 1.62965679153975e-03
2.25401351351351e+00 1.27238569977440e-01 1.61827041872149e-03
2.26447297297297e+00 1.26056059452354e-01 1.60694630028882e-03
2.27493243243243e+00 1.24884538763972e-01 1.59568440195408e-03
2.28539189189189e+00 1.23723905776625e-01 1.58448468217132e-03
2.29585135135135e+00 1.22574059303855e-01 1.57334709232595e-03
2.30631081081081e+00 1.21434899099597e-01 1.56227157692000e-03
2.31677027027027e+00 1.20306325849436e-01 1.55125807375384e-03
2.32722972972973e+00 1.19188241161950e-01 1.54030651410409e-03
2.33768918918919e+00 1.18080547560133e-01 1.52941682289602e-03
2.34814864864865e+00 1.16983148472893e-01 1.51858891887379e-03
2.35860810810811e+00 1.15895948226640e-01 1.50782271476758e-03
2.36906756756757e+00 1.14818852036938e-01 1.49711811745575e-03
2.37952702702703e+00 1.13751766000245e-01 1.48647502812405e-03
2.38998648648649e+00 1.12694597085726e-01 1.47589334242124e-03
2.40044594594595e+00 1.11647253127140e-01 1.46537295061140e-03
2.41090540540541e+00 1.10609642814808e-01 1.45491373772311e-03
2.42136486486487e+00 1.09581675687649e-01 1.44451558230081e-03
2.43182432432432e+00 1.08563262129381e-01 1.43417836075956e-03
2.44228378378378e+00 1.07554313348362e-01 1.42390194470528e-03
2.45274324324324e+00 1.06554741382288e-01 1.41368619820061e-03
2.46320270270270e+00 1.05564459086344e-01 1.40353098222245e-03
2.47366216216216e+00 1.04583380125607e-01 1.39343615334161e-03
2.48412162162162e+00 1.03611418967524e-01 1.38340156385070e-03
2.49458108108108e+00 1.02648490874447e-01 1.37342706188928e-03
2.50504054054054e+00 1.01694511896253e-01 1.36351249156676e-03
2.51550000000000e+00 1.00749398863020e-01 1.35365769308226e-03
2.52595945945946e+00 9.98130693777789e-02 1.34386250284176e-03
2.53641891891892e+00 9.88854418093270e-02 1.33412675357259e-03
2.54687837837838e+00 9.79664352851153e-02 1.32445027443613e-03
2.55733783783784e+00 9.70559696841950e-02 1.31483289113799e-03
2.56779729729730e+00 9.61539656302335e-02 1.30527442603537e-03
2.57825675675676e+00 9.52603444845935e-02 1.29577469824220e-03
2.58871621621622e+00 9.43750283394776e-02 1.28633352373222e-03
2.59917567567568e+00 9.34979400111359e-02 1.27695071543960e-03
2.60963513513514e+00 9.26290030331371e-02 1.26762608222225e-03
2.62009459459459e+00 9.17681416529034e-02 1.25835943238758e-03
2.63055405405405e+00 9.09152808154304e-02 1.24915057149150e-03
2.64101351351351e+00 9.00703461664918e-02 1.23999930009355e-03
2.65147297297297e+00 8.92332640428832e-02 1.23090541736722e-03
2.66193243243243e+00 8.84039614660001e-02 1.22186872000695e-03
2.67239189189189e+00 8.75823661354753e-02 1.21288900231452e-03
2.68285135135135e+00 8.67684064228758e-02 1.20396605628358e-03
2.69331081081081e+00 8.59620113654580e-02 1.19509967168260e-03
2.70377027027027e+00 8.51631106599807e-02 1.18628963613562e-03
2.71422972972973e+00 8.43716346565766e-02 1.17753573520170e-03
2.72468918918919e+00 8.35875143526786e-02 1.16883775245191e-03
2.73514864864865e+00 8.28106813870062e-02 1.16019546954504e-03
2.74560810810811e+00 8.20410680336041e-02 1.15160866630231e-03
2.75606756756757e+00 8.12786071959387e-02 1.14307712077953e-03
2.76652702702703e+00 8.05232324010474e-02 1.13460060933804e-03
2.77698648648649e+00 7.97748777937442e-02 1.12617890671407e-03
2.78744594594595e+00 7.90334781308778e-02 1.11781178608652e-03
2.79790540540541e+00 7.82989687756437e-02 1.10949901914324e-03
2.80836486486487e+00 7.75712856919492e-02 1.10124037522930e-03
2.81882432432432e+00 7.68503654413224e-02 1.09303562417896e-03
2.82928378378378e+00 7.61361451698506e-02 1.08488453452506e-03
2.83974324324324e+00 7.54285626102870e-02 1.07678687167221e-03
2.85020270270270e+00 7.47275560740750e-02 1.06874240079808e-03
2.86066216216216e+00 7.40330644459693e-02 1.06075088595763e-03
2.87112162162162e+00 7.33450271787085e-02 1.05281209013985e-03
2.88158108108108e+00 7.26633842877357e-02 1.04492577532315e-03
2.89204054054054e+00 7.19880763459695e-02 1.03709170252953e-03
2.90250000000000e+00 7.13190444786230e-02 1.02930963187768e-03
2.91295945945946e+00 7.06562303580701e-02 1.02157932263467e-03
2.92341891891892e+00 6.99995761987615e-02 1.01390053326627e-03
2.93387837837838e+00 6.93490247521864e-02 1.00627302148673e-03
2.94433783783784e+00 6.87045193018816e-02 9.98696544307225e-04
2.95479729729730e+00 6.80660036584867e-02 9.91170858082891e-04
2.96525675675676e+00 6.74334221548455e-02 9.83695718559106e-04
2.97571621621622e+00 6.68067196411526e-02 9.76270880916696e-04
2.98617567567568e+00 6.61858414801455e-02 9.68896099815904e-04
2.99663513513514e+00 6.55707335423411e-02 9.61571128689274e-04
3.00709459459459e+00 6.49613422032907e-02 9.54295722049269e-04
3.01755405405405e+00 6.43576143329396e-02 9.47069634013435e-04
3.02801351351351e+00 6.37594972970039e-02 9.39892616800153e-04
3.03847297297297e+00 6.31669389503646e-02 9.32764423093237e-04
3.04893243243243e+00 6.25798876325206e-02 9.25684805299945e-04
3.05939189189189e+00 6.19982921630855e-02 9.18653515588290e-04
3.06985135135135e+00 6.14221018373254e-02 9.11670305923619e-04
3.08031081081081e+00 6.08512664217380e-02 9.04734928104198e-04
3.09077027027027e+00 6.02857361496739e-02 8.97847133796018e-04
3.10122972972973e+00 5.97254617169971e-02 8.91006674567148e-04
3.11168918918919e+00 5.91703942777865e-02 8.84213301920370e-04
3.12214864864865e+00 5.86204854400781e-02 8.77466767325667e-04
3.13260810810811e+00 5.80756872616460e-02 8.70766822252181e-04
3.14306756756757e+00 5.75359522458223e-02 8.64113218198832e-04
3.15352702702703e+00 5.70012333373563e-02 8.57505706724505e-04
3.16398648648649e+00 5.64714839183123e-02 8.50944039477327e-04
3.17444594594595e+00 5.59466578040053e-02 8.44427968223278e-04
3.18490540540541e+00 5.54267092389743e-02 8.37957244874181e-04
3.19536486486487e+00 5.49115928929937e-02 8.31531620906612e-04
3.20582432432432e+00 5.44012638586716e-02 8.25150849225857e-04
3.21628378378378e+00 5.38956776428490e-02 8.18814682962280e-04
3.22674324324324e+00 5.33947901674409e-02 8.12522874243959e-04
3.23720270270270e+00 5.28985577640081e-02 8.06275176107404e-04
3.24766216216216e+00 5.24069371699509e-02 8.00071341888585e-04
3.25812162162162e+00 5.19198855247366e-02 7.93911125246277e-04
3.26858108108108e+00 5.14373603661633e-02 7.87794280184885e-04
3.27904054054054e+00 5.09593196266579e-02 7.81720561076651e-04
3.28950000000000e+00 5.04857216296084e-02 7.75689722683299e-04
3.29995945945946e+00 5.00165250857304e-02 7.69701520177035e-04
