Energy (eV)          EEDF (eV^-(3/2))     First Anisotropy
5.67391304347826e-02 5.38019878689399e-02 4.18759878184797e-05
1.70217391304348e-01 5.30011190049774e-02 6.88660128117032e-05
2.83695652173913e-01 5.22121714651343e-02 9.01639140338956e-05
3.97173913043478e-01 5.14349677949746e-02 1.05896628897984e-04
5.10652173913044e-01 5.06693331828386e-02 1.18652762255271e-04
6.24130434782609e-01 4.99150954155088e-02 1.29423108911430e-04
7.37608695652174e-01 4.91720848454712e-02 1.38726401044757e-04
8.51086956521739e-01 4.84401343504643e-02 1.46879433972525e-04
9.64565217391304e-01 4.77190792958985e-02 1.54094635804767e-04
1.07804347826087e+00 4.70087574963363e-02 1.60523770362394e-04
1.19152173913043e+00 4.63090091844034e-02 1.66280368387725e-04
1.30500000000000e+00 4.56196769684066e-02 1.71452387512178e-04
1.41847826086957e+00 4.49406057995225e-02 1.76109878563382e-04
1.53195652173913e+00 4.42716429369488e-02 1.80309889009022e-04
1.64543478260870e+00 4.36126379135519e-02 1.84099738840806e-04
1.75891304347826e+00 4.29634425019864e-02 1.87519288895675e-04
1.87239130434783e+00 4.23239106813517e-02 1.90602559188378e-04
1.98586956521739e+00 4.16938986043465e-02 1.93378913446085e-04
2.09934782608696e+00 4.10732645619167e-02 1.95873944236373e-04
2.21282608695652e+00 4.04618689606301e-02 1.98110148766783e-04
2.32630434782609e+00 3.98595742817351e-02 2.00107452874611e-04
2.43978260869565e+00 3.92662450535207e-02 2.01883622169793e-04
2.55326086956522e+00 3.86817478208438e-02 2.03454590670560e-04
2.66673913043478e+00 3.81059511151108e-02 2.04834725742123e-04
2.78021739130435e+00 3.75387254246946e-02 2.06037044154711e-04
2.89369565217391e+00 3.69799431658282e-02 2.07073390011819e-04
3.00717391304348e+00 3.64294786538936e-02 2.07954582589079e-04
3.12065217391304e+00 3.58872080751515e-02 2.08690540174027e-04
3.23413043478261e+00 3.53530094588921e-02 2.09290384742506e-04
3.34760869565217e+00 3.48267626484195e-02 2.09762530317065e-04
3.46108695652174e+00 3.43083492788745e-02 2.10114759267318e-04
3.57456521739130e+00 3.37976527456480e-02 2.10354288009905e-04
3.68804347826087e+00 3.32945581798494e-02 2.10487823080865e-04
3.80152173913043e+00 3.27989524224688e-02 2.10521610501295e-04
3.91500000000000e+00 3.23107239989245e-02 2.10461478774356e-04
4.02847826086957e+00 3.18297630939874e-02 2.10312876633315e-04
4.14195652173913e+00 3.13559615270831e-02 2.10080906323325e-04
4.25543478260870e+00 3.08892127279608e-02 2.09770353064558e-04
4.36891304347826e+00 3.04294117127210e-02 2.09385711232621e-04
4.48239130434783e+00 2.99764550602011e-02 2.08931207705018e-04
4.59586956521739e+00 2.95302408887137e-02 2.08410822859892e-04
4.70934782608696e+00 2.90906688321977e-02 2.07828308998383e-04
4.82282608695652e+00 2.86576400204944e-02 2.07187207452204e-04
4.93630434782609e+00 2.82310570542026e-02 2.06490864056250e-04
5.04978260869565e+00 2.78108239837591e-02 2.05742442607744e-04
5.16326086956522e+00 2.73968462878575e-02 2.04944937514786e-04
5.27673913043478e+00 2.69890308521877e-02 2.04101185201055e-04
5.39021739130435e+00 2.65872859484897e-02 2.03213874508400e-04
5.50369565217391e+00 2.61915212139263e-02 2.02285556207982e-04
5.61717391304348e+00 2.58016476307553e-02 2.01318651715074e-04
5.73065217391304e+00 2.54175775063077e-02 2.00315461089334e-04
5.84413043478261e+00 2.50392244532627e-02 1.99278170476267e-04
5.95760869565217e+00 2.46665033695928e-02 1.98208858641556e-04
6.07108695652174e+00 2.42993304213273e-02 1.97109503401558e-04
6.18456521739131e+00 2.39376230217574e-02 1.95981987586305e-04
6.29804347826087e+00 2.35812998135181e-02 1.94828104145468e-04
6.41152173913043e+00 2.32302806502886e-02 1.93649561214922e-04
6.52500000000000e+00 2.28844865787656e-02 1.92447986743395e-04
6.63847826086957e+00 2.25438398209038e-02 1.91224932797938e-04
6.75195652173913e+00 2.22082637564223e-02 1.89981879576247e-04
6.86543478260870e+00 2.18776829055713e-02 1.88720239151171e-04
6.97891304347826e+00 2.15520229121544e-02 1.87441358969397e-04
7.09239130434783e+00 2.12312105268031e-02 1.86146525124446e-04
7.20586956521739e+00 2.09151735905020e-02 1.84836965483880e-04
7.31934782608696e+00 2.06038410179346e-02 1.83513852377290e-04
7.43282608695652e+00 2.02971427827844e-02 1.82178305421085e-04
7.54630434782609e+00 1.99950099006735e-02 1.80831394183260e-04
7.65978260869565e+00 1.96973744140902e-02 1.79474140374142e-04
7.77326086956522e+00 1.94041693771038e-02 1.78107520158975e-04
7.88673913043478e+00 1.91153288403066e-02 1.76732466275606e-04
8.00021739130435e+00 1.88307878359792e-02 1.75349870032005e-04
8.11369565217391e+00 1.85504823634797e-02 1.73960583192617e-04
8.22717391304348e+00 1.82743493748467e-02 1.72565419761273e-04
8.34065217391304e+00 1.80023267606188e-02 1.71165157667165e-04
8.45413043478261e+00 1.77343533358642e-02 1.69760540409065e-04
8.56760869565217e+00 1.74703688261122e-02 1.68352278420794e-04
8.68108695652174e+00 1.72103138547296e-02 1.66941050603136e-04
8.79456521739131e+00 1.69541299286170e-02 1.65527505784335e-04
8.90804347826087e+00 1.67017594253740e-02 1.64112263858034e-04
9.02152173913043e+00 1.64531455803373e-02 1.62695917061077e-04
9.13500000000000e+00 1.62082324738138e-02 1.61279031139083e-04
9.24847826086957e+00 1.59669650185019e-02 1.59862146455012e-04
9.36195652173913e+00 1.57292889471018e-02 1.58445779044196e-04
9.47543478260870e+00 1.54951508001089e-02 1.57030421619128e-04
9.58891304347826e+00 1.52644979137896e-02 1.55616544526772e-04
9.70239130434783e+00 1.50372784083359e-02 1.54204596661131e-04
9.81586956521739e+00 1.48134411761960e-02 1.52795006371024e-04
9.92934782608696e+00 1.45929358703582e-02 1.51388182177294e-04
1.00428260869565e+01 1.43757128936983e-02 1.49984513570922e-04
1.01563043478261e+01 1.41617233875592e-02 1.48584372205896e-04
1.02697826086957e+01 1.39509192189073e-02 1.47188111725912e-04
1.03832608695652e+01 1.37432529744672e-02 1.45796069393943e-04
1.04967391304348e+01 1.35386779427130e-02 1.44408566580685e-04
1.06102173913043e+01 1.33371481094612e-02 1.43025908119058e-04
1.07236956521739e+01 1.31386181473324e-02 1.41648384983305e-04
1.08371739130435e+01 1.29430433999263e-02 1.40276273536113e-04
1.09506521739130e+01 1.27503798792094e-02 1.38909836342724e-04
1.10641304347826e+01 1.25605842484004e-02 1.37549323101620e-04
1.11776086956522e+01 1.23736138175822e-02 1.36194969863175e-04
1.12910869565217e+01 1.21894265339327e-02 1.34847001390302e-04
1.14045652173913e+01 1.20079809673165e-02 1.33505630424039e-04
1.15180434782609e+01 1.18292363075048e-02 1.32171058368569e-04
1.16315217391304e+01 1.16531523486381e-02 1.30843476081995e-04
1.17450000000000e+01 1.14796894849061e-02 1.29523063125154e-04
1.18584782608696e+01 1.13088087014905e-02 1.28209989851489e-04
1.19719565217391e+01 1.11404715614269e-02 1.26904416955888e-04
1.20854347826087e+01 1.09746402013626e-02 1.25606495033110e-04
1.21989130434783e+01 1.08112773229024e-02 1.24316366531716e-04
1.23123913043478e+01 1.06503461801493e-02 1.23034165063159e-04
1.24258695652174e+01 1.04918105768226e-02 1.21760015931033e-04
1.25393478260870e+01 1.03356348528768e-02 1.20494036752131e-04
1.26528260869565e+01 1.01817838803724e-02 1.19236336759623e-04
1.27663043478261e+01 1.00302230554563e-02 1.17987018543047e-04
1.28797826086957e+01 9.88091828697477e-03 1.16746177395199e-04
1.29932608695652e+01 9.73383599357118e-03 1.15513901765038e-04
1.31067391304348e+01 9.58894309149226e-03 1.14290273794887e-04
1.32202173913043e+01 9.44620699059375e-03 1.13075368664753e-04
1.33336956521739e+01 9.30559558690803e-03 1.11869256146495e-04
1.34471739130435e+01 9.16707725222541e-03 1.10671999989983e-04
1.35606521739130e+01 9.03062083120802e-03 1.09483658312808e-04
1.36741304347826e+01 8.89619563026343e-03 1.08304284066789e-04
1.37876086956522e+01 8.76377141370255e-03 1.07133924424351e-04
1.39010869565217e+01 8.63331839684732e-03 1.05972622170302e-04
1.40145652173913e+01 8.50480723649078e-03 1.04820415126772e-04
1.41280434782609e+01 8.37820902805448e-03 1.03677336490552e-04
1.42415217391304e+01 8.25349529542443e-03 1.02543415239764e-04
1.43550000000000e+01 8.13063798727052e-03 1.01418675561484e-04
1.44684782608696e+01 8.00960947065482e-03 1.00303138100894e-04
1.45819565217391e+01 7.89038252228833e-03 9.91968195878453e-05
1.46954347826087e+01 7.77293032495949e-03 9.80997324734616e-05
1.48089130434783e+01 7.65722646142560e-03 9.70118861059320e-05
1.49223913043478e+01 7.54324490610237e-03 9.59332862130931e-05
1.50358695652174e+01 7.43096002234607e-03 9.48639351729586e-05
1.51493478260870e+01 7.32034655362830e-03 9.38038323440992e-05
1.52628260869565e+01 7.21137962012994e-03 9.27529735528501e-05
1.53763043478261e+01 7.10403471307821e-03 9.17113521516522e-05
1.54897826086957e+01 6.99828768711954e-03 9.06789585382431e-05
1.56032608695652e+01 6.89411475768772e-03 8.96557803916266e-05
1.57167391304348e+01 6.79149249292321e-03 8.86418029628697e-05
1.58302173913043e+01 6.69039781043372e-03 8.76370085991481e-05
1.59436956521739e+01 6.59080797204406e-03 8.66413776978759e-05
1.60571739130435e+01 6.49270057679132e-03 8.56548882605986e-05
1.61706521739130e+01 6.39605355838824e-03 8.46775160994421e-05
1.62841304347826e+01 6.30084517781813e-03 8.37092350934813e-05
1.63976086956522e+01 6.20705402026222e-03 8.27500167478326e-05
1.65110869565217e+01 6.11465899023014e-03 8.17998310550573e-05
1.66245652173913e+01 6.02363930512386e-03 8.08586460814250e-05
1.67380434782609e+01 5.93397449280219e-03 7.99264281482111e-05
1.68515217391304e+01 5.84564438478987e-03 7.90031420581752e-05
1.69650000000000e+01 5.75862911336874e-03 7.80887506874800e-05
1.70784782608696e+01 5.67290910706137e-03 7.71832157643589e-05
1.71919565217391e+01 5.58846508471400e-03 7.62864975924740e-05
1.73054347826087e+01 5.50527805268904e-03 7.53985547820804e-05
1.74189130434783e+01 5.42332930054831e-03 7.45193449855264e-05
1.75323913043478e+01 5.34260039542077e-03 7.36488245297057e-05
1.76458695652174e+01 5.26307317974291e-03 7.27869485642988e-05
1.77593478260870e+01 5.18472976533192e-03 7.19336712490673e-05
1.78728260869565e+01 5.10755253073374e-03 7.10889453919997e-05
1.79863043478261e+01 5.03152411722023e-03 7.02527231152658e-05
1.80997826086957e+01 4.95662742360646e-03 6.94249555153561e-05
1.82132608695652e+01 4.88284560409761e-03 6.86055927936949e-05
1.83267391304348e+01 4.81016206284538e-03 6.77945844230619e-05
1.84402173913043e+01 4.73856045144672e-03 6.69918788130770e-05
1.85536956521739e+01 4.66802466523197e-03 6.61974239137787e-05
1.86671739130435e+01 4.59853883849354e-03 6.54111669014893e-05
1.87806521739130e+01 4.53008734243909e-03 6.46330542941066e-05
1.88941304347826e+01 4.46265478018909e-03 6.38630320990625e-05
1.90076086956522e+01 4.39622598442097e-03 6.31010455043550e-05
1.91210869565217e+01 4.33078601392631e-03 6.23470394260767e-05
1.92345652173913e+01 4.26632014921694e-03 6.16009582179917e-05
1.93480434782609e+01 4.20281389058295e-03 6.08627457735656e-05
1.94615217391304e+01 4.14025295349323e-03 6.01323456576476e-05
1.95750000000000e+01 4.07862326637933e-03 5.94097008211753e-05
1.96884782608696e+01 4.01791096744186e-03 5.86947540982437e-05
1.98019565217391e+01 3.95810240060278e-03 5.79874480081163e-05
1.99154347826087e+01 3.89918411337257e-03 5.72877245628563e-05
2.00289130434783e+01 3.84114285379758e-03 5.65955257378138e-05
2.01423913043478e+01 3.78396556660350e-03 5.59107932147671e-05
2.02558695652174e+01 3.72763939141993e-03 5.52334684662266e-05
2.03693478260870e+01 3.67215165875235e-03 5.45634928654347e-05
2.04828260869565e+01 3.61748988797801e-03 5.39008074342773e-05
2.05963043478261e+01 3.56364178451506e-03 5.32453532708842e-05
2.07097826086957e+01 3.51059523626738e-03 5.25970713124569e-05
2.08232608695652e+01 3.45833831194700e-03 5.19559024099562e-05
2.09367391304348e+01 3.40685925736669e-03 5.13217874263827e-05
2.10502173913043e+01 3.35614649355865e-03 5.06946670040070e-05
2.11636956521739e+01 3.30618861414898e-03 5.00744819532372e-05
2.12771739130435e+01 3.25697438207946e-03 4.94611730336491e-05
2.13906521739130e+01 3.20849272802443e-03 4.88546810202263e-05
2.15041304347826e+01 3.16073274697721e-03 4.82549467911638e-05
2.16176086956522e+01 3.11368369648554e-03 4.76619111130519e-05
2.17310869565217e+01 3.06733499421620e-03 4.70755149947276e-05
2.18445652173913e+01 3.02167621493144e-03 4.64956994850273e-05
2.19580434782609e+01 2.97669708899677e-03 4.59224057316504e-05
2.20715217391304e+01 2.93238749923672e-03 4.53555750596429e-05
2.21850000000000e+01 2.88873747928104e-03 4.47951487731544e-05
2.22984782608696e+01 2.84573721130557e-03 4.42410684776056e-05
2.24119565217391e+01 2.80337702324285e-03 4.36932759397887e-05
2.25254347826087e+01 2.76164738719332e-03 4.31517129519229e-05
2.26389130434783e+01 2.72053891726577e-03 4.26163216370122e-05
2.27523913043478e+01 2.68004236691794e-03 4.20870442702418e-05
2.28658695652174e+01 2.64014862760384e-03 4.15638233278811e-05
2.29793478260870e+01 2.60084872601336e-03 4.10466015532389e-05
2.30928260869565e+01 2.56213382258418e-03 4.05353217817004e-05
2.32063043478261e+01 2.52399520949894e-03 4.00299272189481e-05
2.33197826086957e+01 2.48642430823057e-03 3.95303612761040e-05
2.34332608695652e+01 2.44941266827046e-03 3.90365676131732e-05
2.35467391304348e+01 2.41295196458396e-03 3.85484901981571e-05
2.36602173913044e+01 2.37703399621753e-03 3.80660731455323e-05
2.37736956521739e+01 2.34165068444111e-03 3.75892609698705e-05
2.38871739130435e+01 2.30679407048196e-03 3.71179984336527e-05
2.40006521739130e+01 2.27245631432979e-03 3.66522305858916e-05
2.41141304347826e+01 2.23862969239064e-03 3.61919028150969e-05
2.42276086956522e+01 2.20530659618395e-03 3.57369607002104e-05
2.43410869565217e+01 2.17247953061929e-03 3.52873502418991e-05
2.44545652173913e+01 2.14014111190405e-03 3.48430177220115e-05
2.45680434782609e+01 2.10828406642161e-03 3.44039097379616e-05
2.46815217391304e+01 2.07690122856755e-03 3.39699732501924e-05
2.47950000000000e+01 2.04598553953141e-03 3.35411554446036e-05
2.49084782608696e+01 2.01553004569813e-03 3.31174039435677e-05
2.50219565217391e+01 1.98552789671572e-03 3.26986667075677e-05
2.51354347826087e+01 1.95597234432626e-03 3.22848919395918e-05
2.52489130434783e+01 1.92685674083775e-03 3.18760282853302e-05
2.53623913043478e+01 1.89817453728096e-03 3.14720247091144e-05
2.54758695652174e+01 1.86991928239793e-03 3.10728305225512e-05
2.55893478260870e+01 1.84208462073887e-03 3.06783954245419e-05
2.57028260869565e+01 1.81466429156965e-03 3.02886693798940e-05
2.58163043478261e+01 1.78765212745437e-03 2.99036028020707e-05
2.59297826086957e+01 1.76104205255260e-03 2.95231464386545e-05
2.60432608695652e+01 1.73482808167132e-03 2.91472513968072e-05
2.61567391304348e+01 1.70900431850874e-03 2.87758691792067e-05
2.62702173913043e+01 1.68356495463364e-03 2.84089515719629e-05
2.63836956521739e+01 1.65850426817069e-03 2.80464508114953e-05
2.64971739130435e+01 1.63381662222708e-03 2.76883194787828e-05
2.66106521739130e+01 1.60949646400441e-03 2.73345105220093e-05
2.67241304347826e+01 1.58553832317772e-03 2.69849772888174e-05
2.68376086956522e+01 1.56193681094242e-03 2.66396734228368e-05
2.69510869565217e+01 1.53868661879470e-03 2.62985530161218e-05
2.70645652173913e+01 1.51578251707763e-03 2.59615705114723e-05
2.71780434782609e+01 1.49321935414956e-03 2.56286807226000e-05
2.72915217391304e+01 1.47099205488769e-03 2.52998388630720e-05
2.74050000000000e+01 1.44909561979840e-03 2.49750004507874e-05
2.75184782608696e+01 1.42752512388582e-03 2.46541214472644e-05
2.76319565217391e+01 1.40627571530818e-03 2.43371581886005e-05
2.77454347826087e+01 1.38534261452469e-03 2.40240673183469e-05
2.78589130434783e+01 1.36472111321402e-03 2.37148059197510e-05
2.79723913043478e+01 1.34440657299207e-03 2.34093314295243e-05
2.80858695652174e+01 1.32439442466482e-03 2.31076016546362e-05
2.81993478260870e+01 1.30468016691042e-03 2.28095747967655e-05
2.83128260869565e+01 1.28525936548312e-03 2.25152093679951e-05
2.84263043478261e+01 1.26612765221002e-03 2.22244643116980e-05
2.85397826086957e+01 1.24728072380572e-03 2.19372989229068e-05
2.86532608695652e+01 1.22871434117354e-03 2.16536728632343e-05
2.87667391304348e+01 1.21042432818830e-03 2.13735461828466e-05
2.88802173913043e+01 1.19240657095362e-03 2.10968792425996e-05
2.89936956521739e+01 1.17465701687138e-03 2.08236328245723e-05
2.91071739130435e+01 1.15717167354575e-03 2.05537680585181e-05
2.92206521739130e+01 1.13994660812983e-03 2.02872464351269e-05
2.93341304347826e+01 1.12297794620129e-03 2.00240298257593e-05
2.94476086956522e+01 1.10626187106973e-03 1.97640804105373e-05
2.95610869565217e+01 1.08979462291344e-03 1.95073607794440e-05
2.96745652173913e+01 1.07357249776594e-03 1.92538338643654e-05
2.97880434782609e+01 1.05759184690544e-03 1.90034629508882e-05
2.99015217391304e+01 1.04184907581598e-03 1.87562116960181e-05
3.00150000000000e+01 1.02634064354169e-03 1.85120440617695e-05
3.01284782608696e+01 1.01106306188590e-03 1.82709244076531e-05
3.02419565217391e+01 9.96012894473985e-04 1.80328174422296e-05
3.03554347826087e+01 9.81186756134520e-04 1.77976881759911e-05
3.04689130434783e+01 9.66581312133665e-04 1.75655020092186e-05
3.05823913043478e+01 9.52193277280650e-04 1.73362246719743e-05
3.06958695652174e+01 9.38019415380586e-04 1.71098222339033e-05
3.08093478260870e+01 9.24056538318582e-04 1.68862611192094e-05
3.09228260869565e+01 9.10301505482864e-04 1.66655080480278e-05
3.10363043478261e+01 8.96751223054610e-04 1.64475301168262e-05
3.11497826086957e+01 8.83402643180535e-04 1.62322947429671e-05
3.12632608695652e+01 8.70252763461909e-04 1.60197696734025e-05
3.13767391304348e+01 8.57298626108096e-04 1.58099229981326e-05
3.14902173913043e+01 8.44537317398918e-04 1.56027230960353e-05
3.16036956521739e+01 8.31965967025898e-04 1.53981387084624e-05
3.17171739130435e+01 8.19581747326842e-04 1.51961388880183e-05
3.18306521739130e+01 8.07381872808796e-04 1.49966930062665e-05
3.19441304347826e+01 7.95363599365652e-04 1.47997707658185e-05
3.20576086956522e+01 7.83524223777202e-04 1.46053421502896e-05
3.21710869565217e+01 7.71861083098007e-04 1.44133774916762e-05
3.22845652173913e+01 7.60371553949312e-04 1.42238474230141e-05
3.23980434782609e+01 7.49053052073792e-04 1.40367228852183e-05
3.25115217391304e+01 7.37903031612276e-04 1.38519751379335e-05
3.26250000000000e+01 7.26918984637081e-04 1.36695757132972e-05
3.27384782608696e+01 7.16098440585063e-04 1.34894964776399e-05
3.28519565217391e+01 7.05438965602499e-04 1.33117095974733e-05
3.29654347826087e+01 6.94938162098051e-04 1.31361875064067e-05
3.30789130434783e+01 6.84593668200779e-04 1.29629029637807e-05
3.31923913043478e+01 6.74403157134698e-04 1.27918290128492e-05
3.33058695652174e+01 6.64364336820475e-04 1.26229389864365e-05
3.34193478260870e+01 6.54474949237237e-04 1.24562065161036e-05
3.35328260869565e+01 6.44732770006180e-04 1.22916054913146e-05
3.36463043478261e+01 6.35135607887817e-04 1.21291101131442e-05
3.37597826086957e+01 6.25681304203209e-04 1.19686948556303e-05
3.38732608695652e+01 6.16367732462438e-04 1.18103344707724e-05
3.39867391304348e+01 6.07192797774481e-04 1.16540039967665e-05
3.41002173913043e+01 5.98154436459440e-04 1.14996787202609e-05
3.42136956521739e+01 5.89250615582161e-04 1.13473342255611e-05
3.43271739130435e+01 5.80479332416629e-04 1.11969463589071e-05
3.44406521739130e+01 5.71838614099484e-04 1.10484912328877e-05
3.45541304347826e+01 5.63326517084280e-04 1.09019452338309e-05
3.46676086956522e+01 5.54941126780437e-04 1.07572849869205e-05
3.47810869565217e+01 5.46680557120576e-04 1.06144874012827e-05
3.48945652173913e+01 5.38542950064833e-04 1.04735296369569e-05
3.50080434782609e+01 5.30526475277791e-04 1.03343891087947e-05
3.51215217391304e+01 5.22629329623739e-04 1.01970434930904e-05
3.52350000000000e+01 5.14849736830546e-04 1.00614706953389e-05
3.53484782608696e+01 5.07185947088276e-04 9.92764889155353e-06
3.54619565217391e+01 4.99636236590411e-04 9.79555650437388e-06
3.55754347826087e+01 4.92198907211958e-04 9.66517217981608e-06
3.56889130434783e+01 4.84872286125744e-04 9.53647482655221e-06
3.58023913043478e+01 4.77654725364330e-04 9.40944358672459e-06
