Energy (eV)          EEDF (eV^-(3/2))     First Anisotropy
4.29310344827586e-02 5.79118569883589e-02 4.02195828738330e-05
1.28793103448276e-01 5.72264576522779e-02 6.62436492977371e-05
2.14655172413793e-01 5.65491701654178e-02 8.69990924865437e-05
3.00517241379310e-01 5.58798985223454e-02 1.02495962318617e-04
3.86379310344828e-01 5.52185478537590e-02 1.15198050996992e-04
4.72241379310345e-01 5.45650244131981e-02 1.26043879557370e-04
5.58103448275862e-01 5.39192355637216e-02 1.35522595164610e-04
6.43965517241379e-01 5.32810897647699e-02 1.43931627423248e-04
7.29827586206896e-01 5.26504965591872e-02 1.51469580302360e-04
8.15689655172414e-01 5.20273665603984e-02 1.58277764934762e-04
9.01551724137931e-01 5.14116114397381e-02 1.64461478842726e-04
9.87413793103448e-01 5.08031439139303e-02 1.70101994748385e-04
1.07327586206897e+00 5.02018777314817e-02 1.75263807913280e-04
1.15913793103448e+00 4.96077276637260e-02 1.79999263372425e-04
1.24500000000000e+00 4.90206094899879e-02 1.84351641671059e-04
1.33086206896552e+00 4.84404399908428e-02 1.88357292719759e-04
1.41672413793103e+00 4.78671369224848e-02 1.92047154117409e-04
1.50258620689655e+00 4.73006190192930e-02 1.95447859996213e-04
1.58844827586207e+00 4.67408059774314e-02 1.98582570549149e-04
1.67431034482759e+00 4.61876184434679e-02 2.01471601984745e-04
1.76017241379310e+00 4.56409780031121e-02 2.04132914226019e-04
1.84603448275862e+00 4.51008071701295e-02 2.06582493875027e-04
1.93189655172414e+00 4.45670293753555e-02 2.08834658934922e-04
2.01775862068965e+00 4.40395689558329e-02 2.10902304160739e-04
2.10362068965517e+00 4.35183511440880e-02 2.12797100492192e-04
2.18948275862069e+00 4.30033020599240e-02 2.14529659891544e-04
2.27534482758621e+00 4.24943486926406e-02 2.16109670899080e-04
2.36120689655172e+00 4.19914188981369e-02 2.17546011857280e-04
2.44706896551724e+00 4.14944413861504e-02 2.18846847461526e-04
2.53293103448276e+00 4.10033457101518e-02 2.20019709725147e-04
2.61879310344828e+00 4.05180622573501e-02 2.21071567297838e-04
2.70465517241379e+00 4.00385222388461e-02 2.22008884980122e-04
2.79051724137931e+00 3.95646576798703e-02 2.22837675104215e-04
2.87637931034483e+00 3.90964014101475e-02 2.23563541929973e-04
2.96224137931034e+00 3.86336870559482e-02 2.24191721089168e-04
3.04810344827586e+00 3.81764490258884e-02 2.24727113255243e-04
3.13396551724138e+00 3.77246225065028e-02 2.25174313710202e-04
3.21982758620690e+00 3.72781434514060e-02 2.25537639389112e-04
3.30568965517241e+00 3.68369485722145e-02 2.25821152136294e-04
3.39155172413793e+00 3.64009753295740e-02 2.26028679573042e-04
3.47741379310345e+00 3.59701619242947e-02 2.26163833725996e-04
3.56327586206897e+00 3.55444472885965e-02 2.26230027711804e-04
3.64913793103448e+00 3.51237710774486e-02 2.26230490725465e-04
3.73500000000000e+00 3.47080736600166e-02 2.26168281396272e-04
3.82086206896552e+00 3.42972961122879e-02 2.26046300429383e-04
3.90672413793103e+00 3.38913802054368e-02 2.25867301356198e-04
3.99258620689655e+00 3.34902684009012e-02 2.25633900263796e-04
4.07844827586207e+00 3.30939038410997e-02 2.25348585385276e-04
4.16431034482759e+00 3.27022303413723e-02 2.25013725275732e-04
4.25017241379310e+00 3.23151923820142e-02 2.24631576427791e-04
4.33603448275862e+00 3.19327351004090e-02 2.24204290248779e-04
4.42189655172414e+00 3.15548042832519e-02 2.23733919466501e-04
4.50775862068966e+00 3.11813463588638e-02 2.23222424020306e-04
4.59362068965517e+00 3.08123083895978e-02 2.22671676371960e-04
4.67948275862069e+00 3.04476380651163e-02 2.22083466871461e-04
4.76534482758621e+00 3.00872836926019e-02 2.21459508151071e-04
4.85120689655172e+00 2.97311941918358e-02 2.20801439172936e-04
4.93706896551724e+00 2.93793190871444e-02 2.20110829576435e-04
5.02293103448276e+00 2.90316085002442e-02 2.19389183251829e-04
5.10879310344828e+00 2.86880131431700e-02 2.18637941779205e-04
5.19465517241379e+00 2.83484843112920e-02 2.17858487632769e-04
5.28051724137931e+00 2.80129738764099e-02 2.17052147170629e-04
5.36637931034483e+00 2.76814342799310e-02 2.16220193329358e-04
5.45224137931034e+00 2.73538185267287e-02 2.15363848530152e-04
5.53810344827586e+00 2.70300801766583e-02 2.14484286926053e-04
5.62396551724138e+00 2.67101733398199e-02 2.13582636492634e-04
5.70982758620690e+00 2.63940526694300e-02 2.12659981484341e-04
5.79568965517241e+00 2.60816733553941e-02 2.11717364353388e-04
5.88155172413793e+00 2.57729911179542e-02 2.10755787650984e-04
5.96741379310345e+00 2.54679622014124e-02 2.09776215817124e-04
6.05327586206896e+00 2.51665433679296e-02 2.08779576867774e-04
6.13913793103448e+00 2.48686918913957e-02 2.07766763986467e-04
6.22500000000000e+00 2.45743655513732e-02 2.06738636946501e-04
6.31086206896552e+00 2.42835226275726e-02 2.05696023774189e-04
6.39672413793103e+00 2.39961218925420e-02 2.04639721928752e-04
6.48258620689655e+00 2.37121226072363e-02 2.03570499407431e-04
6.56844827586207e+00 2.34314845147657e-02 2.02489096201656e-04
6.65431034482759e+00 2.31541678346892e-02 2.01396225354776e-04
6.74017241379310e+00 2.28801332573753e-02 2.00292574045810e-04
6.82603448275862e+00 2.26093419384309e-02 1.99178804618637e-04
6.91189655172414e+00 2.23417554931944e-02 1.98055555560311e-04
6.99775862068965e+00 2.20773359912954e-02 1.96923442431196e-04
7.08362068965517e+00 2.18160459512772e-02 1.95783058683123e-04
7.16948275862069e+00 2.15578483356438e-02 1.94634976704729e-04
7.25534482758621e+00 2.13027065445188e-02 1.93479748488590e-04
7.34120689655172e+00 2.10505844115612e-02 1.92317906258212e-04
7.42706896551724e+00 2.08014461984658e-02 1.91149963407806e-04
7.51293103448276e+00 2.05552565898984e-02 1.89976415129158e-04
7.59879310344828e+00 2.03119806884885e-02 1.88797739077265e-04
7.68465517241379e+00 2.00715840098841e-02 1.87614396006666e-04
7.77051724137931e+00 1.98340324778628e-02 1.86426830380080e-04
7.85637931034483e+00 1.95992924195018e-02 1.85235470893274e-04
7.94224137931034e+00 1.93673305606954e-02 1.84040731204646e-04
8.02810344827586e+00 1.91381140205560e-02 1.82843010352849e-04
8.11396551724138e+00 1.89116103076457e-02 1.81642693149625e-04
8.19982758620690e+00 1.86877873150696e-02 1.80440150847964e-04
8.28568965517241e+00 1.84666133159248e-02 1.79235741551761e-04
8.37155172413793e+00 1.82480569588030e-02 1.78029810666346e-04
8.45741379310345e+00 1.80320872633465e-02 1.76822691330746e-04
8.54327586206897e+00 1.78186736158568e-02 1.75614704832923e-04
8.62913793103448e+00 1.76077857649554e-02 1.74406161008598e-04
8.71500000000000e+00 1.73993938172951e-02 1.73197358576261e-04
8.80086206896552e+00 1.71934682335562e-02 1.71988585651044e-04
8.88672413793103e+00 1.69899798235521e-02 1.70780120001266e-04
8.97258620689655e+00 1.67888997428063e-02 1.69572229289459e-04
9.05844827586207e+00 1.65901994882230e-02 1.68365171550653e-04
9.14431034482759e+00 1.63938508940464e-02 1.67159195457411e-04
9.23017241379310e+00 1.61998261278685e-02 1.65954540623683e-04
9.31603448275862e+00 1.60080976866838e-02 1.64751437897501e-04
9.40189655172414e+00 1.58186383929909e-02 1.63550109643135e-04
9.48775862068965e+00 1.56314213909400e-02 1.62350770012984e-04
9.57362068965517e+00 1.54464201425261e-02 1.61153625168905e-04
9.65948275862069e+00 1.52636084240156e-02 1.59958873658387e-04
9.74534482758621e+00 1.50829603216577e-02 1.58766706575715e-04
9.83120689655172e+00 1.49044502285889e-02 1.57577307712825e-04
9.91706896551724e+00 1.47280528410082e-02 1.56390853913926e-04
1.00029310344828e+01 1.45537431545906e-02 1.55207515365284e-04
1.00887931034483e+01 1.43814964604296e-02 1.54027455205564e-04
1.01746551724138e+01 1.42112883442544e-02 1.52850830851038e-04
1.02605172413793e+01 1.40430946773812e-02 1.51677793683076e-04
1.03463793103448e+01 1.38768916183830e-02 1.50508487997385e-04
1.04322413793103e+01 1.37126556095711e-02 1.49343053407179e-04
1.05181034482759e+01 1.35503633689089e-02 1.48181623924147e-04
1.06039655172414e+01 1.33899918914964e-02 1.47024327399941e-04
1.06898275862069e+01 1.32315184447018e-02 1.45871286459664e-04
1.07756896551724e+01 1.30749205663912e-02 1.44722619297592e-04
1.08615517241379e+01 1.29201760573487e-02 1.43578439163429e-04
1.09474137931034e+01 1.27672629825625e-02 1.42438853509381e-04
1.10332758620690e+01 1.26161596679950e-02 1.41303966125893e-04
1.11191379310345e+01 1.24668446933718e-02 1.40173876299187e-04
1.12050000000000e+01 1.23192968933153e-02 1.39048677991033e-04
1.12908620689655e+01 1.21734953542349e-02 1.37928461866518e-04
1.13767241379310e+01 1.20294194074636e-02 1.36813314486010e-04
1.14625862068966e+01 1.18870486302547e-02 1.35703317517260e-04
1.15484482758621e+01 1.17463628427852e-02 1.34598549661820e-04
1.16343103448276e+01 1.16073421016202e-02 1.33499085879144e-04
1.17201724137931e+01 1.14699667005888e-02 1.32404996630998e-04
1.18060344827586e+01 1.13342171678909e-02 1.31316349712410e-04
1.18918965517241e+01 1.12000742598758e-02 1.30233209506235e-04
1.19777586206897e+01 1.10675189618052e-02 1.29155636519830e-04
1.20636206896552e+01 1.09365324839834e-02 1.28083688080061e-04
1.21494827586207e+01 1.08070962601584e-02 1.27017418923836e-04
1.22353448275862e+01 1.06791919416725e-02 1.25956880772188e-04
1.23212068965517e+01 1.05528013981045e-02 1.24902121640626e-04
1.24070689655172e+01 1.04279067146159e-02 1.23853187475709e-04
1.24929310344828e+01 1.03044901863729e-02 1.22810121475753e-04
1.25787931034483e+01 1.01825343190972e-02 1.21772963428600e-04
1.26646551724138e+01 1.00620218265089e-02 1.20741751269313e-04
1.27505172413793e+01 9.94293562500612e-03 1.19716520428888e-04
1.28363793103448e+01 9.82525883413427e-03 1.18697303199262e-04
1.29222413793103e+01 9.70897477411880e-03 1.17684130216483e-04
1.30081034482759e+01 9.59406696079085e-03 1.16677029835497e-04
1.30939655172414e+01 9.48051910598224e-03 1.15676027735674e-04
1.31798275862069e+01 9.36831511429886e-03 1.14681147476000e-04
1.32656896551724e+01 9.25743908167291e-03 1.13692410965933e-04
1.33515517241379e+01 9.14787529058493e-03 1.12709838102622e-04
1.34374137931034e+01 9.03960821038051e-03 1.11733446193083e-04
1.35232758620690e+01 8.93262249500315e-03 1.10763251284284e-04
1.36091379310345e+01 8.82690297843206e-03 1.09799267593607e-04
1.36950000000000e+01 8.72243467493760e-03 1.08841506954246e-04
1.37808620689655e+01 8.61920277689669e-03 1.07889980082914e-04
1.38667241379310e+01 8.51719265043531e-03 1.06944696034180e-04
1.39525862068966e+01 8.41638983562926e-03 1.06005661668497e-04
1.40384482758621e+01 8.31678004439770e-03 1.05072882860858e-04
1.41243103448276e+01 8.21834915634055e-03 1.04146363977473e-04
1.42101724137931e+01 8.12108321889054e-03 1.03226107366035e-04
1.42960344827586e+01 8.02496844528063e-03 1.02312114508349e-04
1.43818965517241e+01 7.92999121056739e-03 1.01404385518120e-04
1.44677586206897e+01 7.83613805173876e-03 1.00502918820771e-04
1.45536206896552e+01 7.74339566512002e-03 9.96077115788303e-05
1.46394827586207e+01 7.65175090511242e-03 9.87187600519859e-05
1.47253448275862e+01 7.56119078044166e-03 9.78360593024019e-05
1.48112068965517e+01 7.47170245421971e-03 9.69596027307159e-05
1.48970689655172e+01 7.38327324207763e-03 9.60893831129255e-05
1.49829310344828e+01 7.29589060857846e-03 9.52253921436571e-05
1.50687931034483e+01 7.20954216724271e-03 9.43676199908748e-05
1.51546551724138e+01 7.12421567874883e-03 9.35160562855239e-05
1.52405172413793e+01 7.03989904750204e-03 9.26706896837185e-05
1.53263793103448e+01 6.95658032162858e-03 9.18315074398521e-05
1.54122413793103e+01 6.87424769123923e-03 9.09984963513664e-05
1.54981034482759e+01 6.79288948514794e-03 9.01716423386124e-05
1.55839655172414e+01 6.71249417083758e-03 8.93509301746600e-05
1.56698275862069e+01 6.63305035228091e-03 8.85363438307736e-05
1.57556896551724e+01 6.55454676882164e-03 8.77278667684704e-05
1.58415517241379e+01 6.47697229207575e-03 8.69254816906386e-05
1.59274137931034e+01 6.40031592586902e-03 8.61291701533620e-05
1.60132758620690e+01 6.32456680464069e-03 8.53389134174648e-05
1.60991379310345e+01 6.24971419047773e-03 8.45546920660795e-05
1.61850000000000e+01 6.17574747302931e-03 8.37764856321011e-05
1.62708620689655e+01 6.10265616796799e-03 8.30042734116044e-05
1.63567241379310e+01 6.03042991415055e-03 8.22380340973372e-05
1.64425862068966e+01 5.95905847351242e-03 8.14777454213334e-05
1.65284482758621e+01 5.88853172958347e-03 8.07233849320992e-05
1.66143103448276e+01 5.81883968476994e-03 7.99749296430288e-05
1.67001724137931e+01 5.74997246023125e-03 7.92323556898524e-05
1.67860344827586e+01 5.68192029444796e-03 7.84956390732951e-05
1.68718965517241e+01 5.61467354061937e-03 7.77647553216391e-05
1.69577586206897e+01 5.54822266652479e-03 7.70396792723965e-05
1.70436206896552e+01 5.48255825275926e-03 7.63203853411325e-05
1.71294827586207e+01 5.41767099177581e-03 7.56068477483957e-05
1.72153448275862e+01 5.35355168542474e-03 7.48990403184291e-05
1.73012068965517e+01 5.29019124480031e-03 7.41969361673156e-05
1.73870689655172e+01 5.22758068892462e-03 7.35005083736579e-05
1.74729310344828e+01 5.16571114239013e-03 7.28097296716259e-05
1.75587931034483e+01 5.10457383519409e-03 7.21245721516053e-05
1.76446551724138e+01 5.04416010146967e-03 7.14450079014482e-05
1.77305172413793e+01 4.98446137722685e-03 7.07710087120961e-05
1.78163793103448e+01 4.92546920017687e-03 7.01025457904755e-05
1.79022413793103e+01 4.86717520850778e-03 6.94395903727040e-05
1.79881034482759e+01 4.80957113872004e-03 6.87821134415059e-05
1.80739655172414e+01 4.75264882544206e-03 6.81300855422574e-05
1.81598275862069e+01 4.69640019994124e-03 6.74834770034249e-05
1.82456896551724e+01 4.64081728928344e-03 6.68422581224709e-05
1.83315517241379e+01 4.58589221428514e-03 6.62063989961181e-05
1.84174137931034e+01 4.53161718932184e-03 6.55758692591190e-05
1.85032758620690e+01 4.47798452120220e-03 6.49506386387444e-05
1.85891379310345e+01 4.42498660720473e-03 6.43306766974282e-05
1.86750000000000e+01 4.37261593487964e-03 6.37159525819686e-05
1.87608620689655e+01 4.32086508096328e-03 6.31064355539727e-05
1.88467241379310e+01 4.26972670949558e-03 6.25020947430759e-05
1.89325862068966e+01 4.21919357161675e-03 6.19028989062360e-05
1.90184482758621e+01 4.16925850451997e-03 6.13088169352741e-05
1.91043103448276e+01 4.11991442964648e-03 6.07198176200350e-05
1.91901724137931e+01 4.07115435247791e-03 6.01358694175272e-05
1.92760344827586e+01 4.02297136152586e-03 5.95569409376003e-05
1.93618965517241e+01 3.97535862660110e-03 5.89830007155247e-05
1.94477586206897e+01 3.92830939860264e-03 5.84140170633222e-05
1.95336206896552e+01 3.88181700830647e-03 5.78499582429681e-05
1.96194827586207e+01 3.83587486565331e-03 5.72907926122597e-05
1.97053448275862e+01 3.79047645810954e-03 5.67364884875264e-05
1.97912068965517e+01 3.74561535045464e-03 5.61870139333198e-05
1.98770689655172e+01 3.70128518385229e-03 5.56423372021724e-05
1.99629310344828e+01 3.65747967427786e-03 5.51024265275377e-05
2.00487931034483e+01 3.61419261230387e-03 5.45672499218350e-05
2.01346551724138e+01 3.57141786220417e-03 5.40367755974225e-05
2.02205172413793e+01 3.52914936044516e-03 5.35109717679118e-05
2.03063793103448e+01 3.48738111547014e-03 5.29898064543650e-05
2.03922413793103e+01 3.44610720683495e-03 5.24732478883322e-05
2.04781034482759e+01 3.40532178376042e-03 5.19612643210461e-05
2.05639655172414e+01 3.36501906491621e-03 5.14538238981031e-05
2.06498275862069e+01 3.32519333739526e-03 5.09508948023772e-05
2.07356896551724e+01 3.28583895609285e-03 5.04524453742838e-05
2.08215517241379e+01 3.24695034233504e-03 4.99584439959687e-05
2.09074137931034e+01 3.20852198366394e-03 4.94688589148025e-05
2.09932758620690e+01 3.17054843304278e-03 4.89836586086516e-05
2.10791379310345e+01 3.13302430753946e-03 4.85028116119680e-05
2.11650000000000e+01 3.09594428811210e-03 4.80262863462586e-05
2.12508620689655e+01 3.05930311884239e-03 4.75540514698955e-05
2.13367241379310e+01 3.02309560567189e-03 4.70860757112439e-05
2.14225862068966e+01 2.98731661618841e-03 4.66223277058784e-05
2.15084482758621e+01 2.95196107888637e-03 4.61627763316329e-05
2.15943103448276e+01 2.91702398195384e-03 4.57073905483724e-05
2.16801724137931e+01 2.88250037306005e-03 4.52561392417733e-05
2.17660344827586e+01 2.84838535864178e-03 4.48089915442590e-05
2.18518965517241e+01 2.81467410273895e-03 4.43659166810833e-05
2.19377586206897e+01 2.78136182678369e-03 4.39268838689082e-05
2.20236206896552e+01 2.74844380876349e-03 4.34918624288255e-05
2.21094827586207e+01 2.71591538269820e-03 4.30608218813481e-05
2.21953448275862e+01 2.68377193753598e-03 4.26337318526197e-05
2.22812068965517e+01 2.65200891694588e-03 4.22105619319707e-05
2.23670689655172e+01 2.62062181866173e-03 4.17912819630722e-05
2.24529310344828e+01 2.58960619342184e-03 4.13758619036717e-05
2.25387931034483e+01 2.55895764476358e-03 4.09642716887437e-05
2.26246551724138e+01 2.52867182839057e-03 4.05564815094642e-05
2.27105172413793e+01 2.49874445115438e-03 4.01524616785466e-05
2.27963793103448e+01 2.46917127085151e-03 3.97521824988461e-05
2.28822413793103e+01 2.43994809561270e-03 3.93556145306839e-05
2.29681034482759e+01 2.41107078292514e-03 3.89627284624663e-05
2.30539655172414e+01 2.38253523943191e-03 3.85734950250904e-05
2.31398275862069e+01 2.35433742022188e-03 3.81878850856209e-05
2.32256896551724e+01 2.32647332837563e-03 3.78058697259570e-05
2.33115517241379e+01 2.29893901403789e-03 3.74274201636289e-05
2.33974137931034e+01 2.27173057422162e-03 3.70525076320266e-05
2.34832758620690e+01 2.24484415224634e-03 3.66811036230835e-05
2.35691379310345e+01 2.21827593684709e-03 3.63131797692520e-05
2.36550000000000e+01 2.19202216198122e-03 3.59487077284089e-05
2.37408620689655e+01 2.16607910628669e-03 3.55876594164614e-05
2.38267241379310e+01 2.14044309222601e-03 3.52300068940361e-05
2.39125862068965e+01 2.11511048589600e-03 3.48757222559128e-05
2.39984482758621e+01 2.09007769650516e-03 3.45247778539907e-05
2.40843103448276e+01 2.06534117555129e-03 3.41771461884353e-05
2.41701724137931e+01 2.04089741663429e-03 3.38327998015217e-05
2.42560344827586e+01 2.01674295495197e-03 3.34917114913681e-05
2.43418965517241e+01 1.99287436650982e-03 3.31538542073275e-05
2.44277586206897e+01 1.96928826793718e-03 3.28192009806019e-05
2.45136206896552e+01 1.94598131590624e-03 3.24877249986708e-05
2.45994827586207e+01 1.92295020675131e-03 3.21593996677292e-05
2.46853448275862e+01 1.90019167571893e-03 3.18341985484445e-05
2.47712068965517e+01 1.87770249678889e-03 3.15120952590781e-05
2.48570689655172e+01 1.85547948221054e-03 3.11930636696651e-05
2.49429310344828e+01 1.83351948178211e-03 3.08770778066080e-05
2.50287931034483e+01 1.81181938267502e-03 3.05641117595699e-05
2.51146551724138e+01 1.79037610898659e-03 3.02541398676607e-05
2.52005172413793e+01 1.76918662104739e-03 2.99471366277935e-05
2.52863793103448e+01 1.74824791524894e-03 2.96430766052465e-05
2.53722413793103e+01 1.72755702361213e-03 2.93419346122014e-05
2.54581034482759e+01 1.70711101312156e-03 2.90436856196565e-05
2.55439655172414e+01 1.68690698555666e-03 2.87483046987974e-05
2.56298275862069e+01 1.66694207699792e-03 2.84557670828895e-05
2.57156896551724e+01 1.64721345749722e-03 2.81660482191564e-05
2.58015517241379e+01 1.62771833044592e-03 2.78791237144649e-05
2.58874137931034e+01 1.60845393241108e-03 2.75949692537238e-05
2.59732758620690e+01 1.58941753273845e-03 2.73135607621816e-05
2.60591379310345e+01 1.57060643294504e-03 2.70348743250121e-05
2.61450000000000e+01 1.55201796655870e-03 2.67588861088738e-05
2.62308620689655e+01 1.53364949873516e-03 2.64855725175628e-05
2.63167241379310e+01 1.51549842567410e-03 2.62149101147740e-05
2.64025862068966e+01 1.49756217446208e-03 2.59468755487166e-05
2.64884482758621e+01 1.47983820270317e-03 2.56814457014101e-05
2.65743103448276e+01 1.46232399795749e-03 2.54185976144523e-05
2.66601724137931e+01 1.44501707758768e-03 2.51583084166072e-05
2.67460344827586e+01 1.42791498840239e-03 2.49005554670063e-05
2.68318965517241e+01 1.41101530611662e-03 2.46453162837865e-05
2.69177586206897e+01 1.39431563520152e-03 2.43925684964776e-05
2.70036206896552e+01 1.37781360847985e-03 2.41422898953597e-05
2.70894827586207e+01 1.36150688685026e-03 2.38944584727903e-05
