Energy (eV)          EEDF (eV^-(3/2))     First Anisotropy
5.87931034482759e-03 1.14263292101694e+00 7.84490915301959e-04
1.76379310344828e-02 1.12911019809157e+00 1.29209580796654e-03
2.93965517241379e-02 1.11574751259545e+00 1.69693581318896e-03
4.11551724137931e-02 1.10254297053640e+00 1.99920659199374e-03
5.29137931034483e-02 1.08949470033133e+00 2.24696482521262e-03
6.46724137931034e-02 1.07660085257030e+00 2.45851651018988e-03
7.64310344827586e-02 1.06385959968361e+00 2.64340253096045e-03
8.81896551724138e-02 1.05126913575686e+00 2.80742428776834e-03
9.99482758620690e-02 1.03882767624779e+00 2.95445557170029e-03
1.11706896551724e-01 1.02653345775432e+00 3.08725267323827e-03
1.23465517241379e-01 1.01438473767039e+00 3.20786943053951e-03
1.35224137931034e-01 1.00237979406927e+00 3.31789106289730e-03
1.46982758620690e-01 9.90516925488578e-01 3.41857556102870e-03
1.58741379310345e-01 9.78794450427521e-01 3.51094392522364e-03
1.70500000000000e-01 9.67210707372035e-01 3.59584033908016e-03
1.82258620689655e-01 9.55764054537412e-01 3.67397380611870e-03
1.94017241379310e-01 9.44452869437221e-01 3.74594776270745e-03
2.05775862068966e-01 9.33275548852042e-01 3.81228170578900e-03
2.17534482758621e-01 9.22230508588142e-01 3.87342737911379e-03
2.29293103448276e-01 9.11316183095955e-01 3.92978105448599e-03
2.41051724137931e-01 9.00531025405904e-01 3.98169303160139e-03
2.52810344827586e-01 8.89873506898502e-01 4.02947513256766e-03
2.64568965517241e-01 8.79342116959818e-01 4.07340663346321e-03
2.76327586206897e-01 8.68935362896542e-01 4.11373904204674e-03
2.88086206896552e-01 8.58651769680796e-01 4.15070000085814e-03
2.99844827586207e-01 8.48489879775533e-01 4.18449649418966e-03
3.11603448275862e-01 8.38448252823774e-01 4.21531749512339e-03
3.23362068965517e-01 8.28525465549562e-01 4.24333617372567e-03
3.35120689655172e-01 8.18720111550505e-01 4.26871178499125e-03
3.46879310344828e-01 8.09030801009266e-01 4.29159124353569e-03
3.58637931034483e-01 7.99456160586169e-01 4.31211046647808e-03
3.70396551724138e-01 7.89994833220291e-01 4.33039555218488e-03
3.82155172413793e-01 7.80645477859736e-01 4.34656377370377e-03
3.93913793103448e-01 7.71406769349286e-01 4.36072443997756e-03
4.05672413793103e-01 7.62277398238876e-01 4.37297967050109e-03
4.17431034482759e-01 7.53256070530471e-01 4.38342505151202e-03
4.29189655172414e-01 7.44341507562719e-01 4.39215021493866e-03
4.40948275862069e-01 7.35532445806853e-01 4.39923936003436e-03
4.52706896551724e-01 7.26827636706769e-01 4.40477171524663e-03
4.64465517241379e-01 7.18225846443869e-01 4.40882194054309e-03
4.76224137931034e-01 7.09725855820944e-01 4.41146048376810e-03
4.87982758620690e-01 7.01326460086750e-01 4.41275391983862e-03
4.99741379310345e-01 6.93026468713425e-01 4.41276523632687e-03
5.11500000000000e-01 6.84824705279938e-01 4.41155409032273e-03
5.23258620689655e-01 6.76720007303245e-01 4.40917705911240e-03
5.35017241379310e-01 6.68711226027057e-01 4.40568784943960e-03
5.46775862068966e-01 6.60797226305747e-01 4.40113748714074e-03
5.58534482758621e-01 6.52976886441647e-01 4.39557450710158e-03
5.70293103448276e-01 6.45249097984249e-01 4.38904510992877e-03
5.82051724137931e-01 6.37612765615191e-01 4.38159330488155e-03
5.93810344827586e-01 6.30066806991351e-01 4.37326105700009e-03
6.05568965517241e-01 6.22610152553694e-01 4.36408840660629e-03
6.17327586206897e-01 6.15241745413757e-01 4.35411358060735e-03
6.29086206896552e-01 6.07960541191022e-01 4.34337310216597e-03
6.40844827586207e-01 6.00765507876003e-01 4.33190189147211e-03
6.52603448275862e-01 5.93655625650365e-01 4.31973335287478e-03
6.64362068965517e-01 5.86629886776260e-01 4.30689945371956e-03
6.76120689655172e-01 5.79687295452263e-01 4.29343081152366e-03
6.87879310344828e-01 5.72826867641577e-01 4.27935676139548e-03
6.99637931034483e-01 5.66047630963406e-01 4.26470541856762e-03
7.11396551724138e-01 5.59348624554083e-01 4.24950374984492e-03
7.23155172413793e-01 5.52728898902838e-01 4.23377762751186e-03
7.34913793103448e-01 5.46187515745433e-01 4.21755187952235e-03
7.46672413793103e-01 5.39723547930206e-01 4.20085034883405e-03
7.58431034482759e-01 5.33336079260975e-01 4.18369593696464e-03
7.70189655172414e-01 5.27024204393064e-01 4.16611064594867e-03
7.81948275862069e-01 5.20787028696288e-01 4.14811562319632e-03
7.93706896551724e-01 5.14623668135787e-01 4.12973120326653e-03
8.05465517241379e-01 5.08533249123570e-01 4.11097694246144e-03
8.17224137931034e-01 5.02514908418061e-01 4.09187165001453e-03
8.28982758620690e-01 4.96567793000948e-01 4.07243342835352e-03
8.40741379310345e-01 4.90691059934935e-01 4.05267970051349e-03
8.52500000000000e-01 4.84883876265769e-01 4.03262723592798e-03
8.64258620689655e-01 4.79145418903492e-01 4.01229218505957e-03
8.76017241379310e-01 4.73474874486060e-01 3.99169010218472e-03
8.87775862068966e-01 4.67871439283906e-01 3.97083596687503e-03
8.99534482758621e-01 4.62334319085403e-01 3.94974421403477e-03
9.11293103448276e-01 4.56862729066054e-01 3.92842875295738e-03
9.23051724137931e-01 4.51455893695621e-01 3.90690298533705e-03
9.34810344827586e-01 4.46113046627622e-01 3.88517983151879e-03
9.46568965517241e-01 4.40833430573818e-01 3.86327174652679e-03
9.58327586206897e-01 4.35616297213913e-01 3.84119073617915e-03
9.70086206896552e-01 4.30460907083757e-01 3.81894837648180e-03
9.81844827586207e-01 4.25366529475626e-01 3.79655583180627e-03
9.93603448275862e-01 4.20332442319254e-01 3.77402386871177e-03
1.00536206896552e+00 4.15357932095014e-01 3.75136286897647e-03
1.01712068965517e+00 4.10442293727593e-01 3.72858284584292e-03
1.02887931034483e+00 4.05584830490671e-01 3.70569345842102e-03
1.04063793103448e+00 4.00784853898568e-01 3.68270402463101e-03
1.05239655172414e+00 3.96041683613694e-01 3.65962353182638e-03
1.06415517241379e+00 3.91354647350057e-01 3.63646064959757e-03
1.07591379310345e+00 3.86723080777979e-01 3.61322374111312e-03
1.08767241379310e+00 3.82146327429930e-01 3.58992087398406e-03
1.09943103448276e+00 3.77623738607486e-01 3.56655983066758e-03
1.11118965517241e+00 3.73154673289383e-01 3.54314812578101e-03
1.12294827586207e+00 3.68738498002415e-01 3.51969299339065e-03
1.13470689655172e+00 3.64374586847718e-01 3.49620141113363e-03
1.14646551724138e+00 3.60062321294611e-01 3.47268012424813e-03
1.15822413793103e+00 3.55801090132541e-01 3.44913563095679e-03
1.16998275862069e+00 3.51590289384459e-01 3.42557419832696e-03
1.18174137931034e+00 3.47429322221210e-01 3.40200187004822e-03
1.19350000000000e+00 3.43317598876938e-01 3.37842447390900e-03
1.20525862068966e+00 3.39254536565481e-01 3.35484762897670e-03
1.21701724137931e+00 3.35239559397785e-01 3.33127675249927e-03
1.22877586206897e+00 3.31272098300292e-01 3.30771706655787e-03
1.24053448275862e+00 3.27351590934266e-01 3.28417360446426e-03
1.25229310344828e+00 3.23477481616086e-01 3.26065121691344e-03
1.26405172413793e+00 3.19649221238486e-01 3.23715457791103e-03
1.27581034482759e+00 3.15866267192727e-01 3.21368819629229e-03
1.28756896551724e+00 3.12128083263455e-01 3.19025640362511e-03
1.29932758620690e+00 3.08434139638344e-01 3.16686337133225e-03
1.31108620689655e+00 3.04783912746382e-01 3.14351312785800e-03
1.32284482758621e+00 3.01176885212870e-01 3.12020954538236e-03
1.33460344827586e+00 2.97612545786088e-01 3.09695635071096e-03
1.34636206896552e+00 2.94090389264831e-01 3.07375712986516e-03
1.35812068965517e+00 2.90609916426804e-01 3.05061533251285e-03
1.36987931034483e+00 2.87170633957866e-01 3.02753427625046e-03
1.38163793103448e+00 2.83772054382080e-01 3.00451715072454e-03
1.39339655172414e+00 2.80413695992670e-01 2.98156702162236e-03
1.40515517241379e+00 2.77095082783719e-01 2.95868683453674e-03
1.41691379310345e+00 2.73815744382703e-01 2.93587941868720e-03
1.42867241379310e+00 2.70575215983817e-01 2.91314749052171e-03
1.44043103448276e+00 2.67373038282100e-01 2.89049365719881e-03
1.45218965517241e+00 2.64208757408330e-01 2.86792042450924e-03
1.46394827586207e+00 2.61081924843949e-01 2.84543018634066e-03
1.47570689655172e+00 2.57992097420405e-01 2.82302523708745e-03
1.48746551724138e+00 2.54938837192734e-01 2.80070778415009e-03
1.49922413793103e+00 2.51921711398923e-01 2.77847993661225e-03
1.51098275862069e+00 2.48940292398570e-01 2.75634371290270e-03
1.52274137931034e+00 2.45994157612274e-01 2.73430104356147e-03
1.53450000000000e+00 2.43082889461739e-01 2.71235377391997e-03
1.54625862068966e+00 2.40206075310577e-01 2.69050366669410e-03
1.55801724137931e+00 2.37363307405834e-01 2.66875240449420e-03
1.56977586206897e+00 2.34554182820199e-01 2.64710159226354e-03
1.58153448275862e+00 2.31778303394890e-01 2.62555275963978e-03
1.59329310344828e+00 2.29035275683216e-01 2.60410736324007e-03
1.60505172413793e+00 2.26324710894814e-01 2.58276678887773e-03
1.61681034482759e+00 2.23646224840540e-01 2.56153235736681e-03
1.62856896551724e+00 2.20999437862232e-01 2.54040531553636e-03
1.64032758620690e+00 2.18383974826754e-01 2.51938684567913e-03
1.65208620689655e+00 2.15799465024456e-01 2.49847807509711e-03
1.66384482758621e+00 2.13245542132930e-01 2.47768006654796e-03
1.67560344827586e+00 2.10721844165087e-01 2.45699382394447e-03
1.68736206896552e+00 2.08228013417847e-01 2.43642029414353e-03
1.69912068965517e+00 2.05763696421444e-01 2.41596036868241e-03
1.71087931034483e+00 2.03328543889323e-01 2.39561488546627e-03
1.72263793103448e+00 2.00922210668623e-01 2.37538463039875e-03
1.73439655172414e+00 1.98544355691276e-01 2.35527033896952e-03
1.74615517241379e+00 1.96194641925656e-01 2.33527269780023e-03
1.75791379310345e+00 1.93872736328807e-01 2.31539234613829e-03
1.76967241379310e+00 1.91578309799239e-01 2.29562987730966e-03
1.78143103448276e+00 1.89311037130282e-01 2.27598584012958e-03
1.79318965517241e+00 1.87070596963993e-01 2.25646074317560e-03
1.80494827586207e+00 1.84856671733696e-01 2.23705504732901e-03
1.81670689655172e+00 1.82668947655066e-01 2.21776917296312e-03
1.82846551724138e+00 1.80507114645185e-01 2.19860350722358e-03
1.84022413793103e+00 1.78370866290876e-01 2.17955839615428e-03
1.85198275862069e+00 1.76259899805273e-01 2.16063414894234e-03
1.86374137931034e+00 1.74173915984903e-01 2.14183103906966e-03
1.87550000000000e+00 1.72112619167278e-01 2.12314930543274e-03
1.88725862068966e+00 1.70075717188987e-01 2.10458915342919e-03
1.89901724137931e+00 1.68062921344288e-01 2.08615075601264e-03
1.91077586206897e+00 1.66073946344189e-01 2.06783425472170e-03
1.92253448275862e+00 1.64108510276009e-01 2.04963976067920e-03
1.93429310344828e+00 1.62166334563424e-01 2.03156735556143e-03
1.94605172413793e+00 1.60247143926976e-01 2.01361709254146e-03
1.95781034482759e+00 1.58350666345061e-01 1.99578899955887e-03
1.96956896551724e+00 1.56476633006131e-01 1.97808307308806e-03
1.98132758620690e+00 1.54624778298592e-01 1.96049928378197e-03
1.99308620689655e+00 1.52794839744870e-01 1.94303758219801e-03
2.00484482758621e+00 1.50986557973741e-01 1.92569789224779e-03
2.01660344827586e+00 1.49199676683560e-01 1.90848011447318e-03
2.02836206896552e+00 1.47433942605939e-01 1.89138412682109e-03
2.04012068965517e+00 1.45689105469847e-01 1.87440978539654e-03
2.05187931034483e+00 1.43964917966135e-01 1.85755692519650e-03
2.06363793103448e+00 1.42261135712483e-01 1.84082536081966e-03
2.07539655172414e+00 1.40577517218769e-01 1.82421488715926e-03
2.08715517241379e+00 1.38913823852835e-01 1.80772528007931e-03
2.09891379310345e+00 1.37269819806663e-01 1.79135629706838e-03
2.11067241379310e+00 1.35645272062957e-01 1.77510767787719e-03
2.12243103448276e+00 1.34039950362110e-01 1.75897914513819e-03
2.13418965517241e+00 1.32453627169571e-01 1.74297040685300e-03
2.14594827586207e+00 1.30886077636505e-01 1.72708115127359e-03
2.15770689655172e+00 1.29337079589399e-01 1.71131105129790e-03
2.16946551724138e+00 1.27806413476883e-01 1.69565976893600e-03
2.18122413793103e+00 1.26293862345911e-01 1.68012694994773e-03
2.19298275862069e+00 1.24799211811014e-01 1.66471222635295e-03
2.20474137931034e+00 1.23322250023913e-01 1.64941521694183e-03
2.21650000000000e+00 1.21862767643488e-01 1.63423552777180e-03
2.22825862068966e+00 1.20420557806112e-01 1.61917275264967e-03
2.24001724137931e+00 1.18995416096325e-01 1.60422647360050e-03
2.25177586206897e+00 1.17587140517869e-01 1.58939626132544e-03
2.26353448275862e+00 1.16195531465050e-01 1.57468167564637e-03
2.27529310344828e+00 1.14820391694448e-01 1.56008226593749e-03
2.28705172413793e+00 1.13461526296964e-01 1.54559757154548e-03
2.29881034482759e+00 1.12118742670189e-01 1.53122712373612e-03
2.31056896551724e+00 1.10791850485534e-01 1.51697044143725e-03
2.32232758620690e+00 1.09480661678137e-01 1.50282703474561e-03
2.33408620689655e+00 1.08184990403155e-01 1.48879640849455e-03
2.34584482758621e+00 1.06904653015164e-01 1.47487805780487e-03
2.35760344827586e+00 1.05639468042132e-01 1.46107147005993e-03
2.36936206896552e+00 1.04389256159694e-01 1.44737612525162e-03
2.38112068965517e+00 1.03153840165735e-01 1.43379149631637e-03
2.39287931034483e+00 1.01933044955276e-01 1.42031704946275e-03
2.40463793103448e+00 1.00726697495653e-01 1.40695224448813e-03
2.41639655172414e+00 9.95346268019921e-02 1.39369653508759e-03
2.42815517241379e+00 9.83566639129779e-02 1.38054936915587e-03
2.43991379310345e+00 9.71926418669013e-02 1.36751018907879e-03
2.45167241379310e+00 9.60423956779962e-02 1.35457843201719e-03
2.46343103448276e+00 9.49057623130546e-02 1.34175353018299e-03
2.47518965517241e+00 9.37825806683185e-02 1.32903491234687e-03
2.48694827586207e+00 9.26726915423166e-02 1.31642200034800e-03
2.49870689655172e+00 9.15759376264117e-02 1.30391421186162e-03
2.51046551724138e+00 9.04921634692642e-02 1.29151096321798e-03
2.52222413793103e+00 8.94212154592555e-02 1.27921166576171e-03
2.53398275862069e+00 8.83629418027153e-02 1.26701572738942e-03
2.54574137931034e+00 8.73171925024067e-02 1.25492255277570e-03
2.55750000000000e+00 8.62838193362662e-02 1.24293154359297e-03
2.56925862068966e+00 8.52626758363939e-02 1.23104209872454e-03
2.58101724137931e+00 8.42536172682943e-02 1.21925361447120e-03
2.59277586206897e+00 8.32565006103634e-02 1.20756548475312e-03
2.60453448275862e+00 8.22711845336155e-02 1.19597710130554e-03
2.61629310344828e+00 8.12975293816521e-02 1.18448785386823e-03
2.62805172413793e+00 8.03353971508669e-02 1.17309713036982e-03
2.63981034482759e+00 7.93846514708860e-02 1.16180431812290e-03
2.65156896551724e+00 7.84451575818012e-02 1.15060880092237e-03
2.66332758620690e+00 7.75167823254802e-02 1.13950996127499e-03
2.67508620689655e+00 7.65993941161825e-02 1.12850718267244e-03
2.68684482758621e+00 7.56928629254457e-02 1.11759984656903e-03
2.69860344827586e+00 7.47970602636567e-02 1.10678733360570e-03
2.71036206896552e+00 7.39118591618386e-02 1.09606902375955e-03
2.72212068965517e+00 7.30371341536554e-02 1.08544429648879e-03
2.73387931034483e+00 7.21727612576281e-02 1.07491253087383e-03
2.74563793103448e+00 7.13186179595608e-02 1.06447310575284e-03
2.75739655172414e+00 7.04745831951784e-02 1.05412539985398e-03
2.76915517241379e+00 6.96405373329658e-02 1.04386879192445e-03
2.78091379310345e+00 6.88163621572119e-02 1.03370266085430e-03
2.79267241379310e+00 6.80019408512536e-02 1.02362638579686e-03
2.80443103448276e+00 6.71971579809189e-02 1.01363934628548e-03
2.81618965517241e+00 6.64018994781648e-02 1.00374092316924e-03
2.82794827586207e+00 6.56160526222155e-02 9.93930496232469e-04
2.83970689655172e+00 6.48395060317463e-02 9.84207445969233e-04
2.85146551724138e+00 6.40721496408576e-02 9.74571155393938e-04
2.86322413793103e+00 6.33138746862477e-02 9.65021007565301e-04
2.87498275862069e+00 6.25645736917965e-02 9.55556386548639e-04
2.88674137931034e+00 6.18241404533320e-02 9.46176677508716e-04
2.89850000000000e+00 6.10924700235776e-02 9.36881266800044e-04
2.91025862068966e+00 6.03694586972761e-02 9.27669542053622e-04
2.92201724137931e+00 5.96550039964916e-02 9.18540892260581e-04
2.93377586206897e+00 5.89490046560849e-02 9.09494707853967e-04
2.94553448275862e+00 5.82513606093601e-02 9.00530380787358e-04
2.95729310344828e+00 5.75619729738811e-02 8.91647304610454e-04
2.96905172413793e+00 5.68807440374562e-02 8.82844874542355e-04
2.98081034482759e+00 5.62075772442889e-02 8.74122488219450e-04
2.99256896551724e+00 5.55423771791362e-02 8.65479543714302e-04
3.00432758620690e+00 5.48850495603128e-02 8.56915440974443e-04
3.01608620689655e+00 5.42355012197382e-02 8.48429583291534e-04
3.02784482758621e+00 5.35936400919490e-02 8.40021375243069e-04
3.03960344827586e+00 5.29593752010492e-02 8.31690223464025e-04
3.05136206896552e+00 5.23326166478157e-02 8.23435536703552e-04
3.06312068965517e+00 5.17132755969564e-02 8.15256725879547e-04
3.07487931034483e+00 5.11012642645187e-02 8.07153204131434e-04
3.08663793103448e+00 5.04964959054465e-02 7.99124386870181e-04
3.09839655172414e+00 4.98988848012866e-02 7.91169691826812e-04
3.11015517241379e+00 4.93083462480386e-02 7.83288539099514e-04
3.12191379310345e+00 4.87247965441489e-02 7.75480351198197e-04
3.13367241379310e+00 4.81481529786471e-02 7.67744553087448e-04
3.14543103448276e+00 4.75783338194230e-02 7.60080572227596e-04
3.15718965517241e+00 4.70152583016415e-02 7.52487839164543e-04
3.16894827586207e+00 4.64588466145936e-02 7.44965785902329e-04
3.18070689655172e+00 4.59090198955379e-02 7.37513847054866e-04
3.19246551724138e+00 4.53657002133209e-02 7.30131461022833e-04
3.20422413793103e+00 4.48288105590809e-02 7.22818068304507e-04
3.21598275862069e+00 4.42982748353338e-02 7.15573112106358e-04
3.22774137931034e+00 4.37740178451865e-02 7.08396038373084e-04
3.23950000000000e+00 4.32559652816793e-02 7.01286295816306e-04
3.25125862068966e+00 4.27440437172530e-02 6.94243335941656e-04
3.26301724137931e+00 4.22381805933419e-02 6.87266613074443e-04
3.27477586206897e+00 4.17383042100900e-02 6.80355584384323e-04
3.28653448275862e+00 4.12443437161880e-02 6.73509709908648e-04
3.29829310344828e+00 4.07562290988309e-02 6.66728452574371e-04
3.31005172413793e+00 4.02738911737945e-02 6.60011278218824e-04
3.32181034482759e+00 3.97972615756299e-02 6.53357656063483e-04
3.33356896551724e+00 3.93262727466027e-02 6.46767057357939e-04
3.34532758620690e+00 3.88608579312661e-02 6.40238956317989e-04
3.35708620689655e+00 3.84009511628126e-02 6.33772831084770e-04
3.36884482758621e+00 3.79464872551323e-02 6.27368162318461e-04
3.38060344827586e+00 3.74974017935737e-02 6.21024433690380e-04
3.39236206896552e+00 3.70536311258139e-02 6.14741131896156e-04
3.40412068965517e+00 3.66151123528362e-02 6.08517746667808e-04
3.41587931034483e+00 3.61817833200156e-02 6.02353770785076e-04
3.42763793103448e+00 3.57535826083080e-02 5.96248700085442e-04
3.43939655172414e+00 3.53304495255463e-02 5.90202033473454e-04
3.45115517241379e+00 3.49123240978372e-02 5.84213272929540e-04
3.46291379310345e+00 3.44991470610608e-02 5.78281923517500e-04
3.47467241379310e+00 3.40908598524705e-02 5.72407493391307e-04
3.48643103448276e+00 3.36874046023928e-02 5.66589493801156e-04
3.49818965517241e+00 3.32887241260245e-02 5.60827439468877e-04
3.50994827586207e+00 3.28947619142396e-02 5.55120847472278e-04
3.52170689655172e+00 3.25054621288742e-02 5.49469237999230e-04
3.53346551724138e+00 3.21207695914872e-02 5.43872135119169e-04
3.54522413793103e+00 3.17406297766583e-02 5.38329065627088e-04
3.55698275862069e+00 3.13649888042593e-02 5.32839559434719e-04
3.56874137931034e+00 3.09937934318174e-02 5.27403149571484e-04
3.58050000000000e+00 3.06269910469690e-02 5.22019372184985e-04
3.59225862068965e+00 3.02645296600021e-02 5.16687766540707e-04
3.60401724137931e+00 2.99063578964875e-02 5.11407875021069e-04
3.61577586206897e+00 2.95524249899975e-02 5.06179243124126e-04
3.62753448275862e+00 2.92026807749101e-02 5.01001419461631e-04
3.63929310344828e+00 2.88570756792986e-02 4.95873955756498e-04
3.65105172413793e+00 2.85155607179056e-02 4.90796406839728e-04
3.66281034482759e+00 2.81780874851997e-02 4.85768330953155e-04
3.67456896551724e+00 2.78446081476347e-02 4.80789288818621e-04
3.68632758620690e+00 2.75150754395338e-02 4.75858844254180e-04
3.69808620689655e+00 2.71894426537017e-02 4.70976564804969e-04
3.70984482758621e+00 2.68676636357093e-02 4.66142020779350e-04
