Energy (eV)          EEDF (eV^-(3/2))     First Anisotropy
1.55250000000000e-02 1.35657704217431e+01 3.08034000856542e-02
4.65750000000000e-02 1.14086841846598e+01 4.69790809854587e-02
7.76250000000000e-02 9.59459513015858e+00 5.25093584789287e-02
1.08675000000000e-01 8.06896345114385e+00 5.26490416036529e-02
1.39725000000000e-01 6.78592168743436e+00 5.03605618381041e-02
1.70775000000000e-01 5.70689574030282e+00 4.68952569414658e-02
2.01825000000000e-01 4.79944515879023e+00 4.29121811716511e-02
2.32875000000000e-01 4.03628783150202e+00 3.87870579214215e-02
2.63925000000000e-01 3.39447976166433e+00 3.47390347719172e-02
2.94975000000000e-01 2.85472526573033e+00 3.08939868058448e-02
3.26025000000000e-01 2.40079685695442e+00 2.73199538576696e-02
3.57075000000000e-01 2.01904737298343e+00 2.40484394386103e-02
3.88125000000000e-01 1.69799967979076e+00 2.10878089430698e-02
4.19175000000000e-01 1.42800161657880e+00 1.84319661906135e-02
4.50225000000000e-01 1.20093580771639e+00 1.60660705595006e-02
4.81275000000000e-01 1.00997561733209e+00 1.39703350993669e-02
5.12325000000000e-01 8.49379909443288e-01 1.21225499427547e-02
5.43375000000000e-01 7.14320443172309e-01 1.04997449104588e-02
5.74425000000000e-01 6.00736713761362e-01 9.07926472351141e-03
6.05475000000000e-01 5.05213875243589e-01 7.83944130729428e-03
6.36525000000000e-01 4.24880074567971e-01 6.75998965484332e-03
6.67575000000000e-01 3.57320110572666e-01 5.82221493582883e-03
6.98625000000000e-01 3.00502822000980e-01 5.00909211069193e-03
7.29675000000000e-01 2.52720021511883e-01 4.30526102447827e-03
7.60725000000000e-01 2.12535139762376e-01 3.69696715363408e-03
7.91775000000000e-01 1.78740035568131e-01 3.17196913764810e-03
8.22825000000000e-01 1.50318673658464e-01 2.71942780214877e-03
8.53875000000000e-01 1.26416578012971e-01 2.32978679685887e-03
8.84925000000000e-01 1.06315142407524e-01 1.99465169800386e-03
9.15975000000000e-01 8.94100258272473e-02 1.70667208857793e-03
9.47025000000000e-01 7.51929832138692e-02 1.45942946868765e-03
9.78075000000000e-01 6.32365852966591e-02 1.24733267470051e-03
1.00912500000000e+00 5.31813681152639e-02 1.06552166542472e-03
1.04017500000000e+00 4.47250258903627e-02 9.09779968557724e-04
1.07122500000000e+00 3.76133223304477e-02 7.76455700269865e-04
1.10227500000000e+00 3.16324471270795e-02 6.62390823298351e-04
1.13332500000000e+00 2.66025878399337e-02 5.64858156477467e-04
1.16437500000000e+00 2.23725239131295e-02 4.81505563528255e-04
1.19542500000000e+00 1.88150802942636e-02 4.10306710918393e-04
1.22647500000000e+00 1.58233039711640e-02 3.49517778894180e-04
1.25752500000000e+00 1.33072484755854e-02 2.97639525630796e-04
1.28857500000000e+00 1.11912696813308e-02 2.53384134072254e-04
1.31962500000000e+00 9.41175159613641e-03 2.15646308867205e-04
1.35067500000000e+00 7.91519377422798e-03 1.83478132902401e-04
1.38172500000000e+00 6.65660284843215e-03 1.56067236538825e-04
1.41277500000000e+00 5.59813982394598e-03 1.32717875889266e-04
1.44382500000000e+00 4.70798246523471e-03 1.12834558103167e-04
1.47487500000000e+00 3.95936857420862e-03 9.59078908706494e-05
1.50592500000000e+00 3.32979139624923e-03 8.15023697808755e-05
1.53697500000000e+00 2.80032296431295e-03 6.92458505631862e-05
1.56802500000000e+00 2.35504503774371e-03 5.88204835590300e-05
1.59907500000000e+00 1.98057052721490e-03 4.99549150848845e-05
1.63012500000000e+00 1.66564101764715e-03 4.24175847893159e-05
1.66117500000000e+00 1.40078828880179e-03 3.60109698627498e-05
1.69222500000000e+00 1.17804965731213e-03 3.05666462318469e-05
1.72327500000000e+00 9.90728582033146e-04 2.59410538764455e-05
1.75432500000000e+00 8.33193335412464e-04 2.20118683604749e-05
1.78537500000000e+00 7.00707688024005e-04 1.86748937768426e-05
1.81642500000000e+00 5.89288515867553e-04 1.58414037668716e-05
1.84747500000000e+00 4.95586049459023e-04 1.34358672708017e-05
1.87852500000000e+00 4.16783164451831e-04 1.13940043658226e-05
1.90957500000000e+00 3.50510686005185e-04 9.66112510570233e-06
1.94062500000000e+00 2.94776160561603e-04 8.19071083002288e-06
1.97167500000000e+00 2.47903953587750e-04 6.94320308578158e-06
2.00272500000000e+00 2.08484872342972e-04 5.88497021064968e-06
2.03377500000000e+00 1.75333799105708e-04 4.98742586401246e-06
2.06482500000000e+00 1.47454061118968e-04 4.22627744612452e-06
2.09587500000000e+00 1.24007466052610e-04 3.58088549398804e-06
2.12692500000000e+00 1.04289102111486e-04 3.03371785222583e-06
2.15797500000000e+00 8.77061451655312e-05 2.56988474721774e-06
2.18902500000000e+00 7.37600357473020e-05 2.17674289457108e-06
2.22007500000000e+00 6.20314900760389e-05 1.84355848845735e-06
2.25112500000000e+00 5.21678944711528e-05 1.56122039547420e-06
2.28217500000000e+00 4.38727041735948e-05 1.32199613934383e-06
2.31322500000000e+00 3.68965278552334e-05 1.11932434528458e-06
2.34427500000000e+00 3.10296297758494e-05 9.47638239686789e-07
2.37532500000000e+00 2.60956241683244e-05 8.02215593737071e-07
2.40637500000000e+00 2.19461722764236e-05 6.79051177812308e-07
2.43742500000000e+00 1.84565226138981e-05 5.74748373141006e-07
2.46847500000000e+00 1.55217603647119e-05 4.86427082474723e-07
2.49952500000000e+00 1.30536531642272e-05 4.11645504432122e-07
2.53057500000000e+00 1.09779984311143e-05 3.48333697180519e-07
2.56162500000000e+00 9.23239249866204e-06 2.94737165144631e-07
2.59267500000000e+00 7.76435447538131e-06 2.49368965152743e-07
2.62372500000000e+00 6.52974842957666e-06 2.10969052428297e-07
2.65477500000000e+00 5.49145646154505e-06 1.78469777750664e-07
2.68582500000000e+00 4.61826276988743e-06 1.50966609774733e-07
2.71687500000000e+00 3.88391516186719e-06 1.27693295051154e-07
2.74792500000000e+00 3.26633579252778e-06 1.08000786266766e-07
2.77897500000000e+00 2.74695740378094e-06 9.13393696541505e-08
2.81002500000000e+00 2.31016510777886e-06 7.72435079870951e-08
2.84107500000000e+00 1.94282693202786e-06 6.53189882947179e-08
2.87212500000000e+00 1.63389901228397e-06 5.52320252781111e-08
2.90317500000000e+00 1.37409356352502e-06 4.67000240102358e-08
2.93422500000000e+00 1.15559964668901e-06 3.94837502167035e-08
2.96527500000000e+00 9.71848336151131e-07 3.33806944440912e-08
2.99632500000000e+00 8.17315227800427e-07 2.82194487228815e-08
3.02737500000000e+00 6.87354350206536e-07 2.38549417757173e-08
3.05842500000000e+00 5.78058485487088e-07 2.01644021340790e-08
3.08947500000000e+00 4.86141700482758e-07 1.70439383258437e-08
3.12052500000000e+00 4.08840556590266e-07 1.44056421087769e-08
3.15157500000000e+00 3.43831028169465e-07 1.21751349988614e-08
3.18262500000000e+00 2.89158631712140e-07 1.02894904587729e-08
3.21367500000000e+00 2.43179665136059e-07 8.69547439515634e-09
3.24472500000000e+00 2.04511790588898e-07 7.34805533957069e-09
3.27577500000000e+00 1.71992475055331e-07 6.20914309169671e-09
3.30682500000000e+00 1.44644039301979e-07 5.24652088413131e-09
3.33787500000000e+00 1.21644264371809e-07 4.43294145539402e-09
3.36892500000000e+00 1.02301671924867e-07 3.74536193574514e-09
3.39997500000000e+00 8.60347352394237e-08 3.16429628149864e-09
3.43102500000000e+00 7.23543958612324e-08 2.67326724171109e-09
3.46207500000000e+00 6.08493602714665e-08 2.25834259477523e-09
3.49312500000000e+00 5.11737345239947e-08 1.90774272655313e-09
3.52417500000000e+00 4.30366250926761e-08 1.61150859993360e-09
3.55522500000000e+00 3.61933932826245e-08 1.36122084215036e-09
3.58627500000000e+00 3.04383002730773e-08 1.14976209673390e-09
3.61732500000000e+00 2.55983216682477e-08 9.71115990525111e-10
3.64837500000000e+00 2.15279455932915e-08 8.20197085787095e-10
3.67942500000000e+00 1.81047979423819e-08 6.92707051138244e-10
3.71047500000000e+00 1.52259632538563e-08 5.85013016564278e-10
3.74152500000000e+00 1.28048906011311e-08 4.94044697310134e-10
3.77257500000000e+00 1.07687914763230e-08 4.17207396098839e-10
3.80362500000000e+00 9.05645143506995e-09 3.52308437368451e-10
3.83467500000000e+00 7.61638971059227e-09 2.97494963347445e-10
3.86572500000000e+00 6.40531146658414e-09 2.51201340219447e-10
3.89677500000000e+00 5.38680615658304e-09 2.12104692187868e-10
3.92782500000000e+00 4.53025285655245e-09 1.79087309421195e-10
3.95887500000000e+00 3.80989965997216e-09 1.51204868979805e-10
3.98992500000000e+00 3.20408945784589e-09 1.27659571266333e-10
4.02097500000000e+00 2.69460882703515e-09 1.07777432854347e-10
4.05202500000000e+00 2.26614045152698e-09 9.09890935886996e-11
4.08307500000000e+00 1.90580261391682e-09 7.68135948805435e-11
4.11412500000000e+00 1.60276191211573e-09 6.48446699054616e-11
4.14517500000000e+00 1.34790755777659e-09 5.47391572962242e-11
4.17622500000000e+00 1.13357746436145e-09 4.62072098850206e-11
4.20727500000000e+00 9.53327889805563e-10 3.90040207724529e-11
4.23832500000000e+00 8.01739708184020e-10 3.29228319033911e-11
4.26937500000000e+00 6.74255486021812e-10 2.77890266161583e-11
4.30042500000000e+00 5.67042465016792e-10 2.34551383198919e-11
4.33147500000000e+00 4.76877331809974e-10 1.97966334073198e-11
4.36252500000000e+00 4.01049310455904e-10 1.67083484561765e-11
4.39357500000000e+00 3.37278664109889e-10 1.41014803294361e-11
4.42462500000000e+00 2.83648155720389e-10 1.19010434749257e-11
4.45567500000000e+00 2.38545407121765e-10 1.00437219907497e-11
4.48672500000000e+00 2.00614423578281e-10 8.47605523833415e-12
4.51777500000000e+00 1.68714826385664e-10 7.15290526620876e-12
4.54882500000000e+00 1.41887567875884e-10 6.03616232258041e-12
4.57987500000000e+00 1.19326098061553e-10 5.09365150974072e-12
4.61092500000000e+00 1.00352116057487e-10 4.29820935993299e-12
4.64197500000000e+00 8.43951772563669e-11 3.62690395247029e-12
4.67302500000000e+00 7.09755431569915e-11 3.06037628265615e-12
4.70407500000000e+00 5.96897582326000e-11 2.58228405027660e-12
4.73512500000000e+00 5.01985202140052e-11 2.17883195708656e-12
4.76617500000000e+00 4.22164791128209e-11 1.83837507165604e-12
4.79722500000000e+00 3.55036582968040e-11 1.55108390622431e-12
4.82827500000000e+00 2.98582396956312e-11 1.30866161306363e-12
4.85932500000000e+00 2.51104962274274e-11 1.10410519735280e-12
4.89037500000000e+00 2.11176890270562e-11 9.31503902037569e-13
4.92142500000000e+00 1.77597760635390e-11 7.85868983397412e-13
4.95247500000000e+00 1.49358031280291e-11 6.62989994295901e-13
4.98352500000000e+00 1.25608686889485e-11 5.59313450935727e-13
5.01457500000000e+00 1.05635713639609e-11 4.71840399980651e-13
5.04562500000000e+00 8.88386326812539e-12 3.98039944412165e-13
5.07667500000000e+00 7.47124470006461e-12 3.35776243895513e-13
5.10772500000000e+00 6.28324589016577e-12 2.83246891784477e-13
5.13877500000000e+00 5.28415016522530e-12 2.38930897221619e-13
5.16982500000000e+00 4.44392014203250e-12 2.01544776406852e-13
5.20087500000000e+00 3.73729466636384e-12 1.70005489884385e-13
5.23192500000000e+00 3.14302934724732e-12 1.43399159287669e-13
5.26297500000000e+00 2.64325785348609e-12 1.20954663003963e-13
5.29402500000000e+00 2.22295477009624e-12 1.02021350422625e-13
5.32507500000000e+00 1.86948386566844e-12 8.60502328256385e-14
5.35612500000000e+00 1.57221818950607e-12 7.25781089540730e-14
5.38717500000000e+00 1.32222057692375e-12 6.12141677029419e-14
5.41822500000000e+00 1.11197495723529e-12 5.16286816776078e-14
5.44927500000000e+00 9.35160386321635e-13 4.35434655302604e-14
5.48032500000000e+00 7.86461010164804e-13 3.67238238105190e-14
5.51137500000000e+00 6.61406245983469e-13 3.09717559673131e-14
5.54242500000000e+00 5.56236376084652e-13 2.61202223608018e-14
5.57347500000000e+00 4.67789513568518e-13 2.20283057228365e-14
5.60452500000000e+00 3.93406541558814e-13 1.85771283203717e-14
5.63557500000000e+00 3.30851167997800e-13 1.56664068697803e-14
5.66662500000000e+00 2.78242692487470e-13 1.32115456474395e-14
5.69767500000000e+00 2.33999463841070e-13 1.11411837719986e-14
5.72872500000000e+00 1.96791328420509e-13 9.39512574297606e-15
5.75977500000000e+00 1.65499639639394e-13 7.92259538579182e-15
5.79082500000000e+00 1.39183626334598e-13 6.68076269342503e-15
5.82187500000000e+00 1.17052108885909e-13 5.63350093839662e-15
5.85292500000000e+00 9.84397127410727e-14 4.75033808270381e-15
5.88397500000000e+00 8.27868642160918e-14 4.00557212930190e-15
5.91502500000000e+00 6.96229671531133e-14 3.37752479853589e-15
5.94607500000000e+00 5.85522546493709e-14 2.84791191316014e-15
5.97712500000000e+00 4.92418904954910e-14 2.40131225156533e-15
6.00817500000000e+00 4.14119625980275e-14 2.02471947790558e-15
6.03922500000000e+00 3.48270675427757e-14 1.70716416216535e-15
6.07027500000000e+00 2.92892332923828e-14 1.43939493219686e-15
6.10132500000000e+00 2.46319672422026e-14 1.21360951195334e-15
6.13237500000000e+00 2.07152506917527e-14 1.02322784497142e-15
6.16342500000000e+00 1.74213292427142e-14 8.62700721339682e-16
6.19447500000000e+00 1.46511725635973e-14 7.90170673038671e-16
