Energy (eV)          EEDF (eV^-(3/2))     First Anisotropy
1.75000000000000e-02 7.89393304500344e-02 3.88696756713021e-05
5.25000000000000e-02 7.84706978308826e-02 6.42102241202505e-05
8.75000000000000e-02 7.80048473042029e-02 8.48319329458313e-05
1.22500000000000e-01 7.75417623539176e-02 1.00539356569600e-04
1.57500000000000e-01 7.70814265618844e-02 1.13673486207885e-04
1.92500000000000e-01 7.66238236074114e-02 1.25118207472473e-04
2.27500000000000e-01 7.61689372666909e-02 1.35330337527337e-04
2.62500000000000e-01 7.57167514122283e-02 1.44585384811065e-04
2.97500000000000e-01 7.52672500122704e-02 1.53065842073157e-04
3.32500000000000e-01 7.48204171302381e-02 1.60900530368971e-04
3.67500000000000e-01 7.43762369241613e-02 1.68184690998959e-04
4.02500000000000e-01 7.39346936461178e-02 1.74991268990344e-04
4.37500000000000e-01 7.34957716416742e-02 1.81377712665309e-04
4.72500000000000e-01 7.30594553493318e-02 1.87390301044946e-04
5.07500000000000e-01 7.26257292999744e-02 1.93067020753652e-04
5.42500000000000e-01 7.21945781163198e-02 1.98439548230875e-04
5.77500000000000e-01 7.17659865123752e-02 2.03534656899877e-04
6.12500000000000e-01 7.13399392928946e-02 2.08375241765175e-04
6.47500000000000e-01 7.09164213528404e-02 2.12981081898361e-04
6.82500000000000e-01 7.04954176768480e-02 2.17369418733059e-04
7.17500000000000e-01 7.00769133386930e-02 2.21555402032304e-04
7.52500000000000e-01 6.96608935007624e-02 2.25552438920641e-04
7.87500000000000e-01 6.92473434135285e-02 2.29372470670653e-04
8.22500000000000e-01 6.88362484150258e-02 2.33026194807642e-04
8.57500000000000e-01 6.84275939303313e-02 2.36523245248058e-04
8.92500000000000e-01 6.80213654710478e-02 2.39872339823602e-04
9.27500000000000e-01 6.76175486347901e-02 2.43081402168036e-04
9.62500000000000e-01 6.72161291046745e-02 2.46157663240418e-04
9.97500000000000e-01 6.68170926488111e-02 2.49107746518133e-04
1.03250000000000e+00 6.64204251197994e-02 2.51937739978831e-04
1.06750000000000e+00 6.60261124542265e-02 2.54653257307571e-04
1.10250000000000e+00 6.56341406721687e-02 2.57259490249648e-04
1.13750000000000e+00 6.52444958766957e-02 2.59761253636516e-04
1.17250000000000e+00 6.48571642533779e-02 2.62163024309065e-04
1.20750000000000e+00 6.44721320697968e-02 2.64468974926953e-04
1.24250000000000e+00 6.40893856750579e-02 2.66683003468124e-04
1.27750000000000e+00 6.37089114993070e-02 2.68808759076748e-04
1.31250000000000e+00 6.33306960532488e-02 2.70849664801752e-04
1.34750000000000e+00 6.29547259276687e-02 2.72808937674940e-04
1.38250000000000e+00 6.25809877929578e-02 2.74689606502977e-04
1.41750000000000e+00 6.22094683986397e-02 2.76494527686333e-04
1.45250000000000e+00 6.18401545729012e-02 2.78226399328674e-04
1.48750000000000e+00 6.14730332221249e-02 2.79887773859401e-04
1.52250000000000e+00 6.11080913304254e-02 2.81481069358345e-04
1.55750000000000e+00 6.07453159591875e-02 2.83008579743866e-04
1.59250000000000e+00 6.03846942466077e-02 2.84472483962090e-04
1.62750000000000e+00 6.00262134072381e-02 2.85874854295828e-04
1.66250000000000e+00 5.96698607315331e-02 2.87217663895293e-04
1.69750000000000e+00 5.93156235853989e-02 2.88502793618881e-04
1.73250000000000e+00 5.89634894097452e-02 2.89732038260656e-04
1.76750000000000e+00 5.86134457200405e-02 2.90907112231305e-04
1.80250000000000e+00 5.82654801058691e-02 2.92029654750798e-04
1.83750000000000e+00 5.79195802304912e-02 2.93101234603866e-04
1.87250000000000e+00 5.75757338304055e-02 2.94123354502880e-04
1.90750000000000e+00 5.72339287149144e-02 2.95097455097711e-04
1.94250000000000e+00 5.68941527656919e-02 2.96024918667421e-04
1.97750000000000e+00 5.65563939363537e-02 2.96907072524404e-04
2.01250000000000e+00 5.62206402520304e-02 2.97745192158482e-04
2.04750000000000e+00 5.58868798089428e-02 2.98540504145088e-04
2.08250000000000e+00 5.55551007739799e-02 2.99294188839132e-04
2.11750000000000e+00 5.52252913842793e-02 3.00007382874072e-04
2.15250000000000e+00 5.48974399468102e-02 3.00681181483174e-04
2.18750000000000e+00 5.45715348379589e-02 3.01316640658573e-04
2.22250000000000e+00 5.42475645031168e-02 3.01914779162045e-04
2.25750000000000e+00 5.39255174562703e-02 3.02476580399918e-04
2.29250000000000e+00 5.36053822795941e-02 3.03002994173418e-04
2.32750000000000e+00 5.32871476230460e-02 3.03494938314562e-04
2.36250000000000e+00 5.29708022039648e-02 3.03953300216863e-04
2.39750000000000e+00 5.26563348066700e-02 3.04378938269135e-04
2.43250000000000e+00 5.23437342820644e-02 3.04772683199912e-04
2.46750000000000e+00 5.20329895472387e-02 3.05135339339389e-04
2.50250000000000e+00 5.17240895850787e-02 3.05467685805101e-04
2.53750000000000e+00 5.14170234438745e-02 3.05770477616985e-04
2.57250000000000e+00 5.11117802369322e-02 3.06044446747036e-04
2.60750000000000e+00 5.08083491421882e-02 3.06290303108352e-04
2.64250000000000e+00 5.05067194018254e-02 3.06508735487803e-04
2.67750000000000e+00 5.02068803218915e-02 3.06700412426283e-04
2.71250000000000e+00 4.99088212719204e-02 3.06865983050311e-04
2.74750000000000e+00 4.96125316845548e-02 3.07006077858216e-04
2.78250000000000e+00 4.93180010551718e-02 3.07121309463908e-04
2.81750000000000e+00 4.90252189415106e-02 3.07212273301267e-04
2.85250000000000e+00 4.87341749633019e-02 3.07279548291539e-04
2.88750000000000e+00 4.84448588019001e-02 3.07323697476217e-04
2.92250000000000e+00 4.81572601999175e-02 3.07345268617695e-04
2.95750000000000e+00 4.78713689608607e-02 3.07344794769649e-04
2.99250000000000e+00 4.75871749487688e-02 3.07322794819049e-04
3.02750000000000e+00 4.73046680878544e-02 3.07279774001545e-04
3.06250000000000e+00 4.70238383621460e-02 3.07216224391938e-04
3.09750000000000e+00 4.67446758151333e-02 3.07132625371106e-04
3.13250000000000e+00 4.64671705494138e-02 3.07029444070907e-04
3.16750000000000e+00 4.61913127263423e-02 3.06907135798343e-04
3.20250000000000e+00 4.59170925656816e-02 3.06766144440027e-04
3.23750000000000e+00 4.56445003452564e-02 3.06606902848324e-04
3.27250000000000e+00 4.53735264006078e-02 3.06429833210102e-04
3.30750000000000e+00 4.51041611246515e-02 3.06235347398998e-04
3.34250000000000e+00 4.48363949673365e-02 3.06023847312242e-04
3.37750000000000e+00 4.45702184353070e-02 3.05795725192826e-04
3.41250000000000e+00 4.43056220915655e-02 3.05551363937799e-04
3.44750000000000e+00 4.40425965551383e-02 3.05291137393456e-04
3.48250000000000e+00 4.37811325007431e-02 3.05015410638160e-04
3.51750000000000e+00 4.35212206584582e-02 3.04724540253389e-04
3.55250000000000e+00 4.32628518133938e-02 3.04418874583554e-04
3.58750000000000e+00 4.30060168053655e-02 3.04098753985413e-04
3.62250000000000e+00 4.27507065285692e-02 3.03764511067333e-04
3.65750000000000e+00 4.24969119312587e-02 3.03416470918993e-04
3.69250000000000e+00 4.22446240154246e-02 3.03054951332221e-04
3.72750000000000e+00 4.19938338364748e-02 3.02680263013056e-04
3.76250000000000e+00 4.17445325029184e-02 3.02292709785641e-04
3.79750000000000e+00 4.14967111760495e-02 3.01892588788425e-04
3.83250000000000e+00 4.12503610696344e-02 3.01480190662927e-04
3.86750000000000e+00 4.10054734495997e-02 3.01055799735381e-04
3.90250000000000e+00 4.07620396337232e-02 3.00619694191706e-04
3.93750000000000e+00 4.05200509913254e-02 3.00172146246070e-04
3.97250000000000e+00 4.02794989429640e-02 2.99713422303333e-04
4.00750000000000e+00 4.00403749601296e-02 2.99243783115573e-04
4.04250000000000e+00 3.98026705649431e-02 2.98763483933117e-04
4.07750000000000e+00 3.95663773298557e-02 2.98272774650346e-04
4.11250000000000e+00 3.93314868773493e-02 2.97771899946191e-04
4.14750000000000e+00 3.90979908796402e-02 2.97261099419855e-04
4.18250000000000e+00 3.88658810583835e-02 2.96740607722012e-04
4.21750000000000e+00 3.86351491843796e-02 2.96210654681390e-04
4.25250000000000e+00 3.84057870772826e-02 2.95671465427139e-04
4.28750000000000e+00 3.81777866053101e-02 2.95123260507187e-04
4.32250000000000e+00 3.79511396849551e-02 2.94566256002615e-04
4.35750000000000e+00 3.77258382806992e-02 2.94000663638335e-04
4.39250000000000e+00 3.75018744047279e-02 2.93426690890121e-04
4.42750000000000e+00 3.72792401166472e-02 2.92844541088266e-04
4.46250000000000e+00 3.70579275232021e-02 2.92254413517863e-04
4.49750000000000e+00 3.68379287779971e-02 2.91656503516014e-04
4.53250000000000e+00 3.66192360812175e-02 2.91051002565926e-04
4.56750000000000e+00 3.64018416793533e-02 2.90438098388066e-04
4.60250000000000e+00 3.61857378649240e-02 2.89817975028593e-04
4.63750000000000e+00 3.59709169762055e-02 2.89190812944993e-04
4.67250000000000e+00 3.57573713969584e-02 2.88556789089182e-04
4.70750000000000e+00 3.55450935561581e-02 2.87916076988144e-04
4.74250000000000e+00 3.53340759277262e-02 2.87268846822073e-04
4.77750000000000e+00 3.51243110302637e-02 2.86615265500243e-04
4.81250000000000e+00 3.49157914267858e-02 2.85955496734752e-04
4.84750000000000e+00 3.47085097244585e-02 2.85289701111979e-04
4.88250000000000e+00 3.45024585743359e-02 2.84618036162040e-04
4.91750000000000e+00 3.42976306711001e-02 2.83940656426297e-04
4.95250000000000e+00 3.40940187528021e-02 2.83257713522904e-04
4.98750000000000e+00 3.38916156006044e-02 2.82569356210485e-04
5.02250000000000e+00 3.36904140385247e-02 2.81875730450113e-04
5.05750000000000e+00 3.34904069331821e-02 2.81176979465506e-04
5.09250000000000e+00 3.32915871935437e-02 2.80473243801552e-04
5.12750000000000e+00 3.30939477706732e-02 2.79764661381321e-04
5.16250000000000e+00 3.28974816574814e-02 2.79051367561435e-04
5.19750000000000e+00 3.27021818884774e-02 2.78333495186000e-04
5.23250000000000e+00 3.25080415395216e-02 2.77611174639092e-04
5.26750000000000e+00 3.23150537275807e-02 2.76884533895846e-04
5.30250000000000e+00 3.21232116104831e-02 2.76153698572178e-04
5.33750000000000e+00 3.19325083866767e-02 2.75418791973258e-04
5.37250000000000e+00 3.17429372949874e-02 2.74679935140719e-04
5.40750000000000e+00 3.15544916143797e-02 2.73937246898572e-04
5.44250000000000e+00 3.13671646637185e-02 2.73190843897994e-04
5.47750000000000e+00 3.11809498015318e-02 2.72440840661021e-04
5.51250000000000e+00 3.09958404257756e-02 2.71687349623104e-04
5.54750000000000e+00 3.08118299735997e-02 2.70930481174596e-04
5.58250000000000e+00 3.06289119211150e-02 2.70170343701179e-04
5.61750000000000e+00 3.04470797831623e-02 2.69407043623309e-04
5.65250000000000e+00 3.02663271130822e-02 2.68640685434711e-04
5.68750000000000e+00 3.00866475024868e-02 2.67871371739960e-04
5.72250000000000e+00 2.99080345810322e-02 2.67099203291107e-04
5.75750000000000e+00 2.97304820161929e-02 2.66324279023349e-04
5.79250000000000e+00 2.95539835130370e-02 2.65546696090001e-04
5.82750000000000e+00 2.93785328140036e-02 2.64766549896556e-04
5.86250000000000e+00 2.92041236986800e-02 2.63983934133924e-04
5.89750000000000e+00 2.90307499835823e-02 2.63198940810938e-04
5.93250000000000e+00 2.88584055219350e-02 2.62411660286058e-04
5.96750000000000e+00 2.86870842034542e-02 2.61622181298336e-04
6.00250000000000e+00 2.85167799541299e-02 2.60830590997714e-04
6.03750000000000e+00 2.83474867360116e-02 2.60036974974616e-04
6.07250000000000e+00 2.81791985469936e-02 2.59241417288802e-04
6.10750000000000e+00 2.80119094206025e-02 2.58444000497655e-04
6.14250000000000e+00 2.78456134257854e-02 2.57644805683818e-04
6.17750000000000e+00 2.76803046667000e-02 2.56843912482167e-04
6.21250000000000e+00 2.75159772825053e-02 2.56041399106157e-04
6.24750000000000e+00 2.73526254471537e-02 2.55237342373682e-04
6.28250000000000e+00 2.71902433691848e-02 2.54431817732367e-04
6.31750000000000e+00 2.70288252915199e-02 2.53624899284173e-04
6.35250000000000e+00 2.68683654912578e-02 2.52816659809595e-04
6.38750000000000e+00 2.67088582794720e-02 2.52007170791299e-04
6.42250000000000e+00 2.65502980010089e-02 2.51196502437223e-04
6.45750000000000e+00 2.63926790342876e-02 2.50384723703250e-04
6.49250000000000e+00 2.62359957911000e-02 2.49571902315317e-04
6.52750000000000e+00 2.60802427164136e-02 2.48758104791136e-04
6.56250000000000e+00 2.59254142881734e-02 2.47943396461385e-04
6.59750000000000e+00 2.57715050171073e-02 2.47127841490506e-04
6.63250000000000e+00 2.56185094465304e-02 2.46311502897067e-04
6.66750000000000e+00 2.54664221521524e-02 2.45494442573640e-04
6.70250000000000e+00 2.53152377418848e-02 2.44676721306391e-04
6.73750000000000e+00 2.51649508556498e-02 2.43858398794147e-04
6.77250000000000e+00 2.50155561651906e-02 2.43039533667122e-04
6.80750000000000e+00 2.48670483738819e-02 2.42220183505293e-04
6.84250000000000e+00 2.47194222165427e-02 2.41400404856371e-04
6.87750000000000e+00 2.45726724592491e-02 2.40580253253427e-04
6.91250000000000e+00 2.44267938991493e-02 2.39759783232106e-04
6.94750000000000e+00 2.42817813642786e-02 2.38939048347574e-04
6.98250000000000e+00 2.41376297133764e-02 2.38118101191159e-04
7.01750000000000e+00 2.39943338357037e-02 2.37296993406553e-04
7.05250000000000e+00 2.38518886508622e-02 2.36475775705741e-04
7.08750000000000e+00 2.37102891086138e-02 2.35654497884673e-04
7.12250000000000e+00 2.35695301887018e-02 2.34833208838569e-04
7.15750000000000e+00 2.34296069006728e-02 2.34011956576944e-04
7.19250000000000e+00 2.32905142836999e-02 2.33190788238364e-04
7.22750000000000e+00 2.31522474064066e-02 2.32369750104909e-04
7.26250000000000e+00 2.30148013666922e-02 2.31548887616330e-04
7.29750000000000e+00 2.28781712915579e-02 2.30728245383973e-04
7.33250000000000e+00 2.27423523369340e-02 2.29907867204447e-04
7.36750000000000e+00 2.26073396875082e-02 2.29087796073009e-04
7.40250000000000e+00 2.24731285565549e-02 2.28268074196689e-04
7.43750000000000e+00 2.23397141857653e-02 2.27448743007191e-04
7.47250000000000e+00 2.22070918450791e-02 2.26629843173568e-04
7.50750000000000e+00 2.20752568325163e-02 2.25811414614658e-04
7.54250000000000e+00 2.19442044740111e-02 2.24993496511244e-04
7.57750000000000e+00 2.18139301232454e-02 2.24176127318035e-04
7.61250000000000e+00 2.16844291614850e-02 2.23359344775435e-04
7.64750000000000e+00 2.15556969974149e-02 2.22543185921056e-04
7.68250000000000e+00 2.14277290669772e-02 2.21727687101062e-04
7.71750000000000e+00 2.13005208332092e-02 2.20912883981304e-04
7.75250000000000e+00 2.11740677860823e-02 2.20098811558240e-04
7.78750000000000e+00 2.10483654423419e-02 2.19285504169656e-04
7.82250000000000e+00 2.09234093453494e-02 2.18472995505194e-04
7.85750000000000e+00 2.07991950649230e-02 2.17661318616727e-04
7.89250000000000e+00 2.06757181971814e-02 2.16850505928523e-04
7.92750000000000e+00 2.05529743643876e-02 2.16040589247216e-04
7.96250000000000e+00 2.04309592147933e-02 2.15231599771628e-04
7.99750000000000e+00 2.03096684224851e-02 2.14423568102418e-04
8.03250000000000e+00 2.01890976872307e-02 2.13616524251538e-04
8.06750000000000e+00 2.00692427343267e-02 2.12810497651546e-04
8.10250000000000e+00 1.99500993144470e-02 2.12005517164774e-04
8.13750000000000e+00 1.98316632034921e-02 2.11201611092301e-04
8.17250000000000e+00 1.97139302024395e-02 2.10398807182774e-04
8.20750000000000e+00 1.95968961371944e-02 2.09597132641103e-04
8.24250000000000e+00 1.94805568584423e-02 2.08796614137000e-04
8.27750000000000e+00 1.93649082415015e-02 2.07997277813382e-04
8.31250000000000e+00 1.92499461861768e-02 2.07199149294593e-04
8.34750000000000e+00 1.91356666166144e-02 2.06402253694500e-04
8.38250000000000e+00 1.90220654811574e-02 2.05606615624506e-04
8.41750000000000e+00 1.89091387522020e-02 2.04812259201374e-04
8.45250000000000e+00 1.87968824260545e-02 2.04019208054901e-04
8.48750000000000e+00 1.86852925227899e-02 2.03227485335551e-04
8.52250000000000e+00 1.85743650861104e-02 2.02437113721869e-04
8.55750000000000e+00 1.84640961832052e-02 2.01648115427796e-04
8.59250000000000e+00 1.83544819046110e-02 2.00860512209928e-04
8.62750000000000e+00 1.82455183640737e-02 2.00074325374554e-04
8.66250000000000e+00 1.81372016984102e-02 1.99289575784644e-04
8.69750000000000e+00 1.80295280673717e-02 1.98506283866737e-04
8.73250000000000e+00 1.79224936535077e-02 1.97724469617654e-04
8.76750000000000e+00 1.78160946620301e-02 1.96944152611114e-04
8.80250000000000e+00 1.77103273206793e-02 1.96165352004311e-04
8.83750000000000e+00 1.76051878795899e-02 1.95388086544325e-04
8.87250000000000e+00 1.75006726111582e-02 1.94612374574418e-04
8.90750000000000e+00 1.73967778099098e-02 1.93838234040261e-04
8.94250000000000e+00 1.72934997923683e-02 1.93065682496058e-04
8.97750000000000e+00 1.71908348969247e-02 1.92294737110561e-04
9.01250000000000e+00 1.70887794837075e-02 1.91525414673000e-04
9.04750000000000e+00 1.69873299344539e-02 1.90757731598912e-04
9.08250000000000e+00 1.68864826523811e-02 1.89991703935887e-04
9.11750000000000e+00 1.67862340620592e-02 1.89227347369170e-04
9.15250000000000e+00 1.66865806092842e-02 1.88464677227260e-04
9.18750000000000e+00 1.65875187609521e-02 1.87703708487381e-04
9.22250000000000e+00 1.64890450049335e-02 1.86944455780851e-04
9.25750000000000e+00 1.63911558499492e-02 1.86186933398387e-04
9.29250000000000e+00 1.62938478254464e-02 1.85431155295295e-04
9.32750000000000e+00 1.61971174814757e-02 1.84677135096638e-04
9.36250000000000e+00 1.61009613885687e-02 1.83924886102296e-04
9.39750000000000e+00 1.60053761376163e-02 1.83174421291935e-04
9.43250000000000e+00 1.59103583397482e-02 1.82425753329870e-04
9.46750000000000e+00 1.58159046262123e-02 1.81678894569936e-04
9.50250000000000e+00 1.57220116482558e-02 1.80933857060206e-04
9.53750000000000e+00 1.56286760770059e-02 1.80190652547698e-04
9.57250000000000e+00 1.55358946033521e-02 1.79449292482982e-04
9.60750000000000e+00 1.54436639378289e-02 1.78709788024664e-04
9.64250000000000e+00 1.53519808104990e-02 1.77972150043890e-04
9.67750000000000e+00 1.52608419708376e-02 1.77236389128763e-04
9.71250000000000e+00 1.51702441876169e-02 1.76502515588640e-04
9.74750000000000e+00 1.50801842487916e-02 1.75770539458403e-04
9.78250000000000e+00 1.49906589613853e-02 1.75040470502661e-04
9.81750000000000e+00 1.49016651513770e-02 1.74312318219880e-04
9.85250000000000e+00 1.48131996635886e-02 1.73586091846481e-04
9.88750000000000e+00 1.47252593615730e-02 1.72861800360832e-04
9.92250000000000e+00 1.46378411275032e-02 1.72139452487212e-04
9.95750000000000e+00 1.45509418620614e-02 1.71419056699705e-04
9.99250000000000e+00 1.44645584843293e-02 1.70700621226031e-04
1.00275000000000e+01 1.43786879316788e-02 1.69984154051312e-04
1.00625000000000e+01 1.42933271596635e-02 1.69269662921817e-04
1.00975000000000e+01 1.42084731419108e-02 1.68557155348625e-04
1.01325000000000e+01 1.41241228700144e-02 1.67846638611227e-04
1.01675000000000e+01 1.40402733534277e-02 1.67138119761094e-04
1.02025000000000e+01 1.39569216193579e-02 1.66431605625183e-04
1.02375000000000e+01 1.38740647126607e-02 1.65727102809389e-04
1.02725000000000e+01 1.37916996957350e-02 1.65024617701932e-04
1.03075000000000e+01 1.37098236484194e-02 1.64324156476728e-04
1.03425000000000e+01 1.36284336678883e-02 1.63625725096707e-04
1.03775000000000e+01 1.35475268685491e-02 1.62929329317061e-04
1.04125000000000e+01 1.34671003819399e-02 1.62234974688441e-04
1.04475000000000e+01 1.33871513566275e-02 1.61542666560111e-04
1.04825000000000e+01 1.33076769581068e-02 1.60852410083085e-04
1.05175000000000e+01 1.32286743687002e-02 1.60164210213187e-04
1.05525000000000e+01 1.31501407874572e-02 1.59478071714078e-04
1.05875000000000e+01 1.30720734300557e-02 1.58793999160245e-04
1.06225000000000e+01 1.29944695287032e-02 1.58111996939914e-04
1.06575000000000e+01 1.29173263320382e-02 1.57432069257967e-04
1.06925000000000e+01 1.28406411050332e-02 1.56754220138826e-04
1.07275000000000e+01 1.27644111288974e-02 1.56078453429205e-04
1.07625000000000e+01 1.26886337009805e-02 1.55404772800908e-04
1.07975000000000e+01 1.26133061346768e-02 1.54733181753577e-04
1.08325000000000e+01 1.25384257593298e-02 1.54063683617359e-04
1.08675000000000e+01 1.24639899201380e-02 1.53396281555575e-04
1.09025000000000e+01 1.23899959780601e-02 1.52730978567346e-04
1.09375000000000e+01 1.23164413097220e-02 1.52067777490164e-04
1.09725000000000e+01 1.22433233073233e-02 1.51406681002419e-04
1.10075000000000e+01 1.21706393785455e-02 1.50747691625919e-04
1.10425000000000e+01 1.20983869464593e-02 1.50090811728360e-04
