Energy (eV)          EEDF (eV^-(3/2))     First Anisotropy
1.98461538461538e-03 1.73851777501490e+00 7.95902719998049e-04
5.95384615384615e-03 1.72932050131752e+00 1.31520666080676e-03
9.92307692307692e-03 1.72017188391961e+00 1.73872722732898e-03
1.38923076923077e-02 1.71107166542318e+00 2.06200860016485e-03
1.78615384615385e-02 1.70201958975625e+00 2.33289841716425e-03
2.18307692307692e-02 1.69301540228254e+00 2.56944568146344e-03
2.58000000000000e-02 1.68405884961349e+00 2.78097042976190e-03
2.97692307692308e-02 1.67514967974923e+00 2.97308879323293e-03
3.37384615384615e-02 1.66628764202261e+00 3.14951766144181e-03
3.77076923076923e-02 1.65747248711781e+00 3.31287856552554e-03
4.16769230769231e-02 1.64870396698523e+00 3.46510805109449e-03
4.56461538461538e-02 1.63998183491378e+00 3.60768805843451e-03
4.96153846153846e-02 1.63130584551608e+00 3.74178472250388e-03
5.35846153846154e-02 1.62267575466564e+00 3.86833666560788e-03
5.75538461538461e-02 1.61409131954578e+00 3.98811367446566e-03
6.15230769230769e-02 1.60555229863891e+00 4.10175713024070e-03
6.54923076923077e-02 1.59705845167639e+00 4.20980868802492e-03
6.94615384615385e-02 1.58860953967495e+00 4.31273115118194e-03
7.34307692307692e-02 1.58020532492711e+00 4.41092401323783e-03
7.74000000000000e-02 1.57184557095981e+00 4.50473523017057e-03
8.13692307692308e-02 1.56353004256261e+00 4.59447029643615e-03
8.53384615384615e-02 1.55525850576937e+00 4.68039935117827e-03
8.93076923076923e-02 1.54703072786105e+00 4.76276281170517e-03
9.32769230769231e-02 1.53884647733088e+00 4.84177588799576e-03
9.72461538461538e-02 1.53070552390628e+00 4.91763224124203e-03
1.01215384615385e-01 1.52260763854094e+00 4.99050698953327e-03
1.05184615384615e-01 1.51455259338412e+00 5.06055918286584e-03
1.09153846153846e-01 1.50654016178367e+00 5.12793385800233e-03
1.13123076923077e-01 1.49857011830272e+00 5.19276376122832e-03
1.17092307692308e-01 1.49064223876385e+00 5.25517084478983e-03
1.21061538461538e-01 1.48275630003958e+00 5.31526748486947e-03
1.25030769230769e-01 1.47491208025124e+00 5.37315752178548e-03
1.29000000000000e-01 1.46710935869413e+00 5.42893719556565e-03
1.32969230769231e-01 1.45934791588872e+00 5.48269595328101e-03
1.36938461538462e-01 1.45162753340026e+00 5.53451711444486e-03
1.40907692307692e-01 1.44394799400821e+00 5.58447844877584e-03
1.44876923076923e-01 1.43630908164098e+00 5.63265272007438e-03
1.48846153846154e-01 1.42871058142029e+00 5.67910816340903e-03
1.52815384615385e-01 1.42115227950360e+00 5.72390887335458e-03
1.56784615384615e-01 1.41363396323066e+00 5.76711514571120e-03
1.60753846153846e-01 1.40615542106585e+00 5.80878382439470e-03
1.64723076923077e-01 1.39871644259298e+00 5.84896856921931e-03
1.68692307692308e-01 1.39131681855207e+00 5.88772013569952e-03
1.72661538461538e-01 1.38395634070312e+00 5.92508658711599e-03
1.76630769230769e-01 1.37663480195151e+00 5.96111348345914e-03
1.80600000000000e-01 1.36935199629831e+00 5.99584408420469e-03
1.84569230769231e-01 1.36210771887281e+00 6.02931953059069e-03
1.88538461538462e-01 1.35490176581065e+00 6.06157898201626e-03
1.92507692307692e-01 1.34773393436495e+00 6.09265973836611e-03
1.96476923076923e-01 1.34060402286134e+00 6.12259738158594e-03
2.00446153846154e-01 1.33351183072699e+00 6.15142590383255e-03
2.04415384615385e-01 1.32645715838057e+00 6.17917779759353e-03
2.08384615384615e-01 1.31943980733168e+00 6.20588413684426e-03
2.12353846153846e-01 1.31245958013975e+00 6.23157468656210e-03
2.16323076923077e-01 1.30551628040896e+00 6.25627796933734e-03
2.20292307692308e-01 1.29860971281307e+00 6.28002135972775e-03
2.24261538461538e-01 1.29173968299738e+00 6.30283113914785e-03
2.28230769230769e-01 1.28490599766640e+00 6.32473254540896e-03
2.32200000000000e-01 1.27810846454731e+00 6.34574984515270e-03
2.36169230769231e-01 1.27134689241238e+00 6.36590640005328e-03
2.40138461538462e-01 1.26462109098929e+00 6.38522470424331e-03
2.44107692307692e-01 1.25793087104062e+00 6.40372641805114e-03
2.48076923076923e-01 1.25127604433000e+00 6.42143242448419e-03
2.52046153846154e-01 1.24465642364249e+00 6.43836288098296e-03
2.56015384615385e-01 1.23807182270213e+00 6.45453724498860e-03
2.59984615384615e-01 1.23152205624435e+00 6.46997429689070e-03
2.63953846153846e-01 1.22500693998452e+00 6.48469219085022e-03
2.67923076923077e-01 1.21852629061305e+00 6.49870847371543e-03
2.71892307692308e-01 1.21207992581323e+00 6.51204013056746e-03
2.75861538461538e-01 1.20566766418628e+00 6.52470360027830e-03
2.79830769230769e-01 1.19928932531645e+00 6.53671478931411e-03
2.83800000000000e-01 1.19294472974249e+00 6.54808910715506e-03
2.87769230769231e-01 1.18663369897387e+00 6.55884149883573e-03
2.91738461538462e-01 1.18035605542140e+00 6.56898645516955e-03
2.95707692307692e-01 1.17411162245697e+00 6.57853802165779e-03
2.99676923076923e-01 1.16790022438686e+00 6.58750982820875e-03
3.03646153846154e-01 1.16172168646660e+00 6.59591511645391e-03
3.07615384615385e-01 1.15557583483644e+00 6.60376674613420e-03
3.11584615384615e-01 1.14946249657637e+00 6.61107720047720e-03
3.15553846153846e-01 1.14338149968112e+00 6.61785861637465e-03
3.19523076923077e-01 1.13733267305546e+00 6.62412278842896e-03
3.23492307692308e-01 1.13131584652737e+00 6.62988119663786e-03
3.27461538461538e-01 1.12533085078868e+00 6.63514500931598e-03
3.31430769230769e-01 1.11937751744517e+00 6.63992508528608e-03
3.35400000000000e-01 1.11345567899353e+00 6.64423199522079e-03
3.39369230769231e-01 1.10756516883343e+00 6.64807604124998e-03
3.43338461538462e-01 1.10170582121200e+00 6.65146725799102e-03
3.47307692307692e-01 1.09587747127029e+00 6.65441541298934e-03
3.51276923076923e-01 1.09007995502148e+00 6.65693002551715e-03
3.55246153846154e-01 1.08431310936206e+00 6.65902038383635e-03
3.59215384615385e-01 1.07857677201974e+00 6.66069554482524e-03
3.63184615384615e-01 1.07287078159658e+00 6.66196433312994e-03
3.67153846153846e-01 1.06719497754847e+00 6.66283536206877e-03
3.71123076923077e-01 1.06154920018065e+00 6.66331703231914e-03
3.75092307692308e-01 1.05593329065775e+00 6.66341755135949e-03
3.79061538461538e-01 1.05034709095541e+00 6.66314493177205e-03
3.83030769230769e-01 1.04479044389995e+00 6.66250698917395e-03
3.87000000000000e-01 1.03926319314920e+00 6.66151135696592e-03
3.90969230769231e-01 1.03376518320176e+00 6.66016549986333e-03
3.94938461538462e-01 1.02829625935141e+00 6.65847671148824e-03
3.98907692307692e-01 1.02285626772416e+00 6.65645211164802e-03
4.02876923076923e-01 1.01744505526006e+00 6.65409865974028e-03
4.06846153846154e-01 1.01206246972171e+00 6.65142316704339e-03
4.10815384615385e-01 1.00670835965133e+00 6.64843229378530e-03
4.14784615384615e-01 1.00138257440535e+00 6.64513254594499e-03
4.18753846153846e-01 9.96084964137101e-01 6.64153029116310e-03
4.22723076923077e-01 9.90815379792707e-01 6.63763175540289e-03
4.26692307692308e-01 9.85573673118727e-01 6.63344303786876e-03
4.30661538461538e-01 9.80359696622057e-01 6.62897010756069e-03
4.34630769230769e-01 9.75173303601904e-01 6.62421879960977e-03
4.38600000000000e-01 9.70014348133576e-01 6.61919482641329e-03
4.42569230769231e-01 9.64882685075611e-01 6.61390378783298e-03
4.46538461538462e-01 9.59778170031793e-01 6.60835116750272e-03
4.50507692307692e-01 9.54700659381150e-01 6.60254232894310e-03
4.54476923076923e-01 9.49650010262498e-01 6.59648252588748e-03
4.58446153846154e-01 9.44626080581054e-01 6.59017691173614e-03
4.62415384615385e-01 9.39628728972433e-01 6.58363053569315e-03
4.66384615384615e-01 9.34657814830828e-01 6.57684833873228e-03
4.70353846153846e-01 9.29713198294249e-01 6.56983516642555e-03
4.74323076923077e-01 9.24794740240644e-01 6.56259576490049e-03
4.78292307692308e-01 9.19902302293872e-01 6.55513479292549e-03
4.82261538461538e-01 9.15035746789906e-01 6.54745681787419e-03
4.86230769230769e-01 9.10194936803002e-01 6.53956631154454e-03
4.90200000000000e-01 9.05379736131805e-01 6.53146765905562e-03
4.94169230769231e-01 9.00590009304896e-01 6.52316516698648e-03
4.98138461538462e-01 8.95825621548672e-01 6.51466305928932e-03
5.02107692307692e-01 8.91086438811996e-01 6.50596547306967e-03
5.06076923076923e-01 8.86372327752891e-01 6.49707646694560e-03
5.10046153846154e-01 8.81683155743708e-01 6.48800002869412e-03
5.14015384615385e-01 8.77018790840559e-01 6.47874007114623e-03
5.17984615384615e-01 8.72379101806562e-01 6.46930042795798e-03
5.21953846153846e-01 8.67763958099093e-01 6.45968486433256e-03
5.25923076923077e-01 8.63173229866159e-01 6.44989707284010e-03
5.29892307692308e-01 8.58606787951069e-01 6.43994068355008e-03
5.33861538461538e-01 8.54064503863629e-01 6.42981925990465e-03
5.37830769230769e-01 8.49546249801812e-01 6.41953629448512e-03
5.41800000000000e-01 8.45051898639711e-01 6.40909521638882e-03
5.45769230769231e-01 8.40581323931883e-01 6.39849939797471e-03
5.49738461538462e-01 8.36134399885885e-01 6.38775215076950e-03
5.53707692307692e-01 8.31711001382753e-01 6.37685672127539e-03
5.57676923076923e-01 8.27311003965434e-01 6.36581629796298e-03
5.61646153846154e-01 8.22934283842832e-01 6.35463401766365e-03
5.65615384615385e-01 8.18580717863602e-01 6.34331296152430e-03
5.69584615384615e-01 8.14250183535514e-01 6.33185615086980e-03
5.73553846153846e-01 8.09942559014339e-01 6.32026655637706e-03
5.77523076923077e-01 8.05657723100457e-01 6.30854709400488e-03
5.81492307692308e-01 8.01395555242524e-01 6.29670063368198e-03
5.85461538461538e-01 7.97155935512690e-01 6.28472999531045e-03
5.89430769230769e-01 7.92938744624708e-01 6.27263794468660e-03
5.93400000000000e-01 7.88743863923399e-01 6.26042719977142e-03
5.97369230769231e-01 7.84571175388065e-01 6.24810043642027e-03
6.01338461538461e-01 7.80420561608793e-01 6.23566028445809e-03
6.05307692307692e-01 7.76291905803620e-01 6.22310932367480e-03
6.09276923076923e-01 7.72185091808390e-01 6.21045008980448e-03
6.13246153846154e-01 7.68100004079935e-01 6.19768507999058e-03
6.17215384615385e-01 7.64036527673407e-01 6.18481674893399e-03
6.21184615384615e-01 7.59994548258551e-01 6.17184750497204e-03
6.25153846153846e-01 7.55973952109936e-01 6.15877971805136e-03
6.29123076923077e-01 7.51974626103787e-01 6.14561571587701e-03
6.33092307692308e-01 7.47996457720868e-01 6.13235779147744e-03
6.37061538461538e-01 7.44039335024982e-01 6.11900819943322e-03
6.41030769230769e-01 7.40103146678238e-01 6.10556915203781e-03
6.45000000000000e-01 7.36187781931759e-01 6.09204282472018e-03
6.48969230769231e-01 7.32293130628368e-01 6.07843136099902e-03
6.52938461538462e-01 7.28419083181994e-01 6.06473686879618e-03
6.56907692307692e-01 7.24565530592158e-01 6.05096141668739e-03
6.60876923076923e-01 7.20732364435025e-01 6.03710703909329e-03
6.64846153846154e-01 7.16919476865901e-01 6.02317574102369e-03
6.68815384615385e-01 7.13126760599488e-01 6.00916949447867e-03
6.72784615384615e-01 7.09354108923653e-01 5.99509023478789e-03
6.76753846153846e-01 7.05601415690788e-01 5.98093986761657e-03
6.80723076923077e-01 7.01868575314849e-01 5.96672026537962e-03
6.84692307692308e-01 6.98155482773618e-01 5.95243327389702e-03
6.88661538461538e-01 6.94462033589938e-01 5.93808070888376e-03
6.92630769230769e-01 6.90788123844651e-01 5.92366435238403e-03
6.96600000000000e-01 6.87133650168365e-01 5.90918595751542e-03
7.00569230769231e-01 6.83498509743565e-01 5.89464725280664e-03
7.04538461538462e-01 6.79882600286589e-01 5.88004993877640e-03
7.08507692307692e-01 6.76285820059948e-01 5.86539568445692e-03
7.12476923076923e-01 6.72708067864369e-01 5.85068613195208e-03
7.16446153846154e-01 6.69149243040755e-01 5.83592290060393e-03
7.20415384615385e-01 6.65609245452890e-01 5.82110758365775e-03
7.24384615384615e-01 6.62087975499147e-01 5.80624174487707e-03
7.28353846153846e-01 6.58585334104811e-01 5.79132692475265e-03
7.32323076923077e-01 6.55101222719312e-01 5.77636463718677e-03
7.36292307692308e-01 6.51635543317991e-01 5.76135637539439e-03
7.40261538461538e-01 6.48188198385626e-01 5.74630360866309e-03
7.44230769230769e-01 6.44759090927465e-01 5.73120777906320e-03
7.48200000000000e-01 6.41348124461889e-01 5.71607030563679e-03
7.52169230769231e-01 6.37955203022059e-01 5.70089258822839e-03
7.56138461538462e-01 6.34580231140069e-01 5.68567600433054e-03
7.60107692307692e-01 6.31223113857464e-01 5.67042190588154e-03
7.64076923076923e-01 6.27883756718142e-01 5.65513162329891e-03
7.68046153846154e-01 6.24562065769885e-01 5.63980646916735e-03
7.72015384615385e-01 6.21257947549120e-01 5.62444773516932e-03
7.75984615384615e-01 6.17971309090935e-01 5.60905668896829e-03
7.79953846153846e-01 6.14702057922226e-01 5.59363457974244e-03
7.83923076923077e-01 6.11450102059101e-01 5.57818263513711e-03
7.87892307692308e-01 6.08215350008264e-01 5.56270206652808e-03
7.91861538461538e-01 6.04997710752469e-01 5.54719406604119e-03
7.95830769230769e-01 6.01797093759978e-01 5.53165980352927e-03
7.99800000000000e-01 5.98613408977997e-01 5.51610043029702e-03
8.03769230769231e-01 5.95446566833943e-01 5.50051708250789e-03
8.07738461538462e-01 5.92296478221455e-01 5.48491087828438e-03
8.11707692307692e-01 5.89163054509407e-01 5.46928291476810e-03
8.15676923076923e-01 5.86046207535555e-01 5.45363427171167e-03
8.19646153846154e-01 5.82945849607716e-01 5.43796601476538e-03
8.23615384615385e-01 5.79861893490290e-01 5.42227919265800e-03
8.27584615384615e-01 5.76794252412860e-01 5.40657483433611e-03
8.31553846153846e-01 5.73742840064047e-01 5.39085395392139e-03
8.35523076923077e-01 5.70707570589087e-01 5.37511754791318e-03
8.39492307692308e-01 5.67688358590892e-01 5.35936659990610e-03
8.43461538461538e-01 5.64685119117167e-01 5.34360207785611e-03
8.47430769230769e-01 5.61697767668540e-01 5.32782493130841e-03
8.51400000000000e-01 5.58726220192670e-01 5.31203609472554e-03
8.55369230769231e-01 5.55770393085215e-01 5.29623649053417e-03
8.59338461538461e-01 5.52830203177421e-01 5.28042702646593e-03
8.63307692307692e-01 5.49905567743888e-01 5.26460859286185e-03
8.67276923076923e-01 5.46996404496852e-01 5.24878206588822e-03
8.71246153846154e-01 5.44102631587089e-01 5.23294831047935e-03
8.75215384615385e-01 5.41224167591940e-01 5.21710817775120e-03
8.79184615384615e-01 5.38360931522728e-01 5.20126250238162e-03
8.83153846153846e-01 5.35512842819226e-01 5.18541210706767e-03
8.87123076923077e-01 5.32679821347401e-01 5.16955779996043e-03
8.91092307692308e-01 5.29861787400205e-01 5.15370037890998e-03
8.95061538461538e-01 5.27058661686129e-01 5.13784062896104e-03
8.99030769230769e-01 5.24270365336217e-01 5.12197931981310e-03
9.03000000000000e-01 5.21496819898755e-01 5.10611720880798e-03
9.06969230769231e-01 5.18737947340000e-01 5.09025504366414e-03
9.10938461538461e-01 5.15993670033131e-01 5.07439356004157e-03
9.14907692307692e-01 5.13263910764956e-01 5.05853347907362e-03
9.18876923076923e-01 5.10548592730762e-01 5.04267551025517e-03
9.22846153846154e-01 5.07847639534986e-01 5.02682035408833e-03
9.26815384615385e-01 5.05160975180542e-01 5.01096869971367e-03
9.30784615384615e-01 5.02488524075244e-01 4.99512122251149e-03
9.34753846153846e-01 4.99830211026802e-01 4.97927858812093e-03
9.38723076923077e-01 4.97185961240725e-01 4.96344145009285e-03
9.42692307692308e-01 4.94555700320897e-01 4.94761045371809e-03
9.46661538461538e-01 4.91939354259370e-01 4.93178623373411e-03
9.50630769230769e-01 4.89336849442432e-01 4.91596941200165e-03
9.54600000000000e-01 4.86748112645814e-01 4.90016060019405e-03
9.58569230769231e-01 4.84173071035216e-01 4.88436040226037e-03
9.62538461538462e-01 4.81611652156447e-01 4.86856941219519e-03
9.66507692307692e-01 4.79063783941232e-01 4.85278821178039e-03
9.70476923076923e-01 4.76529394702560e-01 4.83701737318871e-03
9.74446153846154e-01 4.74008413135161e-01 4.82125746136822e-03
9.78415384615385e-01 4.71500768305978e-01 4.80550903187355e-03
9.82384615384615e-01 4.69006389659730e-01 4.78977262867048e-03
9.86353846153846e-01 4.66525207014389e-01 4.77404878776942e-03
9.90323076923077e-01 4.64057150559213e-01 4.75833803507688e-03
9.94292307692308e-01 4.61602150855166e-01 4.74264088985923e-03
9.98261538461538e-01 4.59160138825775e-01 4.72695785829808e-03
1.00223076923077e+00 4.56731045771734e-01 4.71128944337101e-03
1.00620000000000e+00 4.54314803340745e-01 4.69563615251431e-03
1.01016923076923e+00 4.51911343526228e-01 4.67999845544127e-03
1.01413846153846e+00 4.49520598727496e-01 4.66437681696783e-03
1.01810769230769e+00 4.47142501678319e-01 4.64877171561269e-03
1.02207692307692e+00 4.44776985468324e-01 4.63318361087669e-03
1.02604615384615e+00 4.42423983541115e-01 4.61761295434980e-03
1.03001538461538e+00 4.40083429692401e-01 4.60206018982276e-03
1.03398461538462e+00 4.37755258068130e-01 4.58652575340109e-03
1.03795384615385e+00 4.35439403162628e-01 4.57101007360361e-03
1.04192307692308e+00 4.33135799816777e-01 4.55551357146860e-03
1.04589230769231e+00 4.30844383216170e-01 4.54003666066876e-03
1.04986153846154e+00 4.28565088889289e-01 4.52457974760896e-03
1.05383076923077e+00 4.26297852705687e-01 4.50914323152775e-03
1.05780000000000e+00 4.24042610874190e-01 4.49372751436490e-03
1.06176923076923e+00 4.21799299920717e-01 4.47833297143012e-03
1.06573846153846e+00 4.19567856747936e-01 4.46295997118160e-03
1.06970769230769e+00 4.17348218571743e-01 4.44760889518411e-03
1.07367692307692e+00 4.15140322940185e-01 4.43228010831517e-03
1.07764615384615e+00 4.12944107731695e-01 4.41697396886445e-03
1.08161538461538e+00 4.10759511153350e-01 4.40169082862423e-03
1.08558461538462e+00 4.08586471739131e-01 4.38643103298393e-03
1.08955384615385e+00 4.06424928348181e-01 4.37119492101068e-03
1.09352307692308e+00 4.04274820163110e-01 4.35598282553680e-03
1.09749230769231e+00 4.02136086688267e-01 4.34079507325399e-03
1.10146153846154e+00 4.00008667748041e-01 4.32563198479391e-03
1.10543076923077e+00 3.97892503485172e-01 4.31049387481190e-03
1.10940000000000e+00 3.95787534359058e-01 4.29538106097182e-03
1.11336923076923e+00 3.93693701125951e-01 4.28029383720466e-03
1.11733846153846e+00 3.91610944891962e-01 4.26523249172500e-03
1.12130769230769e+00 3.89539207056460e-01 4.25019732521439e-03
1.12527692307692e+00 3.87478429328831e-01 4.23518862365825e-03
1.12924615384615e+00 3.85428553726835e-01 4.22020666754246e-03
1.13321538461538e+00 3.83389522574976e-01 4.20525173192886e-03
1.13718461538462e+00 3.81361278502879e-01 4.19032408653291e-03
1.14115384615385e+00 3.79343764443667e-01 4.17542399579028e-03
1.14512307692308e+00 3.77336923632374e-01 4.16055171892843e-03
1.14909230769231e+00 3.75340699604336e-01 4.14570751004631e-03
1.15306153846154e+00 3.73355036193604e-01 4.13089161818051e-03
1.15703076923077e+00 3.71379877531365e-01 4.11610428737383e-03
1.16100000000000e+00 3.69415168044367e-01 4.10134576486741e-03
1.16496923076923e+00 3.67460852437183e-01 4.08661627669460e-03
1.16893846153846e+00 3.65516875739412e-01 4.07191604411111e-03
1.17290769230769e+00 3.63583183255143e-01 4.05724530018059e-03
1.17687692307692e+00 3.61659720577819e-01 4.04260426498558e-03
1.18084615384615e+00 3.59746433588713e-01 4.02799315401069e-03
1.18481538461538e+00 3.57843268455398e-01 4.01341217820552e-03
1.18878461538462e+00 3.55950171630242e-01 3.99886154405011e-03
1.19275384615385e+00 3.54067089848887e-01 3.98434145360964e-03
1.19672307692308e+00 3.52193970128767e-01 3.96985210459457e-03
1.20069230769231e+00 3.50330759767608e-01 3.95539369042584e-03
1.20466153846154e+00 3.48477406341949e-01 3.94096640029089e-03
1.20863076923077e+00 3.46633857705663e-01 3.92657041920153e-03
1.21260000000000e+00 3.44800061988494e-01 3.91220593546900e-03
1.21656923076923e+00 3.42975967580136e-01 3.89787311840943e-03
1.22053846153846e+00 3.41161523172361e-01 3.88357213334352e-03
1.22450769230769e+00 3.39356677713790e-01 3.86930315673899e-03
1.22847692307692e+00 3.37561380423121e-01 3.85506635356641e-03
1.23244615384615e+00 3.35775580787700e-01 3.84086188495053e-03
1.23641538461538e+00 3.33999228562101e-01 3.82668990822263e-03
1.24038461538462e+00 3.32232273766711e-01 3.81255057697502e-03
1.24435384615385e+00 3.30474666686319e-01 3.79844404110718e-03
1.24832307692308e+00 3.28726357868728e-01 3.78437044687571e-03
1.25229230769231e+00 3.26987298123356e-01 3.77032993694960e-03
