Energy (eV)          EEDF (eV^-(3/2))     First Anisotropy
1.55625000000000e-01 5.69963992567229e-02 7.42125145988490e-05
4.66875000000000e-01 5.45885057806174e-02 1.20362025009723e-04
7.78125000000000e-01 5.22823371690219e-02 1.53209033603463e-04
1.08937500000000e+00 5.00735959112068e-02 1.74944713058793e-04
1.40062500000000e+00 4.79581660508560e-02 1.90573982947973e-04
1.71187500000000e+00 4.59321055160473e-02 2.02099228454902e-04
2.02312500000000e+00 4.39916387732604e-02 2.10610014108237e-04
2.33437500000000e+00 4.21331497917268e-02 2.16794349136248e-04
2.64562500000000e+00 4.03531753050108e-02 2.21126890158070e-04
2.95687500000000e+00 3.86483983572639e-02 2.23954843422792e-04
3.26812500000000e+00 3.70156421221276e-02 2.25542897660816e-04
3.57937500000000e+00 3.54518639827648e-02 2.26099074749060e-04
3.89062500000000e+00 3.39541498619884e-02 2.25790692620259e-04
4.20187500000000e+00 3.25197087919229e-02 2.24754778698832e-04
4.51312500000000e+00 3.11458677130765e-02 2.23105168285747e-04
4.82437500000000e+00 2.98300664931354e-02 2.20937520657020e-04
5.13562500000000e+00 2.85698531561953e-02 2.18332971899882e-04
5.44687500000000e+00 2.73628793135408e-02 2.15360863609767e-04
5.75812500000000e+00 2.62068957874584e-02 2.12080826232171e-04
6.06937500000000e+00 2.50997484199272e-02 2.08544400009795e-04
6.38062500000000e+00 2.40393740583778e-02 2.04796317110003e-04
6.69187500000000e+00 2.30237967110383e-02 2.00875530525610e-04
7.00312500000000e+00 2.20511238647030e-02 1.96816050368270e-04
7.31437500000000e+00 2.11195429580626e-02 1.92647631346327e-04
7.62562500000000e+00 2.02273180040232e-02 1.88396343630525e-04
7.93687500000000e+00 1.93727863547201e-02 1.84085051172340e-04
8.24812500000000e+00 1.85543556031987e-02 1.79733815721774e-04
8.55937500000000e+00 1.77705006159877e-02 1.75360240565150e-04
8.87062500000000e+00 1.70197606910356e-02 1.70979764887734e-04
9.18187500000000e+00 1.63007368357147e-02 1.66605917338006e-04
9.49312500000000e+00 1.56120891598188e-02 1.62250535609254e-04
9.80437500000000e+00 1.49525343786978e-02 1.57923957506438e-04
1.01156250000000e+01 1.43208434218765e-02 1.53635187923951e-04
1.04268750000000e+01 1.37158391426995e-02 1.49392045345723e-04
1.07381250000000e+01 1.31363941247364e-02 1.45201290837369e-04
1.10493750000000e+01 1.25814285808579e-02 1.41068741989711e-04
1.13606250000000e+01 1.20499083410687e-02 1.36999373864002e-04
1.16718750000000e+01 1.15408429253474e-02 1.32997408658812e-04
1.19831250000000e+01 1.10532836979014e-02 1.29066395549802e-04
1.22943750000000e+01 1.05863220993986e-02 1.25209281933595e-04
1.26056250000000e+01 1.01390879538805e-02 1.21428477125599e-04
1.29168750000000e+01 9.71074784720217e-03 1.17725909411309e-04
1.32281250000000e+01 9.30050357397791e-03 1.14103077225334e-04
1.35393750000000e+01 8.90759065013698e-03 1.10561095127288e-04
1.38506250000000e+01 8.53127688831918e-03 1.07100735155275e-04
1.41618750000000e+01 8.17086103345463e-03 1.03722464062738e-04
1.44731250000000e+01 7.82567145598540e-03 1.00426476880780e-04
1.47843750000000e+01 7.49506490029386e-03 9.72127271936861e-05
1.50956250000000e+01 7.17842528600549e-03 9.40809544687208e-05
1.54068750000000e+01 6.87516255993229e-03 9.10307087411254e-05
1.57181250000000e+01 6.58471159651749e-03 8.80613729205619e-05
1.60293750000000e+01 6.30653114473252e-03 8.51721829551477e-05
1.63406250000000e+01 6.04010281946379e-03 8.23622460630796e-05
1.66518750000000e+01 5.78493013550983e-03 7.96305572189803e-05
1.69631250000000e+01 5.54053758238848e-03 7.69760140621054e-05
1.72743750000000e+01 5.30646973823026e-03 7.43974303760077e-05
1.75856250000000e+01 5.08229042110650e-03 7.18935482737757e-05
1.78968750000000e+01 4.86758187621083e-03 6.94630492093274e-05
1.82081250000000e+01 4.66194399737938e-03 6.71045639231675e-05
1.85193750000000e+01 4.46499358149889e-03 6.48166814203015e-05
1.88306250000000e+01 4.27636361441341e-03 6.25979570684735e-05
1.91418750000000e+01 4.09570258699901e-03 6.04469198964202e-05
1.94531250000000e+01 3.92267384013166e-03 5.83620791642553e-05
1.97643750000000e+01 3.75695493732807e-03 5.63419302713188e-05
2.00756250000000e+01 3.59823706389008e-03 5.43849600607633e-05
2.03868750000000e+01 3.44622445143310e-03 5.24896515746952e-05
2.06981250000000e+01 3.30063382672614e-03 5.06544883087875e-05
2.10093750000000e+01 3.16119388381641e-03 4.88779580108707e-05
2.13206250000000e+01 3.02764477845467e-03 4.71585560640230e-05
2.16318750000000e+01 2.89973764387943e-03 4.54947884910881e-05
2.19431250000000e+01 2.77723412705739e-03 4.38851746142971e-05
2.22543750000000e+01 2.65990594451617e-03 4.23282494007243e-05
2.25656250000000e+01 2.54753445694147e-03 4.08225655216368e-05
2.28768750000000e+01 2.43991026174595e-03 3.93666951513722e-05
2.31881250000000e+01 2.33683280285067e-03 3.79592315291745e-05
2.34993750000000e+01 2.23810999695182e-03 3.65987903054203e-05
2.38106250000000e+01 2.14355787557632e-03 3.52840106918362e-05
2.41218750000000e+01 2.05300024225941e-03 3.40135564336431e-05
2.44331250000000e+01 1.96626834420507e-03 3.27861166200521e-05
2.47443750000000e+01 1.88320055781777e-03 3.16004063481502e-05
2.50556250000000e+01 1.80364208751931e-03 3.04551672539436e-05
2.53668750000000e+01 1.72744467728955e-03 2.93491679231721e-05
2.56781250000000e+01 1.65446633439354e-03 2.82812041934520e-05
2.59893750000000e+01 1.58457106478021e-03 2.72500993583298e-05
2.63006250000000e+01 1.51762861965944e-03 2.62547042829475e-05
2.66118750000000e+01 1.45351425278543e-03 2.52938974402005e-05
2.69231250000000e+01 1.39210848799390e-03 2.43665848755279e-05
2.72343750000000e+01 1.33329689656010e-03 2.34717001077862e-05
2.75456250000000e+01 1.27696988396250e-03 2.26082039730318e-05
2.78568750000000e+01 1.22302248565512e-03 2.17750844174618e-05
2.81681250000000e+01 1.17135417146765e-03 2.09713562452282e-05
2.84793750000000e+01 1.12186865826895e-03 2.01960608263566e-05
2.87906250000000e+01 1.07447373054490e-03 1.94482657695567e-05
2.91018750000000e+01 1.02908106855616e-03 1.87270645642923e-05
2.94131250000000e+01 9.85606083755651e-04 1.80315761961068e-05
2.97243750000000e+01 9.43967761159080e-04 1.73609447388517e-05
3.00356250000000e+01 9.04088508374711e-04 1.67143389271433e-05
3.03468750000000e+01 8.65894011011105e-04 1.60909517120800e-05
3.06581250000000e+01 8.29313094193370e-04 1.54899998029825e-05
3.09693750000000e+01 7.94277589929838e-04 1.49107231976692e-05
3.12806250000000e+01 7.60722210082036e-04 1.43523847035512e-05
3.15918750000000e+01 7.28584424701213e-04 1.38142694516193e-05
3.19031250000000e+01 6.97804345504718e-04 1.32956844052023e-05
3.22143750000000e+01 6.68324614275078e-04 1.27959578651985e-05
3.25256250000000e+01 6.40090295973819e-04 1.23144389733160e-05
3.28368750000000e+01 6.13048776370841e-04 1.18504972147108e-05
3.31481250000000e+01 5.87149663998590e-04 1.14035219212672e-05
3.34593750000000e+01 5.62344696248307e-04 1.09729217766447e-05
3.37706250000000e+01 5.38587649433382e-04 1.05581243240922e-05
3.40818750000000e+01 5.15834252652203e-04 1.01585754779278e-05
3.43931250000000e+01 4.94042105289993e-04 9.77373903948069e-06
3.47043750000000e+01 4.73170598005899e-04 9.40309621820284e-06
3.50156250000000e+01 4.53180837058089e-04 9.04614515857487e-06
3.53268750000000e+01 4.34035571825852e-04 8.70240047335394e-06
3.56381250000000e+01 4.15699125393615e-04 8.37139278364279e-06
3.59493750000000e+01 3.98137328067551e-04 8.05266826619398e-06
3.62606250000000e+01 3.81317453700863e-04 7.74578820830635e-06
3.65718750000000e+01 3.65208158709096e-04 7.45032857061690e-06
3.68831250000000e+01 3.49779423661841e-04 7.16587955804213e-06
3.71943750000000e+01 3.35002497341969e-04 6.89204519907915e-06
3.75056250000000e+01 3.20849843168174e-04 6.62844293363660e-06
3.78168750000000e+01 3.07295087880961e-04 6.37470320952776e-06
3.81281250000000e+01 2.94312972396474e-04 6.13046908772523e-06
3.84393750000000e+01 2.81879304736567e-04 5.89539585644656e-06
3.87506250000000e+01 2.69970914947419e-04 5.66915065411202e-06
3.90618750000000e+01 2.58565611922667e-04 5.45141210119160e-06
3.93731250000000e+01 2.47642142050615e-04 5.24186994093514e-06
3.96843750000000e+01 2.37180149608444e-04 5.04022468895973e-06
3.99956250000000e+01 2.27160138829627e-04 4.84618729165036e-06
4.03068750000000e+01 2.17563437573859e-04 4.65947879331336e-06
4.06181250000000e+01 2.08372162531806e-04 4.47983001200793e-06
4.09293750000000e+01 1.99569185899819e-04 4.30698122396769e-06
4.12406250000000e+01 1.91138103462536e-04 4.14068185651349e-06
4.15518750000000e+01 1.83063204023864e-04 3.98069018934800e-06
4.18631250000000e+01 1.75329440129406e-04 3.82677306411376e-06
4.21743750000000e+01 1.67922400025751e-04 3.67870560208937e-06
4.24856250000000e+01 1.60828280804389e-04 3.53627092989091e-06
4.27968750000000e+01 1.54033862680195e-04 3.39925991304094e-06
4.31081250000000e+01 1.47526484356560e-04 3.26747089726185e-06
4.34193750000000e+01 1.41294019431253e-04 3.14070945734647e-06
4.37306250000000e+01 1.35324853799050e-04 3.01878815345613e-06
4.40418750000000e+01 1.29607864009023e-04 2.90152629469302e-06
4.43531250000000e+01 1.24132396536160e-04 2.78874970979203e-06
4.46643750000000e+01 1.18888247928673e-04 2.68029052477593e-06
4.49756250000000e+01 1.13865645794022e-04 2.57598694741642e-06
4.52868750000000e+01 1.09055230588211e-04 2.47568305834341e-06
4.55981250000000e+01 1.04448038174410e-04 2.37922860864466e-06
4.59093750000000e+01 1.00035483118425e-04 2.28647882379824e-06
4.62206250000000e+01 9.58093426898705e-05 2.19729421378083e-06
4.65318750000000e+01 9.17617415392313e-05 2.11154038919591e-06
4.68431250000000e+01 8.78851370222679e-05 2.02908788326691e-06
4.71543750000000e+01 8.41723051444116e-05 1.94981197954203e-06
4.74656250000000e+01 8.06163270989586e-05 1.87359254515883e-06
4.77768750000000e+01 7.72105763739769e-05 1.80031386951878e-06
4.80881250000000e+01 7.39487064039008e-05 1.72986450822384e-06
4.83993750000000e+01 7.08246387428004e-05 1.66213713212927e-06
4.87106250000000e+01 6.78325517372889e-05 1.59702838136903e-06
4.90218750000000e+01 6.49668696779580e-05 1.53443872421289e-06
4.93331250000000e+01 6.22222524091274e-05 1.47427232061638e-06
4.96443750000000e+01 5.95935853775439e-05 1.41643689032749e-06
4.99556250000000e+01 5.70759701014884e-05 1.36084358541684e-06
5.02668750000000e+01 5.46647150425278e-05 1.30740686710020e-06
5.05781250000000e+01 5.23553268629041e-05 1.25604438672557e-06
5.08893750000000e+01 5.01435020522660e-05 1.20667687079917e-06
5.12006250000000e+01 4.80251189081419e-05 1.15922800992799e-06
5.15118750000000e+01 4.59962298552089e-05 1.11362435155892e-06
5.18231250000000e+01 4.40530540890454e-05 1.06979519639758e-06
5.21343750000000e+01 4.21919705306583e-05 1.02767249839248e-06
5.24456250000000e+01 4.04095110786566e-05 9.87190768173139e-07
5.27568750000000e+01 3.87023541464963e-05 9.48286979833509e-07
5.30681250000000e+01 3.70673184727533e-05 9.10900480954656e-07
5.33793750000000e+01 3.55013571928906e-05 8.74972905763556e-07
5.36906250000000e+01 3.40015521614718e-05 8.40448091327501e-07
5.40018750000000e+01 3.25651085142403e-05 8.07271996686293e-07
5.43131250000000e+01 3.11893494599319e-05 7.75392624826945e-07
5.46243750000000e+01 2.98717112921141e-05 7.44759947408376e-07
5.49356250000000e+01 2.86097386117577e-05 7.15325832146061e-07
5.52468750000000e+01 2.74010797516372e-05 6.87043972769073e-07
5.55581250000000e+01 2.62434823940341e-05 6.59869821464556e-07
5.58693750000000e+01 2.51347893735767e-05 6.33760523726995e-07
5.61806250000000e+01 2.40729346573944e-05 6.08674855532130e-07
5.64918750000000e+01 2.30559394950966e-05 5.84573162757619e-07
5.68031250000000e+01 2.20819087314007e-05 5.61417302774940e-07
5.71143750000000e+01 2.11490272745386e-05 5.39170588139218e-07
5.74256250000000e+01 2.02555567138605e-05 5.17797732305883e-07
5.77368750000000e+01 1.93998320803324e-05 4.97264797305234e-07
5.80481250000000e+01 1.85802587438914e-05 4.77539143308065e-07
5.83593750000000e+01 1.77953094418762e-05 4.58589380017566e-07
5.86706250000000e+01 1.70435214329962e-05 4.40385319824766e-07
5.89818750000000e+01 1.63234937715349e-05 4.22897932666668e-07
5.92931250000000e+01 1.56338846967082e-05 4.06099302528197e-07
5.96043750000000e+01 1.49734091323137e-05 3.89962585530940e-07
5.99156250000000e+01 1.43408362920102e-05 3.74461969553417e-07
6.02268750000000e+01 1.37349873857656e-05 3.59572635329455e-07
6.05381250000000e+01 1.31547334231996e-05 3.45270718972926e-07
6.08493750000000e+01 1.25989931097268e-05 3.31533275878785e-07
6.11606250000000e+01 1.20667308315803e-05 3.18338245951950e-07
6.14718750000000e+01 1.15569547259614e-05 3.05664420117214e-07
6.17831250000000e+01 1.10687148327173e-05 2.93491408064849e-07
6.20943750000000e+01 1.06011013241055e-05 2.81799607188082e-07
6.24056250000000e+01 1.01532428093426e-05 2.70570172670094e-07
6.27168750000000e+01 9.72430471078116e-06 2.59784988679567e-07
6.30281250000000e+01 9.31348770868639e-06 2.49426640635210e-07
6.33393750000000e+01 8.92002625171588e-06 2.39478388500989e-07
6.36506250000000e+01 8.54318713032617e-06 2.29924141075102e-07
6.39618750000000e+01 8.18226811044764e-06 2.20748431236990e-07
6.42731250000000e+01 7.83659662488188e-06 2.11936392117860e-07
6.45843750000000e+01 7.50552851998274e-06 2.03473734161390e-07
6.48956250000000e+01 7.18844685528566e-06 1.95346723042456e-07
6.52068750000000e+01 6.88476075384829e-06 1.87542158412751e-07
6.55181250000000e+01 6.59390430116021e-06 1.80047353443315e-07
6.58293750000000e+01 6.31533549056965e-06 1.72850115134986e-07
6.61406250000000e+01 6.04853521326219e-06 1.65938725368787e-07
6.64518750000000e+01 5.79300629090929e-06 1.59301922669258e-07
6.67631250000000e+01 5.54827254918387e-06 1.52928884654670e-07
6.70743750000000e+01 5.31387793041659e-06 1.46809211148959e-07
6.73856250000000e+01 5.08938564373916e-06 1.40932907931122e-07
6.76968750000000e+01 4.87437735113115e-06 1.35290371098640e-07
6.80081250000000e+01 4.66845238785328e-06 1.29872372022365e-07
6.83193750000000e+01 4.47122701581473e-06 1.24670042871033e-07
6.86306250000000e+01 4.28233370848288e-06 1.19674862684422e-07
6.89418750000000e+01 4.10142046600315e-06 1.14878643974853e-07
6.92531250000000e+01 3.92815015925252e-06 1.10273519837483e-07
6.95643750000000e+01 3.76219990160448e-06 1.05851931550529e-07
6.98756250000000e+01 3.60326044723456e-06 1.01606616647248e-07
7.01868750000000e+01 3.45103561484542e-06 9.75305974421316e-08
7.04981250000000e+01 3.30524173573741e-06 9.36171699944039e-08
7.08093750000000e+01 3.16560712519618e-06 8.98598934925405e-08
7.11206250000000e+01 3.03187157621229e-06 8.62525800440929e-08
7.14318750000000e+01 2.90378587458932e-06 8.27892848556720e-08
7.17431250000000e+01 2.78111133453698e-06 7.94642967885042e-08
7.20543750000000e+01 2.66361935388364e-06 7.62721292754893e-08
7.23656250000000e+01 2.55109098807966e-06 7.32075115862048e-08
7.26768750000000e+01 2.44331654219749e-06 7.02653804268016e-08
7.29881250000000e+01 2.34009518016825e-06 6.74408718622014e-08
7.32993750000000e+01 2.24123455052680e-06 6.47293135484658e-08
7.36106250000000e+01 2.14655042796760e-06 6.21262172636612e-08
7.39218750000000e+01 2.05586637004362e-06 5.96272717259643e-08
7.42331250000000e+01 1.96901338836850e-06 5.72283356881602e-08
7.45443750000000e+01 1.88582963370918e-06 5.49254312980957e-08
7.48556250000000e+01 1.80616009438233e-06 5.27147377150248e-08
7.51668750000000e+01 1.72985630739233e-06 5.05925849721613e-08
7.54781250000000e+01 1.65677608177272e-06 4.85554480761052e-08
7.57893750000000e+01 1.58678323361551e-06 4.65999413341581e-08
7.61006250000000e+01 1.51974733229441e-06 4.47228129008736e-08
7.64118750000000e+01 1.45554345740940e-06 4.29209395355108e-08
7.67231250000000e+01 1.39405196599936e-06 4.11913215623691e-08
7.70343750000000e+01 1.33515826958925e-06 3.95310780262756e-08
7.73456250000000e+01 1.27875262065616e-06 3.79374420357913e-08
7.76568750000000e+01 1.22472990811648e-06 3.64077562869737e-08
7.79681250000000e+01 1.17298946145293e-06 3.49394687608047e-08
7.82793750000000e+01 1.12343486311660e-06 3.35301285876467e-08
7.85906250000000e+01 1.07597376885424e-06 3.21773820723390e-08
7.89018750000000e+01 1.03051773562615e-06 3.08789688737880e-08
7.92131250000000e+01 9.86982056793905e-07 2.96327183331334e-08
7.95243750000000e+01 9.45285604270788e-07 2.84365459447944e-08
7.98356250000000e+01 9.05350677340810e-07 2.72884499649133e-08
8.01468750000000e+01 8.67102857864599e-07 2.61865081519235e-08
8.04581250000000e+01 8.30470871602299e-07 2.51288746341649e-08
8.07693750000000e+01 7.95386455395097e-07 2.41137768996593e-08
8.10806250000000e+01 7.61784229957844e-07 2.31395129033487e-08
8.13918750000000e+01 7.29601578045733e-07 2.22044482872703e-08
8.17031250000000e+01 6.98778527768002e-07 2.13070137093182e-08
8.20143750000000e+01 6.69257640831212e-07 2.04457022764022e-08
8.23256250000000e+01 6.40983905503844e-07 1.96190670779779e-08
8.26368750000000e+01 6.13904634102758e-07 1.88257188160700e-08
8.29481250000000e+01 5.87969364810488e-07 1.80643235280610e-08
8.32593750000000e+01 5.63129767640397e-07 1.73336003986583e-08
8.35706250000000e+01 5.39339554374468e-07 1.66323196575895e-08
8.38818750000000e+01 5.16554392305903e-07 1.59593005597058e-08
8.41931250000000e+01 4.94731821625787e-07 1.53134094443019e-08
8.45043750000000e+01 4.73831176299868e-07 1.46935578705806e-08
8.48156250000000e+01 4.53813508288010e-07 1.40987008263095e-08
8.51268750000000e+01 4.34641514965104e-07 1.35278350068270e-08
8.54381250000000e+01 4.16279469608182e-07 1.29799971616680e-08
8.57493750000000e+01 3.98693154820201e-07 1.24542625061793e-08
8.60606250000000e+01 3.81849798766441e-07 1.19497431955988e-08
8.63718750000000e+01 3.65718014104674e-07 1.14655868591687e-08
8.66831250000000e+01 3.50267739495327e-07 1.10009751919440e-08
8.69943750000000e+01 3.35470183582619e-07 1.05551226020516e-08
8.73056250000000e+01 3.21297771342308e-07 1.01272749112365e-08
8.76168750000000e+01 3.07724092696035e-07 9.71670810661942e-09
8.79281250000000e+01 2.94723853296547e-07 9.32272714166590e-09
8.82393750000000e+01 2.82272827392055e-07 8.94466478444802e-09
8.85506250000000e+01 2.70347812681908e-07 8.58188051134974e-09
8.88618750000000e+01 2.58926587079451e-07 8.23375944444180e-09
8.91731250000000e+01 2.47987867301504e-07 7.89971133081809e-09
8.94843750000000e+01 2.37511269207274e-07 7.57916956225179e-09
8.97956250000000e+01 2.27477269812820e-07 7.27159023359418e-09
9.01068750000000e+01 2.17867170910264e-07 6.97645123839910e-09
9.04181250000000e+01 2.08663064223953e-07 6.69325140031428e-09
9.07293750000000e+01 1.99847798038664e-07 6.42150963883796e-09
9.10406250000000e+01 1.91404945237634e-07 6.16076416809372e-09
9.13518750000000e+01 1.83318772690875e-07 5.91057172732788e-09
9.16631250000000e+01 1.75574211936720e-07 5.67050684188466e-09
9.19743750000000e+01 1.68156831101973e-07 5.44016111346192e-09
9.22856250000000e+01 1.61052808008324e-07 5.21914253849795e-09
9.25968750000000e+01 1.54248904414932e-07 5.00707485358317e-09
9.29081250000000e+01 1.47732441349157e-07 4.80359690683451e-09
9.32193750000000e+01 1.41491275479487e-07 4.60836205421106e-09
9.35306250000000e+01 1.35513776486618e-07 4.42103757978962e-09
9.38418750000000e+01 1.29788805390530e-07 4.24130413905689e-09
9.41531250000000e+01 1.24305693793165e-07 4.06885522431148e-09
9.44643750000000e+01 1.19054223998023e-07 3.90339665130500e-09
9.47756250000000e+01 1.14024609969643e-07 3.74464606628484e-09
9.50868750000000e+01 1.09207479097467e-07 3.59233247263384e-09
9.53981250000000e+01 1.04593854730122e-07 3.44619577633444e-09
9.57093750000000e+01 1.00175139447566e-07 3.30598634951362e-09
9.60206250000000e+01 9.59430990399211e-08 3.17146461135528e-09
9.63318750000000e+01 9.18898471631506e-08 3.04240062569397e-09
9.66431250000000e+01 8.80078306429712e-08 2.91857371463075e-09
9.69543750000000e+01 8.42898153996269e-08 2.79977208753814e-09
9.72656250000000e+01 8.07288729672899e-08 2.68579248484530e-09
9.75768750000000e+01 7.73183675829675e-08 2.57643983601900e-09
9.78881250000000e+01 7.40519438208573e-08 2.47152693117876e-09
9.81993750000000e+01 7.09235147491061e-08 2.37087410580613e-09
