Energy (eV)          EEDF (eV^-(3/2))     First Anisotropy
1.70454545454545e-02 6.74764316542606e-02 3.11344636195559e-05
5.11363636363636e-02 6.71249639927618e-02 5.14509210719509e-05
8.52272727272727e-02 6.67753270369616e-02 6.80246337914022e-05
1.19318181818182e-01 6.64275112523974e-02 8.06790605719974e-05
1.53409090909091e-01 6.60815071522511e-02 9.12854986405130e-05
1.87500000000000e-01 6.57373052999254e-02 1.00549753157359e-04
2.21590909090909e-01 6.53948963062961e-02 1.08836243109704e-04
2.55681818181818e-01 6.50542708347684e-02 1.16364539122295e-04
2.89772727272727e-01 6.47154195953490e-02 1.23279943073379e-04
3.23863636363636e-01 6.43783333464622e-02 1.29684925632951e-04
3.57954545454545e-01 6.40430028946852e-02 1.35655174666556e-04
3.92045454545455e-01 6.37094190944915e-02 1.41248604376010e-04
4.26136363636364e-01 6.33775728479884e-02 1.46510782279507e-04
4.60227272727273e-01 6.30474551046878e-02 1.51478381787405e-04
4.94318181818182e-01 6.27190568612458e-02 1.56181476666956e-04
5.28409090909091e-01 6.23923691612159e-02 1.60645121364570e-04
5.62500000000000e-01 6.20673830948047e-02 1.64890472534128e-04
5.96590909090909e-01 6.17440897980756e-02 1.68935605085224e-04
6.30681818181818e-01 6.14224804544063e-02 1.72796119555558e-04
6.64772727272727e-01 6.11025462925036e-02 1.76485602624325e-04
6.98863636363636e-01 6.07842785867631e-02 1.80015981785897e-04
7.32954545454545e-01 6.04676686570308e-02 1.83397803076982e-04
7.67045454545454e-01 6.01527078683661e-02 1.86640451175996e-04
8.01136363636364e-01 5.98393876308041e-02 1.89752325952269e-04
8.35227272727273e-01 5.95276993991258e-02 1.92740985603146e-04
8.69318181818182e-01 5.92176346726229e-02 1.95613263832007e-04
9.03409090909091e-01 5.89091849948650e-02 1.98375366624545e-04
9.37500000000000e-01 5.86023419534696e-02 2.01032952877908e-04
9.71590909090909e-01 5.82970971795553e-02 2.03591201832642e-04
1.00568181818182e+00 5.79934423484805e-02 2.06054870119280e-04
1.03977272727273e+00 5.76913691794953e-02 2.08428340877611e-04
1.07386363636364e+00 5.73908694329482e-02 2.10715664683876e-04
1.10795454545455e+00 5.70919349132994e-02 2.12920594975001e-04
1.14204545454545e+00 5.67945574676957e-02 2.15046619421078e-04
1.17613636363636e+00 5.64987289857385e-02 2.17096986477721e-04
1.21022727272727e+00 5.62044413992842e-02 2.19074728724733e-04
1.24431818181818e+00 5.59116866822127e-02 2.20982683311018e-04
1.27840909090909e+00 5.56204568502087e-02 2.22823509927054e-04
1.31250000000000e+00 5.53307439605440e-02 2.24599706251586e-04
1.34659090909091e+00 5.50425401140195e-02 2.26313623267079e-04
1.38068181818182e+00 5.47558374482055e-02 2.27967476899555e-04
1.41477272727273e+00 5.44706281438437e-02 2.29563358303452e-04
1.44886363636364e+00 5.41869044224036e-02 2.31103245102954e-04
1.48295454545455e+00 5.39046585458700e-02 2.32589009889878e-04
1.51704545454545e+00 5.36238828165326e-02 2.34022428254008e-04
1.55113636363636e+00 5.33445695767702e-02 2.35405186019584e-04
1.58522727272727e+00 5.30667112088536e-02 2.36738885787847e-04
1.61931818181818e+00 5.27903001347321e-02 2.38025052866342e-04
1.65340909090909e+00 5.25153288158262e-02 2.39265140649214e-04
1.68750000000000e+00 5.22417897528228e-02 2.40460535165470e-04
1.72159090909091e+00 5.19696754870587e-02 2.41612560595810e-04
1.75568181818182e+00 5.16989785955083e-02 2.42722482645976e-04
1.78977272727273e+00 5.14296916954354e-02 2.43791511572779e-04
1.82386363636364e+00 5.11618074425579e-02 2.44820806677546e-04
1.85795454545455e+00 5.08953185308480e-02 2.45811479093205e-04
1.89204545454545e+00 5.06302176923327e-02 2.46764594679662e-04
1.92613636363636e+00 5.03664976968925e-02 2.47681176690135e-04
1.96022727272727e+00 5.01041513520708e-02 2.48562208234058e-04
1.99431818181818e+00 4.98431715028745e-02 2.49408634555645e-04
2.02840909090909e+00 4.95835510315789e-02 2.50221365141276e-04
2.06250000000000e+00 4.93252828575333e-02 2.51001275376251e-04
2.09659090909091e+00 4.90683599381970e-02 2.51749209258058e-04
2.13068181818182e+00 4.88127752652305e-02 2.52465980481015e-04
2.16477272727273e+00 4.85585218680520e-02 2.53152373401585e-04
2.19886363636364e+00 4.83055928123872e-02 2.53809145414887e-04
2.23295454545455e+00 4.80539812000808e-02 2.54437028014283e-04
2.26704545454545e+00 4.78036801689077e-02 2.55036728067668e-04
2.30113636363636e+00 4.75546828923842e-02 2.55608929009406e-04
2.33522727272727e+00 4.73069825795860e-02 2.56154291957171e-04
2.36931818181818e+00 4.70605724749612e-02 2.56673456760001e-04
2.40340909090909e+00 4.68154458581454e-02 2.57167042979742e-04
2.43750000000000e+00 4.65715960437786e-02 2.57635650554338e-04
2.47159090909091e+00 4.63290163823063e-02 2.58079861445175e-04
2.50568181818182e+00 4.60877002568267e-02 2.58500239929632e-04
2.53977272727273e+00 4.58476410859040e-02 2.58897332843380e-04
2.57386363636364e+00 4.56088323223833e-02 2.59271671096991e-04
2.60795454545455e+00 4.53712674532119e-02 2.59623770093154e-04
2.64204545454545e+00 4.51349399992618e-02 2.59954130371876e-04
2.67613636363636e+00 4.48998435151516e-02 2.60263238218783e-04
2.71022727272727e+00 4.46659715890737e-02 2.60551566241225e-04
2.74431818181818e+00 4.44333178426178e-02 2.60819573914347e-04
2.77840909090909e+00 4.42018759305972e-02 2.61067708096995e-04
2.81250000000000e+00 4.39716395408754e-02 2.61296403293562e-04
2.84659090909091e+00 4.37426023949992e-02 2.61506082804184e-04
2.88068181818182e+00 4.35147582455956e-02 2.61697158705769e-04
2.91477272727273e+00 4.32881008786505e-02 2.61870031808137e-04
2.94886363636364e+00 4.30626241125167e-02 2.62025092748436e-04
2.98295454545455e+00 4.28383217977456e-02 2.62162722135881e-04
3.01704545454545e+00 4.26151878169196e-02 2.62283290912007e-04
3.05113636363636e+00 4.23932160844836e-02 2.62387160692695e-04
3.08522727272727e+00 4.21724005465820e-02 2.62474684094657e-04
3.11931818181818e+00 4.19527351808923e-02 2.62546205047473e-04
3.15340909090909e+00 4.17342139964601e-02 2.62602059090121e-04
3.18750000000000e+00 4.15168310335369e-02 2.62642573452491e-04
3.22159090909091e+00 4.13005803640876e-02 2.62668067934596e-04
3.25568181818182e+00 4.10854560896031e-02 2.62678854757713e-04
3.28977272727273e+00 4.08714523429791e-02 2.62675238401461e-04
3.32386363636364e+00 4.06585632876713e-02 2.62657516458110e-04
3.35795454545455e+00 4.04467831175364e-02 2.62625979651956e-04
3.39204545454545e+00 4.02361060566739e-02 2.62580912056213e-04
3.42613636363636e+00 4.00265263592676e-02 2.62522591300042e-04
3.46022727272727e+00 3.98180383094304e-02 2.62451288767414e-04
3.49431818181818e+00 3.96106362210480e-02 2.62367269788361e-04
3.52840909090909e+00 3.94043144376235e-02 2.62270793821641e-04
3.56250000000000e+00 3.91990673321233e-02 2.62162114449989e-04
3.59659090909091e+00 3.89948893073904e-02 2.62041480092145e-04
3.63068181818182e+00 3.87917747942803e-02 2.61909133800939e-04
3.66477272727273e+00 3.85897182532318e-02 2.61765313052572e-04
3.69886363636364e+00 3.83887141735373e-02 2.61610250447893e-04
3.73295454545454e+00 3.81887570731934e-02 2.61444173671467e-04
3.76704545454545e+00 3.79898414987510e-02 2.61267305630159e-04
3.80113636363636e+00 3.77919620251658e-02 2.61079864585895e-04
3.83522727272727e+00 3.75951132556519e-02 2.60882064283939e-04
3.86931818181818e+00 3.73992898215339e-02 2.60674114076838e-04
3.90340909090909e+00 3.72044863821004e-02 2.60456219043216e-04
3.93750000000000e+00 3.70106976244582e-02 2.60228579940508e-04
3.97159090909091e+00 3.68179182638725e-02 2.59991393803732e-04
4.00568181818182e+00 3.66261430421599e-02 2.59744853725568e-04
4.03977272727273e+00 3.64353667290161e-02 2.59489148630224e-04
4.07386363636364e+00 3.62455841213804e-02 2.59224463868359e-04
4.10795454545454e+00 3.60567900432933e-02 2.58950981147108e-04
4.14204545454545e+00 3.58689793457556e-02 2.58668878622981e-04
4.17613636363636e+00 3.56821469065874e-02 2.58378330991090e-04
4.21022727272727e+00 3.54962876302895e-02 2.58079509571673e-04
4.24431818181818e+00 3.53113964479037e-02 2.57772582394192e-04
4.27840909090909e+00 3.51274683168747e-02 2.57457714278094e-04
4.31250000000000e+00 3.49444982209127e-02 2.57135066764924e-04
4.34659090909091e+00 3.47624811702743e-02 2.56804798634510e-04
4.38068181818182e+00 3.45814122003655e-02 2.56467065683685e-04
4.41477272727273e+00 3.44012863728747e-02 2.56122020500336e-04
4.44886363636364e+00 3.42220987752125e-02 2.55769812979184e-04
4.48295454545454e+00 3.40438445203782e-02 2.55410590238810e-04
4.51704545454545e+00 3.38665187468259e-02 2.55044496686352e-04
4.55113636363636e+00 3.36901166183321e-02 2.54671674079724e-04
4.58522727272727e+00 3.35146333238643e-02 2.54292261588397e-04
4.61931818181818e+00 3.33400640774492e-02 2.53906395852521e-04
4.65340909090909e+00 3.31664041180428e-02 2.53514211039829e-04
4.68750000000000e+00 3.29936487093998e-02 2.53115838768717e-04
4.72159090909091e+00 3.28217931403080e-02 2.52711408560797e-04
4.75568181818182e+00 3.26508327233645e-02 2.52301047626249e-04
4.78977272727273e+00 3.24807627959490e-02 2.51884880645634e-04
4.82386363636364e+00 3.23115787197275e-02 2.51463030223900e-04
4.85795454545454e+00 3.21432758805262e-02 2.51035616802629e-04
4.89204545454545e+00 3.19758496882052e-02 2.50602758706661e-04
4.92613636363636e+00 3.18092955765329e-02 2.50164572188984e-04
4.96022727272727e+00 3.16436090030627e-02 2.49721171474621e-04
4.99431818181818e+00 3.14787854490083e-02 2.49272668803568e-04
5.02840909090909e+00 3.13148204191205e-02 2.48819174472200e-04
5.06250000000000e+00 3.11517094415650e-02 2.48360796753373e-04
5.09659090909091e+00 3.09894480681173e-02 2.47897642298026e-04
5.13068181818182e+00 3.08280318730843e-02 2.47429815931053e-04
5.16477272727273e+00 3.06674564541461e-02 2.46957420444198e-04
5.19886363636364e+00 3.05077174319134e-02 2.46480557000011e-04
5.23295454545454e+00 3.03488104498081e-02 2.45999325043977e-04
5.26704545454545e+00 3.01907311739442e-02 2.45513822339022e-04
5.30113636363636e+00 3.00334752930097e-02 2.45024144998727e-04
5.33522727272727e+00 2.98770385181494e-02 2.44530387519980e-04
5.36931818181818e+00 2.97214165828475e-02 2.44032642814932e-04
5.40340909090909e+00 2.95666052428115e-02 2.43531002241824e-04
5.43750000000000e+00 2.94126002758564e-02 2.43025555525680e-04
5.47159090909091e+00 2.92593974820685e-02 2.42516391117815e-04
5.50568181818182e+00 2.91069926828492e-02 2.42003596003692e-04
5.53977272727273e+00 2.89553817216472e-02 2.41487255508351e-04
5.57386363636364e+00 2.88045604635616e-02 2.40967453658769e-04
5.60795454545454e+00 2.86545247952294e-02 2.40444273098270e-04
5.64204545454545e+00 2.85052706247127e-02 2.39917795112643e-04
5.67613636363636e+00 2.83567938813876e-02 2.39388099655361e-04
5.71022727272727e+00 2.82090905158328e-02 2.38855265372346e-04
5.74431818181818e+00 2.80621564997199e-02 2.38319369626306e-04
5.77840909090909e+00 2.79159878257026e-02 2.37780488520245e-04
5.81250000000000e+00 2.77705805073082e-02 2.37238696820507e-04
5.84659090909091e+00 2.76259305790750e-02 2.36694068280753e-04
5.88068181818182e+00 2.74820340957004e-02 2.36146675462313e-04
5.91477272727273e+00 2.73388871326815e-02 2.35596589552399e-04
5.94886363636364e+00 2.71964857859567e-02 2.35043880691059e-04
5.98295454545454e+00 2.70548261717998e-02 2.34488617889286e-04
6.01704545454545e+00 2.69139044267142e-02 2.33930869049146e-04
6.05113636363636e+00 2.67737167073266e-02 2.33370700983265e-04
6.08522727272727e+00 2.66342591902835e-02 2.32808179434028e-04
6.11931818181818e+00 2.64955280721459e-02 2.32243369092450e-04
6.15340909090909e+00 2.63575195692862e-02 2.31676333616446e-04
6.18750000000000e+00 2.62202299177846e-02 2.31107135557240e-04
6.22159090909091e+00 2.60836553735455e-02 2.30535836652792e-04
6.25568181818182e+00 2.59477922115354e-02 2.29962497660456e-04
6.28977272727273e+00 2.58126367263449e-02 2.29387178187747e-04
6.32386363636364e+00 2.56781852318648e-02 2.28809936988738e-04
6.35795454545454e+00 2.55444340611858e-02 2.28230831886405e-04
6.39204545454545e+00 2.54113795664991e-02 2.27649919788517e-04
6.42613636363636e+00 2.52790181189958e-02 2.27067256702925e-04
6.46022727272727e+00 2.51473461087688e-02 2.26482897752632e-04
6.49431818181818e+00 2.50163599447142e-02 2.25896897190738e-04
6.52840909090909e+00 2.48860560544331e-02 2.25309308414857e-04
6.56250000000000e+00 2.47564308841345e-02 2.24720183897312e-04
6.59659090909091e+00 2.46274808987329e-02 2.24129575452042e-04
6.63068181818182e+00 2.44992025811645e-02 2.23537534079033e-04
6.66477272727273e+00 2.43715924328819e-02 2.22944109807048e-04
6.69886363636364e+00 2.42446469735608e-02 2.22349351963423e-04
6.73295454545454e+00 2.41183627410049e-02 2.21753309100913e-04
6.76704545454545e+00 2.39927362910514e-02 2.21156029010329e-04
6.80113636363636e+00 2.38677641974776e-02 2.20557558732732e-04
6.83522727272727e+00 2.37434430519069e-02 2.19957944571535e-04
6.86931818181818e+00 2.36197694637161e-02 2.19357232104393e-04
6.90340909090909e+00 2.34967400599431e-02 2.18755466194744e-04
6.93750000000000e+00 2.33743514851945e-02 2.18152690926128e-04
6.97159090909091e+00 2.32526004017282e-02 2.17548949845551e-04
7.00568181818182e+00 2.31314834888383e-02 2.16944285819187e-04
7.03977272727273e+00 2.30109974432908e-02 2.16338740886440e-04
7.07386363636364e+00 2.28911389790579e-02 2.15732356506101e-04
7.10795454545454e+00 2.27719048272273e-02 2.15125173487828e-04
7.14204545454545e+00 2.26532917359142e-02 2.14517232002342e-04
7.17613636363636e+00 2.25352964701715e-02 2.13908571591260e-04
7.21022727272727e+00 2.24179158119025e-02 2.13299231176874e-04
7.24431818181818e+00 2.23011465597726e-02 2.12689249071826e-04
7.27840909090909e+00 2.21849855291223e-02 2.12078662988424e-04
7.31250000000000e+00 2.20694295518799e-02 2.11467509976978e-04
7.34659090909091e+00 2.19544754766315e-02 2.10855826648487e-04
7.38068181818182e+00 2.18401201680648e-02 2.10243649040709e-04
7.41477272727273e+00 2.17263605073560e-02 2.09631012482821e-04
7.44886363636364e+00 2.16131933919263e-02 2.09017951820715e-04
7.48295454545454e+00 2.15006157353575e-02 2.08404501352897e-04
7.51704545454545e+00 2.13886244673079e-02 2.07790694838827e-04
7.55113636363636e+00 2.12772165334281e-02 2.07176565506921e-04
7.58522727272727e+00 2.11663888952783e-02 2.06562146062527e-04
7.61931818181818e+00 2.10561385302451e-02 2.05947468695874e-04
7.65340909090909e+00 2.09464624314591e-02 2.05332565089740e-04
7.68750000000000e+00 2.08373576077129e-02 2.04717466361688e-04
7.72159090909091e+00 2.07288210835198e-02 2.04102203268231e-04
7.75568181818182e+00 2.06208498986099e-02 2.03486806080620e-04
7.78977272727273e+00 2.05134411082743e-02 2.02871304459347e-04
7.82386363636364e+00 2.04065917831422e-02 2.02255727660790e-04
7.85795454545454e+00 2.03002990091011e-02 2.01640104477333e-04
7.89204545454545e+00 2.01945598872173e-02 2.01024463244263e-04
7.92613636363636e+00 2.00893715336571e-02 2.00408831846341e-04
7.96022727272727e+00 1.99847310796078e-02 1.99793237724439e-04
7.99431818181818e+00 1.98806356711996e-02 1.99177707882095e-04
8.02840909090909e+00 1.97770824694279e-02 1.98562268891785e-04
8.06250000000000e+00 1.96740686500758e-02 1.97946946841032e-04
8.09659090909091e+00 1.95715914037630e-02 1.97331767519904e-04
8.13068181818182e+00 1.94696479354892e-02 1.96716756305826e-04
8.16477272727273e+00 1.93682354649399e-02 1.96101938047217e-04
8.19886363636363e+00 1.92673512262825e-02 1.95487337253349e-04
8.23295454545454e+00 1.91669924680910e-02 1.94872978038525e-04
8.26704545454545e+00 1.90671564532707e-02 1.94258884127767e-04
8.30113636363636e+00 1.89678404589839e-02 1.93645078862354e-04
8.33522727272727e+00 1.88690417765752e-02 1.93031585205264e-04
8.36931818181818e+00 1.87707577114983e-02 1.92418425746681e-04
8.40340909090909e+00 1.86729855832417e-02 1.91805622709262e-04
8.43750000000000e+00 1.85757227252564e-02 1.91193197897766e-04
8.47159090909091e+00 1.84789664849961e-02 1.90581172871594e-04
8.50568181818182e+00 1.83827142235029e-02 1.89969568837959e-04
8.53977272727273e+00 1.82869633156791e-02 1.89358406543946e-04
8.57386363636363e+00 1.81917111501003e-02 1.88747706451240e-04
8.60795454545454e+00 1.80969551289446e-02 1.88137488684108e-04
8.64204545454545e+00 1.80026926679215e-02 1.87527773034195e-04
8.67613636363636e+00 1.79089211962010e-02 1.86918578965127e-04
8.71022727272727e+00 1.78156381563445e-02 1.86309925617112e-04
8.74431818181818e+00 1.77228410042339e-02 1.85701831811497e-04
8.77840909090909e+00 1.76305272090032e-02 1.85094316055222e-04
8.81250000000000e+00 1.75386942529688e-02 1.84487396493890e-04
8.84659090909091e+00 1.74473396316640e-02 1.83881091070694e-04
8.88068181818182e+00 1.73564608534607e-02 1.83275417427324e-04
8.91477272727273e+00 1.72660554398126e-02 1.82670392803820e-04
8.94886363636363e+00 1.71761209250838e-02 1.82066034199591e-04
8.98295454545454e+00 1.70866548564810e-02 1.81462358324991e-04
9.01704545454545e+00 1.69976547939871e-02 1.80859381605348e-04
9.05113636363636e+00 1.69091183102942e-02 1.80257120184854e-04
9.08522727272727e+00 1.68210429907379e-02 1.79655589930410e-04
9.11931818181818e+00 1.67334264332309e-02 1.79054806435532e-04
9.15340909090909e+00 1.66462662481979e-02 1.78454785024108e-04
9.18750000000000e+00 1.65595600585104e-02 1.77855540706595e-04
9.22159090909091e+00 1.64733054995146e-02 1.77257088326683e-04
9.25568181818182e+00 1.63875002186869e-02 1.76659442469315e-04
9.28977272727273e+00 1.63021418758511e-02 1.76062617367768e-04
9.32386363636363e+00 1.62172281430203e-02 1.75466627052235e-04
9.35795454545454e+00 1.61327567043337e-02 1.74871485304735e-04
9.39204545454545e+00 1.60487252559932e-02 1.74277205662478e-04
9.42613636363636e+00 1.59651315062004e-02 1.73683801421188e-04
9.46022727272727e+00 1.58819731750944e-02 1.73091285638411e-04
9.49431818181818e+00 1.57992479946897e-02 1.72499671136788e-04
9.52840909090909e+00 1.57169537088140e-02 1.71908970507260e-04
9.56250000000000e+00 1.56350880730467e-02 1.71319196068237e-04
9.59659090909091e+00 1.55536488547425e-02 1.70730360001083e-04
9.63068181818182e+00 1.54726338327157e-02 1.70142474264703e-04
9.66477272727273e+00 1.53920407974354e-02 1.69555550509270e-04
9.69886363636363e+00 1.53118675508793e-02 1.68969600213528e-04
9.73295454545454e+00 1.52321119064746e-02 1.68384634642755e-04
9.76704545454545e+00 1.51527716890372e-02 1.67800664851640e-04
9.80113636363636e+00 1.50738447347133e-02 1.67217701687149e-04
9.83522727272727e+00 1.49953288909200e-02 1.66635755791304e-04
9.86931818181818e+00 1.49172220162868e-02 1.66054837603981e-04
9.90340909090909e+00 1.48395219805967e-02 1.65474957365676e-04
9.93750000000000e+00 1.47622266647289e-02 1.64896125079483e-04
9.97159090909091e+00 1.46853339606771e-02 1.64318350636264e-04
1.00056818181818e+01 1.46088417712607e-02 1.63741643856012e-04
1.00397727272727e+01 1.45327480100740e-02 1.63166014004472e-04
1.00738636363636e+01 1.44570506021086e-02 1.62591470243576e-04
1.01079545454545e+01 1.43817474828599e-02 1.62018021837082e-04
1.01420454545455e+01 1.43068365985763e-02 1.61445677703062e-04
1.01761363636364e+01 1.42323159062039e-02 1.60874446580514e-04
1.02102272727273e+01 1.41581833733303e-02 1.60304337031771e-04
1.02443181818182e+01 1.40844369781300e-02 1.59735357445220e-04
1.02784090909091e+01 1.40110747093084e-02 1.59167516037487e-04
1.03125000000000e+01 1.39380945660472e-02 1.58600821232803e-04
1.03465909090909e+01 1.38654945572520e-02 1.58035280529353e-04
1.03806818181818e+01 1.37932727036018e-02 1.57470901261180e-04
1.04147727272727e+01 1.37214270353809e-02 1.56907691366472e-04
1.04488636363636e+01 1.36499555931336e-02 1.56345658237020e-04
1.04829545454545e+01 1.35788564276103e-02 1.55784809106223e-04
1.05170454545455e+01 1.35081275997148e-02 1.55225151051409e-04
1.05511363636364e+01 1.34377671804508e-02 1.54666690995581e-04
1.05852272727273e+01 1.33677732508697e-02 1.54109435709488e-04
1.06193181818182e+01 1.32981439020187e-02 1.53553391814008e-04
1.06534090909091e+01 1.32288772348878e-02 1.52998565781988e-04
1.06875000000000e+01 1.31599713603589e-02 1.52444964289970e-04
1.07215909090909e+01 1.30914243985176e-02 1.51892593166612e-04
1.07556818181818e+01 1.30232344805191e-02 1.51341458099121e-04
