Energy (eV)          EEDF (eV^-(3/2))     First Anisotropy
2.97619047619048e-02 1.62403535894052e-01 1.31997759360852e-04
8.92857142857143e-02 1.59755625893915e-01 2.16918141863866e-04
1.48809523809524e-01 1.57150888767872e-01 2.83594404064534e-04
2.08333333333333e-01 1.54588620594257e-01 3.32599046485848e-04
2.67857142857143e-01 1.52068128955542e-01 3.72126571517702e-04
3.27380952380952e-01 1.49588732692277e-01 4.05320547126309e-04
3.86904761904762e-01 1.47149761773592e-01 4.33830294398032e-04
4.46428571428571e-01 1.44750557076549e-01 4.58665114945747e-04
5.05952380952381e-01 1.42390470238354e-01 4.80503111075875e-04
5.65476190476190e-01 1.40068863456351e-01 4.99829631205369e-04
6.25000000000000e-01 1.37785109336447e-01 5.17008387534794e-04
6.84523809523810e-01 1.35538590705681e-01 5.32321628191002e-04
7.44047619047619e-01 1.33328700461051e-01 5.45994485325068e-04
8.03571428571428e-01 1.31154841391622e-01 5.58210560678952e-04
8.63095238095238e-01 1.29016426029493e-01 5.69122346954898e-04
9.22619047619048e-01 1.26912876479891e-01 5.78858450359306e-04
9.82142857142857e-01 1.24843624275120e-01 5.87528747638502e-04
1.04166666666667e+00 1.22808110215503e-01 5.95228164723926e-04
1.10119047619048e+00 1.20805784213203e-01 6.02039503835914e-04
1.16071428571429e+00 1.18836105153361e-01 6.08035601423845e-04
1.22023809523810e+00 1.16898540743708e-01 6.13281003388696e-04
1.27976190476190e+00 1.14992567370725e-01 6.17833283534815e-04
1.33928571428571e+00 1.13117669958094e-01 6.21744095975642e-04
1.39880952380952e+00 1.11273341827605e-01 6.25060025063769e-04
1.45833333333333e+00 1.09459084562180e-01 6.27823279227313e-04
1.51785714285714e+00 1.07674407871176e-01 6.30072262925034e-04
1.57738095238095e+00 1.05918829457890e-01 6.31842052367502e-04
1.63690476190476e+00 1.04191874889223e-01 6.33164794440019e-04
1.69642857142857e+00 1.02493077467472e-01 6.34070043749398e-04
1.75595238095238e+00 1.00821978104203e-01 6.34585049374752e-04
1.81547619047619e+00 9.91781251961912e-02 6.34735000399872e-04
1.87500000000000e+00 9.75610745033770e-02 6.34543236607617e-04
1.93452380952381e+00 9.59703890370517e-02 6.34031434115768e-04
1.99404761904762e+00 9.44056389165510e-02 6.33219763225431e-04
2.05357142857143e+00 9.28664012788249e-02 6.32127026284376e-04
2.11309523809524e+00 9.13522601553943e-02 6.30770782897540e-04
2.17261904761905e+00 8.98628063599384e-02 6.29167457310668e-04
2.23214285714286e+00 8.83976373777157e-02 6.27332434341485e-04
2.29166666666667e+00 8.69563572567873e-02 6.25280144713902e-04
2.35119047619048e+00 8.55385765010139e-02 6.23024141236876e-04
2.41071428571429e+00 8.41439119647976e-02 6.20577167039498e-04
2.47023809523809e+00 8.27719867495392e-02 6.17951216885577e-04
2.52976190476190e+00 8.14224301017849e-02 6.15157592437031e-04
2.58928571428571e+00 8.00948773130235e-02 6.12206952202197e-04
2.64880952380952e+00 7.87889696211456e-02 6.09109356807561e-04
2.70833333333333e+00 7.75043541134803e-02 6.05874310136933e-04
2.76785714285714e+00 7.62406836314234e-02 6.02510796802327e-04
2.82738095238095e+00 7.49976166766202e-02 5.99027316357220e-04
2.88690476190476e+00 7.37748173186782e-02 5.95431914603958e-04
2.94642857142857e+00 7.25719551043839e-02 5.91732212303065e-04
3.00595238095238e+00 7.13887049684008e-02 5.87935431553272e-04
3.06547619047619e+00 7.02247471454220e-02 5.84048420078137e-04
3.12500000000000e+00 6.90797670837566e-02 5.80077673185843e-04
3.18452380952381e+00 6.79534553638428e-02 5.76029355807276e-04
3.24404761904762e+00 6.68455076038974e-02 5.71909320748935e-04
3.30357142857143e+00 6.57556243885731e-02 5.67723125525054e-04
3.36309523809524e+00 6.46835111843424e-02 5.63476050250335e-04
3.42261904761905e+00 6.36288782599014e-02 5.59173112496202e-04
3.48214285714286e+00 6.25914406078724e-02 5.54819081566389e-04
3.54166666666667e+00 6.15709178677826e-02 5.50418491807833e-04
3.60119047619048e+00 6.05670342502986e-02 5.45975655038223e-04
3.66071428571429e+00 5.95795184626962e-02 5.41494672163292e-04
3.72023809523809e+00 5.86081036355454e-02 5.36979444049803e-04
3.77976190476190e+00 5.76525272505910e-02 5.32433681713997e-04
3.83928571428571e+00 5.67125310698060e-02 5.27860915877611e-04
3.89880952380952e+00 5.57878610656101e-02 5.23264505942193e-04
3.95833333333333e+00 5.48782673522180e-02 5.18647648425728e-04
4.01785714285714e+00 5.39835041181090e-02 5.14013384899670e-04
4.07738095238095e+00 5.31033295595982e-02 5.09364609464553e-04
4.13690476190476e+00 5.22375058154911e-02 5.04704075796986e-04
4.19642857142857e+00 5.13857989028027e-02 5.00034403798413e-04
4.25595238095238e+00 5.05479786535257e-02 4.95358085873432e-04
4.31547619047619e+00 4.97238186524288e-02 4.90677492863112e-04
4.37500000000000e+00 4.89130961758700e-02 4.85994879392520e-04
4.43452380952381e+00 4.81155921333905e-02 4.81312389984407e-04
4.49404761904762e+00 4.73310910030751e-02 4.76632063550077e-04
4.55357142857143e+00 4.65593807788239e-02 4.71955837602742e-04
4.61309523809524e+00 4.58002529111923e-02 4.67285553620225e-04
4.67261904761905e+00 4.50535022510317e-02 4.62622961053399e-04
4.73214285714286e+00 4.43189269940497e-02 4.57969721402296e-04
4.79166666666667e+00 4.35963286262735e-02 4.53327412089357e-04
4.85119047619048e+00 4.28855118704031e-02 4.48697530141967e-04
4.91071428571429e+00 4.21862846330390e-02 4.44081495695706e-04
4.97023809523809e+00 4.14984579527700e-02 4.39480655328781e-04
5.02976190476190e+00 4.08218459491078e-02 4.34896285237491e-04
5.08928571428571e+00 4.01562657722532e-02 4.30329594261256e-04
5.14880952380952e+00 3.95015375536843e-02 4.25781726766519e-04
5.20833333333333e+00 3.88574843575468e-02 4.21253765397309e-04
5.26785714285714e+00 3.82239321328389e-02 4.16746733699026e-04
5.32738095238095e+00 3.76007096663746e-02 4.12261598623006e-04
5.38690476190476e+00 3.69876485365149e-02 4.07799272918052e-04
5.44642857142857e+00 3.63845830676530e-02 4.03360617415053e-04
5.50595238095238e+00 3.57913502854412e-02 3.98946443210169e-04
5.56547619047619e+00 3.52077898727488e-02 3.94557513751935e-04
5.62500000000000e+00 3.46337441263368e-02 3.90194546672236e-04
5.68452380952381e+00 3.40690579152243e-02 3.85858216196822e-04
5.74404761904762e+00 3.35135786357715e-02 3.81549154635682e-04
5.80357142857143e+00 3.29671561734760e-02 3.77267953785435e-04
5.86309523809524e+00 3.24296428613788e-02 3.73015167128769e-04
5.92261904761905e+00 3.19008934401579e-02 3.68791311261635e-04
5.98214285714286e+00 3.13807650188733e-02 3.64596867430270e-04
6.04166666666667e+00 3.08691170363516e-02 3.60432283004261e-04
6.10119047619048e+00 3.03658112232003e-02 3.56297972888633e-04
6.16071428571429e+00 2.98707115644415e-02 3.52194320877788e-04
6.22023809523809e+00 2.93836842627544e-02 3.48121680954058e-04
6.27976190476190e+00 2.89045977023182e-02 3.44080378533507e-04
6.33928571428571e+00 2.84333224132428e-02 3.40070711660996e-04
6.39880952380952e+00 2.79697310365814e-02 3.36092952157296e-04
6.45833333333333e+00 2.75136982899126e-02 3.32147346720380e-04
6.51785714285714e+00 2.70651009334831e-02 3.28234117982471e-04
6.57738095238095e+00 2.66238177369034e-02 3.24353465525203e-04
6.63690476190476e+00 2.61897294463860e-02 3.20505566854623e-04
6.69642857142857e+00 2.57627187525179e-02 3.16690578337746e-04
6.75595238095238e+00 2.53426702585581e-02 3.12908636102355e-04
6.81547619047619e+00 2.49294704492534e-02 3.09159856901637e-04
6.87500000000000e+00 2.45230076601605e-02 3.05444338839386e-04
6.93452380952381e+00 2.41231720480409e-02 3.01762162489667e-04
6.99404761904762e+00 2.37298555594413e-02 2.98113391448903e-04
7.05357142857143e+00 2.33429519032515e-02 2.94498072851821e-04
7.11309523809524e+00 2.29623565213858e-02 2.90916238417068e-04
7.17261904761905e+00 2.25879665605266e-02 2.87367905016313e-04
7.23214285714286e+00 2.22196808443291e-02 2.83853075330608e-04
7.29166666666667e+00 2.18573998460794e-02 2.80371738481664e-04
7.35119047619048e+00 2.15010256617975e-02 2.76923870639075e-04
7.41071428571429e+00 2.11504619837799e-02 2.73509435604461e-04
7.47023809523809e+00 2.08056140745729e-02 2.70128385373421e-04
7.52976190476190e+00 2.04663887413705e-02 2.66780660676251e-04
7.58928571428571e+00 2.01326943108292e-02 2.63466191498071e-04
7.64880952380952e+00 1.98044406042950e-02 2.60184897579379e-04
7.70833333333333e+00 1.94815389134322e-02 2.56936688897835e-04
7.76785714285714e+00 1.91639019762512e-02 2.53721466131734e-04
7.82738095238095e+00 1.88514439535263e-02 2.50539121106070e-04
7.88690476190476e+00 1.85440804055981e-02 2.47389537221813e-04
7.94642857142857e+00 1.82417282695545e-02 2.44272589869066e-04
8.00595238095238e+00 1.79443058367834e-02 2.41188146824680e-04
8.06547619047619e+00 1.76517327308916e-02 2.38136068634917e-04
8.12500000000000e+00 1.73639298859833e-02 2.35116208914874e-04
8.18452380952381e+00 1.70808195256356e-02 2.32128414912042e-04
8.24404761904762e+00 1.68023251408400e-02 2.29172527707040e-04
8.30357142857143e+00 1.65283714703798e-02 2.26248382397150e-04
8.36309523809524e+00 1.62588844801357e-02 2.23355808631080e-04
8.42261904761905e+00 1.59937913430783e-02 2.20494630839225e-04
8.48214285714286e+00 1.57330204195870e-02 2.17664668526283e-04
8.54166666666667e+00 1.54765012380903e-02 2.14865736552856e-04
8.60119047619048e+00 1.52241644760210e-02 2.12097645406403e-04
8.66071428571428e+00 1.49759419410822e-02 2.09360201461970e-04
8.72023809523809e+00 1.47317665528191e-02 2.06653207233031e-04
8.77976190476191e+00 1.44915723244907e-02 2.03976461612859e-04
8.83928571428571e+00 1.42552943452373e-02 2.01329760106645e-04
8.89880952380952e+00 1.40228687625391e-02 1.98712895054821e-04
8.95833333333333e+00 1.37942327649603e-02 1.96125655847937e-04
9.01785714285714e+00 1.35693245651747e-02 1.93567829133219e-04
9.07738095238095e+00 1.33480833832680e-02 1.91039199013247e-04
9.13690476190476e+00 1.31304494303129e-02 1.88539547236987e-04
9.19642857142857e+00 1.29163638922108e-02 1.86068653383467e-04
9.25595238095238e+00 1.27057689137985e-02 1.83626295038331e-04
9.31547619047619e+00 1.24986075832126e-02 1.81212247963546e-04
9.37500000000000e+00 1.22948239165098e-02 1.78826286215097e-04
9.43452380952381e+00 1.20943628427475e-02 1.76468182437525e-04
9.49404761904762e+00 1.18971701884631e-02 1.74137707921970e-04
9.55357142857143e+00 1.17031926636807e-02 1.71834632655366e-04
9.61309523809524e+00 1.15123778472909e-02 1.69558725603518e-04
9.67261904761905e+00 1.13246741728851e-02 1.67309754795842e-04
9.73214285714286e+00 1.11400309148197e-02 1.65087487453406e-04
9.79166666666667e+00 1.09583981745075e-02 1.62891690111810e-04
9.85119047619048e+00 1.07797268669336e-02 1.60722128739121e-04
9.91071428571428e+00 1.06039687073900e-02 1.58578568849012e-04
9.97023809523809e+00 1.04310761984273e-02 1.56460775609261e-04
1.00297619047619e+01 1.02610026170185e-02 1.54368513909327e-04
1.00892857142857e+01 1.00937020020959e-02 1.52301548535014e-04
1.01488095238095e+01 9.92912914179410e-03 1.50259644263219e-04
1.02083333333333e+01 9.76723956140524e-03 1.48242565876021e-04
1.02678571428571e+01 9.60798951136000e-03 1.46250078288208e-04
1.03273809523810e+01 9.45133595540456e-03 1.44281946963550e-04
1.03869047619048e+01 9.29723655750600e-03 1.42337936986089e-04
1.04464285714286e+01 9.14564967486178e-03 1.40417813814856e-04
1.05059523809524e+01 8.99653434213663e-03 1.38521344055844e-04
1.05654761904762e+01 8.84985026191519e-03 1.36648294476255e-04
1.06250000000000e+01 8.70555779381192e-03 1.34798432428114e-04
1.06845238095238e+01 8.56361794375800e-03 1.32971525912228e-04
1.07440476190476e+01 8.42399235346400e-03 1.31167343639120e-04
1.08035714285714e+01 8.28664329005435e-03 1.29385655087655e-04
1.08630952380952e+01 8.15153363586965e-03 1.27626230560791e-04
1.09226190476190e+01 8.01862687843593e-03 1.25888841512760e-04
1.09821428571429e+01 7.88788709942205e-03 1.24173259766759e-04
1.10416666666667e+01 7.75927896850475e-03 1.22479258122389e-04
1.11011904761905e+01 7.63276773020226e-03 1.20806610977845e-04
1.11607142857143e+01 7.50831919570406e-03 1.19155093501846e-04
1.12202380952381e+01 7.38589973363161e-03 1.17524481968949e-04
1.12797619047619e+01 7.26547626094964e-03 1.15914553798831e-04
1.13392857142857e+01 7.14701623402492e-03 1.14325087592976e-04
1.13988095238095e+01 7.03048763983318e-03 1.12755863169778e-04
1.14583333333333e+01 6.91585898730694e-03 1.11206661598120e-04
1.15178571428571e+01 6.80309929882527e-03 1.09677265228525e-04
1.15773809523810e+01 6.69217810184228e-03 1.08167457945047e-04
1.16369047619048e+01 6.58306541972691e-03 1.06677024518307e-04
1.16964285714286e+01 6.47573176647334e-03 1.05205751084966e-04
1.17559523809524e+01 6.37014813588464e-03 1.03753425639605e-04
1.18154761904762e+01 6.26628599469581e-03 1.02319837351691e-04
1.18750000000000e+01 6.16411727486287e-03 1.00904776825599e-04
1.19345238095238e+01 6.06361436597736e-03 9.95080361207723e-05
1.19940476190476e+01 5.96475010780514e-03 9.81294087704583e-05
1.20535714285714e+01 5.86749778294675e-03 9.67686897994228e-05
1.21130952380952e+01 5.77183110961697e-03 9.54256757403156e-05
1.21726190476190e+01 5.67772423454229e-03 9.41001648326553e-05
1.22321428571429e+01 5.58515172522726e-03 9.27919564781188e-05
1.22916666666667e+01 5.49408856535111e-03 9.15008516284222e-05
1.23511904761905e+01 5.40451014570840e-03 9.02266531837212e-05
1.24107142857143e+01 5.31639225833481e-03 8.89691654187408e-05
1.24702380952381e+01 5.22971108996510e-03 8.77281941895871e-05
1.25297619047619e+01 5.14444321559776e-03 8.65035469424844e-05
1.25892857142857e+01 5.06056559216407e-03 8.52950327212419e-05
1.26488095238095e+01 4.97805555230180e-03 8.41024621740343e-05
1.27083333333333e+01 4.89689079822903e-03 8.29256475595610e-05
1.27678571428571e+01 4.81704939571833e-03 8.17644027520160e-05
1.28273809523810e+01 4.73850976816917e-03 8.06185433949239e-05
1.28869047619048e+01 4.66125069018552e-03 7.94878864506666e-05
1.29464285714286e+01 4.58525128363672e-03 7.83722505080982e-05
1.30059523809524e+01 4.51049101019543e-03 7.72714560989472e-05
1.30654761904762e+01 4.43694966640173e-03 7.61853252241958e-05
1.31250000000000e+01 4.36460737820328e-03 7.51136815151213e-05
1.31845238095238e+01 4.29344459558431e-03 7.40563502333417e-05
1.32440476190476e+01 4.22344208728257e-03 7.30131582702319e-05
1.33035714285714e+01 4.15458093559234e-03 7.19839341459378e-05
1.33630952380952e+01 4.08684253125188e-03 7.09685080077825e-05
1.34226190476190e+01 4.02020856841442e-03 6.99667117521359e-05
1.34821428571429e+01 3.95466103922132e-03 6.89783786450761e-05
1.35416666666667e+01 3.89018223039302e-03 6.80033435721222e-05
1.36011904761905e+01 3.82675471696620e-03 6.70414432954098e-05
1.36607142857143e+01 3.76436135808305e-03 6.60925160555331e-05
1.37202380952381e+01 3.70298529235912e-03 6.51564017000022e-05
1.37797619047619e+01 3.64260993332661e-03 6.42329416784001e-05
1.38392857142857e+01 3.58321896495173e-03 6.33219790369374e-05
1.38988095238095e+01 3.52479633722599e-03 6.24233584127846e-05
1.39583333333333e+01 3.46732626182841e-03 6.15369260281901e-05
1.40178571428571e+01 3.41079320785894e-03 6.06625296840389e-05
1.40773809523810e+01 3.35518189764126e-03 5.98000188542612e-05
1.41369047619048e+01 3.30047730221243e-03 5.89492443719675e-05
1.41964285714286e+01 3.24666463842084e-03 5.81100586281737e-05
1.42559523809524e+01 3.19372936375707e-03 5.72823157767287e-05
1.43154761904762e+01 3.14165717282024e-03 5.64658714054355e-05
1.43750000000000e+01 3.09043399345205e-03 5.56605826363133e-05
1.44345238095238e+01 3.04004598293378e-03 5.48663081172477e-05
1.44940476190476e+01 2.99047952424550e-03 5.40829080133914e-05
1.45535714285714e+01 2.94172122238628e-03 5.33102439984662e-05
1.46130952380952e+01 2.89375790075411e-03 5.25481792458347e-05
1.46726190476190e+01 2.84657659758510e-03 5.17965785033656e-05
1.47321428571429e+01 2.80016456213975e-03 5.10553078290118e-05
1.47916666666667e+01 2.75450925220128e-03 5.03242347525561e-05
1.48511904761905e+01 2.70959832973020e-03 4.96032284426083e-05
1.49107142857143e+01 2.66541965785274e-03 4.88921594299280e-05
1.49702380952381e+01 2.62196129758094e-03 4.81908996875138e-05
1.50297619047619e+01 2.57921150458623e-03 4.74993226205772e-05
1.50892857142857e+01 2.53715872602542e-03 4.68173030562563e-05
1.51488095238095e+01 2.49579159741898e-03 4.61447172333137e-05
1.52083333333333e+01 2.45509893957967e-03 4.54814427918152e-05
1.52678571428571e+01 2.41506975559142e-03 4.48273587625734e-05
1.53273809523810e+01 2.37569322783756e-03 4.41823456251646e-05
1.53869047619048e+01 2.33695871482906e-03 4.35462850890038e-05
1.54464285714286e+01 2.29885574908291e-03 4.29190602223737e-05
1.55059523809524e+01 2.26137403352976e-03 4.23005555858164e-05
1.55654761904762e+01 2.22450343898895e-03 4.16906570033985e-05
1.56250000000000e+01 2.18823400143119e-03 4.10892516252829e-05
1.56845238095238e+01 2.15255591928576e-03 4.04962279167225e-05
1.57440476190476e+01 2.11745955079178e-03 3.99114756469973e-05
1.58035714285714e+01 2.08293541139264e-03 3.93348858783849e-05
1.58630952380952e+01 2.04897417117279e-03 3.87663509550809e-05
1.59226190476190e+01 2.01556665233641e-03 3.82057645491839e-05
1.59821428571429e+01 1.98270382652433e-03 3.76530214761535e-05
1.60416666666667e+01 1.95037681299020e-03 3.71080178000302e-05
1.61011904761905e+01 1.91857687557681e-03 3.65706509423415e-05
1.61607142857143e+01 1.88729542056576e-03 3.60408194895310e-05
1.62202380952381e+01 1.85652399435503e-03 3.55184232429596e-05
1.62797619047619e+01 1.82625428117444e-03 3.50033632077458e-05
1.63392857142857e+01 1.79647810083830e-03 3.44955415815314e-05
1.63988095238095e+01 1.76718740653497e-03 3.39948617433101e-05
1.64583333333333e+01 1.73837428265214e-03 3.35012282423224e-05
1.65178571428571e+01 1.71003094263769e-03 3.30145467868832e-05
1.65773809523810e+01 1.68214972689543e-03 3.25347242799750e-05
1.66369047619048e+01 1.65472310055259e-03 3.20616686663559e-05
1.66964285714286e+01 1.62774365191727e-03 3.15952890166444e-05
1.67559523809524e+01 1.60120408997563e-03 3.11354956144670e-05
1.68154761904762e+01 1.57509724259027e-03 3.06821997971213e-05
1.68750000000000e+01 1.54941605456198e-03 3.02353139946325e-05
1.69345238095238e+01 1.52415358572310e-03 2.97947517187953e-05
1.69940476190476e+01 1.49930300906202e-03 2.93604275522435e-05
1.70535714285714e+01 1.47485760887826e-03 2.89322571376069e-05
1.71130952380952e+01 1.45081077896755e-03 2.85101571666991e-05
1.71726190476190e+01 1.42715602083657e-03 2.80940454086804e-05
1.72321428571429e+01 1.40388694181357e-03 2.76838405811061e-05
1.72916666666667e+01 1.38099725372525e-03 2.72794624185882e-05
1.73511904761905e+01 1.35848077078797e-03 2.68808317440442e-05
1.74107142857143e+01 1.33633140807430e-03 2.64878703344554e-05
1.74702380952381e+01 1.31454317986856e-03 2.61005009520628e-05
1.75297619047619e+01 1.29311019804925e-03 2.57186473339191e-05
1.75892857142857e+01 1.27202667049775e-03 2.53422341814476e-05
1.76488095238095e+01 1.25128689953319e-03 2.49711871500980e-05
1.77083333333333e+01 1.23088528037257e-03 2.46054328390959e-05
1.77678571428571e+01 1.21081629961618e-03 2.42448987812026e-05
1.78273809523810e+01 1.19107453375757e-03 2.38895134644575e-05
1.78869047619048e+01 1.17165464761088e-03 2.35392062252671e-05
1.79464285714286e+01 1.15255139319409e-03 2.31939073033466e-05
1.80059523809524e+01 1.13375960798174e-03 2.28535478988113e-05
1.80654761904762e+01 1.11527421362081e-03 2.25180600610113e-05
1.81250000000000e+01 1.09709021455835e-03 2.21873767128705e-05
1.81845238095238e+01 1.07920269669145e-03 2.18614316411229e-05
1.82440476190476e+01 1.06160682603923e-03 2.15401594866105e-05
1.83035714285714e+01 1.04429784743656e-03 2.12234957346820e-05
1.83630952380952e+01 1.02727108324893e-03 2.09113767056540e-05
1.84226190476190e+01 1.01052193210840e-03 2.06037395719622e-05
1.84821428571429e+01 9.94045867582137e-04 2.03005222679409e-05
1.85416666666667e+01 9.77838437216205e-04 2.00016635347286e-05
1.86011904761905e+01 9.61895261062035e-04 1.97071029669935e-05
1.86607142857143e+01 9.46212030583982e-04 1.94167809192148e-05
1.87202380952381e+01 9.30784507494974e-04 1.91306385250918e-05
1.87797619047619e+01 9.15608522611136e-04 1.88486176885234e-05
