Energy (eV)          EEDF (eV^-(3/2))     First Anisotropy
6.34615384615385e-03 4.25684974054998e-01 2.20279932638067e-04
1.90384615384615e-02 4.22867141153889e-01 3.63763772322329e-04
3.17307692307692e-02 4.20067960971853e-01 4.80259721382276e-04
4.44230769230769e-02 4.17287310037277e-01 5.68793265899801e-04
5.71153846153846e-02 4.14525065694998e-01 6.42656739992110e-04
6.98076923076923e-02 4.11781106102005e-01 7.06873895624119e-04
8.25000000000000e-02 4.09055310221882e-01 7.64043591896300e-04
9.51923076923077e-02 4.06347557822495e-01 8.15734651489551e-04
1.07884615384615e-01 4.03657729446907e-01 8.62987178639626e-04
1.20576923076923e-01 4.00985706479285e-01 9.06536043994202e-04
1.33269230769231e-01 3.98331371031464e-01 9.46925050180654e-04
1.45961538461538e-01 3.95694606021098e-01 9.84571061901630e-04
1.58653846153846e-01 3.93075295158738e-01 1.01980268175222e-03
1.71346153846154e-01 3.90473322888726e-01 1.05288486051012e-03
1.84038461538462e-01 3.87888574438040e-01 1.08403526260085e-03
1.96730769230769e-01 3.85320935807316e-01 1.11343555866544e-03
2.09423076923077e-01 3.82770293724190e-01 1.14123943392307e-03
2.22115384615385e-01 3.80236535679822e-01 1.16757842028511e-03
2.34807692307692e-01 3.77719549921157e-01 1.19256624928045e-03
2.47500000000000e-01 3.75219225412727e-01 1.21630214456822e-03
2.60192307692308e-01 3.72735451865194e-01 1.23887336237742e-03
2.72884615384615e-01 3.70268119719263e-01 1.26035718517735e-03
2.85576923076923e-01 3.67817120149745e-01 1.28082250323738e-03
2.98269230769231e-01 3.65382345033859e-01 1.30033108024120e-03
3.10961538461538e-01 3.62963686973538e-01 1.31893857861567e-03
3.23653846153846e-01 3.60561039289279e-01 1.33669540879842e-03
3.36346153846154e-01 3.58174295992428e-01 1.35364742261074e-03
3.49038461538462e-01 3.55803351803545e-01 1.36983649057105e-03
3.61730769230769e-01 3.53448102146766e-01 1.38530099508210e-03
3.74423076923077e-01 3.51108443125156e-01 1.40007623934545e-03
3.87115384615385e-01 3.48784271536177e-01 1.41419479484083e-03
3.99807692307692e-01 3.46475484866271e-01 1.42768680658382e-03
4.12500000000000e-01 3.44181981268775e-01 1.44058024832451e-03
4.25192307692308e-01 3.41903659577078e-01 1.45290114378722e-03
4.37884615384615e-01 3.39640419294239e-01 1.46467376232977e-03
4.50576923076923e-01 3.37392160593624e-01 1.47592078966212e-03
4.63269230769231e-01 3.35158784299196e-01 1.48666347451179e-03
4.75961538461538e-01 3.32940191896531e-01 1.49692175670210e-03
4.88653846153846e-01 3.30736285527892e-01 1.50671438719504e-03
5.01346153846154e-01 3.28546967974157e-01 1.51605902795345e-03
5.14038461538462e-01 3.26372142664315e-01 1.52497234056374e-03
5.26730769230769e-01 3.24211713670759e-01 1.53347007181290e-03
5.39423076923077e-01 3.22065585692590e-01 1.54156712409554e-03
5.52115384615385e-01 3.19933664063900e-01 1.54927761843287e-03
5.64807692307692e-01 3.17815854749182e-01 1.55661495731876e-03
5.77500000000000e-01 3.15712064327862e-01 1.56359187556971e-03
5.90192307692308e-01 3.13622200001551e-01 1.57022048681978e-03
6.02884615384615e-01 3.11546169586142e-01 1.57651232834720e-03
6.15576923076923e-01 3.09483881511111e-01 1.58247840173871e-03
6.28269230769231e-01 3.07435244805306e-01 1.58812920755010e-03
6.40961538461538e-01 3.05400169103158e-01 1.59347477620044e-03
6.53653846153846e-01 3.03378564640387e-01 1.59852470169300e-03
6.66346153846154e-01 3.01370342240676e-01 1.60328816724748e-03
6.79038461538461e-01 2.99375413321126e-01 1.60777396871481e-03
6.91730769230769e-01 2.97393689888096e-01 1.61199054130808e-03
7.04423076923077e-01 2.95425084524661e-01 1.61594597921463e-03
7.17115384615385e-01 2.93469510395440e-01 1.61964805358905e-03
7.29807692307692e-01 2.91526881242514e-01 1.62310423412726e-03
7.42500000000000e-01 2.89597111373623e-01 1.62632170425163e-03
7.55192307692308e-01 2.87680115666426e-01 1.62930737561901e-03
7.67884615384615e-01 2.85775809562051e-01 1.63206790375366e-03
7.80576923076923e-01 2.83884109063790e-01 1.63460970250658e-03
7.93269230769231e-01 2.82004930726075e-01 1.63693895555978e-03
8.05961538461538e-01 2.80138191658154e-01 1.63906162656386e-03
8.18653846153846e-01 2.78283809520240e-01 1.64098347307594e-03
8.31346153846154e-01 2.76441702513049e-01 1.64271005523261e-03
8.44038461538462e-01 2.74611789381046e-01 1.64424674379093e-03
8.56730769230769e-01 2.72793989408688e-01 1.64559873194272e-03
8.69423076923077e-01 2.70988222410486e-01 1.64677104222790e-03
8.82115384615385e-01 2.69194408733866e-01 1.64776853295797e-03
8.94807692307692e-01 2.67412469255499e-01 1.64859590834969e-03
9.07500000000000e-01 2.65642325371839e-01 1.64925772406365e-03
9.20192307692308e-01 2.63883899001654e-01 1.64975839279452e-03
9.32884615384615e-01 2.62137112580574e-01 1.65010219134087e-03
9.45576923076923e-01 2.60401889059499e-01 1.65029326720699e-03
9.58269230769231e-01 2.58678151895675e-01 1.65033564319647e-03
9.70961538461538e-01 2.56965825054870e-01 1.65023322127689e-03
9.83653846153846e-01 2.55264833007891e-01 1.64998978998034e-03
9.96346153846154e-01 2.53575100722050e-01 1.64960902854920e-03
1.00903846153846e+00 2.51896553659748e-01 1.64909450882576e-03
1.02173076923077e+00 2.50229117780250e-01 1.64844969677257e-03
1.03442307692308e+00 2.48572719548830e-01 1.64767796929933e-03
1.04711538461538e+00 2.46927285885488e-01 1.64678260932740e-03
1.05980769230769e+00 2.45292744210068e-01 1.64576680139213e-03
1.07250000000000e+00 2.43669022422881e-01 1.64463364320365e-03
1.08519230769231e+00 2.42056048916248e-01 1.64338615595306e-03
1.09788461538462e+00 2.40453752526825e-01 1.64202727992640e-03
1.11057692307692e+00 2.38862062577257e-01 1.64055986987884e-03
1.12326923076923e+00 2.37280908858015e-01 1.63898670556210e-03
1.13596153846154e+00 2.35710221638042e-01 1.63731050110542e-03
1.14865384615385e+00 2.34149931620311e-01 1.63553390047798e-03
1.16134615384615e+00 2.32599969980377e-01 1.63365947274411e-03
1.17403846153846e+00 2.31060268349328e-01 1.63168972504531e-03
1.18673076923077e+00 2.29530758810871e-01 1.62962709788230e-03
1.19942307692308e+00 2.28011373910842e-01 1.62747397716088e-03
1.21211538461538e+00 2.26502046616296e-01 1.62523268952402e-03
1.22480769230769e+00 2.25002710350717e-01 1.62290549751435e-03
1.23750000000000e+00 2.23513298978307e-01 1.62049460837365e-03
1.25019230769231e+00 2.22033746812782e-01 1.61800218188036e-03
1.26288461538462e+00 2.20563988579081e-01 1.61543032569184e-03
1.27557692307692e+00 2.19103959446089e-01 1.61278109053520e-03
1.28826923076923e+00 2.17653595011829e-01 1.61005647838194e-03
1.30096153846154e+00 2.16212831311606e-01 1.60725844972810e-03
1.31365384615385e+00 2.14781604782099e-01 1.60438891898527e-03
1.32634615384615e+00 2.13359852291837e-01 1.60144974973564e-03
1.33903846153846e+00 2.11947511127212e-01 1.59844276521513e-03
1.35173076923077e+00 2.10544518989784e-01 1.59536974365877e-03
1.36442307692308e+00 2.09150814003614e-01 1.59223242807464e-03
1.37711538461538e+00 2.07766334681985e-01 1.58903252169038e-03
1.38980769230769e+00 2.06391019955421e-01 1.58577168328326e-03
1.40250000000000e+00 2.05024809158704e-01 1.58245153425003e-03
1.41519230769231e+00 2.03667642037686e-01 1.57907366490312e-03
1.42788461538462e+00 2.02319458717981e-01 1.57563963001950e-03
1.44057692307692e+00 2.00980199731136e-01 1.57215094428224e-03
1.45326923076923e+00 1.99649806002342e-01 1.56860908892546e-03
1.46596153846154e+00 1.98328218856761e-01 1.56501551765298e-03
1.47865384615385e+00 1.97015379990029e-01 1.56137165230074e-03
1.49134615384615e+00 1.95711231492746e-01 1.55767887839931e-03
1.50403846153846e+00 1.94415715838817e-01 1.55393855390953e-03
1.51673076923077e+00 1.93128775882967e-01 1.55015200489143e-03
1.52942307692308e+00 1.91850354866468e-01 1.54632053367250e-03
1.54211538461538e+00 1.90580396389660e-01 1.54244541462868e-03
1.55480769230769e+00 1.89318844434578e-01 1.53852788987696e-03
1.56750000000000e+00 1.88065643354079e-01 1.53456917514053e-03
1.58019230769231e+00 1.86820737877169e-01 1.53057046497507e-03
1.59288461538462e+00 1.85584073083053e-01 1.52653292867731e-03
1.60557692307692e+00 1.84355594422360e-01 1.52245770611078e-03
1.61826923076923e+00 1.83135247706800e-01 1.51834591325928e-03
1.63096153846154e+00 1.81922979114138e-01 1.51419864717621e-03
1.64365384615385e+00 1.80718735163649e-01 1.51001698202190e-03
1.65634615384615e+00 1.79522462736052e-01 1.50580196502346e-03
1.66903846153846e+00 1.78334109063669e-01 1.50155462389589e-03
1.68173076923077e+00 1.77153621728137e-01 1.49727596290622e-03
1.69442307692308e+00 1.75980948664922e-01 1.49296696982711e-03
1.70711538461538e+00 1.74816038140363e-01 1.48862861210942e-03
1.71980769230769e+00 1.73658838770163e-01 1.48426183298439e-03
1.73250000000000e+00 1.72509299510170e-01 1.47986755642903e-03
1.74519230769231e+00 1.71367369660590e-01 1.47544669159413e-03
1.75788461538462e+00 1.70232998844232e-01 1.47100012910578e-03
1.77057692307692e+00 1.69106137023913e-01 1.46652873729950e-03
1.78326923076923e+00 1.67986734493665e-01 1.46203336694454e-03
1.79596153846154e+00 1.66874741882672e-01 1.45751485545789e-03
1.80865384615385e+00 1.65770110134637e-01 1.45297402333214e-03
1.82134615384615e+00 1.64672790524170e-01 1.44841167049890e-03
1.83403846153846e+00 1.63582734648408e-01 1.44382858271439e-03
1.84673076923077e+00 1.62499894424905e-01 1.43922552802072e-03
1.85942307692308e+00 1.61424222095215e-01 1.43460326273755e-03
1.87211538461538e+00 1.60355670205528e-01 1.42996252802324e-03
1.88480769230769e+00 1.59294191621931e-01 1.42530404637706e-03
1.89750000000000e+00 1.58239739522518e-01 1.42062852590039e-03
1.91019230769231e+00 1.57192267400741e-01 1.41593666410018e-03
1.92288461538462e+00 1.56151729047012e-01 1.41122914457042e-03
1.93557692307692e+00 1.55118078563098e-01 1.40650663361778e-03
1.94826923076923e+00 1.54091270354590e-01 1.40176978432917e-03
1.96096153846154e+00 1.53071259134028e-01 1.39701924020376e-03
1.97365384615385e+00 1.52057999903414e-01 1.39225563195166e-03
1.98634615384615e+00 1.51051447967804e-01 1.38747957423853e-03
1.99903846153846e+00 1.50051558928101e-01 1.38269167122918e-03
2.01173076923077e+00 1.49058288679119e-01 1.37789251342023e-03
2.02442307692308e+00 1.48071593412443e-01 1.37308268284826e-03
2.03711538461538e+00 1.47091429599966e-01 1.36826275001272e-03
2.04980769230769e+00 1.46117754006577e-01 1.36343327074927e-03
2.06250000000000e+00 1.45150523683361e-01 1.35859478992143e-03
2.07519230769231e+00 1.44189695970283e-01 1.35374784471869e-03
2.08788461538462e+00 1.43235228480502e-01 1.34889296168958e-03
2.10057692307692e+00 1.42287079112376e-01 1.34403065372613e-03
2.11326923076923e+00 1.41345206042952e-01 1.33916142359676e-03
2.12596153846154e+00 1.40409567730474e-01 1.33428576710384e-03
2.13865384615385e+00 1.39480122899440e-01 1.32940417022200e-03
2.15134615384615e+00 1.38556830551963e-01 1.32451710619023e-03
2.16403846153846e+00 1.37639649961530e-01 1.31962504035615e-03
2.17673076923077e+00 1.36728540671230e-01 1.31472842734728e-03
2.18942307692308e+00 1.35823462496039e-01 1.30982771562611e-03
2.20211538461538e+00 1.34924375508727e-01 1.30492334474183e-03
2.21480769230769e+00 1.34031240050488e-01 1.30001574253911e-03
2.22750000000000e+00 1.33144016725037e-01 1.29510532837916e-03
2.24019230769231e+00 1.32262666400761e-01 1.29019251601994e-03
2.25288461538462e+00 1.31387150197274e-01 1.28527771096618e-03
2.26557692307692e+00 1.30517429495477e-01 1.28036130777772e-03
2.27826923076923e+00 1.29653465931912e-01 1.27544369315774e-03
2.29096153846154e+00 1.28795221400765e-01 1.27052524871543e-03
2.30365384615385e+00 1.27942658041040e-01 1.26560634841000e-03
2.31634615384615e+00 1.27095738246093e-01 1.26068735595518e-03
2.32903846153846e+00 1.26254424658211e-01 1.25576862907365e-03
2.34173076923077e+00 1.25418680166979e-01 1.25085051697172e-03
2.35442307692308e+00 1.24588467911117e-01 1.24593336434290e-03
2.36711538461538e+00 1.23763751266348e-01 1.24101750891429e-03
2.37980769230769e+00 1.22944493854345e-01 1.23610327895564e-03
2.39250000000000e+00 1.22130659537590e-01 1.23119099610450e-03
2.40519230769231e+00 1.21322212421095e-01 1.22628097789512e-03
2.41788461538462e+00 1.20519116840815e-01 1.22137353539212e-03
2.43057692307692e+00 1.19721337372131e-01 1.21646897078791e-03
2.44326923076923e+00 1.18928838824916e-01 1.21156758011562e-03
2.45596153846154e+00 1.18141586245149e-01 1.20666965567793e-03
2.46865384615385e+00 1.17359544903836e-01 1.20177548376455e-03
2.48134615384615e+00 1.16582680305062e-01 1.19688534233499e-03
2.49403846153846e+00 1.15810958181257e-01 1.19199950476985e-03
2.50673076923077e+00 1.15044344491687e-01 1.18711823761590e-03
2.51942307692308e+00 1.14282805423938e-01 1.18224180411867e-03
2.53211538461538e+00 1.13526307383420e-01 1.17737046203127e-03
2.54480769230769e+00 1.12774817000932e-01 1.17250446139034e-03
2.55750000000000e+00 1.12028301128165e-01 1.16764404700498e-03
2.57019230769231e+00 1.11286726839081e-01 1.16278946068606e-03
2.58288461538462e+00 1.10550061419878e-01 1.15794093913236e-03
2.59557692307692e+00 1.09818272376176e-01 1.15309871178519e-03
2.60826923076923e+00 1.09091327428690e-01 1.14826300322095e-03
2.62096153846154e+00 1.08369194514529e-01 1.14343403529499e-03
2.63365384615385e+00 1.07651841777584e-01 1.13861202510216e-03
2.64634615384615e+00 1.06939237575358e-01 1.13379718290664e-03
2.65903846153846e+00 1.06231350474812e-01 1.12898971546059e-03
2.67173076923077e+00 1.05528149250980e-01 1.12418982398960e-03
2.68442307692308e+00 1.04829602888159e-01 1.11939770731922e-03
2.69711538461538e+00 1.04135680570795e-01 1.11461355991706e-03
2.70980769230769e+00 1.03446351689907e-01 1.10983756990578e-03
2.72250000000000e+00 1.02761585839134e-01 1.10506992126304e-03
2.73519230769231e+00 1.02081352815843e-01 1.10031079579365e-03
2.74788461538462e+00 1.01405622612400e-01 1.09556037123993e-03
2.76057692307692e+00 1.00734365422280e-01 1.09081881936445e-03
2.77326923076923e+00 1.00067551636265e-01 1.08608630806692e-03
2.78596153846154e+00 9.94051518434799e-02 1.08136300328240e-03
2.79865384615385e+00 9.87471368230260e-02 1.07664906715785e-03
2.81134615384615e+00 9.80934775497995e-02 1.07194465620139e-03
2.82403846153846e+00 9.74441451908250e-02 1.06724992422580e-03
2.83673076923077e+00 9.67991111039913e-02 1.06256502054734e-03
2.84942307692308e+00 9.61583468390030e-02 1.05789009276047e-03
2.86211538461538e+00 9.55218241294331e-02 1.05322528498675e-03
2.87480769230769e+00 9.48895148982029e-02 1.04857073609814e-03
2.88750000000000e+00 9.42613912540914e-02 1.04392658166711e-03
2.90019230769231e+00 9.36374254926269e-02 1.03929295571600e-03
2.91288461538462e+00 9.30175900884647e-02 1.03466998902670e-03
2.92557692307692e+00 9.24018577006053e-02 1.03005780742546e-03
2.93826923076923e+00 9.17902011690328e-02 1.02545653366107e-03
2.95096153846154e+00 9.11825935155488e-02 1.02086628909015e-03
2.96365384615385e+00 9.05790079364598e-02 1.01628719204516e-03
2.97634615384615e+00 8.99794178075487e-02 1.01171935617839e-03
2.98903846153846e+00 8.93837966808347e-02 1.00716289307898e-03
3.00173076923077e+00 8.87921182834131e-02 1.00261791066098e-03
3.01442307692308e+00 8.82043565182166e-02 9.98084515630963e-04
3.02711538461538e+00 8.76204854570632e-02 9.93562811921070e-04
3.03980769230769e+00 8.70404793453426e-02 9.89052899098697e-04
3.05250000000000e+00 8.64643125989286e-02 9.84554874099105e-04
3.06519230769231e+00 8.58919598048918e-02 9.80068832781070e-04
3.07788461538462e+00 8.53233957148248e-02 9.75594868413238e-04
3.09057692307692e+00 8.47585952493100e-02 9.71133070138650e-04
3.10326923076923e+00 8.41975334949429e-02 9.66683524644808e-04
3.11596153846154e+00 8.36401857049980e-02 9.62246317662920e-04
3.12865384615385e+00 8.30865272930196e-02 9.57821532506309e-04
3.14134615384615e+00 8.25365338370817e-02 9.53409248587409e-04
3.15403846153846e+00 8.19901810769173e-02 9.49009543748828e-04
3.16673076923077e+00 8.14474449128533e-02 9.44622492819437e-04
3.17942307692308e+00 8.09083014064172e-02 9.40248169813514e-04
3.19211538461538e+00 8.03727267742374e-02 9.35886646526706e-04
3.20480769230769e+00 7.98406973920635e-02 9.31537991111534e-04
3.21750000000000e+00 7.93121897920267e-02 9.27202269620160e-04
3.23019230769231e+00 7.87871806632077e-02 9.22879547390096e-04
3.24288461538462e+00 7.82656468457748e-02 9.18569887687902e-04
3.25557692307692e+00 7.77475653348197e-02 9.14273350333052e-04
3.26826923076923e+00 7.72329132777151e-02 9.09989993185880e-04
3.28096153846154e+00 7.67216679746436e-02 9.05719873484249e-04
3.29365384615385e+00 7.62138068729653e-02 9.01463046533032e-04
3.30634615384615e+00 7.57093075708771e-02 8.97219564374808e-04
3.31903846153846e+00 7.52081478148636e-02 8.92989477870063e-04
3.33173076923077e+00 7.47103054987187e-02 8.88772835402513e-04
3.34442307692308e+00 7.42157586640270e-02 8.84569684842127e-04
3.35711538461538e+00 7.37244854947977e-02 8.80380072286126e-04
3.36980769230769e+00 7.32364643209217e-02 8.76204040781734e-04
3.38250000000000e+00 7.27516736157364e-02 8.72041631702387e-04
3.39519230769231e+00 7.22700919964740e-02 8.67892885984293e-04
3.40788461538462e+00 7.17916982191015e-02 8.63757842909764e-04
3.42057692307692e+00 7.13164711816217e-02 8.59636538873207e-04
3.43326923076923e+00 7.08443899217218e-02 8.55529008708918e-04
3.44596153846154e+00 7.03754336171914e-02 8.51435286884498e-04
3.45865384615385e+00 6.99095815809596e-02 8.47355406325170e-04
3.47134615384615e+00 6.94468132642471e-02 8.43289397221050e-04
3.48403846153846e+00 6.89871082542957e-02 8.39237288886052e-04
3.49673076923077e+00 6.85304462734719e-02 8.35199108596320e-04
3.50942307692308e+00 6.80768071796448e-02 8.31174883344989e-04
3.52211538461538e+00 6.76261709614542e-02 8.27164638712229e-04
3.53480769230769e+00 6.71785177412907e-02 8.23168397719063e-04
3.54750000000000e+00 6.67338277731257e-02 8.19186182056755e-04
3.56019230769231e+00 6.62920814428632e-02 8.15218013192205e-04
3.57288461538462e+00 6.58532592637864e-02 8.11263911275623e-04
3.58557692307692e+00 6.54173418794047e-02 8.07323894032629e-04
3.59826923076923e+00 6.49843100613577e-02 8.03397977951167e-04
3.61096153846154e+00 6.45541447097423e-02 7.99486179348697e-04
3.62365384615385e+00 6.41268268487298e-02 7.95588513316324e-04
3.63634615384615e+00 6.37023376292866e-02 7.91704992647889e-04
3.64903846153846e+00 6.32806583271493e-02 7.87835629503418e-04
3.66173076923077e+00 6.28617703420017e-02 7.83980434365914e-04
3.67442307692308e+00 6.24456551977690e-02 7.80139417612026e-04
3.68711538461538e+00 6.20322945384366e-02 7.76312588497154e-04
3.69980769230769e+00 6.16216701306233e-02 7.72499954126052e-04
3.71250000000000e+00 6.12137638616448e-02 7.68701520552594e-04
3.72519230769231e+00 6.08085577397865e-02 7.64917293769022e-04
3.73788461538462e+00 6.04060338902768e-02 7.61147278724600e-04
3.75057692307692e+00 6.00061745577478e-02 7.57391478330316e-04
3.76326923076923e+00 5.96089621043632e-02 7.53649894521019e-04
3.77596153846154e+00 5.92143790100709e-02 7.49922529210929e-04
3.78865384615385e+00 5.88224078687254e-02 7.46209383344899e-04
3.80134615384615e+00 5.84330313904402e-02 7.42510455935941e-04
3.81403846153846e+00 5.80462323997782e-02 7.38825745555405e-04
3.82673076923077e+00 5.76619938349969e-02 7.35155249395484e-04
3.83942307692308e+00 5.72802987482740e-02 7.31498964676882e-04
3.85211538461538e+00 5.69011303020056e-02 7.27856887736387e-04
3.86480769230769e+00 5.65244717710322e-02 7.24229013101668e-04
3.87750000000000e+00 5.61503065409075e-02 7.20615334476281e-04
3.89019230769231e+00 5.57786181081067e-02 7.17015845625975e-04
3.90288461538462e+00 5.54093900764592e-02 7.13430539496491e-04
3.91557692307692e+00 5.50426061592785e-02 7.09859407318637e-04
3.92826923076923e+00 5.46782501776883e-02 7.06302439559963e-04
3.94096153846154e+00 5.43163060608136e-02 7.02759626781367e-04
3.95365384615385e+00 5.39567578423440e-02 6.99230958783621e-04
3.96634615384615e+00 5.35995896625709e-02 6.95716423741863e-04
3.97903846153846e+00 5.32447857667687e-02 6.92216009542294e-04
3.99173076923077e+00 5.28923305045012e-02 6.88729702938753e-04
4.00442307692308e+00 5.25422083297926e-02 6.85257490815607e-04
