Energy (eV)          EEDF (eV^-(3/2))     First Anisotropy
2.52941176470588e-02 1.01391737673103e-01 6.51279021307502e-05
7.58823529411765e-02 1.00364425968192e-01 1.07360776851387e-04
1.26470588235294e-01 9.93475230864655e-02 1.41242041012579e-04
1.77058823529412e-01 9.83409235769793e-02 1.66687827070182e-04
2.27647058823529e-01 9.73445230409101e-02 1.87667956646695e-04
2.78235294117647e-01 9.63582181402798e-02 2.05690684047325e-04
3.28823529411765e-01 9.53819065817564e-02 2.21540145398666e-04
3.79411764705882e-01 9.44154871151933e-02 2.35691993108742e-04
4.30000000000000e-01 9.34588595124890e-02 2.48463089726817e-04
4.80588235294118e-01 9.25119245592926e-02 2.60078370090183e-04
5.31176470588235e-01 9.15745840508898e-02 2.70705065948487e-04
5.81764705882353e-01 9.06467407751650e-02 2.80471969876404e-04
6.32352941176471e-01 8.97282985035659e-02 2.89481068908486e-04
6.82941176470588e-01 8.88191619857455e-02 2.97814965839673e-04
7.33529411764706e-01 8.79192369347331e-02 3.05541823876246e-04
7.84117647058824e-01 8.70284300189008e-02 3.12718780656955e-04
8.34705882352941e-01 8.61466488512441e-02 3.19394377300964e-04
8.85294117647059e-01 8.52738019830587e-02 3.25610331334531e-04
9.35882352941176e-01 8.44097988910191e-02 3.31402859154353e-04
9.86470588235294e-01 8.35545499681511e-02 3.36803680877107e-04
1.03705882352941e+00 8.27079665137728e-02 3.41840796045899e-04
1.08764705882353e+00 8.18699607360463e-02 3.46539095524284e-04
1.13823529411765e+00 8.10404457170401e-02 3.50920843921622e-04
1.18882352941176e+00 8.02193354349702e-02 3.55006069694096e-04
1.23941176470588e+00 7.94065447250663e-02 3.58812882103066e-04
1.29000000000000e+00 7.86019892992081e-02 3.62357730952021e-04
1.34058823529412e+00 7.78055857102940e-02 3.65655622206326e-04
1.39117647058824e+00 7.70172513690361e-02 3.68720297559018e-04
1.44176470588235e+00 7.62369045112614e-02 3.71564385933521e-04
1.49235294117647e+00 7.54644642123562e-02 3.74199531390719e-04
1.54294117647059e+00 7.46998503570614e-02 3.76636502568167e-04
1.59352941176471e+00 7.39429836519477e-02 3.78885286144960e-04
1.64411764705882e+00 7.31937855973594e-02 3.80955167799960e-04
1.69470588235294e+00 7.24521784982218e-02 3.82854802031490e-04
1.74529411764706e+00 7.17180854378570e-02 3.84592273828736e-04
1.79588235294118e+00 7.09914302833068e-02 3.86175149717398e-04
1.84647058823529e+00 7.02721376770630e-02 3.87610527935987e-04
1.89705882352941e+00 6.95601330170285e-02 3.88905077638921e-04
1.94764705882353e+00 6.88553424647779e-02 3.90065075914426e-04
1.99823529411765e+00 6.81576929225362e-02 3.91096440460808e-04
2.04882352941176e+00 6.74671120403652e-02 3.92004758438083e-04
2.09941176470588e+00 6.67835281944534e-02 3.92795312546540e-04
2.15000000000000e+00 6.61068704933652e-02 3.93473104161495e-04
2.20058823529412e+00 6.54370687575115e-02 3.94042874402314e-04
2.25117647058824e+00 6.47740535245752e-02 3.94509122897114e-04
2.30176470588235e+00 6.41177560300512e-02 3.94876124993753e-04
2.35235294117647e+00 6.34681082119465e-02 3.95147947139038e-04
2.40294117647059e+00 6.28250426922919e-02 3.95328461080120e-04
2.45352941176471e+00 6.21884927812019e-02 3.95421356588876e-04
2.50411764705882e+00 6.15583924592737e-02 3.95430153288043e-04
2.55470588235294e+00 6.09346763810788e-02 3.95358211270457e-04
2.60529411764706e+00 6.03172798583776e-02 3.95208741396137e-04
2.65588235294118e+00 5.97061388608056e-02 3.94984812759156e-04
2.70647058823529e+00 5.91011900090524e-02 3.94689363273731e-04
2.75705882352941e+00 5.85023705613852e-02 3.94325205862388e-04
2.80764705882353e+00 5.79096184162260e-02 3.93895035830653e-04
2.85823529411765e+00 5.73228720969016e-02 3.93401437501944e-04
2.90882352941177e+00 5.67420707538144e-02 3.92846890192075e-04
2.95941176470588e+00 5.61671541498368e-02 3.92233773920297e-04
3.01000000000000e+00 5.55980626621173e-02 3.91564374552824e-04
3.06058823529412e+00 5.50347372680754e-02 3.90840888747784e-04
3.11117647058824e+00 5.44771195468796e-02 3.90065428408075e-04
3.16176470588235e+00 5.39251516660028e-02 3.89240024986704e-04
3.21235294117647e+00 5.33787763824048e-02 3.88366633361763e-04
3.26294117647059e+00 5.28379370296127e-02 3.87447135604181e-04
3.31352941176471e+00 5.23025775186374e-02 3.86483344366185e-04
3.36411764705882e+00 5.17726423255452e-02 3.85477006194536e-04
3.41470588235294e+00 5.12480764921352e-02 3.84429804506918e-04
3.46529411764706e+00 5.07288256139736e-02 3.83343362785645e-04
3.51588235294118e+00 5.02148358393965e-02 3.82219246132739e-04
3.56647058823529e+00 4.97060538638211e-02 3.81058965460226e-04
3.61705882352941e+00 4.92024269198459e-02 3.79863978801293e-04
3.66764705882353e+00 4.87039027775466e-02 3.78635693785348e-04
3.71823529411765e+00 4.82104297334374e-02 3.77375469824873e-04
3.76882352941176e+00 4.77219566105892e-02 3.76084620065271e-04
3.81941176470588e+00 4.72384327479785e-02 3.74764413343264e-04
3.87000000000000e+00 4.67598080004444e-02 3.73416075929089e-04
3.92058823529412e+00 4.62860327284049e-02 3.72040793286381e-04
3.97117647058824e+00 4.58170577976684e-02 3.70639711633875e-04
4.02176470588235e+00 4.53528345694976e-02 3.69213939531916e-04
4.07235294117647e+00 4.48933149002900e-02 3.67764549286581e-04
4.12294117647059e+00 4.44384511319722e-02 3.66292578384328e-04
4.17352941176471e+00 4.39881960915612e-02 3.64799030758049e-04
4.22411764705882e+00 4.35425030818734e-02 3.63284878087998e-04
4.27470588235294e+00 4.31013258809783e-02 3.61751060946529e-04
4.32529411764706e+00 4.26646187332074e-02 3.60198490182224e-04
4.37588235294118e+00 4.22323363475265e-02 3.58628047150831e-04
4.42647058823529e+00 4.18044338927726e-02 3.57040585995558e-04
4.47705882352941e+00 4.13808669900568e-02 3.55436933822999e-04
4.52764705882353e+00 4.09615917120575e-02 3.53817891815938e-04
4.57823529411765e+00 4.05465645746564e-02 3.52184236177332e-04
4.62882352941176e+00 4.01357425361524e-02 3.50536718949258e-04
4.67941176470588e+00 3.97290829891563e-02 3.48876068878676e-04
4.73000000000000e+00 3.93265437597335e-02 3.47202992165540e-04
4.78058823529412e+00 3.89280830995462e-02 3.45518173258374e-04
4.83117647058824e+00 3.85336596849319e-02 3.43822275539134e-04
4.88176470588235e+00 3.81432326092834e-02 3.42115942055836e-04
4.93235294117647e+00 3.77567613820687e-02 3.40399796150643e-04
4.98294117647059e+00 3.73742059214393e-02 3.38674442135820e-04
5.03352941176471e+00 3.69955265531979e-02 3.36940465870795e-04
5.08411764705882e+00 3.66206840036248e-02 3.35198435386934e-04
5.13470588235294e+00 3.62496393983999e-02 3.33448901418714e-04
5.18529411764706e+00 3.58823542556385e-02 3.31692398136791e-04
5.23588235294118e+00 3.55187904840814e-02 3.29929443017704e-04
5.28647058823529e+00 3.51589103791003e-02 3.28160538304485e-04
5.33705882352941e+00 3.48026766167177e-02 3.26386170868011e-04
5.38764705882353e+00 3.44500522524748e-02 3.24606812805422e-04
5.43823529411765e+00 3.41010007149175e-02 3.22822921921403e-04
5.48882352941177e+00 3.37554858044309e-02 3.21034942129723e-04
5.53941176470588e+00 3.34134716869112e-02 3.19243303901296e-04
5.59000000000000e+00 3.30749228925714e-02 3.17448424636218e-04
5.64058823529412e+00 3.27398043097910e-02 3.15650709081492e-04
5.69117647058824e+00 3.24080811838971e-02 3.13850549676189e-04
5.74176470588235e+00 3.20797191111853e-02 3.12048326941446e-04
5.79235294117647e+00 3.17546840376798e-02 3.10244409801040e-04
5.84294117647059e+00 3.14329422533191e-02 3.08439155945955e-04
5.89352941176471e+00 3.11144603906978e-02 3.06632912132521e-04
5.94411764705882e+00 3.07992054194117e-02 3.04826014523585e-04
5.99470588235294e+00 3.04871446447841e-02 3.03018788966066e-04
6.04529411764706e+00 3.01782457023648e-02 3.01211551431101e-04
6.09588235294118e+00 2.98724765561446e-02 2.99404607789720e-04
6.14647058823529e+00 2.95698054952014e-02 2.97598254832926e-04
6.19705882352941e+00 2.92702011289184e-02 2.95792780052014e-04
6.24764705882353e+00 2.89736323857059e-02 2.93988461999296e-04
6.29823529411765e+00 2.86800685078392e-02 2.92185570561446e-04
6.34882352941176e+00 2.83894790501719e-02 2.90384367177028e-04
6.39941176470588e+00 2.81018338751108e-02 2.88585105093509e-04
6.45000000000000e+00 2.78171031513229e-02 2.86788029570650e-04
6.50058823529412e+00 2.75352573488433e-02 2.84993378122458e-04
6.55117647058824e+00 2.72562672377775e-02 2.83201380707529e-04
6.60176470588235e+00 2.69801038835378e-02 2.81412259957008e-04
6.65235294117647e+00 2.67067386455424e-02 2.79626231352883e-04
6.70294117647059e+00 2.64361431725769e-02 2.77843503442893e-04
6.75352941176471e+00 2.61682894014914e-02 2.76064278007702e-04
6.80411764705882e+00 2.59031495526822e-02 2.74288750263724e-04
6.85470588235294e+00 2.56406961287899e-02 2.72517109019928e-04
6.90529411764706e+00 2.53809019102968e-02 2.70749536964221e-04
6.95588235294118e+00 2.51237399538596e-02 2.68986210430393e-04
7.00647058823529e+00 2.48691835894921e-02 2.67227300146273e-04
7.05705882352941e+00 2.46172064166998e-02 2.65472971008607e-04
7.10764705882353e+00 2.43677823031991e-02 2.63723382317441e-04
7.15823529411765e+00 2.41208853807759e-02 2.61978687942986e-04
7.20882352941176e+00 2.38764900440086e-02 2.60239036451383e-04
7.25941176470588e+00 2.36345709462315e-02 2.58504571262692e-04
7.31000000000000e+00 2.33951029982631e-02 2.56775430769248e-04
7.36058823529412e+00 2.31580613644708e-02 2.55051748485316e-04
7.41117647058824e+00 2.29234214615049e-02 2.53333653158478e-04
7.46176470588235e+00 2.26911589544624e-02 2.51621268911555e-04
7.51235294117647e+00 2.24612497556275e-02 2.49914715347468e-04
7.56294117647059e+00 2.22336700207311e-02 2.48214107683863e-04
7.61352941176471e+00 2.20083961476986e-02 2.46519556851986e-04
7.66411764705882e+00 2.17854047730028e-02 2.44831169624387e-04
7.71470588235294e+00 2.15646727704192e-02 2.43149048708102e-04
7.76529411764706e+00 2.13461772474696e-02 2.41473292941243e-04
7.81588235294118e+00 2.11298955439114e-02 2.39803997079197e-04
7.86647058823529e+00 2.09158052293703e-02 2.38141252359821e-04
7.91705882352941e+00 2.07038841001917e-02 2.36485146297832e-04
7.96764705882353e+00 2.04941101782287e-02 2.34835762844908e-04
8.01823529411765e+00 2.02864617074907e-02 2.33193182496719e-04
8.06882352941176e+00 2.00809171529405e-02 2.31557482368795e-04
8.11941176470588e+00 1.98774551972255e-02 2.29928736298322e-04
8.17000000000000e+00 1.96760547394849e-02 2.28307014915807e-04
8.22058823529412e+00 1.94766948921603e-02 2.26692385741972e-04
8.27117647058824e+00 1.92793549798138e-02 2.25084913255434e-04
8.32176470588235e+00 1.90840145360156e-02 2.23484658984957e-04
8.37235294117647e+00 1.88906533021737e-02 2.21891681573405e-04
8.42294117647059e+00 1.86992512244962e-02 2.20306036865621e-04
8.47352941176471e+00 1.85097884528327e-02 2.18727777968882e-04
8.52411764705882e+00 1.83222453377100e-02 2.17156955336612e-04
8.57470588235294e+00 1.81366024291845e-02 2.15593616825551e-04
8.62529411764706e+00 1.79528404739496e-02 2.14037807835621e-04
8.67588235294118e+00 1.77709404139919e-02 2.12489571123221e-04
8.72647058823529e+00 1.75908833846022e-02 2.10948947236457e-04
8.77705882352941e+00 1.74126507117960e-02 2.09415974335831e-04
8.82764705882353e+00 1.72362239112034e-02 2.07890688307468e-04
8.87823529411765e+00 1.70615846853390e-02 2.06373122834117e-04
8.92882352941177e+00 1.68887149225037e-02 2.04863309442099e-04
8.97941176470588e+00 1.67175966941202e-02 2.03361277569107e-04
9.03000000000000e+00 1.65482122536472e-02 2.01867054608618e-04
9.08058823529412e+00 1.63805440339775e-02 2.00380665974600e-04
9.13117647058824e+00 1.62145746463653e-02 1.98902135143572e-04
9.18176470588235e+00 1.60502868778859e-02 1.97431483716377e-04
9.23235294117647e+00 1.58876636903753e-02 1.95968731458007e-04
9.28294117647059e+00 1.57266882179501e-02 1.94513896356604e-04
9.33352941176471e+00 1.55673437659600e-02 1.93066994661161e-04
9.38411764705882e+00 1.54096138085661e-02 1.91628040937898e-04
9.43470588235294e+00 1.52534819877062e-02 1.90197048105936e-04
9.48529411764706e+00 1.50989321107297e-02 1.88774027539367e-04
9.53588235294118e+00 1.49459481492174e-02 1.87358988907919e-04
9.58647058823529e+00 1.47945142373093e-02 1.85951940516569e-04
9.63705882352941e+00 1.46446146695832e-02 1.84552889152558e-04
9.68764705882353e+00 1.44962339000576e-02 1.83161840167436e-04
9.73823529411765e+00 1.43493565399578e-02 1.81778797525293e-04
9.78882352941176e+00 1.42039673567317e-02 1.80403763832162e-04
9.83941176470588e+00 1.40600512718677e-02 1.79036740382172e-04
9.89000000000000e+00 1.39175933599240e-02 1.77677727185378e-04
9.94058823529412e+00 1.37765788463969e-02 1.76326723011900e-04
9.99117647058824e+00 1.36369931067629e-02 1.74983725460853e-04
1.00417647058824e+01 1.34988216642597e-02 1.73648730748503e-04
1.00923529411765e+01 1.33620501897589e-02 1.72321734446862e-04
1.01429411764706e+01 1.32266644972990e-02 1.71002730484262e-04
1.01935294117647e+01 1.30926505473242e-02 1.69691711491959e-04
1.02441176470588e+01 1.29599944411793e-02 1.68388670304745e-04
1.02947058823529e+01 1.28286824197698e-02 1.67093597501373e-04
1.03452941176471e+01 1.26987008659618e-02 1.65806482676363e-04
1.03958823529412e+01 1.25700362993015e-02 1.64527315668332e-04
1.04464705882353e+01 1.24426753747166e-02 1.63256084192829e-04
1.04970588235294e+01 1.23166048847849e-02 1.61992775065103e-04
1.05476470588235e+01 1.21918117546721e-02 1.60737375381275e-04
1.05982352941176e+01 1.20682830408684e-02 1.59489870239861e-04
1.06488235294118e+01 1.19460059333365e-02 1.58250243916728e-04
1.06994117647059e+01 1.18249677506568e-02 1.57018481001731e-04
1.07500000000000e+01 1.17051559387981e-02 1.55794564205183e-04
1.08005882352941e+01 1.15865580731522e-02 1.54578475833482e-04
1.08511764705882e+01 1.14691618528033e-02 1.53370197493873e-04
1.09017647058824e+01 1.13529551036357e-02 1.52169709717937e-04
1.09523529411765e+01 1.12379257737899e-02 1.50976993402227e-04
1.10029411764706e+01 1.11240619324926e-02 1.49792027741318e-04
1.10535294117647e+01 1.10113517719245e-02 1.48614791290261e-04
1.11041176470588e+01 1.08997836028592e-02 1.47445262992874e-04
1.11547058823529e+01 1.07893458535273e-02 1.46283420191393e-04
1.12052941176471e+01 1.06800270713854e-02 1.45129239649120e-04
1.12558823529412e+01 1.05718159189285e-02 1.43982698539166e-04
1.13064705882353e+01 1.04647011725882e-02 1.42843772527807e-04
1.13570588235294e+01 1.03586717244075e-02 1.41712436758423e-04
1.14076470588235e+01 1.02537165780204e-02 1.40588666802984e-04
1.14582352941176e+01 1.01498248475813e-02 1.39472436816173e-04
1.15088235294118e+01 1.00469857593518e-02 1.38363720481581e-04
1.15594117647059e+01 9.94518864784025e-03 1.37262491927941e-04
1.16100000000000e+01 9.84442295476143e-03 1.36168723951118e-04
1.16605882352941e+01 9.74467823053961e-03 1.35082389204570e-04
1.17111764705882e+01 9.64594412976569e-03 1.34003459957162e-04
1.17617647058824e+01 9.54821041353863e-03 1.32931907785250e-04
1.18123529411765e+01 9.45146694584772e-03 1.31867704735767e-04
1.18629411764706e+01 9.35570369258197e-03 1.30810821649839e-04
1.19135294117647e+01 9.26091072291167e-03 1.29761229019764e-04
1.19641176470588e+01 9.16707820581225e-03 1.28718897819159e-04
1.20147058823529e+01 9.07419640910348e-03 1.27683797887884e-04
1.20652941176471e+01 8.98225570075784e-03 1.26655898757399e-04
1.21158823529412e+01 8.89124654556011e-03 1.25635170449520e-04
1.21664705882353e+01 8.80115950417531e-03 1.24621581920403e-04
1.22170588235294e+01 8.71198523438765e-03 1.23615101855136e-04
1.22676470588235e+01 8.62371448789107e-03 1.22615699436839e-04
1.23182352941176e+01 8.53633810938349e-03 1.21623342847404e-04
1.23688235294118e+01 8.44984703774114e-03 1.20638000032113e-04
1.24194117647059e+01 8.36423230293419e-03 1.19659639440612e-04
1.24700000000000e+01 8.27948502514655e-03 1.18688228582110e-04
1.25205882352941e+01 8.19559641588915e-03 1.17723734988863e-04
1.25711764705882e+01 8.11255777438016e-03 1.16766126017342e-04
1.26217647058824e+01 8.03036048931647e-03 1.15815368596126e-04
1.26723529411765e+01 7.94899603597905e-03 1.14871430167792e-04
1.27229411764706e+01 7.86845597539538e-03 1.13934277326005e-04
1.27735294117647e+01 7.78873195536316e-03 1.13003876508928e-04
1.28241176470588e+01 7.70981570766677e-03 1.12080194671437e-04
1.28747058823529e+01 7.63169904726488e-03 1.11163197971500e-04
1.29252941176471e+01 7.55437387326024e-03 1.10252852438339e-04
1.29758823529412e+01 7.47783216622263e-03 1.09349124619596e-04
1.30264705882353e+01 7.40206598740085e-03 1.08451980315164e-04
1.30770588235294e+01 7.32706747964127e-03 1.07561385220809e-04
1.31276470588235e+01 7.25282886481370e-03 1.06677305551621e-04
1.31782352941176e+01 7.17934244304574e-03 1.05799706821511e-04
1.32288235294118e+01 7.10660059359372e-03 1.04928554462887e-04
1.32794117647059e+01 7.03459577236685e-03 1.04063814427589e-04
1.33300000000000e+01 6.96332051118347e-03 1.03205452010242e-04
1.33805882352941e+01 6.89276741859681e-03 1.02353432630120e-04
1.34311764705882e+01 6.82292917699783e-03 1.01507721667796e-04
1.34817647058824e+01 6.75379854396015e-03 1.00668284258461e-04
1.35323529411765e+01 6.68536834991400e-03 9.98350860566768e-05
1.35829411764706e+01 6.61763149743869e-03 9.90080921259081e-05
1.36335294117647e+01 6.55058096202208e-03 9.81872675011198e-05
1.36841176470588e+01 6.48420978982224e-03 9.73725777345549e-05
1.37347058823529e+01 6.41851109698117e-03 9.65639878249809e-05
1.37852941176471e+01 6.35347807034437e-03 9.57614627600485e-05
1.38358823529412e+01 6.28910396530666e-03 9.49649680419879e-05
1.38864705882353e+01 6.22538210514644e-03 9.41744686551426e-05
1.39370588235294e+01 6.16230588170738e-03 9.33899295886364e-05
1.39876470588235e+01 6.09986875332552e-03 9.26113163430161e-05
1.40382352941176e+01 6.03806424418264e-03 9.18385939346638e-05
1.40888235294118e+01 5.97688594495261e-03 9.10717273992530e-05
1.41394117647059e+01 5.91632751080629e-03 9.03106822802884e-05
1.41900000000000e+01 5.85638266078352e-03 8.95554236689383e-05
1.42405882352941e+01 5.79704517840595e-03 8.88059168400180e-05
1.42911764705882e+01 5.73830890934918e-03 8.80621271176312e-05
1.43417647058824e+01 5.68016776246673e-03 8.73240197055232e-05
1.43923529411765e+01 5.62261570791399e-03 8.65915603094285e-05
1.44429411764706e+01 5.56564677655082e-03 8.58647142305333e-05
1.44935294117647e+01 5.50925506050522e-03 8.51434468230153e-05
1.45441176470588e+01 5.45343471136680e-03 8.44277239381400e-05
1.45947058823529e+01 5.39817993960739e-03 8.37175110498520e-05
1.46452941176471e+01 5.34348501511502e-03 8.30127736960226e-05
1.46958823529412e+01 5.28934426545433e-03 8.23134779063745e-05
1.47464705882353e+01 5.23575207530446e-03 8.16195893590611e-05
1.47970588235294e+01 5.18270288696493e-03 8.09310738060570e-05
1.48476470588235e+01 5.13019119868058e-03 8.02478974857359e-05
1.48982352941176e+01 5.07821156409580e-03 7.95700263092971e-05
1.49488235294118e+01 5.02675859273404e-03 7.88974262706825e-05
1.49994117647059e+01 4.97582694838469e-03 7.82300638445589e-05
1.50500000000000e+01 4.92541134857312e-03 7.75679052014352e-05
1.51005882352941e+01 4.87550656501523e-03 7.69109167260311e-05
1.51511764705882e+01 4.82610742174064e-03 7.62590649066530e-05
1.52017647058824e+01 4.77720879587410e-03 7.56123161957738e-05
1.52523529411765e+01 4.72880561611739e-03 7.49706375174926e-05
1.53029411764706e+01 4.68089286224520e-03 7.43339955262113e-05
1.53535294117647e+01 4.63346556552315e-03 7.37023569794803e-05
1.54041176470588e+01 4.58651880724519e-03 7.30756891000779e-05
1.54547058823529e+01 4.54004771824465e-03 7.24539588607399e-05
1.55052941176471e+01 4.49404747929020e-03 7.18371333438454e-05
1.55558823529412e+01 4.44851331967654e-03 7.12251800904341e-05
1.56064705882353e+01 4.40344051675023e-03 7.06180664100814e-05
1.56570588235294e+01 4.35882439628459e-03 7.00157597277817e-05
1.57076470588235e+01 4.31466033112201e-03 6.94182279205518e-05
1.57582352941176e+01 4.27094374071353e-03 6.88254386515254e-05
1.58088235294118e+01 4.22767009147417e-03 6.82373597043433e-05
1.58594117647059e+01 4.18483489547475e-03 6.76539593079549e-05
1.59100000000000e+01 4.14243370999484e-03 6.70752054940134e-05
1.59605882352941e+01 4.10046213785946e-03 6.65010665201204e-05
