Energy (eV)          EEDF (eV^-(3/2))     First Anisotropy
1.13658536585366e-02 2.53590318449250e-01 1.47975964169009e-04
3.40975609756098e-02 2.51462392567586e-01 2.44145951058141e-04
5.68292682926829e-02 2.49352322528299e-01 3.21759220621793e-04
7.95609756097561e-02 2.47259958495755e-01 3.80394332785838e-04
1.02292682926829e-01 2.45185151899557e-01 4.29025804488182e-04
1.25024390243902e-01 2.43127755402840e-01 4.71054380405209e-04
1.47756097560976e-01 2.41087622928990e-01 5.08243689912833e-04
1.70487804878049e-01 2.39064609609263e-01 5.41660945915760e-04
1.93219512195122e-01 2.37058571781293e-01 5.72015387767936e-04
2.15951219512195e-01 2.35069367012509e-01 5.99809306834630e-04
2.38682926829268e-01 2.33096854052277e-01 6.25415274590241e-04
2.61414634146341e-01 2.31140892835644e-01 6.49119567452232e-04
2.84146341463415e-01 2.29201344466545e-01 6.71148369340263e-04
3.06878048780488e-01 2.27278071228758e-01 6.91684470743989e-04
3.29609756097561e-01 2.25370936554001e-01 7.10878385414603e-04
3.52341463414634e-01 2.23479805014846e-01 7.28856015169524e-04
3.75073170731707e-01 2.21604542331487e-01 7.45724102187500e-04
3.97804878048780e-01 2.19745015344914e-01 7.61574204230417e-04
4.20536585365854e-01 2.17901092009272e-01 7.76485652699143e-04
4.43268292682927e-01 2.16072641395866e-01 7.90527802816584e-04
4.66000000000000e-01 2.14259533669805e-01 8.03761771285230e-04
4.88731707317073e-01 2.12461640082116e-01 8.16241794350744e-04
5.11463414634146e-01 2.10678832971830e-01 8.28016309687674e-04
5.34195121951220e-01 2.08910985745178e-01 8.39128825780562e-04
5.56926829268293e-01 2.07157972867598e-01 8.49618624598643e-04
5.79658536585366e-01 2.05419669864441e-01 8.59521341073199e-04
6.02390243902439e-01 2.03695953302140e-01 8.68869442588579e-04
6.25121951219512e-01 2.01986700780187e-01 8.77692625777634e-04
6.47853658536585e-01 2.00291790930831e-01 8.86018152969598e-04
6.70585365853658e-01 1.98611103401801e-01 8.93871136920772e-04
6.93317073170732e-01 1.96944518848338e-01 9.01274780344020e-04
7.16048780487805e-01 1.95291918932105e-01 9.08250583893308e-04
7.38780487804878e-01 1.93653186305201e-01 9.14818525054385e-04
7.61512195121951e-01 1.92028204604423e-01 9.20997211728244e-04
7.84243902439024e-01 1.90416858440983e-01 9.26804015941486e-04
8.06975609756098e-01 1.88819033398506e-01 9.32255191741871e-04
8.29707317073171e-01 1.87234616018561e-01 9.37365978980216e-04
8.52439024390244e-01 1.85663493792966e-01 9.42150692290304e-04
8.75170731707317e-01 1.84105555161356e-01 9.46622802159319e-04
8.97902439024390e-01 1.82560689497561e-01 9.50795006904455e-04
9.20634146341463e-01 1.81028787102069e-01 9.54679294455665e-04
9.43365853658537e-01 1.79509739199256e-01 9.58286999798400e-04
9.66097560975610e-01 1.78003437924510e-01 9.61628856461827e-04
9.88829268292683e-01 1.76509776316857e-01 9.64715040145915e-04
1.01156097560976e+00 1.75028648318791e-01 9.67555212652920e-04
1.03429268292683e+00 1.73559948751127e-01 9.70158557167183e-04
1.05702439024390e+00 1.72103573324619e-01 9.72533807966354e-04
1.07975609756098e+00 1.70659418638597e-01 9.74689290741391e-04
1.10248780487805e+00 1.69227382132985e-01 9.76632944720178e-04
1.12521951219512e+00 1.67807362121909e-01 9.78372343423359e-04
1.14795121951220e+00 1.66399257772763e-01 9.79914722577732e-04
1.17068292682927e+00 1.65002969111034e-01 9.81267005250194e-04
1.19341463414634e+00 1.63618396976967e-01 9.82435817142220e-04
1.21614634146341e+00 1.62245443054990e-01 9.83427500200757e-04
1.23887804878049e+00 1.60884009854567e-01 9.84248133506552e-04
1.26160975609756e+00 1.59534000713955e-01 9.84903552135725e-04
1.28434146341463e+00 1.58195319760845e-01 9.85399357293484e-04
1.30707317073171e+00 1.56867871938281e-01 9.85740923500381e-04
1.32980487804878e+00 1.55551562996878e-01 9.85933422019256e-04
1.35253658536585e+00 1.54246299458193e-01 9.85981826377714e-04
1.37526829268293e+00 1.52951988638203e-01 9.85890918994964e-04
1.39800000000000e+00 1.51668538630592e-01 9.85665304713214e-04
1.42073170731707e+00 1.50395858309220e-01 9.85309423040643e-04
1.44346341463415e+00 1.49133857294565e-01 9.84827553118474e-04
1.46619512195122e+00 1.47882445974557e-01 9.84223818049115e-04
1.48892682926829e+00 1.46641535489090e-01 9.83502195865996e-04
1.51165853658537e+00 1.45411037731844e-01 9.82666529456859e-04
1.53439024390244e+00 1.44190865319413e-01 9.81720529779915e-04
1.55712195121951e+00 1.42980931609868e-01 9.80667777091809e-04
1.57985365853659e+00 1.41781150695894e-01 9.79511736105662e-04
1.60258536585366e+00 1.40591437375816e-01 9.78255756629667e-04
1.62531707317073e+00 1.39411707170570e-01 9.76903075474128e-04
1.64804878048780e+00 1.38241876309943e-01 9.75456824412614e-04
1.67078048780488e+00 1.37081861733594e-01 9.73920037374657e-04
1.69351219512195e+00 1.35931581064224e-01 9.72295651790366e-04
1.71624390243902e+00 1.34790952622781e-01 9.70586509631643e-04
1.73897560975610e+00 1.33659895415592e-01 9.68795364219630e-04
1.76170731707317e+00 1.32538329134978e-01 9.66924886366272e-04
1.78443902439024e+00 1.31426174134348e-01 9.64977665039452e-04
1.80717073170732e+00 1.30323351441862e-01 9.62956207787936e-04
1.82990243902439e+00 1.29229782748360e-01 9.60862946647019e-04
1.85263414634146e+00 1.28145390407630e-01 9.58700243458312e-04
1.87536585365854e+00 1.27070097413240e-01 9.56470390045347e-04
1.89809756097561e+00 1.26003827410835e-01 9.54175606986263e-04
1.92082926829268e+00 1.24946504692252e-01 9.51818053648562e-04
1.94356097560976e+00 1.23898054173594e-01 9.49399826799625e-04
1.96629268292683e+00 1.22858401406552e-01 9.46922960360176e-04
1.98902439024390e+00 1.21827472567512e-01 9.44389430122059e-04
2.01175609756098e+00 1.20805194457395e-01 9.41801157987156e-04
2.03448780487805e+00 1.19791494481172e-01 9.39160011610617e-04
2.05721951219512e+00 1.18786300658086e-01 9.36467803902731e-04
2.07995121951219e+00 1.17789541611387e-01 9.33726297246993e-04
2.10268292682927e+00 1.16801146567942e-01 9.30937207283912e-04
2.12541463414634e+00 1.15821045339070e-01 9.28102202351740e-04
2.14814634146341e+00 1.14849168329784e-01 9.25222902808168e-04
2.17087804878049e+00 1.13885446529093e-01 9.22300884832373e-04
2.19360975609756e+00 1.12929811509432e-01 9.19337683831246e-04
2.21634146341463e+00 1.11982195408682e-01 9.16334793733504e-04
2.23907317073171e+00 1.11042530938555e-01 9.13293665203607e-04
2.26180487804878e+00 1.10110751379496e-01 9.10215713029051e-04
2.28453658536585e+00 1.09186790563569e-01 9.07102314289700e-04
2.30726829268293e+00 1.08270582882209e-01 9.03954807496431e-04
2.33000000000000e+00 1.07362063277376e-01 9.00774495798697e-04
2.35273170731707e+00 1.06461167240761e-01 8.97562649851018e-04
2.37546341463415e+00 1.05567830797694e-01 8.94320506965651e-04
2.39819512195122e+00 1.04681990514175e-01 8.91049270184153e-04
2.42092682926829e+00 1.03803583488497e-01 8.87750111218689e-04
2.44365853658537e+00 1.02932547350317e-01 8.84424173077740e-04
2.46639024390244e+00 1.02068820245522e-01 8.81072569165550e-04
2.48912195121951e+00 1.01212340842605e-01 8.77696381462274e-04
2.51185365853659e+00 1.00363048328066e-01 8.74296666634562e-04
2.53458536585366e+00 9.95208823919567e-02 8.70874454203779e-04
2.55731707317073e+00 9.86857832337936e-02 8.67430745566490e-04
2.58004878048780e+00 9.78576915548839e-02 8.63966516537563e-04
2.60278048780488e+00 9.70365485572591e-02 8.60482719616686e-04
2.62551219512195e+00 9.62222959300346e-02 8.56980283051392e-04
2.64824390243902e+00 9.54148758547903e-02 8.53460109840779e-04
2.67097560975610e+00 9.46142309982702e-02 8.49923080095394e-04
2.69370731707317e+00 9.38203045112430e-02 8.46370053137760e-04
2.71643902439024e+00 9.30330400156201e-02 8.42801866555253e-04
2.73917073170732e+00 9.22523816093494e-02 8.39219335199667e-04
2.76190243902439e+00 9.14782738594680e-02 8.35623253383445e-04
2.78463414634146e+00 9.07106618009013e-02 8.32014396833352e-04
2.80736585365854e+00 8.99494909242850e-02 8.28393521742441e-04
2.83009756097561e+00 8.91947071804184e-02 8.24761363072342e-04
2.85282926829268e+00 8.84462569762460e-02 8.21118639415281e-04
2.87556097560976e+00 8.77040871631887e-02 8.17466051303453e-04
2.89829268292683e+00 8.69681450412785e-02 8.13804280228527e-04
2.92102439024390e+00 8.62383783527592e-02 8.10133990583064e-04
2.94375609756098e+00 8.55147352808217e-02 8.06455831384954e-04
2.96648780487805e+00 8.47971644385558e-02 8.02770435352318e-04
2.98921951219512e+00 8.40856148727130e-02 7.99078417936949e-04
3.01195121951219e+00 8.33800360576043e-02 7.95380379144100e-04
3.03468292682927e+00 8.26803778938011e-02 7.91676905147892e-04
3.05741463414634e+00 8.19865906976649e-02 7.87968567380610e-04
3.08014634146341e+00 8.12986252047732e-02 7.84255921583832e-04
3.10287804878049e+00 8.06164325640947e-02 7.80539509517749e-04
3.12560975609756e+00 7.99399643366659e-02 7.76819860477865e-04
3.14834146341463e+00 7.92691724856588e-02 7.73097490400949e-04
3.17107317073171e+00 7.86040093795025e-02 7.69372900353714e-04
3.19380487804878e+00 7.79444277883627e-02 7.65646580483073e-04
3.21653658536585e+00 7.72903808746026e-02 7.61919008515996e-04
3.23926829268293e+00 7.66418221956782e-02 7.58190648854447e-04
3.26200000000000e+00 7.59987056987520e-02 7.54461954107008e-04
3.28473170731707e+00 7.53609857193526e-02 7.50733366446730e-04
3.30746341463415e+00 7.47286169723148e-02 7.47005316760420e-04
3.33019512195122e+00 7.41015545544152e-02 7.43278223767008e-04
3.35292682926829e+00 7.34797539392232e-02 7.39552495462775e-04
3.37565853658537e+00 7.28631709757511e-02 7.35828530402001e-04
3.39839024390244e+00 7.22517618798450e-02 7.32106716868572e-04
3.42112195121951e+00 7.16454832365819e-02 7.28387431506361e-04
3.44385365853659e+00 7.10442919970734e-02 7.24671042739119e-04
3.46658536585366e+00 7.04481454701859e-02 7.20957909413468e-04
3.48931707317073e+00 6.98570013247636e-02 7.17248379966179e-04
3.51204878048780e+00 6.92708175848566e-02 7.13542793728383e-04
3.53478048780488e+00 6.86895526283754e-02 7.09841482080572e-04
3.55751219512195e+00 6.81131651792121e-02 7.06144767670260e-04
3.58024390243902e+00 6.75416143092612e-02 7.02452963603927e-04
3.60297560975610e+00 6.69748594338525e-02 6.98766374682083e-04
3.62570731707317e+00 6.64128603104074e-02 6.95085298492265e-04
3.64843902439024e+00 6.58555770309398e-02 6.91410024650466e-04
3.67117073170732e+00 6.53029700238913e-02 6.87740834018553e-04
3.69390243902439e+00 6.47550000497574e-02 6.84077999874582e-04
3.71663414634146e+00 6.42116281997504e-02 6.80421788948524e-04
3.73936585365854e+00 6.36728158886569e-02 6.76772460687479e-04
3.76209756097561e+00 6.31385248565033e-02 6.73130266067643e-04
3.78482926829268e+00 6.26087171657512e-02 6.69495450431372e-04
3.80756097560976e+00 6.20833551944162e-02 6.65868252311992e-04
3.83029268292683e+00 6.15624016376083e-02 6.62248902699334e-04
3.85302439024390e+00 6.10458195034683e-02 6.58637626103261e-04
3.87575609756098e+00 6.05335721118539e-02 6.55034641494548e-04
3.89848780487805e+00 6.00256230877796e-02 6.51440161615366e-04
3.92121951219512e+00 5.95219363628125e-02 6.47854392269450e-04
3.94395121951219e+00 5.90224761711767e-02 6.44277533332608e-04
3.96668292682927e+00 5.85272070484520e-02 6.40709779646154e-04
3.98941463414634e+00 5.80360938253187e-02 6.37151320350596e-04
4.01214634146341e+00 5.75491016288185e-02 6.33602338200163e-04
4.03487804878049e+00 5.70661958786210e-02 6.30063010523259e-04
4.05760975609756e+00 5.65873422857358e-02 6.26533510071899e-04
4.08034146341463e+00 5.61125068465445e-02 6.23014004377704e-04
4.10307317073171e+00 5.56416558439412e-02 6.19504654727004e-04
4.12580487804878e+00 5.51747558448686e-02 6.16005618532232e-04
4.14853658536585e+00 5.47117736945600e-02 6.12517048318338e-04
4.17126829268293e+00 5.42526765175888e-02 6.09039091081597e-04
4.19400000000000e+00 5.37974317143917e-02 6.05571889166928e-04
4.21673170731707e+00 5.33460069600159e-02 6.02115581043398e-04
4.23946341463415e+00 5.28983701986212e-02 5.98670300702127e-04
4.26219512195122e+00 5.24544896444253e-02 5.95236177037897e-04
4.28492682926829e+00 5.20143337783669e-02 5.91813334684586e-04
4.30765853658537e+00 5.15778713468714e-02 5.88401894753543e-04
4.33039024390244e+00 5.11450713566004e-02 5.85001974252788e-04
4.35312195121951e+00 5.07159030752996e-02 5.81613685168981e-04
4.37585365853659e+00 5.02903360295588e-02 5.78237136552928e-04
4.39858536585366e+00 4.98683399997411e-02 5.74872433611915e-04
4.42131707317073e+00 4.94498850207612e-02 5.71519677132362e-04
4.44404878048780e+00 4.90349413789753e-02 5.68178964244974e-04
4.46678048780488e+00 4.86234796109855e-02 5.64850389100872e-04
4.48951219512195e+00 4.82154704987935e-02 5.61534042329089e-04
4.51224390243902e+00 4.78108850704960e-02 5.58230010479780e-04
4.53497560975610e+00 4.74096945972983e-02 5.54938376753966e-04
4.55770731707317e+00 4.70118705923396e-02 5.51659221648194e-04
4.58043902439024e+00 4.66173848060597e-02 5.48392622431554e-04
4.60317073170732e+00 4.62262092268187e-02 5.45138652609151e-04
4.62590243902439e+00 4.58383160780285e-02 5.41897382618302e-04
4.64863414634146e+00 4.54536778169997e-02 5.38668880443531e-04
4.67136585365854e+00 4.50722671305103e-02 5.35453211112381e-04
4.69409756097561e+00 4.46940569353564e-02 5.32250435905551e-04
4.71682926829268e+00 4.43190203763822e-02 5.29060614115875e-04
4.73956097560976e+00 4.39471308221971e-02 5.25883802267774e-04
4.76229268292683e+00 4.35783618656746e-02 5.22720053616636e-04
4.78502439024390e+00 4.32126873212746e-02 5.19569418788404e-04
4.80775609756098e+00 4.28500812239322e-02 5.16431946344540e-04
4.83048780487805e+00 4.24905178249597e-02 5.13307682311525e-04
4.85321951219512e+00 4.21339715924854e-02 5.10196669698794e-04
4.87595121951219e+00 4.17804172088804e-02 5.07098949109528e-04
4.89868292682927e+00 4.14298295696700e-02 5.04014559280135e-04
4.92141463414634e+00 4.10821837796114e-02 5.00943536627007e-04
4.94414634146341e+00 4.07374551530776e-02 4.97885914782157e-04
4.96687804878049e+00 4.03956192115845e-02 4.94841725176834e-04
4.98960975609756e+00 4.00566516827243e-02 4.91810997556874e-04
5.01234146341463e+00 3.97205284964110e-02 4.88793759545921e-04
5.03507317073171e+00 3.93872257852142e-02 4.85790035966046e-04
5.05780487804878e+00 3.90567198826273e-02 4.82799850327130e-04
5.08053658536585e+00 3.87289873194341e-02 4.79823224155212e-04
5.10326829268293e+00 3.84040048240062e-02 4.76860176559408e-04
5.12600000000000e+00 3.80817493199917e-02 4.73910724769419e-04
5.14873170731707e+00 3.77621979252913e-02 4.70974884610084e-04
5.17146341463415e+00 3.74453279485791e-02 4.68052670094111e-04
5.19419512195122e+00 3.71311168895567e-02 4.65144093004990e-04
5.21692682926829e+00 3.68195424367303e-02 4.62249163410969e-04
5.23965853658537e+00 3.65105824664100e-02 4.59367890118792e-04
5.26239024390244e+00 3.62042150393765e-02 4.56500280281382e-04
5.28512195121951e+00 3.59004184010959e-02 4.53646338789657e-04
5.30785365853658e+00 3.55991709801425e-02 4.50806069592590e-04
5.33058536585366e+00 3.53004513849725e-02 4.47979475096001e-04
5.35331707317073e+00 3.50042384041099e-02 4.45166555773774e-04
5.37604878048780e+00 3.47105110040674e-02 4.42367310641805e-04
5.39878048780488e+00 3.44192483283882e-02 4.39581737676501e-04
5.42151219512195e+00 3.41304296945531e-02 4.36809833448890e-04
5.44424390243902e+00 3.38440345941329e-02 4.34051592750106e-04
5.46697560975610e+00 3.35600426907885e-02 4.31307009045010e-04
5.48970731707317e+00 3.32784338193349e-02 4.28576074872603e-04
5.51243902439024e+00 3.29991879827765e-02 4.25858781493539e-04
5.53517073170732e+00 3.27222853524288e-02 4.23155118529726e-04
5.55790243902439e+00 3.24477062659942e-02 4.20465074398417e-04
5.58063414634146e+00 3.21754312266479e-02 4.17788636695352e-04
5.60336585365854e+00 3.19054409001961e-02 4.15125791855442e-04
5.62609756097561e+00 3.16377161151691e-02 4.12476524629102e-04
5.64882926829268e+00 3.13722378614342e-02 4.09840819205712e-04
5.67156097560976e+00 3.11089872874420e-02 4.07218658696021e-04
5.69429268292683e+00 3.08479457002997e-02 4.04610024795912e-04
5.71702439024390e+00 3.05890945639698e-02 4.02014898187514e-04
5.73975609756098e+00 3.03324154983970e-02 3.99433258893232e-04
5.76248780487805e+00 3.00778902768673e-02 3.96865085959152e-04
5.78521951219512e+00 2.98255008260573e-02 3.94310357131302e-04
5.80795121951220e+00 2.95752292243004e-02 3.91769049239823e-04
5.83068292682927e+00 2.93270577007354e-02 3.89241138537908e-04
5.85341463414634e+00 2.90809686327734e-02 3.86726600397002e-04
5.87614634146341e+00 2.88369445461249e-02 3.84225408995171e-04
5.89887804878049e+00 2.85949681131311e-02 3.81737537684998e-04
5.92160975609756e+00 2.83550221519340e-02 3.79262959318240e-04
5.94434146341463e+00 2.81170896240454e-02 3.76801645952273e-04
5.96707317073171e+00 2.78811536343554e-02 3.74353568399023e-04
5.98980487804878e+00 2.76471974299108e-02 3.71918697183235e-04
6.01253658536585e+00 2.74152043975592e-02 3.69497002096577e-04
6.03526829268293e+00 2.71851580639425e-02 3.67088451906830e-04
6.05800000000000e+00 2.69570420939336e-02 3.64693014698305e-04
6.08073170731707e+00 2.67308402898448e-02 3.62310658172312e-04
6.10346341463415e+00 2.65065365891667e-02 3.59941349373290e-04
6.12619512195122e+00 2.62841150645450e-02 3.57585054408801e-04
6.14892682926829e+00 2.60635599222749e-02 3.55241738775763e-04
6.17165853658537e+00 2.58448555015306e-02 3.52911367648354e-04
6.19439024390244e+00 2.56279862721942e-02 3.50593905614287e-04
6.21712195121951e+00 2.54129368348181e-02 3.48289316270351e-04
6.23985365853659e+00 2.51996919195126e-02 3.45997563075988e-04
6.26258536585366e+00 2.49882363838413e-02 3.43718608953416e-04
6.28531707317073e+00 2.47785552127725e-02 3.41452416026501e-04
6.30804878048780e+00 2.45706335172680e-02 3.39198945922905e-04
6.33078048780488e+00 2.43644565335488e-02 3.36958160040608e-04
6.35351219512195e+00 2.41600096210743e-02 3.34730019301792e-04
6.37624390243902e+00 2.39572782624809e-02 3.32514483901382e-04
6.39897560975610e+00 2.37562480622225e-02 3.30311513596719e-04
6.42170731707317e+00 2.35569047458564e-02 3.28121067963039e-04
6.44443902439024e+00 2.33592341581022e-02 3.25943106156495e-04
6.46717073170732e+00 2.31632222627691e-02 3.23777586672048e-04
6.48990243902439e+00 2.29688551414469e-02 3.21624467621183e-04
6.51263414634146e+00 2.27761189928102e-02 3.19483706976938e-04
6.53536585365854e+00 2.25850001307550e-02 3.17355262345648e-04
6.55809756097561e+00 2.23954849843150e-02 3.15239090618045e-04
6.58082926829268e+00 2.22075600966834e-02 3.13135148699756e-04
6.60356097560976e+00 2.20212121234046e-02 3.11043393166376e-04
6.62629268292683e+00 2.18364278322841e-02 3.08963780037476e-04
6.64902439024390e+00 2.16531941021610e-02 3.06896265034060e-04
6.67175609756098e+00 2.14714979222460e-02 3.04840803805752e-04
6.69448780487805e+00 2.12913263903849e-02 3.02797351717737e-04
6.71721951219512e+00 2.11126667129596e-02 3.00765863633097e-04
6.73995121951219e+00 2.09355062037058e-02 2.98746294159836e-04
6.76268292682927e+00 2.07598322830691e-02 2.96738597868759e-04
6.78541463414634e+00 2.05856324765362e-02 2.94742729088254e-04
6.80814634146341e+00 2.04128944145292e-02 2.92758641694762e-04
6.83087804878049e+00 2.02416058312657e-02 2.90786289349725e-04
6.85360975609756e+00 2.00717545641333e-02 2.88825625708581e-04
6.87634146341463e+00 1.99033285520855e-02 2.86876604223137e-04
6.89907317073171e+00 1.97363158355298e-02 2.84939177840307e-04
6.92180487804878e+00 1.95707045554657e-02 2.83013299628350e-04
6.94453658536585e+00 1.94064829519284e-02 2.81098922479033e-04
6.96726829268293e+00 1.92436393638723e-02 2.79195998911925e-04
6.99000000000000e+00 1.90821622281016e-02 2.77304481294338e-04
7.01273170731707e+00 1.89220400786755e-02 2.75424322035238e-04
7.03546341463415e+00 1.87632615454123e-02 2.73555473400708e-04
7.05819512195122e+00 1.86058153537677e-02 2.71697887325537e-04
7.08092682926829e+00 1.84496903238041e-02 2.69851515624216e-04
7.10365853658537e+00 1.82948753696129e-02 2.68016310177066e-04
7.12639024390244e+00 1.81413594978760e-02 2.66192222752495e-04
7.14912195121951e+00 1.79891318077399e-02 2.64379204736469e-04
7.17185365853658e+00 1.78381814900304e-02 2.62577207692102e-04
