Energy (eV)          EEDF (eV^-(3/2))     First Anisotropy
2.36046511627907e-02 7.88562709997299e-02 4.50488826055114e-05
7.08139534883721e-02 7.82254801430131e-02 7.43409029538790e-05
1.18023255813953e-01 7.75997351379433e-02 9.80123797086331e-05
1.65232558139535e-01 7.69789956226530e-02 1.15919259312276e-04
2.12441860465116e-01 7.63632215575600e-02 1.30790620659995e-04
2.59651162790698e-01 7.57523732198843e-02 1.43659999419259e-04
3.06860465116279e-01 7.51464112104789e-02 1.55063090843639e-04
3.54069767441860e-01 7.45452964419473e-02 1.65323881014940e-04
4.01279069767442e-01 7.39489901383015e-02 1.74657567358909e-04
4.48488372093023e-01 7.33574538371567e-02 1.83216474697472e-04
4.95697674418605e-01 7.27706493819008e-02 1.91113529764655e-04
5.42906976744186e-01 7.21885389201338e-02 1.98435457998658e-04
5.90116279069767e-01 7.16110849046311e-02 2.05250745448205e-04
6.37325581395349e-01 7.10382500872293e-02 2.11614711401308e-04
6.84534883720930e-01 7.04699975169123e-02 2.17572883614851e-04
7.31744186046512e-01 6.99062905400533e-02 2.23163327018343e-04
7.78953488372093e-01 6.93470927952654e-02 2.28418298652340e-04
8.26162790697674e-01 6.87923682113599e-02 2.33365453325120e-04
8.73372093023256e-01 6.82420810071345e-02 2.38028742401461e-04
9.20581395348837e-01 6.76961956868509e-02 2.42429096233493e-04
9.67790697674419e-01 6.71546770381501e-02 2.46584950428280e-04
1.01500000000000e+00 6.66174901315384e-02 2.50512658665555e-04
1.06220930232558e+00 6.60846003168021e-02 2.54226820496505e-04
1.10941860465116e+00 6.55559732208344e-02 2.57740544988652e-04
1.15662790697674e+00 6.50315747404177e-02 2.61065662660691e-04
1.20383720930233e+00 6.45113710545678e-02 2.64212901796368e-04
1.25104651162791e+00 6.39953286079651e-02 2.67192034568485e-04
1.29825581395349e+00 6.34834141136915e-02 2.70011996617240e-04
1.34546511627907e+00 6.29755945473469e-02 2.72680987648298e-04
1.39267441860465e+00 6.24718371565347e-02 2.75206558371801e-04
1.43988372093023e+00 6.19721094468272e-02 2.77595684645121e-04
1.48709302325581e+00 6.14763791837016e-02 2.79854828497098e-04
1.53430232558140e+00 6.09846143905292e-02 2.81989993021017e-04
1.58151162790698e+00 6.04967833433975e-02 2.84006767708129e-04
1.62872093023256e+00 6.00128545784753e-02 2.85910369943909e-04
1.67593023255814e+00 5.95327968803677e-02 2.87705681363210e-04
1.72313953488372e+00 5.90565792833932e-02 2.89397277975025e-04
1.77034883720930e+00 5.85841710669167e-02 2.90989456803902e-04
1.81755813953488e+00 5.81155417615064e-02 2.92486260952060e-04
1.86476744186047e+00 5.76506611386656e-02 2.93891501921528e-04
1.91197674418605e+00 5.71894992116991e-02 2.95208777851334e-04
1.95918604651163e+00 5.67320262314605e-02 2.96441489903466e-04
2.00639534883721e+00 5.62782126915526e-02 2.97592858345902e-04
2.05360465116279e+00 5.58280293191696e-02 2.98665937072463e-04
2.10081395348837e+00 5.53814470756518e-02 2.99663624819647e-04
2.14802325581395e+00 5.49384371546479e-02 3.00588677089578e-04
2.19523255813953e+00 5.44989709782434e-02 3.01443715265548e-04
2.24244186046512e+00 5.40630202011882e-02 3.02231236499831e-04
2.28965116279070e+00 5.36305567028944e-02 3.02953622767435e-04
2.33686046511628e+00 5.32015525877263e-02 3.03613147753551e-04
2.38406976744186e+00 5.27759801814165e-02 3.04211983226639e-04
2.43127906976744e+00 5.23538120346958e-02 3.04752206060390e-04
2.47848837209302e+00 5.19350209160203e-02 3.05235804724523e-04
2.52569767441860e+00 5.15195798116778e-02 3.05664683970932e-04
2.57290697674419e+00 5.11074619224528e-02 3.06040669222550e-04
2.62011627906977e+00 5.06986406667579e-02 3.06365511736235e-04
2.66732558139535e+00 5.02930896739836e-02 3.06640893414931e-04
2.71453488372093e+00 4.98907827844594e-02 3.06868429786623e-04
2.76174418604651e+00 4.94916940477824e-02 3.07049674189692e-04
2.80895348837209e+00 4.90957977197326e-02 3.07186120310198e-04
2.85616279069767e+00 4.87030682648709e-02 3.07279205840578e-04
2.90337209302326e+00 4.83134803505716e-02 3.07330315920746e-04
2.95058139534884e+00 4.79270088468566e-02 3.07340785249793e-04
2.99779069767442e+00 4.75436288234974e-02 3.07311900119939e-04
3.04500000000000e+00 4.71633155522737e-02 3.07244901279299e-04
3.09220930232558e+00 4.67860445014577e-02 3.07140986642285e-04
3.13941860465116e+00 4.64117913355577e-02 3.07001312796292e-04
3.18662790697674e+00 4.60405319125903e-02 3.06826996474270e-04
3.23383720930233e+00 4.56722422860460e-02 3.06619116846135e-04
3.28104651162791e+00 4.53068986997734e-02 3.06378717700632e-04
3.32825581395349e+00 4.49444775876503e-02 3.06106808524679e-04
3.37546511627907e+00 4.45849555710071e-02 3.05804365576067e-04
3.42267441860465e+00 4.42283094603419e-02 3.05472333754499e-04
3.46988372093023e+00 4.38745162505589e-02 3.05111628391818e-04
3.51709302325581e+00 4.35235531205821e-02 3.04723135813727e-04
3.56430232558140e+00 4.31753974318915e-02 3.04307714967785e-04
3.61151162790698e+00 4.28300267261079e-02 3.03866197922060e-04
3.65872093023256e+00 4.24874187264291e-02 3.03399391348654e-04
3.70593023255814e+00 4.21475513332725e-02 3.02908077952258e-04
3.75313953488372e+00 4.18104026238369e-02 3.02393016976056e-04
3.80034883720930e+00 4.14759508498125e-02 3.01854944730998e-04
3.84755813953488e+00 4.11441744386345e-02 3.01294575852290e-04
3.89476744186047e+00 4.08150519894029e-02 3.00712604514149e-04
3.94197674418605e+00 4.04885622724080e-02 3.00109704781262e-04
3.98918604651163e+00 4.01646842269552e-02 2.99486530990022e-04
4.03639534883721e+00 3.98433969624578e-02 2.98843718826901e-04
4.08360465116279e+00 3.95246797546093e-02 2.98181886374886e-04
4.13081395348837e+00 3.92085120448794e-02 2.97501634174186e-04
4.17802325581395e+00 3.88948734391939e-02 2.96803546193857e-04
4.22523255813953e+00 3.85837437058843e-02 2.96088189891028e-04
4.27244186046512e+00 3.82751027766010e-02 2.95356117113396e-04
4.31965116279070e+00 3.79689307427752e-02 2.94607864978870e-04
4.36686046511628e+00 3.76652078550933e-02 2.93843956009000e-04
4.41406976744186e+00 3.73639145215433e-02 2.93064898297718e-04
4.46127906976744e+00 3.70650313082079e-02 2.92271186305230e-04
4.50848837209302e+00 3.67685389359314e-02 2.91463301634074e-04
4.55569767441860e+00 3.64744182797764e-02 2.90641713100345e-04
4.60290697674419e+00 3.61826503671612e-02 2.89806876841037e-04
4.65011627906977e+00 3.58932163785468e-02 2.88959237018707e-04
4.69732558139535e+00 3.56060976442911e-02 2.88099226512050e-04
4.74453488372093e+00 3.53212756440935e-02 2.87227266792377e-04
4.79174418604651e+00 3.50387320058041e-02 2.86343768573923e-04
4.83895348837209e+00 3.47584485036613e-02 2.85449131706716e-04
4.88616279069768e+00 3.44804070588586e-02 2.84543745788244e-04
4.93337209302326e+00 3.42045897366174e-02 2.83627990764681e-04
4.98058139534884e+00 3.39309787456253e-02 2.82702236912924e-04
5.02779069767442e+00 3.36595564363506e-02 2.81766844857956e-04
5.07500000000000e+00 3.33903053015294e-02 2.80822166124578e-04
5.12220930232558e+00 3.31232079733938e-02 2.79868543681095e-04
5.16941860465116e+00 3.28582472231053e-02 2.78906311895263e-04
5.21662790697674e+00 3.25954059591428e-02 2.77935796524704e-04
5.26383720930233e+00 3.23346672277176e-02 2.76957315217850e-04
5.31104651162791e+00 3.20760142101462e-02 2.75971178008352e-04
5.35825581395349e+00 3.18194302222817e-02 2.74977687251171e-04
5.40546511627907e+00 3.15648987129701e-02 2.73977137592101e-04
5.45267441860465e+00 3.13124032644011e-02 2.72969816424990e-04
5.49988372093023e+00 3.10619275896167e-02 2.71956004343638e-04
5.54709302325581e+00 3.08134555319409e-02 2.70935974944038e-04
5.59430232558140e+00 3.05669710639404e-02 2.69909995254465e-04
5.64151162790698e+00 3.03224582859587e-02 2.68878325559035e-04
5.68872093023256e+00 3.00799014263946e-02 2.67841219806684e-04
5.73593023255814e+00 2.98392848393676e-02 2.66798926016378e-04
5.78313953488372e+00 2.96005930041533e-02 2.65751686186049e-04
5.83034883720930e+00 2.93638105237780e-02 2.64699736232362e-04
5.87755813953488e+00 2.91289221252475e-02 2.63643306367668e-04
5.92476744186047e+00 2.88959126573285e-02 2.62582621474022e-04
5.97197674418605e+00 2.86647670899854e-02 2.61517901004409e-04
6.01918604651163e+00 2.84354705130338e-02 2.60449358913513e-04
6.06639534883721e+00 2.82080081363246e-02 2.59377204006476e-04
6.11360465116279e+00 2.79823652876327e-02 2.58301640285422e-04
6.16081395348837e+00 2.77585274120986e-02 2.57222866743411e-04
6.20802325581395e+00 2.75364800712922e-02 2.56141077695962e-04
6.25523255813953e+00 2.73162089419301e-02 2.55056462595804e-04
6.30244186046512e+00 2.70976998160103e-02 2.53969206349542e-04
6.34965116279070e+00 2.68809385988275e-02 2.52879489632737e-04
6.39686046511628e+00 2.66659113084236e-02 2.51787488782352e-04
6.44406976744186e+00 2.64526040743574e-02 2.50693375716009e-04
6.49127906976744e+00 2.62410031378043e-02 2.49597318226904e-04
6.53848837209302e+00 2.60310948496649e-02 2.48499480277726e-04
6.58569767441861e+00 2.58228656700225e-02 2.47400021890919e-04
6.63290697674419e+00 2.56163021669598e-02 2.46299099064647e-04
6.68011627906977e+00 2.54113910166303e-02 2.45196864048334e-04
6.72732558139535e+00 2.52081190014525e-02 2.44093465617326e-04
6.77453488372093e+00 2.50064730095753e-02 2.42989048874782e-04
6.82174418604651e+00 2.48064400340334e-02 2.41883755515538e-04
6.86895348837209e+00 2.46080071716203e-02 2.40777723646728e-04
6.91616279069767e+00 2.44111616229245e-02 2.39671088040626e-04
6.96337209302326e+00 2.42158906906275e-02 2.38563980387020e-04
7.01058139534884e+00 2.40221817789805e-02 2.37456529183227e-04
7.05779069767442e+00 2.38300223927208e-02 2.36348859647316e-04
7.10500000000000e+00 2.36394001370840e-02 2.35241093955346e-04
7.15220930232558e+00 2.34503027161791e-02 2.34133351478368e-04
7.19941860465116e+00 2.32627179324730e-02 2.33025748672997e-04
7.24662790697674e+00 2.30766336857490e-02 2.31918398994198e-04
7.29383720930233e+00 2.28920379730975e-02 2.30811413118320e-04
7.34104651162791e+00 2.27089188873638e-02 2.29704899166078e-04
7.38825581395349e+00 2.25272646166411e-02 2.28598962594181e-04
7.43546511627907e+00 2.23470634432683e-02 2.27493706108223e-04
7.48267441860465e+00 2.21683037438030e-02 2.26389229872740e-04
7.52988372093023e+00 2.19909739875365e-02 2.25285631721235e-04
7.57709302325581e+00 2.18150627359968e-02 2.24183006977297e-04
7.62430232558140e+00 2.16405586422113e-02 2.23081448656921e-04
7.67151162790698e+00 2.14674504497509e-02 2.21981047305608e-04
7.71872093023256e+00 2.12957269926812e-02 2.20881891192906e-04
7.76593023255814e+00 2.11253771941587e-02 2.19784066507233e-04
7.81313953488372e+00 2.09563900659468e-02 2.18687657251920e-04
7.86034883720930e+00 2.07887547074944e-02 2.17592745160442e-04
7.90755813953488e+00 2.06224603058744e-02 2.16499409880172e-04
7.95476744186047e+00 2.04574961344389e-02 2.15407729156527e-04
8.00197674418605e+00 2.02938515523456e-02 2.14317778731059e-04
8.04918604651163e+00 2.01315160036702e-02 2.13229632257850e-04
8.09639534883721e+00 1.99704790173326e-02 2.12143361477368e-04
8.14360465116279e+00 1.98107302058093e-02 2.11059036390675e-04
8.19081395348837e+00 1.96522592646692e-02 2.09976725097305e-04
8.23802325581395e+00 1.94950559719091e-02 2.08896493963340e-04
8.28523255813954e+00 1.93391101871072e-02 2.07818407473350e-04
8.33244186046512e+00 1.91844118513345e-02 2.06742528392223e-04
8.37965116279070e+00 1.90309509859354e-02 2.05668917927490e-04
8.42686046511628e+00 1.88787176920765e-02 2.04597635633123e-04
8.47406976744186e+00 1.87277021499307e-02 2.03528739329849e-04
8.52127906976744e+00 1.85778946185788e-02 2.02462285258559e-04
8.56848837209302e+00 1.84292854348417e-02 2.01398328234276e-04
8.61569767441861e+00 1.82818650128388e-02 2.00336921552386e-04
8.66290697674419e+00 1.81356238432012e-02 1.99278116910596e-04
8.71011627906977e+00 1.79905524929665e-02 1.98221964554532e-04
8.75732558139535e+00 1.78466416044581e-02 1.97168513423941e-04
8.80453488372093e+00 1.77038818948538e-02 1.96117811007070e-04
8.85174418604651e+00 1.75622641555872e-02 1.95069903481886e-04
8.89895348837209e+00 1.74217792515969e-02 1.94024835582730e-04
8.94616279069768e+00 1.72824181212108e-02 1.92982650736421e-04
8.99337209302326e+00 1.71441717750841e-02 1.91943391198935e-04
9.04058139534884e+00 1.70070312957803e-02 1.90907097967638e-04
9.08779069767442e+00 1.68709878370469e-02 1.89873810707813e-04
9.13500000000000e+00 1.67360326236945e-02 1.88843567882003e-04
9.18220930232558e+00 1.66021569505775e-02 1.87816406880007e-04
9.22941860465116e+00 1.64693521821850e-02 1.86792363933605e-04
9.27662790697674e+00 1.63376097519427e-02 1.85771474044955e-04
9.32383720930233e+00 1.62069211620867e-02 1.84753771109654e-04
9.37104651162791e+00 1.60772779826858e-02 1.83739288040425e-04
9.41825581395349e+00 1.59486718512415e-02 1.82728056684348e-04
9.46546511627907e+00 1.58210944720153e-02 1.81720107753130e-04
9.51267441860465e+00 1.56945376158986e-02 1.80715470940287e-04
9.55988372093023e+00 1.55689931194730e-02 1.79714175038898e-04
9.60709302325581e+00 1.54444528846217e-02 1.78716247815986e-04
9.65430232558140e+00 1.53209088780065e-02 1.77721716126393e-04
9.70151162790698e+00 1.51983531304246e-02 1.76730605797384e-04
9.74872093023256e+00 1.50767777366737e-02 1.75742941738569e-04
9.79593023255814e+00 1.49561748546595e-02 1.74758748052457e-04
9.84313953488372e+00 1.48365367050189e-02 1.73778047957505e-04
9.89034883720930e+00 1.47178555704984e-02 1.72800863723054e-04
9.93755813953488e+00 1.46001237958173e-02 1.71827216774080e-04
9.98476744186047e+00 1.44833337868101e-02 1.70857127838348e-04
1.00319767441860e+01 1.43674780099440e-02 1.69890616704589e-04
1.00791860465116e+01 1.42525489921803e-02 1.68927702368269e-04
1.01263953488372e+01 1.41385393201428e-02 1.67968403133563e-04
1.01736046511628e+01 1.40254416397563e-02 1.67012736500489e-04
1.02208139534884e+01 1.39132486557728e-02 1.66060719223788e-04
1.02680232558140e+01 1.38019531313008e-02 1.65112367328340e-04
1.03152325581395e+01 1.36915478873388e-02 1.64167696124417e-04
1.03624418604651e+01 1.35820258023115e-02 1.63226720222448e-04
1.04096511627907e+01 1.34733798116113e-02 1.62289453547539e-04
1.04568604651163e+01 1.33656029071418e-02 1.61355909353719e-04
1.05040697674419e+01 1.32586881368663e-02 1.60426100237905e-04
1.05512790697674e+01 1.31526286043592e-02 1.59500038153589e-04
1.05984883720930e+01 1.30474174683609e-02 1.58577734424257e-04
1.06456976744186e+01 1.29430479423371e-02 1.57659199756552e-04
1.06929069767442e+01 1.28395132940403e-02 1.56744444253170e-04
1.07401162790698e+01 1.27368068450763e-02 1.55833477425534e-04
1.07873255813953e+01 1.26349219704728e-02 1.54926308206193e-04
1.08345348837209e+01 1.25338520982523e-02 1.54022944960979e-04
1.08817441860465e+01 1.24335907090083e-02 1.53123395500946e-04
1.09289534883721e+01 1.23341313354846e-02 1.52227667094075e-04
1.09761627906977e+01 1.22354675621582e-02 1.51335766476754e-04
1.10233720930233e+01 1.21375930248255e-02 1.50447699865021e-04
1.10705813953488e+01 1.20405014101918e-02 1.49563472965623e-04
1.11177906976744e+01 1.19441864554637e-02 1.48683090986832e-04
1.11650000000000e+01 1.18486419479460e-02 1.47806558971499e-04
1.12122093023256e+01 1.17538617237999e-02 1.46933880834298e-04
1.12594186046512e+01 1.16598396701832e-02 1.46065060023402e-04
1.13066279069767e+01 1.15665697223015e-02 1.45200100191157e-04
1.13538372093023e+01 1.14740458638740e-02 1.44339004208813e-04
1.14010465116279e+01 1.13822621267457e-02 1.43481774509918e-04
1.14482558139535e+01 1.12912125905024e-02 1.42628413099785e-04
1.14954651162791e+01 1.12008913820888e-02 1.41778921564783e-04
1.15426744186047e+01 1.11112926754294e-02 1.40933301081443e-04
1.15898837209302e+01 1.10224106910533e-02 1.40091552425396e-04
1.16370930232558e+01 1.09342396957208e-02 1.39253675980144e-04
1.16843023255814e+01 1.08467740020538e-02 1.38419671745667e-04
1.17315116279070e+01 1.07600079681690e-02 1.37589539346867e-04
1.17787209302326e+01 1.06739359973140e-02 1.36763278041844e-04
1.18259302325581e+01 1.05885525375061e-02 1.35940886730028e-04
1.18731395348837e+01 1.05038520811745e-02 1.35122363960167e-04
1.19203488372093e+01 1.04198291648045e-02 1.34307707938136e-04
1.19675581395349e+01 1.03364783685858e-02 1.33496916534623e-04
1.20147674418605e+01 1.02537943160621e-02 1.32689987292669e-04
1.20619767441860e+01 1.01717716737851e-02 1.31886917435060e-04
1.21091860465116e+01 1.00904051509698e-02 1.31087703871586e-04
1.21563953488372e+01 1.00096894991538e-02 1.30292343206164e-04
1.22036046511628e+01 9.92961951185807e-03 1.29500831743857e-04
1.22508139534884e+01 9.85019002425175e-03 1.28713165497654e-04
1.22980232558140e+01 9.77139591281870e-03 1.27929340195219e-04
1.23452325581395e+01 9.69323209502707e-03 1.27149351285564e-04
1.23924418604651e+01 9.61569352900146e-03 1.26373193945485e-04
1.24396511627907e+01 9.53877521319769e-03 1.25600863085924e-04
1.24868604651163e+01 9.46247218608017e-03 1.24832353358225e-04
1.25340697674419e+01 9.38677952580189e-03 1.24067659160268e-04
1.25812790697674e+01 9.31169234988689e-03 1.23306774642455e-04
1.26284883720930e+01 9.23720581491537e-03 1.22549693713629e-04
1.26756976744186e+01 9.16331511621126e-03 1.21796410046876e-04
1.27229069767442e+01 9.09001548753226e-03 1.21046917085186e-04
1.27701162790698e+01 9.01730220076245e-03 1.20301208047049e-04
1.28173255813953e+01 8.94517056560730e-03 1.19559275931938e-04
1.28645348837209e+01 8.87361592929109e-03 1.18821113525673e-04
1.29117441860465e+01 8.80263367625680e-03 1.18086713405679e-04
1.29589534883721e+01 8.73221922786845e-03 1.17356067946200e-04
1.30061627906977e+01 8.66236804211567e-03 1.16629169323360e-04
1.30533720930233e+01 8.59307561332077e-03 1.15906009520154e-04
1.31005813953488e+01 8.52433747184809e-03 1.15186580331340e-04
1.31477906976744e+01 8.45614918381572e-03 1.14470873368237e-04
1.31950000000000e+01 8.38850635080945e-03 1.13758880273465e-04
1.32422093023256e+01 8.32140460909576e-03 1.13050592091767e-04
1.32894186046512e+01 8.25483963086025e-03 1.12345999698728e-04
1.33366279069767e+01 8.18880712239853e-03 1.11645094235544e-04
1.33838372093023e+01 8.12330282435258e-03 1.10947866465378e-04
1.34310465116279e+01 8.05832251143610e-03 1.10254306994978e-04
1.34782558139535e+01 7.99386199216185e-03 1.09564406278885e-04
1.35254651162791e+01 7.92991710857139e-03 1.08878154623568e-04
1.35726744186047e+01 7.86648373596679e-03 1.08195542191488e-04
1.36198837209302e+01 7.80355778264463e-03 1.07516559005069e-04
1.36670930232558e+01 7.74113518963202e-03 1.06841194950628e-04
1.37143023255814e+01 7.67921193042484e-03 1.06169439782196e-04
1.37615116279070e+01 7.61778401072795e-03 1.05501283125289e-04
1.38087209302326e+01 7.55684746819758e-03 1.04836714480600e-04
1.38559302325581e+01 7.49639837218573e-03 1.04175723227625e-04
1.39031395348837e+01 7.43643282348664e-03 1.03518298628228e-04
1.39503488372093e+01 7.37694695408526e-03 1.02864429830132e-04
1.39975581395349e+01 7.31793692690778e-03 1.02214105870340e-04
1.40447674418605e+01 7.25939893557406e-03 1.01567315678501e-04
1.40919767441860e+01 7.20132920415216e-03 1.00924048080218e-04
1.41391860465116e+01 7.14372398691478e-03 1.00284291800274e-04
1.41863953488372e+01 7.08657956809759e-03 9.96480354658128e-05
1.42336046511628e+01 7.02989226165961e-03 9.90152676094877e-05
1.42808139534884e+01 6.97365841104536e-03 9.83859766724725e-05
1.43280232558140e+01 6.91787438894911e-03 9.77601510074648e-05
1.43752325581395e+01 6.86253659708086e-03 9.71377788816678e-05
1.44224418604651e+01 6.80764146593419e-03 9.65188484796669e-05
1.44696511627907e+01 6.75318545455610e-03 9.59033479062589e-05
1.45168604651163e+01 6.69916505031853e-03 9.52912651892399e-05
1.45640697674419e+01 6.64557676869180e-03 9.46825882821409e-05
1.46112790697674e+01 6.59241715301986e-03 9.40773050668859e-05
1.46584883720930e+01 6.53968277429730e-03 9.34754033564339e-05
1.47056976744186e+01 6.48737023094820e-03 9.28768708973523e-05
1.47529069767442e+01 6.43547614860668e-03 9.22816953723461e-05
1.48001162790698e+01 6.38399717989924e-03 9.16898644027419e-05
1.48473255813953e+01 6.33293000422888e-03 9.11013655509113e-05
1.48945348837209e+01 6.28227132756085e-03 9.05161863226614e-05
