Energy (eV)          EEDF (eV^-(3/2))     First Anisotropy
2.45945945945946e-02 9.30273492975967e-02 5.72801604446526e-05
7.37837837837838e-02 9.21618627682783e-02 9.44634001036353e-05
1.22972972972973e-01 9.13044283542936e-02 1.24378487725978e-04
1.72162162162162e-01 9.04549711390904e-02 1.46909043863095e-04
2.21351351351351e-01 8.96134169112790e-02 1.65538162844455e-04
2.70540540540541e-01 8.87796921438613e-02 1.81587515481865e-04
3.19729729729730e-01 8.79537239943819e-02 1.95743414167560e-04
3.68918918918919e-01 8.71354402984041e-02 2.08421688907836e-04
4.18108108108108e-01 8.63247695609263e-02 2.19899034327076e-04
4.67297297297297e-01 8.55216409565498e-02 2.30371650604237e-04
5.16486486486486e-01 8.47259843163878e-02 2.39985245251202e-04
5.65675675675676e-01 8.39377301243929e-02 2.48851911767977e-04
6.14864864864865e-01 8.31568095112915e-02 2.57060319513895e-04
6.64054054054054e-01 8.23831542485765e-02 2.64682210272660e-04
7.13243243243243e-01 8.16166967414289e-02 2.71776724514840e-04
7.62432432432432e-01 8.08573700261856e-02 2.78393387889887e-04
8.11621621621622e-01 8.01051077609825e-02 2.84574235135499e-04
8.60810810810811e-01 7.93598442211685e-02 2.90355358856168e-04
9.10000000000000e-01 7.86215142935868e-02 2.95768064561948e-04
9.59189189189189e-01 7.78900534700977e-02 3.00839747891742e-04
1.00837837837838e+00 7.71653978443172e-02 3.05594572464859e-04
1.05756756756757e+00 7.64474841055834e-02 3.10054002272957e-04
1.10675675675676e+00 7.57362495275179e-02 3.14237223136045e-04
1.15594594594595e+00 7.50316319701379e-02 3.18161481842927e-04
1.20513513513514e+00 7.43335698715764e-02 3.21842362818461e-04
1.25432432432432e+00 7.36420022426964e-02 3.25294014166269e-04
1.30351351351351e+00 7.29568686617664e-02 3.28529335031652e-04
1.35270270270270e+00 7.22781092692069e-02 3.31560131970190e-04
1.40189189189189e+00 7.16056647623416e-02 3.34397250422195e-04
1.45108108108108e+00 7.09394763902170e-02 3.37050686014290e-04
1.50027027027027e+00 7.02794859484699e-02 3.39529678845659e-04
1.54945945945946e+00 6.96256357784948e-02 3.41842796421401e-04
1.59864864864865e+00 6.89778687494538e-02 3.43998002581978e-04
1.64783783783784e+00 6.83361282664444e-02 3.46002717057452e-04
1.69702702702703e+00 6.77003582610962e-02 3.47863869986615e-04
1.74621621621622e+00 6.70705031866726e-02 3.49587947522601e-04
1.79540540540541e+00 6.64465080132177e-02 3.51181032382452e-04
1.84459459459459e+00 6.58283182227491e-02 3.52648839596884e-04
1.89378378378378e+00 6.52158798044839e-02 3.53996748141515e-04
1.94297297297297e+00 6.46091392501427e-02 3.55229829030838e-04
1.99216216216216e+00 6.40080435492626e-02 3.56352870355010e-04
2.04135135135135e+00 6.34125401845658e-02 3.57370399656191e-04
2.09054054054054e+00 6.28225771273717e-02 3.58286703993538e-04
2.13972972972973e+00 6.22381028330509e-02 3.59105847579529e-04
2.18891891891892e+00 6.16590662391791e-02 3.59831689279584e-04
2.23810810810811e+00 6.10854167530037e-02 3.60467896492129e-04
2.28729729729730e+00 6.05171042552011e-02 3.61017957642449e-04
2.33648648648649e+00 5.99540790927353e-02 3.61485195557593e-04
2.38567567567568e+00 5.93962920745200e-02 3.61872778066726e-04
2.43486486486486e+00 5.88436944671209e-02 3.62183728063192e-04
2.48405405405405e+00 5.82962379904945e-02 3.62420932703838e-04
2.53324324324324e+00 5.77538748137753e-02 3.62587151838144e-04
2.58243243243243e+00 5.72165575510971e-02 3.62685025748019e-04
2.63162162162162e+00 5.66842392574507e-02 3.62717082264748e-04
2.68081081081081e+00 5.61568734245829e-02 3.62685743325720e-04
2.73000000000000e+00 5.56344139769323e-02 3.62593330704215e-04
2.77918918918919e+00 5.51168152694680e-02 3.62442072576507e-04
2.82837837837838e+00 5.46040320780477e-02 3.62234108047311e-04
2.87756756756757e+00 5.40960196011853e-02 3.61971491290729e-04
2.92675675675676e+00 5.35927334542083e-02 3.61656197010049e-04
2.97594594594595e+00 5.30941296653794e-02 3.61290124248781e-04
3.02513513513513e+00 5.26001646720555e-02 3.60875100252809e-04
3.07432432432432e+00 5.21107953168799e-02 3.60412884071506e-04
3.12351351351351e+00 5.16259788440123e-02 3.59905169919000e-04
3.17270270270270e+00 5.11456728953963e-02 3.59353590317336e-04
3.22189189189189e+00 5.06698355070561e-02 3.58759719038332e-04
3.27108108108108e+00 5.01984251054306e-02 3.58125073859110e-04
3.32027027027027e+00 4.97314005037410e-02 3.57451118886413e-04
3.36945945945946e+00 4.92687208997628e-02 3.56739267772488e-04
3.41864864864865e+00 4.88103458681066e-02 3.55990885467751e-04
3.46783783783784e+00 4.83562353608844e-02 3.55207289831702e-04
3.51702702702703e+00 4.79063497027966e-02 3.54389754465231e-04
3.56621621621622e+00 4.74606495876653e-02 3.53539510345126e-04
3.61540540540541e+00 4.70190960749999e-02 3.52657747623382e-04
3.66459459459459e+00 4.65816505865957e-02 3.51745617327105e-04
3.71378378378378e+00 4.61482749031604e-02 3.50804232964272e-04
3.76297297297297e+00 4.57189311609798e-02 3.49834672043905e-04
3.81216216216216e+00 4.52935818486072e-02 3.48837977516293e-04
3.86135135135135e+00 4.48721898035860e-02 3.47815159136668e-04
3.91054054054054e+00 4.44547182092030e-02 3.46767194759011e-04
3.95972972972973e+00 4.40411305912718e-02 3.45695031352331e-04
4.00891891891892e+00 4.36313908159659e-02 3.44599586807191e-04
4.05810810810811e+00 4.32254630835721e-02 3.43481750614999e-04
4.10729729729730e+00 4.28233119284830e-02 3.42342384487130e-04
4.15648648648649e+00 4.24249022150478e-02 3.41182324016124e-04
4.20567567567568e+00 4.20301991345025e-02 3.40002379410904e-04
4.25486486486486e+00 4.16391682019291e-02 3.38803336408205e-04
4.30405405405405e+00 4.12517752532411e-02 3.37585957141396e-04
4.35324324324324e+00 4.08679864422006e-02 3.36350980969597e-04
4.40243243243243e+00 4.04877682374608e-02 3.35099125269881e-04
4.45162162162162e+00 4.01110874196360e-02 3.33831086193824e-04
4.50081081081081e+00 3.97379110783994e-02 3.32547539390628e-04
4.55000000000000e+00 3.93682066096076e-02 3.31249140522304e-04
4.59918918918919e+00 3.90019417132456e-02 3.29936526459185e-04
4.64837837837838e+00 3.86390843882019e-02 3.28610315555981e-04
4.69756756756757e+00 3.82796029318982e-02 3.27271107895827e-04
4.74675675675676e+00 3.79234659367034e-02 3.25919486420070e-04
4.79594594594595e+00 3.75706422871891e-02 3.24556017302332e-04
4.84513513513514e+00 3.72211011574116e-02 3.23181250483905e-04
4.89432432432432e+00 3.68748120082183e-02 3.21795720187598e-04
4.94351351351351e+00 3.65317445845793e-02 3.20399945410916e-04
4.99270270270270e+00 3.61918689129449e-02 3.18994430400253e-04
5.04189189189189e+00 3.58551552986265e-02 3.17579665106664e-04
5.09108108108108e+00 3.55215743232022e-02 3.16156125623783e-04
5.14027027027027e+00 3.51910968419461e-02 3.14724274460772e-04
5.18945945945946e+00 3.48636939819104e-02 3.13284561396360e-04
5.23864864864865e+00 3.45393371375019e-02 3.11837423568481e-04
5.28783783783784e+00 3.42179979699004e-02 3.10383285544893e-04
5.33702702702703e+00 3.38996484039381e-02 3.08922560145788e-04
5.38621621621622e+00 3.35842606256463e-02 3.07455648638202e-04
5.43540540540541e+00 3.32718070798257e-02 3.05982941072489e-04
5.48459459459459e+00 3.29622604676383e-02 3.04504816606963e-04
5.53378378378378e+00 3.26555937442225e-02 3.03021643820701e-04
5.58297297297297e+00 3.23517801163309e-02 3.01533781015730e-04
5.63216216216216e+00 3.20507930399889e-02 3.00041576509015e-04
5.68135135135135e+00 3.17526062181756e-02 2.98545368913997e-04
5.73054054054054e+00 3.14571935985263e-02 2.97045487412751e-04
5.77972972972973e+00 3.11645293710563e-02 2.95542251894862e-04
5.82891891891892e+00 3.08745879664008e-02 2.94035973586528e-04
5.87810810810811e+00 3.05873440520831e-02 2.92526955045080e-04
5.92729729729730e+00 3.03027725318122e-02 2.91015490141449e-04
5.97648648648649e+00 3.00208485427825e-02 2.89501864674958e-04
6.02567567567568e+00 2.97415474535009e-02 2.87986356466651e-04
6.07486486486486e+00 2.94648448616355e-02 2.86469235574748e-04
6.12405405405405e+00 2.91907165918824e-02 2.84950764503050e-04
6.17324324324324e+00 2.89191386938548e-02 2.83431198402875e-04
6.22243243243243e+00 2.86500874399901e-02 2.81910785268844e-04
6.27162162162162e+00 2.83835393234767e-02 2.80389766128471e-04
6.32081081081081e+00 2.81194710562001e-02 2.78868375225841e-04
6.37000000000000e+00 2.78578595667086e-02 2.77346840094097e-04
6.41918918918919e+00 2.75986819985989e-02 2.75825382047294e-04
6.46837837837838e+00 2.73419157073042e-02 2.74304216134070e-04
6.51756756756757e+00 2.70875382593409e-02 2.72783551082835e-04
6.56675675675676e+00 2.68355274299373e-02 2.71263589786990e-04
6.61594594594595e+00 2.65858612010911e-02 2.69744529347959e-04
6.66513513513513e+00 2.63385177596460e-02 2.68226561223661e-04
6.71432432432432e+00 2.60934754953860e-02 2.66709871372750e-04
6.76351351351351e+00 2.58507129991470e-02 2.65194640394512e-04
6.81270270270270e+00 2.56102090609468e-02 2.63681043664885e-04
6.86189189189189e+00 2.53719426681319e-02 2.62169251468641e-04
6.91108108108108e+00 2.51358930035411e-02 2.60659429127720e-04
6.96027027027027e+00 2.49020394436875e-02 2.59151737035615e-04
7.00945945945946e+00 2.46703615572846e-02 2.57646331051472e-04
7.05864864864865e+00 2.44408391024676e-02 2.56143362435197e-04
7.10783783783784e+00 2.42134520260272e-02 2.54642977776244e-04
7.15702702702703e+00 2.39881804613204e-02 2.53145319385100e-04
7.20621621621622e+00 2.37650047265347e-02 2.51650525307648e-04
7.25540540540540e+00 2.35439053229690e-02 2.50158729430599e-04
7.30459459459459e+00 2.33248629333296e-02 2.48670061584180e-04
7.35378378378378e+00 2.31078584200425e-02 2.47184647641815e-04
7.40297297297297e+00 2.28928728235814e-02 2.45702609617273e-04
7.45216216216216e+00 2.26798873608116e-02 2.44224065759379e-04
7.50135135135135e+00 2.24688834233483e-02 2.42749130643997e-04
7.55054054054054e+00 2.22598425759314e-02 2.41277915263678e-04
7.59972972972973e+00 2.20527465548143e-02 2.39810527038377e-04
7.64891891891892e+00 2.18475772664353e-02 2.38347070131837e-04
7.69810810810811e+00 2.16443167850299e-02 2.36887645379414e-04
7.74729729729730e+00 2.14429473518780e-02 2.35432350211209e-04
7.79648648648649e+00 2.12434513734790e-02 2.33981278968100e-04
7.84567567567568e+00 2.10458114200146e-02 2.32534522898616e-04
7.89486486486486e+00 2.08500102238263e-02 2.31092170233628e-04
7.94405405405405e+00 2.06560306779059e-02 2.29654306259040e-04
7.99324324324324e+00 2.04638558344019e-02 2.28221013386642e-04
8.04243243243243e+00 2.02734689031381e-02 2.26792371223340e-04
8.09162162162162e+00 2.00848532501471e-02 2.25368456638539e-04
8.14081081081081e+00 1.98979923962166e-02 2.23949343829855e-04
8.19000000000000e+00 1.97128700154499e-02 2.22535104321282e-04
8.23918918918919e+00 1.95294699340607e-02 2.21125807224869e-04
8.28837837837838e+00 1.93477761282909e-02 2.19721519168320e-04
8.33756756756757e+00 1.91677727236850e-02 2.18322304218841e-04
8.38675675675676e+00 1.89894439934767e-02 2.16928224145547e-04
8.43594594594595e+00 1.88127743572147e-02 2.15539338407479e-04
8.48513513513513e+00 1.86377483794017e-02 2.14155704208872e-04
8.53432432432432e+00 1.84643507681453e-02 2.12777376553061e-04
8.58351351351351e+00 1.82925663738224e-02 2.11404408295044e-04
8.63270270270270e+00 1.81223801877556e-02 2.10036850192870e-04
8.68189189189189e+00 1.79537773409017e-02 2.08674750957833e-04
8.73108108108108e+00 1.77867431025527e-02 2.07318157303379e-04
8.78027027027027e+00 1.76212628790489e-02 2.05967113935968e-04
8.82945945945946e+00 1.74573222126879e-02 2.04621663773637e-04
8.87864864864865e+00 1.72949067799044e-02 2.03281847876444e-04
8.92783783783784e+00 1.71340023905803e-02 2.01947705373895e-04
8.97702702702703e+00 1.69745949866161e-02 2.00619273684756e-04
9.02621621621622e+00 1.68166706407031e-02 1.99296588500310e-04
9.07540540540541e+00 1.66602155551062e-02 1.97979683825782e-04
9.12459459459459e+00 1.65052160604583e-02 1.96668592020838e-04
9.17378378378378e+00 1.63516586145665e-02 1.95363343839089e-04
9.22297297297297e+00 1.61995298012283e-02 1.94063968466702e-04
9.27216216216216e+00 1.60488163290602e-02 1.92770493560241e-04
9.32135135135135e+00 1.58995050303357e-02 1.91482945283516e-04
9.37054054054054e+00 1.57515828598353e-02 1.90201348343584e-04
9.41972972972973e+00 1.56050368937066e-02 1.88925725977302e-04
9.46891891891892e+00 1.54598543284875e-02 1.87656100132802e-04
9.51810810810811e+00 1.53160224795271e-02 1.86392491404651e-04
9.56729729729730e+00 1.51735287803414e-02 1.85134918966566e-04
9.61648648648649e+00 1.50323607813597e-02 1.83883400754433e-04
9.66567567567568e+00 1.48925061488364e-02 1.82637953447053e-04
9.71486486486486e+00 1.47539526637743e-02 1.81398592496874e-04
9.76405405405405e+00 1.46166882208561e-02 1.80165332159962e-04
9.81324324324324e+00 1.44807008273872e-02 1.78938185525311e-04
9.86243243243243e+00 1.43459786022481e-02 1.77717164543569e-04
9.91162162162162e+00 1.42125097748559e-02 1.76502280055073e-04
9.96081081081081e+00 1.40802826841362e-02 1.75293541817250e-04
1.00100000000000e+01 1.39492857775044e-02 1.74090958531423e-04
1.00591891891892e+01 1.38195076098560e-02 1.72894537910879e-04
1.01083783783784e+01 1.36909368424402e-02 1.71704286621406e-04
1.01575675675676e+01 1.35635622421272e-02 1.70520210306981e-04
1.02067567567568e+01 1.34373726802955e-02 1.69342313700965e-04
1.02559459459459e+01 1.33123571318594e-02 1.68170600207854e-04
1.03051351351351e+01 1.31885046754999e-02 1.67005073129209e-04
1.03543243243243e+01 1.30658044891011e-02 1.65845734881617e-04
1.04035135135135e+01 1.29442458524414e-02 1.64692586200114e-04
1.04527027027027e+01 1.28238181450357e-02 1.63545627393834e-04
1.05018918918919e+01 1.27045108452069e-02 1.62404857953508e-04
1.05510810810811e+01 1.25863135291665e-02 1.61270276572006e-04
1.06002702702703e+01 1.24692158701052e-02 1.60141881165010e-04
1.06494594594595e+01 1.23532076372897e-02 1.59019668891468e-04
1.06986486486486e+01 1.22382786951690e-02 1.57903635814710e-04
1.07478378378378e+01 1.21244190035411e-02 1.56793778003795e-04
1.07970270270270e+01 1.20116186134953e-02 1.55690090827940e-04
1.08462162162162e+01 1.18998676697477e-02 1.54592568237837e-04
1.08954054054054e+01 1.17891564087034e-02 1.53501203893825e-04
1.09445945945946e+01 1.16794751576038e-02 1.52415990811135e-04
1.09937837837838e+01 1.15708143336808e-02 1.51336921376641e-04
1.10429729729730e+01 1.14631644433207e-02 1.50263987365677e-04
1.10921621621622e+01 1.13565160812346e-02 1.49197179959040e-04
1.11413513513514e+01 1.12508599296360e-02 1.48136489436122e-04
1.11905405405405e+01 1.11461867583559e-02 1.47081906165368e-04
1.12397297297297e+01 1.10424874212293e-02 1.46033419967312e-04
1.12889189189189e+01 1.09397528581238e-02 1.44991019465767e-04
1.13381081081081e+01 1.08379740931989e-02 1.43954693102547e-04
1.13872972972973e+01 1.07371422341212e-02 1.42924428816483e-04
1.14364864864865e+01 1.06372484712871e-02 1.41900214057315e-04
1.14856756756757e+01 1.05382840770545e-02 1.40882035799425e-04
1.15348648648649e+01 1.04402404049790e-02 1.39869880555710e-04
1.15840540540541e+01 1.03431088890596e-02 1.38863734099849e-04
1.16332432432432e+01 1.02468810438102e-02 1.37863582357820e-04
1.16824324324324e+01 1.01515484610376e-02 1.36869410832532e-04
1.17316216216216e+01 1.00571028116063e-02 1.35881204017737e-04
1.17808108108108e+01 9.96353584387164e-03 1.34898946311534e-04
1.18300000000000e+01 9.87083938295857e-03 1.33922621725871e-04
1.18791891891892e+01 9.77900533004726e-03 1.32952213898058e-04
1.19283783783784e+01 9.68802566166581e-03 1.31987706101962e-04
1.19775675675676e+01 9.59789242898946e-03 1.31029081259356e-04
1.20267567567568e+01 9.50859775714585e-03 1.30076321950883e-04
1.20759459459459e+01 9.42013384452703e-03 1.29129410166974e-04
1.21251351351351e+01 9.33249296282557e-03 1.28188328102413e-04
1.21743243243243e+01 9.24566745419020e-03 1.27253057641712e-04
1.22235135135135e+01 9.15964973274197e-03 1.26323579834972e-04
1.22727027027027e+01 9.07443228317766e-03 1.25399875712105e-04
1.23218918918919e+01 8.99000766011302e-03 1.24481926022462e-04
1.23710810810811e+01 8.90636848743222e-03 1.23569711243951e-04
1.24202702702703e+01 8.82350745764397e-03 1.22663211592270e-04
1.24694594594595e+01 8.74141733124265e-03 1.21762407030052e-04
1.25186486486486e+01 8.66009093607589e-03 1.20867277041089e-04
1.25678378378378e+01 8.57952116735435e-03 1.19977801346807e-04
1.26170270270270e+01 8.49970098510766e-03 1.19093959440847e-04
1.26662162162162e+01 8.42062341550682e-03 1.18215730115060e-04
1.27154054054054e+01 8.34228154960430e-03 1.17343092193717e-04
1.27645945945946e+01 8.26466854273044e-03 1.16476024297787e-04
1.28137837837838e+01 8.18777761389501e-03 1.15614504852340e-04
1.28629729729730e+01 8.11160204519557e-03 1.14758512094044e-04
1.29121621621622e+01 8.03613518123011e-03 1.13908024078786e-04
1.29613513513514e+01 7.96137042851560e-03 1.13063018476966e-04
1.30105405405405e+01 7.88730125547698e-03 1.12223473219994e-04
1.30597297297297e+01 7.81392119016896e-03 1.11389366079168e-04
1.31089189189189e+01 7.74122382143059e-03 1.10560674236791e-04
1.31581081081081e+01 7.66920279774761e-03 1.09737374948745e-04
1.32072972972973e+01 7.59785182669745e-03 1.08919445330852e-04
1.32564864864865e+01 7.52716467439931e-03 1.08106862365002e-04
1.33056756756757e+01 7.45713516496983e-03 1.07299602905243e-04
1.33548648648649e+01 7.38775717998351e-03 1.06497643683967e-04
1.34040540540541e+01 7.31902465793800e-03 1.05700961126349e-04
1.34532432432432e+01 7.25093159422683e-03 1.04909531934082e-04
1.35024324324324e+01 7.18347203909701e-03 1.04123332704144e-04
1.35516216216216e+01 7.11664009865804e-03 1.03342339540539e-04
1.36008108108108e+01 7.05042993385362e-03 1.02566528652607e-04
1.36500000000000e+01 6.98483575995148e-03 1.01795876161348e-04
1.36991891891892e+01 6.91985184603786e-03 1.01030358104495e-04
1.37483783783784e+01 6.85547251451694e-03 1.00269950441402e-04
1.37975675675676e+01 6.79169214061493e-03 9.95146290580617e-05
1.38467567567568e+01 6.72850515188848e-03 9.87643697719423e-05
1.38959459459459e+01 6.66590602773786e-03 9.80191481653241e-05
1.39451351351351e+01 6.60388929936606e-03 9.72789401071284e-05
1.39943243243243e+01 6.54244954796704e-03 9.65437214112138e-05
1.40435135135135e+01 6.48158140559593e-03 9.58134674883835e-05
1.40927027027027e+01 6.42127955424887e-03 9.50881538812744e-05
1.41418918918919e+01 6.36153872539837e-03 9.43677560904837e-05
1.41910810810811e+01 6.30235369953290e-03 9.36522495785035e-05
1.42402702702703e+01 6.24371930570120e-03 9.29416097737375e-05
1.42894594594595e+01 6.18563042106027e-03 9.22358120745000e-05
1.43386486486486e+01 6.12808197042785e-03 9.15348316977336e-05
1.43878378378378e+01 6.07106892623225e-03 9.08386441507763e-05
1.44370270270270e+01 6.01458630688478e-03 9.01472249217486e-05
1.44862162162162e+01 5.95862917754139e-03 8.94605491642160e-05
1.45354054054054e+01 5.90319264926972e-03 8.87785921807746e-05
1.45845945945946e+01 5.84827187862188e-03 8.81013292653712e-05
1.46337837837838e+01 5.79386206721115e-03 8.74287357064271e-05
1.46829729729730e+01 5.73995846129311e-03 8.67607867900460e-05
1.47321621621622e+01 5.68655635135010e-03 8.60974578032939e-05
1.47813513513514e+01 5.63365107167982e-03 8.54387238968529e-05
1.48305405405405e+01 5.58123800033828e-03 8.47845605117371e-05
1.48797297297297e+01 5.52931255767647e-03 8.41349430986238e-05
1.49289189189189e+01 5.47787020700743e-03 8.34898468320265e-05
1.49781081081081e+01 5.42690645385155e-03 8.28492470477237e-05
1.50272972972973e+01 5.37641684554391e-03 8.22131190996420e-05
1.50764864864865e+01 5.32639697084514e-03 8.15814383623951e-05
1.51256756756757e+01 5.27684245955621e-03 8.09541802338142e-05
1.51748648648649e+01 5.22774898213658e-03 8.03313201375520e-05
1.52240540540541e+01 5.17911224932588e-03 7.97128333983913e-05
1.52732432432432e+01 5.13092801208214e-03 7.90986956284095e-05
1.53224324324324e+01 5.08319206026491e-03 7.84888824724515e-05
1.53716216216216e+01 5.03590022321984e-03 7.78833693489212e-05
1.54208108108108e+01 4.98904836909458e-03 7.72821318456708e-05
1.54700000000000e+01 4.94263240447769e-03 7.66851455900594e-05
1.55191891891892e+01 4.89664827404101e-03 7.60923862509972e-05
