Energy (eV)          EEDF (eV^-(3/2))     First Anisotropy
1.83928571428571e-03 6.84362307663185e+00 4.62225849114133e-03
5.51785714285714e-03 6.76006409507432e+00 7.61165496361061e-03
9.19642857142857e-03 6.67752534846314e+00 9.99274777920924e-03
1.28750000000000e-02 6.59599437989229e+00 1.17682617566624e-02
1.65535714285714e-02 6.51545888490551e+00 1.32216620589519e-02
2.02321428571429e-02 6.43590670890857e+00 1.44609905550511e-02
2.39107142857143e-02 6.35732584547535e+00 1.55425885088937e-02
2.75892857142857e-02 6.27970443547274e+00 1.65007329055257e-02
3.12678571428571e-02 6.20303076416260e+00 1.73583235779068e-02
3.49464285714286e-02 6.12729325966392e+00 1.81316624702408e-02
3.86250000000000e-02 6.05248049183421e+00 1.88329028901893e-02
4.23035714285714e-02 5.97858116984462e+00 1.94714297069775e-02
4.59821428571429e-02 5.90558414073017e+00 2.00546938610897e-02
4.96607142857143e-02 5.83347838757269e+00 2.05887452657048e-02
5.33392857142857e-02 5.76225302825210e+00 2.10785883097445e-02
5.70178571428571e-02 5.69189731336270e+00 2.15284276429568e-02
6.06964285714286e-02 5.62240062464519e+00 2.19418431846532e-02
6.43750000000000e-02 5.55375247371099e+00 2.23219180522038e-02
6.80535714285714e-02 5.48594250011345e+00 2.26713340871255e-02
7.17321428571429e-02 5.41896046990561e+00 2.29924445286366e-02
7.54107142857143e-02 5.35279627401580e+00 2.32873302583574e-02
7.90892857142857e-02 5.28743992696930e+00 2.35578439985788e-02
8.27678571428571e-02 5.22288156512301e+00 2.38056454957051e-02
8.64464285714286e-02 5.15911144520041e+00 2.40322298032483e-02
9.01250000000000e-02 5.09611994302948e+00 2.42389503554882e-02
9.38035714285714e-02 5.03389755187323e+00 2.44270379297810e-02
9.74821428571429e-02 4.97243488107000e+00 2.45976163496683e-02
1.01160714285714e-01 4.91172265456175e+00 2.47517156167908e-02
1.04839285714286e-01 4.85175170966217e+00 2.48902829727197e-02
1.08517857142857e-01 4.79251299569661e+00 2.50141923824395e-02
1.12196428571429e-01 4.73399757181066e+00 2.51242523949869e-02
1.15875000000000e-01 4.67619660728768e+00 2.52212131312005e-02
1.19553571428571e-01 4.61910137829552e+00 2.53057722094969e-02
1.23232142857143e-01 4.56270326841923e+00 2.53785798934860e-02
1.26910714285714e-01 4.50699376557912e+00 2.54402436039558e-02
1.30589285714286e-01 4.45196446246340e+00 2.54913318110793e-02
1.34267857142857e-01 4.39760705397727e+00 2.55323776728280e-02
1.37946428571429e-01 4.34391333608470e+00 2.55638818536835e-02
1.41625000000000e-01 4.29087520564167e+00 2.55863154027653e-02
1.45303571428571e-01 4.23848465774216e+00 2.56001221398555e-02
1.48982142857143e-01 4.18673378589457e+00 2.56057208058767e-02
1.52660714285714e-01 4.13561477948857e+00 2.56035070074484e-02
1.56339285714286e-01 4.08511992391358e+00 2.55938549135570e-02
1.60017857142857e-01 4.03524159842524e+00 2.55771189638787e-02
1.63696428571429e-01 3.98597227505899e+00 2.55536350786011e-02
1.67375000000000e-01 3.93730451832232e+00 2.55237220753778e-02
1.71053571428571e-01 3.88923098296710e+00 2.54876828069249e-02
1.74732142857143e-01 3.84174441395403e+00 2.54458052140077e-02
1.78410714285714e-01 3.79483764431603e+00 2.53983633013330e-02
1.82089285714286e-01 3.74850359508817e+00 2.53456179872524e-02
1.85767857142857e-01 3.70273527348325e+00 2.52878180350315e-02
1.89446428571429e-01 3.65752577188134e+00 2.52252006227513e-02
1.93125000000000e-01 3.61286826744404e+00 2.51579921425200e-02
1.96803571428571e-01 3.56875602020885e+00 2.50864088086246e-02
2.00482142857143e-01 3.52518237292418e+00 2.50106572341272e-02
2.04160714285714e-01 3.48214074921534e+00 2.49309349768378e-02
2.07839285714286e-01 3.43962465339920e+00 2.48474310085555e-02
2.11517857142857e-01 3.39762766890036e+00 2.47603262815741e-02
2.15196428571429e-01 3.35614345731584e+00 2.46697940092512e-02
2.18875000000000e-01 3.31516575798887e+00 2.45760001645721e-02
2.22553571428571e-01 3.27468838635689e+00 2.44791038334658e-02
2.26232142857143e-01 3.23470523370741e+00 2.43792575577137e-02
2.29910714285714e-01 3.19521026558418e+00 2.42766076661797e-02
2.33589285714286e-01 3.15619752153157e+00 2.41712945531859e-02
2.37267857142857e-01 3.11766111370512e+00 2.40634530527931e-02
2.40946428571429e-01 3.07959522600797e+00 2.39532125764076e-02
2.44625000000000e-01 3.04199411364769e+00 2.38406974484392e-02
2.48303571428571e-01 3.00485210169001e+00 2.37260271247825e-02
2.51982142857143e-01 2.96816358476776e+00 2.36093164099997e-02
2.55660714285714e-01 2.93192302568294e+00 2.34906756711893e-02
2.59339285714286e-01 2.89612495510995e+00 2.33702110122535e-02
2.63017857142857e-01 2.86076397036711e+00 2.32480245372584e-02
2.66696428571429e-01 2.82583473462065e+00 2.31242144129416e-02
2.70375000000000e-01 2.79133197643953e+00 2.29988751082496e-02
2.74053571428571e-01 2.75725048851978e+00 2.28720975360779e-02
2.77732142857143e-01 2.72358512736778e+00 2.27439691977411e-02
2.81410714285714e-01 2.69033081206548e+00 2.26145743279849e-02
2.85089285714286e-01 2.65748252395172e+00 2.24839940086522e-02
2.88767857142857e-01 2.62503530552963e+00 2.23523063631621e-02
2.92446428571429e-01 2.59298425973371e+00 2.22195865779803e-02
2.96125000000000e-01 2.56132454949221e+00 2.20859070813991e-02
2.99803571428571e-01 2.53005139659547e+00 2.19513376389820e-02
3.03482142857143e-01 2.49916008136768e+00 2.18159454534807e-02
3.07160714285714e-01 2.46864594157022e+00 2.16797952670684e-02
3.10839285714286e-01 2.43850437207405e+00 2.15429494378437e-02
3.14517857142857e-01 2.40873082388344e+00 2.14054680889005e-02
3.18196428571429e-01 2.37932080346167e+00 2.12674091069146e-02
3.21875000000000e-01 2.35026987230709e+00 2.11288282802823e-02
3.25553571428571e-01 2.32157364594459e+00 2.09897793652989e-02
3.29232142857143e-01 2.29322779359539e+00 2.08503141574528e-02
3.32910714285714e-01 2.26522803719890e+00 2.07104825657977e-02
3.36589285714286e-01 2.23757015108483e+00 2.05703326656958e-02
3.40267857142857e-01 2.21024996109774e+00 2.04299108164364e-02
3.43946428571429e-01 2.18326334397701e+00 2.02892616470678e-02
3.47625000000000e-01 2.15660622695030e+00 2.01484281660518e-02
3.51303571428571e-01 2.13027458683151e+00 2.00074518082155e-02
3.54982142857143e-01 2.10426444969509e+00 1.98663724869225e-02
3.58660714285714e-01 2.07857189000054e+00 1.97252286495783e-02
3.62339285714286e-01 2.05319303027009e+00 1.95840573146492e-02
3.66017857142857e-01 2.02812404030147e+00 1.94428941665841e-02
3.69696428571429e-01 2.00336113659790e+00 1.93017735347472e-02
3.73375000000000e-01 1.97890058198130e+00 1.91607284823230e-02
3.77053571428571e-01 1.95473868478294e+00 1.90197908402286e-02
3.80732142857143e-01 1.93087179852677e+00 1.88789912460832e-02
3.84410714285714e-01 1.90729632114336e+00 1.87383591865072e-02
3.88089285714286e-01 1.88400869465733e+00 1.85979230234376e-02
3.91767857142857e-01 1.86100540447753e+00 1.84577100721084e-02
3.95446428571429e-01 1.83828297887334e+00 1.83177465765535e-02
3.99125000000000e-01 1.81583798860869e+00 1.81780577828987e-02
4.02803571428571e-01 1.79366704621413e+00 1.80386679641944e-02
4.06482142857143e-01 1.77176680568193e+00 1.78996004500154e-02
4.10160714285714e-01 1.75013396175869e+00 1.77608776592569e-02
4.13839285714286e-01 1.72876524964503e+00 1.76225211189903e-02
4.17517857142857e-01 1.70765744435436e+00 1.74845515294416e-02
4.21196428571429e-01 1.68680736023174e+00 1.73469887381401e-02
4.24875000000000e-01 1.66621185060926e+00 1.72098518011530e-02
4.28553571428571e-01 1.64586780714984e+00 1.70731590014550e-02
4.32232142857143e-01 1.62577215955596e+00 1.69369278717180e-02
4.35910714285714e-01 1.60592187493181e+00 1.68011752201020e-02
4.39589285714286e-01 1.58631395749676e+00 1.66659171438166e-02
4.43267857142857e-01 1.56694544800515e+00 1.65311690838785e-02
4.46946428571429e-01 1.54781342330436e+00 1.63969457991664e-02
4.50625000000000e-01 1.52891499601140e+00 1.62632614181337e-02
4.54303571428571e-01 1.51024731392035e+00 1.61301294524873e-02
4.57982142857143e-01 1.49180755972574e+00 1.59975628149293e-02
4.61660714285714e-01 1.47359295044642e+00 1.58655738396826e-02
4.65339285714286e-01 1.45560073715370e+00 1.57341742922301e-02
4.69017857142857e-01 1.43782820444560e+00 1.56033754158865e-02
4.72696428571429e-01 1.42027267004106e+00 1.54731879065081e-02
4.76375000000000e-01 1.40293148447718e+00 1.53436219565460e-02
4.80053571428571e-01 1.38580203057343e+00 1.52146872652707e-02
4.83732142857143e-01 1.36888172317013e+00 1.50863930527103e-02
4.87410714285714e-01 1.35216800860724e+00 1.49587480761415e-02
4.91089285714286e-01 1.33565836446766e+00 1.48317606370368e-02
4.94767857142857e-01 1.31935029910024e+00 1.47054386209751e-02
4.98446428571429e-01 1.30324135124712e+00 1.45797894734411e-02
5.02125000000000e-01 1.28732908976111e+00 1.44548202376247e-02
5.05803571428571e-01 1.27161111312049e+00 1.43305375620662e-02
5.09482142857143e-01 1.25608504918273e+00 1.42069477116834e-02
5.13160714285714e-01 1.24074855471243e+00 1.40840565811306e-02
5.16839285714286e-01 1.22559931513968e+00 1.39618696996851e-02
5.20517857142857e-01 1.21063504412694e+00 1.38403922656605e-02
5.24196428571429e-01 1.19585348322681e+00 1.37196291235360e-02
5.27875000000000e-01 1.18125240161876e+00 1.35995847965809e-02
5.31553571428571e-01 1.16682959566920e+00 1.34802634925549e-02
5.35232142857143e-01 1.15258288870029e+00 1.33616691124797e-02
5.38910714285714e-01 1.13851013056184e+00 1.32438052615350e-02
5.42589285714286e-01 1.12460919740470e+00 1.31266752524094e-02
5.46267857142857e-01 1.11087799128692e+00 1.30102821351305e-02
5.49946428571429e-01 1.09731443985969e+00 1.28946286756346e-02
5.53625000000000e-01 1.08391649612229e+00 1.27797173840645e-02
5.57303571428571e-01 1.07068213802294e+00 1.26655505189904e-02
5.60982142857143e-01 1.05760936824229e+00 1.25521300944162e-02
5.64660714285714e-01 1.04469621380486e+00 1.24394578887123e-02
5.68339285714286e-01 1.03194072586690e+00 1.23275354468237e-02
5.72017857142857e-01 1.01934097935820e+00 1.22163641062369e-02
5.75696428571429e-01 1.00689507269365e+00 1.21059449770223e-02
5.79375000000000e-01 9.94601127545692e-01 1.19962789664821e-02
5.83053571428571e-01 9.82457288481727e-01 1.18873667822384e-02
5.86732142857143e-01 9.70461722761831e-01 1.17792089378441e-02
5.90410714285714e-01 9.58612619985744e-01 1.16718057601413e-02
5.94089285714286e-01 9.46908191894759e-01 1.15651573906080e-02
5.97767857142857e-01 9.35346672045628e-01 1.14592638080481e-02
6.01446428571429e-01 9.23926315545791e-01 1.13541248100887e-02
6.05125000000000e-01 9.12645398842226e-01 1.12497400347257e-02
6.08803571428571e-01 9.01502219391842e-01 1.11461089625400e-02
6.12482142857143e-01 8.90495095472838e-01 1.10432309211956e-02
6.16160714285714e-01 8.79622365863745e-01 1.09411050915218e-02
6.19839285714286e-01 8.68882389658730e-01 1.08397305082170e-02
6.23517857142857e-01 8.58273545970550e-01 1.07391060797373e-02
6.27196428571429e-01 8.47794233687503e-01 1.06392305711980e-02
6.30875000000000e-01 8.37442871277713e-01 1.05401026232664e-02
6.34553571428571e-01 8.27217896489294e-01 1.04417207537027e-02
6.38232142857143e-01 8.17117766174702e-01 1.03440833609673e-02
6.41910714285714e-01 8.07140955998722e-01 1.02471887292630e-02
6.45589285714286e-01 7.97285960266541e-01 1.01510350287568e-02
6.49267857142857e-01 7.87551291653015e-01 1.00556203330595e-02
6.52946428571429e-01 7.77935480979570e-01 9.96094260346561e-03
6.56625000000000e-01 7.68437077032944e-01 9.86699970556318e-03
6.60303571428571e-01 7.59054646292287e-01 9.77378941025231e-03
6.63982142857143e-01 7.49786772765801e-01 9.68130939663548e-03
6.67660714285714e-01 7.40632057724923e-01 9.58955725620533e-03
6.71339285714286e-01 7.31589119544486e-01 9.49853049270676e-03
6.75017857142857e-01 7.22656593455844e-01 9.40822653753667e-03
6.78696428571429e-01 7.13833131342093e-01 9.31864273524569e-03
6.82375000000000e-01 7.05117401570346e-01 9.22977635817388e-03
6.86053571428571e-01 6.96508088743183e-01 9.14162460706519e-03
6.89732142857143e-01 6.88003893546929e-01 9.05418461337578e-03
6.93410714285714e-01 6.79603532509530e-01 8.96745344275883e-03
6.97089285714286e-01 6.71305737852128e-01 8.88142809466071e-03
7.00767857142857e-01 6.63109257263844e-01 8.79610551591724e-03
7.04446428571429e-01 6.55012853713822e-01 8.71148258743496e-03
7.08125000000000e-01 6.47015305296118e-01 8.62755613711149e-03
7.11803571428571e-01 6.39115405003239e-01 8.54432294014034e-03
7.15482142857143e-01 6.31311960585350e-01 8.46177972084683e-03
7.19160714285714e-01 6.23603794329638e-01 8.37992315558742e-03
7.22839285714286e-01 6.15989742922612e-01 8.29874987215559e-03
7.26517857142857e-01 6.08468657244571e-01 8.21825646180591e-03
7.30196428571429e-01 6.01039402197089e-01 8.13843946703210e-03
7.33875000000000e-01 5.93700856559661e-01 8.05929539299608e-03
7.37553571428571e-01 5.86451912783268e-01 7.98082070759227e-03
7.41232142857143e-01 5.79291476859846e-01 7.90301184289853e-03
7.44910714285714e-01 5.72218468121143e-01 7.82586519758993e-03
7.48589285714286e-01 5.65231819111081e-01 7.74937713620858e-03
7.52267857142857e-01 5.58330475398120e-01 7.67354399981485e-03
7.55946428571429e-01 5.51513395416921e-01 7.59836209478280e-03
7.59625000000000e-01 5.44779550335927e-01 7.52382770292334e-03
7.63303571428571e-01 5.38127923869107e-01 7.44993708136690e-03
7.66982142857143e-01 5.31557512155035e-01 7.37668646369998e-03
7.70660714285714e-01 5.25067323573443e-01 7.30407206197182e-03
7.74339285714286e-01 5.18656378627004e-01 7.23209006587382e-03
7.78017857142857e-01 5.12323709769978e-01 7.16073665218659e-03
7.81696428571429e-01 5.06068361262884e-01 7.09000797451429e-03
7.85375000000000e-01 4.99889389050254e-01 7.01990017226576e-03
7.89053571428571e-01 4.93785860588876e-01 6.95040937039791e-03
7.92732142857143e-01 4.87756854735867e-01 6.88153168029528e-03
7.96410714285714e-01 4.81801461581299e-01 6.81326320143892e-03
8.00089285714286e-01 4.75918782338778e-01 6.74560002052455e-03
8.03767857142857e-01 4.70107929188919e-01 6.67853821985374e-03
8.07446428571429e-01 4.64368025145967e-01 6.61207386793469e-03
8.11125000000000e-01 4.58698203944972e-01 6.54620302745766e-03
8.14803571428571e-01 4.53097609885052e-01 6.48092175493585e-03
8.18482142857143e-01 4.47565397725843e-01 6.41622610137512e-03
8.22160714285714e-01 4.42100732534740e-01 6.35211211365873e-03
8.25839285714286e-01 4.36702789585689e-01 6.28857583363091e-03
8.29517857142857e-01 4.31370754216159e-01 6.22561330555842e-03
8.33196428571429e-01 4.26103821704732e-01 6.16322056752726e-03
8.36875000000000e-01 4.20901197167027e-01 6.10139365853363e-03
8.40553571428571e-01 4.15762095412605e-01 6.04012861805067e-03
8.44232142857143e-01 4.10685740849238e-01 5.97942148652625e-03
8.47910714285714e-01 4.05671367343440e-01 5.91926830652802e-03
8.51589285714286e-01 4.00718218126906e-01 5.85966512181352e-03
8.55267857142857e-01 3.95825545665791e-01 5.80060798397113e-03
8.58946428571429e-01 3.90992611548366e-01 5.74209294454819e-03
8.62625000000000e-01 3.86218686389039e-01 5.68411606136210e-03
8.66303571428571e-01 3.81503049697690e-01 5.62667339801379e-03
8.69982142857143e-01 3.76844989791198e-01 5.56976102424547e-03
8.73660714285714e-01 3.72243803666089e-01 5.51337501688508e-03
8.77339285714286e-01 3.67698796912069e-01 5.45751145891706e-03
8.81017857142857e-01 3.63209283592535e-01 5.40216644539873e-03
8.84696428571429e-01 3.58774586141467e-01 5.34733607625884e-03
8.88375000000000e-01 3.54394035274942e-01 5.29301646191922e-03
8.92053571428571e-01 3.50066969871794e-01 5.23920372277363e-03
8.95732142857143e-01 3.45792736891885e-01 5.18589398943137e-03
8.99410714285714e-01 3.41570691259776e-01 5.13308340349213e-03
9.03089285714286e-01 3.37400195784871e-01 5.08076811662920e-03
9.06767857142857e-01 3.33280621052157e-01 5.02894429586445e-03
9.10446428571429e-01 3.29211345327579e-01 4.97760811698170e-03
9.14125000000000e-01 3.25191754476494e-01 4.92675576953844e-03
9.17803571428571e-01 3.21221241854629e-01 4.87638345632301e-03
9.21482142857143e-01 3.17299208232631e-01 4.82648739350590e-03
9.25160714285714e-01 3.13425061689776e-01 4.77706381127249e-03
9.28839285714286e-01 3.09598217540244e-01 4.72810895292606e-03
9.32517857142857e-01 3.05818098233198e-01 4.67961907959506e-03
9.36196428571429e-01 3.02084133265949e-01 4.63159046420900e-03
9.39875000000000e-01 2.98395759108809e-01 4.58401939597008e-03
9.43553571428571e-01 2.94752419105460e-01 4.53690217980015e-03
9.47232142857143e-01 2.91153563403308e-01 4.49023513641676e-03
9.50910714285714e-01 2.87598648856345e-01 4.44401460284578e-03
9.54589285714286e-01 2.84087138957119e-01 4.39823693155137e-03
9.58267857142857e-01 2.80618503745330e-01 4.35289849463917e-03
9.61946428571429e-01 2.77192219728142e-01 4.30799567834721e-03
9.65625000000000e-01 2.73807769810963e-01 4.26352488703840e-03
9.69303571428571e-01 2.70464643206376e-01 4.21948254264535e-03
9.72982142857143e-01 2.67162335369882e-01 4.17586508468617e-03
9.76660714285714e-01 2.63900347911117e-01 4.13266897067634e-03
9.80339285714286e-01 2.60678188531077e-01 4.08989067528952e-03
9.84017857142857e-01 2.57495370938514e-01 4.04752669411306e-03
9.87696428571429e-01 2.54351414776792e-01 4.00557353861067e-03
9.91375000000000e-01 2.51245845560146e-01 3.96402773968837e-03
9.95053571428571e-01 2.48178194590423e-01 3.92288584714453e-03
9.98732142857143e-01 2.45147998897819e-01 3.88214443042117e-03
1.00241071428571e+00 2.42154801156983e-01 3.84180007578561e-03
1.00608928571429e+00 2.39198149640054e-01 3.80184938869413e-03
1.00976785714286e+00 2.36277598126340e-01 3.76228899801969e-03
1.01344642857143e+00 2.33392705843420e-01 3.72311554962252e-03
1.01712500000000e+00 2.30543037400601e-01 3.68432571624306e-03
1.02080357142857e+00 2.27728162698131e-01 3.64591617555331e-03
1.02448214285714e+00 2.24947656938242e-01 3.60788362500766e-03
1.02816071428571e+00 2.22201100484349e-01 3.57022479714153e-03
1.03183928571429e+00 2.19488078823529e-01 3.53293643675656e-03
1.03551785714286e+00 2.16808182503950e-01 3.49601530869210e-03
1.03919642857143e+00 2.14161007073105e-01 3.45945819789532e-03
1.04287500000000e+00 2.11546153016760e-01 3.42326191609540e-03
1.04655357142857e+00 2.08963225676210e-01 3.38742328187738e-03
1.05023214285714e+00 2.06411835256697e-01 3.35193913410255e-03
1.05391071428571e+00 2.03891596699946e-01 3.31680634573697e-03
1.05758928571429e+00 2.01402129649151e-01 3.28202180314184e-03
1.06126785714286e+00 1.98943058391561e-01 3.24758241308138e-03
1.06494642857143e+00 1.96514011801802e-01 3.21348510275242e-03
1.06862500000000e+00 1.94114623285855e-01 3.17972682580145e-03
1.07230357142857e+00 1.91744530705629e-01 3.14630454422900e-03
1.07598214285714e+00 1.89403376385178e-01 3.11321524052198e-03
1.07966071428571e+00 1.87090806995263e-01 3.08045593015822e-03
1.08333928571429e+00 1.84806473520713e-01 3.04802364280233e-03
1.08701785714286e+00 1.82550031207733e-01 3.01591542862784e-03
1.09069642857143e+00 1.80321139511908e-01 2.98412835831409e-03
1.09437500000000e+00 1.78119462046788e-01 2.95265952847210e-03
1.09805357142857e+00 1.75944666515113e-01 2.92150604520797e-03
1.10173214285714e+00 1.73796424713207e-01 2.89066503509478e-03
1.10541071428571e+00 1.71674412426374e-01 2.86013365648302e-03
1.10908928571429e+00 1.69578309398504e-01 2.82990908242281e-03
1.11276785714286e+00 1.67507799283727e-01 2.79998850636940e-03
1.11644642857143e+00 1.65462569598693e-01 2.77036914215360e-03
1.12012500000000e+00 1.63442311675401e-01 2.74104822887670e-03
1.12380357142857e+00 1.61446720598466e-01 2.71202301597677e-03
1.12748214285714e+00 1.59475495208001e-01 2.68329077315448e-03
1.13116071428571e+00 1.57528338004799e-01 2.65484880060713e-03
1.13483928571429e+00 1.55604955122048e-01 2.62669441351457e-03
1.13851785714286e+00 1.53705056280971e-01 2.59882494718990e-03
1.14219642857143e+00 1.51828354747034e-01 2.57123775702906e-03
1.14587500000000e+00 1.49974567286668e-01 2.54393022292829e-03
1.14955357142857e+00 1.48143414110033e-01 2.51689973571290e-03
1.15323214285714e+00 1.46334618872655e-01 2.49014370611928e-03
1.15691071428571e+00 1.44547908589443e-01 2.46365957405773e-03
1.16058928571429e+00 1.42783013608390e-01 2.43744479451573e-03
