Energy (eV)          EEDF (eV^-(3/2))     First Anisotropy
6.37096774193548e-03 3.25286337316302e-01 1.54419267684115e-04
1.91129032258065e-02 3.23479243694985e-01 2.55139545465470e-04
3.18548387096774e-02 3.21682189188459e-01 3.37209246590597e-04
4.45967741935484e-02 3.19895118027286e-01 3.99799948353199e-04
5.73387096774194e-02 3.18117974753598e-01 4.52201846860166e-04
7.00806451612903e-02 3.16350704209537e-01 4.97920705700657e-04
8.28225806451613e-02 3.14593251548411e-01 5.38767460497246e-04
9.55645161290322e-02 3.12845562228085e-01 5.75833741021949e-04
1.08306451612903e-01 3.11107582007595e-01 6.09842263456028e-04
1.21048387096774e-01 3.09379256958460e-01 6.41302938093646e-04
1.33790322580645e-01 3.07660533427950e-01 6.70592568080747e-04
1.46532258064516e-01 3.05951358088997e-01 6.97999602448219e-04
1.59274193548387e-01 3.04251677885793e-01 7.23751098415829e-04
1.72016129032258e-01 3.02561440080044e-01 7.48029877019872e-04
1.84758064516129e-01 3.00880592205513e-01 7.70985926900092e-04
1.97500000000000e-01 2.99209082106753e-01 7.92744259399519e-04
2.10241935483871e-01 2.97546857900112e-01 8.13410484449150e-04
2.22983870967742e-01 2.95893868006907e-01 8.33074869145258e-04
2.35725806451613e-01 2.94250061119320e-01 8.51815358032338e-04
2.48467741935484e-01 2.92615386229290e-01 8.69699862827905e-04
2.61209677419355e-01 2.90989792598249e-01 8.86788028344125e-04
2.73951612903226e-01 2.89373229782613e-01 9.03132613843972e-04
2.86693548387097e-01 2.87765647606607e-01 9.18780588686538e-04
2.99435483870968e-01 2.86166996185000e-01 9.33774010937007e-04
3.12177419354839e-01 2.84577225898465e-01 9.48150740208355e-04
3.24919354838710e-01 2.82996287414031e-01 9.61945020957975e-04
3.37661290322581e-01 2.81424131662574e-01 9.75187964669852e-04
3.50403225806452e-01 2.79860709857337e-01 9.87907951062124e-04
3.63145161290323e-01 2.78305973473234e-01 1.00013096501058e-03
3.75887096774194e-01 2.76759874263733e-01 1.01188088085981e-03
3.88629032258064e-01 2.75222364241708e-01 1.02317970441930e-03
4.01370967741935e-01 2.73693395694908e-01 1.03404777900835e-03
4.14112903225806e-01 2.72172921171848e-01 1.04450396590876e-03
4.26854838709677e-01 2.70660893481288e-01 1.05456579422759e-03
4.39596774193548e-01 2.69157265701234e-01 1.06424959687035e-03
4.52338709677419e-01 2.67661991163519e-01 1.07357062643350e-03
4.65080645161290e-01 2.66175023465855e-01 1.08254315709178e-03
4.77822580645161e-01 2.64696316457327e-01 1.09118057441515e-03
4.90564516129032e-01 2.63225824249617e-01 1.09949545445892e-03
5.03306451612903e-01 2.61763501203312e-01 1.10749963402775e-03
5.16048387096774e-01 2.60309301938386e-01 1.11520427294432e-03
5.28790322580645e-01 2.58863181321247e-01 1.12261990975952e-03
5.41532258064516e-01 2.57425094474543e-01 1.12975651140160e-03
5.54274193548387e-01 2.55994996764883e-01 1.13662351788503e-03
5.67016129032258e-01 2.54572843812034e-01 1.14322988235163e-03
5.79758064516129e-01 2.53158591477253e-01 1.14958410734440e-03
5.92500000000000e-01 2.51752195871927e-01 1.15569427743583e-03
6.05241935483871e-01 2.50353613346470e-01 1.16156808895184e-03
6.17983870967742e-01 2.48962800498454e-01 1.16721287681113e-03
6.30725806451613e-01 2.47579714162019e-01 1.17263563910371e-03
6.43467741935484e-01 2.46204311415544e-01 1.17784305935909e-03
6.56209677419355e-01 2.44836549571529e-01 1.18284152703968e-03
6.68951612903226e-01 2.43476386183840e-01 1.18763715616307e-03
6.81693548387097e-01 2.42123779038027e-01 1.19223580252086e-03
6.94435483870968e-01 2.40778686158182e-01 1.19664307936463e-03
7.07177419354839e-01 2.39441065797661e-01 1.20086437197649e-03
7.19919354838710e-01 2.38110876445575e-01 1.20490485097137e-03
7.32661290322581e-01 2.36788076817895e-01 1.20876948470687e-03
7.45403225806452e-01 2.35472625863609e-01 1.21246305063470e-03
7.58145161290323e-01 2.34164482756171e-01 1.21599014593516e-03
7.70887096774194e-01 2.32863606899351e-01 1.21935519725950e-03
7.83629032258064e-01 2.31569957919017e-01 1.22256246989486e-03
7.96370967741935e-01 2.30283495668686e-01 1.22561607580056e-03
8.09112903225806e-01 2.29004180223193e-01 1.22851998303335e-03
8.21854838709677e-01 2.27731971877672e-01 1.23127802082075e-03
8.34596774193548e-01 2.26466831150908e-01 1.23389388791088e-03
8.47338709677419e-01 2.25208718778007e-01 1.23637115864572e-03
8.60080645161290e-01 2.23957595715163e-01 1.23871328890346e-03
8.72822580645161e-01 2.22713423132572e-01 1.24092362176225e-03
8.85564516129032e-01 2.21476162418990e-01 1.24300539271203e-03
8.98306451612903e-01 2.20245775174886e-01 1.24496173464120e-03
9.11048387096774e-01 2.19022223216785e-01 1.24679568242603e-03
9.23790322580645e-01 2.17805468570658e-01 1.24851017733844e-03
9.36532258064516e-01 2.16595473476066e-01 1.25010807110310e-03
9.49274193548387e-01 2.15392200379760e-01 1.25159212980881e-03
9.62016129032258e-01 2.14195611939652e-01 1.25296503750714e-03
9.74758064516129e-01 2.13005671018613e-01 1.25422939969544e-03
9.87500000000000e-01 2.11822340688271e-01 1.25538774652053e-03
1.00024193548387e+00 2.10645584223004e-01 1.25644253499148e-03
1.01298387096774e+00 2.09475365106980e-01 1.25739615574396e-03
1.02572580645161e+00 2.08311647013555e-01 1.25825092894858e-03
1.03846774193548e+00 2.07154393838178e-01 1.25900911304543e-03
1.05120967741935e+00 2.06003569654679e-01 1.25967290742218e-03
1.06395161290323e+00 2.04859138747569e-01 1.26024444337527e-03
1.07669354838710e+00 2.03721065610417e-01 1.26072580402602e-03
1.08943548387097e+00 2.02589314912735e-01 1.26111901484013e-03
1.10217741935484e+00 2.01463851541221e-01 1.26142604821437e-03
1.11491935483871e+00 2.00344640557126e-01 1.26164882581412e-03
1.12766129032258e+00 1.99231647235932e-01 1.26178921996947e-03
1.14040322580645e+00 1.98124837026271e-01 1.26184905582052e-03
1.15314516129032e+00 1.97024175588117e-01 1.26183011256094e-03
1.16588709677419e+00 1.95929628753178e-01 1.26173412541075e-03
1.17862903225806e+00 1.94841162561674e-01 1.26156278672536e-03
1.19137096774194e+00 1.93758743224128e-01 1.26131775036364e-03
1.20411290322581e+00 1.92682337147952e-01 1.26100062246975e-03
1.21685483870968e+00 1.91611910936019e-01 1.26061297839191e-03
1.22959677419355e+00 1.90547431359053e-01 1.26015635370183e-03
1.24233870967742e+00 1.89488865389751e-01 1.25963224767756e-03
1.25508064516129e+00 1.88436180167223e-01 1.25904212481153e-03
1.26782258064516e+00 1.87389343029909e-01 1.25838741555211e-03
1.28056451612903e+00 1.86348321481207e-01 1.25766951770497e-03
1.29330645161290e+00 1.85313083221257e-01 1.25688979709689e-03
1.30604838709677e+00 1.84283596113703e-01 1.25604958888107e-03
1.31879032258064e+00 1.83259828216388e-01 1.25515019813280e-03
1.33153225806452e+00 1.82241747749192e-01 1.25419290333110e-03
1.34427419354839e+00 1.81229323116263e-01 1.25317894781609e-03
1.35701612903226e+00 1.80222522904701e-01 1.25210955448358e-03
1.36975806451613e+00 1.79221315861245e-01 1.25098591747232e-03
1.38250000000000e+00 1.78225670920891e-01 1.24980920496727e-03
1.39524193548387e+00 1.77235557176818e-01 1.24858056023958e-03
1.40798387096774e+00 1.76250943908069e-01 1.24730110204461e-03
1.42072580645161e+00 1.75271800550415e-01 1.24597192559888e-03
1.43346774193548e+00 1.74298096723143e-01 1.24459410293629e-03
1.44620967741935e+00 1.73329802200814e-01 1.24316868589930e-03
1.45895161290323e+00 1.72366886932659e-01 1.24169669815844e-03
1.47169354838710e+00 1.71409321041370e-01 1.24017914847337e-03
1.48443548387097e+00 1.70457074802567e-01 1.23861702293272e-03
1.49717741935484e+00 1.69510118669856e-01 1.23701128737343e-03
1.50991935483871e+00 1.68568423248327e-01 1.23536288817979e-03
1.52266129032258e+00 1.67631959318833e-01 1.23367275251773e-03
1.53540322580645e+00 1.66700697812281e-01 1.23194178909130e-03
1.54814516129032e+00 1.65774609833153e-01 1.23017088835082e-03
1.56088709677419e+00 1.64853666634553e-01 1.22836092320944e-03
1.57362903225806e+00 1.63937839641012e-01 1.22651274922759e-03
1.58637096774194e+00 1.63027100424256e-01 1.22462720715341e-03
1.59911290322581e+00 1.62121420719723e-01 1.22270511563506e-03
1.61185483870968e+00 1.61220772425457e-01 1.22074728299436e-03
1.62459677419355e+00 1.60325127584434e-01 1.21875450014458e-03
1.63733870967742e+00 1.59434458405967e-01 1.21672754265171e-03
1.65008064516129e+00 1.58548737242894e-01 1.21466717133770e-03
1.66282258064516e+00 1.57667936612348e-01 1.21257413239425e-03
1.67556451612903e+00 1.56792029173590e-01 1.21044915795672e-03
1.68830645161290e+00 1.55920987748172e-01 1.20829296620303e-03
1.70104838709677e+00 1.55054785298377e-01 1.20610626190137e-03
1.71379032258065e+00 1.54193394946804e-01 1.20388973649559e-03
1.72653225806452e+00 1.53336789955397e-01 1.20164407030285e-03
1.73927419354839e+00 1.52484943739632e-01 1.19936992587366e-03
1.75201612903226e+00 1.51637829867496e-01 1.19706795852159e-03
1.76475806451613e+00 1.50795422044155e-01 1.19473880986612e-03
1.77750000000000e+00 1.49957694130380e-01 1.19238310962451e-03
1.79024193548387e+00 1.49124620122761e-01 1.19000147608253e-03
1.80298387096774e+00 1.48296174171613e-01 1.18759451613777e-03
1.81572580645161e+00 1.47472330561717e-01 1.18516282574988e-03
1.82846774193548e+00 1.46653063729728e-01 1.18270698997521e-03
1.84120967741935e+00 1.45838348245421e-01 1.18022758494485e-03
1.85395161290323e+00 1.45028158824299e-01 1.17772517169936e-03
1.86669354838710e+00 1.44222470326637e-01 1.17520030585451e-03
1.87943548387097e+00 1.43421257743742e-01 1.17265353160425e-03
1.89217741935484e+00 1.42624496214371e-01 1.17008538333837e-03
1.90491935483871e+00 1.41832161006991e-01 1.16749638603475e-03
1.91766129032258e+00 1.41044227535756e-01 1.16488705526580e-03
1.93040322580645e+00 1.40260671343218e-01 1.16225789757657e-03
1.94314516129032e+00 1.39481468115879e-01 1.15960941048543e-03
1.95588709677419e+00 1.38706593667341e-01 1.15694208284758e-03
1.96862903225806e+00 1.37936023953437e-01 1.15425639485077e-03
1.98137096774194e+00 1.37169735055810e-01 1.15155281976659e-03
1.99411290322581e+00 1.36407703192867e-01 1.14883181832950e-03
2.00685483870968e+00 1.35649904718894e-01 1.14609384745930e-03
2.01959677419355e+00 1.34896316111999e-01 1.14333935479352e-03
2.03233870967742e+00 1.34146913988407e-01 1.14056878012191e-03
2.04508064516129e+00 1.33401675086901e-01 1.13778255570803e-03
2.05782258064516e+00 1.32660576282745e-01 1.13498110626812e-03
2.07056451612903e+00 1.31923594572505e-01 1.13216484928112e-03
2.08330645161290e+00 1.31190707087615e-01 1.12933419496451e-03
2.09604838709677e+00 1.30461891079567e-01 1.12648954657389e-03
2.10879032258065e+00 1.29737123933128e-01 1.12363130037593e-03
2.12153225806452e+00 1.29016383151889e-01 1.12075984720964e-03
2.13427419354839e+00 1.28299646367831e-01 1.11787556735844e-03
2.14701612903226e+00 1.27586891340499e-01 1.11497883845023e-03
2.15975806451613e+00 1.26878095946375e-01 1.11207003046514e-03
2.17250000000000e+00 1.26173238191383e-01 1.10914950701912e-03
2.18524193548387e+00 1.25472296197176e-01 1.10621762563200e-03
2.19798387096774e+00 1.24775248213328e-01 1.10327473769019e-03
2.21072580645161e+00 1.24082072603944e-01 1.10032118870590e-03
2.22346774193548e+00 1.23392747859550e-01 1.09735731827796e-03
2.23620967741935e+00 1.22707252584017e-01 1.09438346152355e-03
2.24895161290323e+00 1.22025565503156e-01 1.09139994430911e-03
2.26169354838710e+00 1.21347665463954e-01 1.08840709056079e-03
2.27443548387097e+00 1.20673531424926e-01 1.08540521762057e-03
2.28717741935484e+00 1.20003142467395e-01 1.08239463742533e-03
2.29991935483871e+00 1.19336477783052e-01 1.07937565674047e-03
2.31266129032258e+00 1.18673516684960e-01 1.07634857711426e-03
2.32540322580645e+00 1.18014238595403e-01 1.07331369510465e-03
2.33814516129032e+00 1.17358623056615e-01 1.07027130223252e-03
2.35088709677419e+00 1.16706649718916e-01 1.06722168520183e-03
2.36362903225806e+00 1.16058298351178e-01 1.06416512585226e-03
2.37637096774194e+00 1.15413548829225e-01 1.06110190244954e-03
2.38911290322581e+00 1.14772381143404e-01 1.05803228532414e-03
2.40185483870968e+00 1.14134775397865e-01 1.05495654352499e-03
2.41459677419355e+00 1.13500711801994e-01 1.05187494057268e-03
2.42733870967742e+00 1.12870170680352e-01 1.04878773552343e-03
2.44008064516129e+00 1.12243132461637e-01 1.04569518316892e-03
2.45282258064516e+00 1.11619577688382e-01 1.04259753398545e-03
2.46556451612903e+00 1.10999487006162e-01 1.03949503432816e-03
2.47830645161290e+00 1.10382841173069e-01 1.03638792637968e-03
2.49104838709677e+00 1.09769621049153e-01 1.03327644833913e-03
2.50379032258064e+00 1.09159807605675e-01 1.03016083437067e-03
2.51653225806452e+00 1.08553381914784e-01 1.02704131577046e-03
2.52927419354839e+00 1.07950325156195e-01 1.02391811697437e-03
2.54201612903226e+00 1.07350618616524e-01 1.02079146162762e-03
2.55475806451613e+00 1.06754243681648e-01 1.01766156869474e-03
2.56750000000000e+00 1.06161181845498e-01 1.01452865342451e-03
2.58024193548387e+00 1.05571414700222e-01 1.01139292752274e-03
2.59298387096774e+00 1.04984923944770e-01 1.00825459909906e-03
2.60572580645161e+00 1.04401691375272e-01 1.00511387283498e-03
2.61846774193548e+00 1.03821698893430e-01 1.00197094993061e-03
2.63120967741935e+00 1.03244928497095e-01 9.98826029184528e-04
2.64395161290323e+00 1.02671362286328e-01 9.95679303271936e-04
2.65669354838710e+00 1.02100982462766e-01 9.92530964388322e-04
2.66943548387097e+00 1.01533771322643e-01 9.89381200622258e-04
2.68217741935484e+00 1.00969711264779e-01 9.86230196849513e-04
2.69491935483871e+00 1.00408784781589e-01 9.83078134887184e-04
2.70766129032258e+00 9.98509744668873e-02 9.79925193439891e-04
2.72040322580645e+00 9.92962630070946e-02 9.76771548250581e-04
2.73314516129032e+00 9.87446331888638e-02 9.73617372046688e-04
2.74588709677419e+00 9.81960678904696e-02 9.70462834687035e-04
2.75862903225806e+00 9.76505500892664e-02 9.67308103108228e-04
2.77137096774194e+00 9.71080628532573e-02 9.64153342307437e-04
2.78411290322581e+00 9.65685893464718e-02 9.60998711927740e-04
2.79685483870968e+00 9.60321128283761e-02 9.57844371422631e-04
2.80959677419355e+00 9.54986166476173e-02 9.54690476728102e-04
2.82233870967742e+00 9.49680842491259e-02 9.51537181076992e-04
2.83508064516129e+00 9.44404991660641e-02 9.48384635134516e-04
2.84782258064516e+00 9.39158450267721e-02 9.45232986944834e-04
2.86056451612903e+00 9.33941055468824e-02 9.42082382063562e-04
2.87330645161290e+00 9.28752645361137e-02 9.38932963504936e-04
2.88604838709677e+00 9.23593058905462e-02 9.35784871870928e-04
2.89879032258064e+00 9.18462135992676e-02 9.32638245298897e-04
2.91153225806452e+00 9.13359717368061e-02 9.29493220357377e-04
2.92427419354839e+00 9.08285644679186e-02 9.26349928910527e-04
2.93701612903226e+00 9.03239760470391e-02 9.23208502851488e-04
2.94975806451613e+00 8.98221908126555e-02 9.20069071045165e-04
2.96250000000000e+00 8.93231931936445e-02 9.16931760071896e-04
2.97524193548387e+00 8.88269677020391e-02 9.13796694347103e-04
2.98798387096774e+00 8.83334989392265e-02 9.10663996069630e-04
3.00072580645161e+00 8.78427715888615e-02 9.07533785338896e-04
3.01346774193548e+00 8.73547704229310e-02 9.04406180103556e-04
3.02620967741935e+00 8.68694802948095e-02 9.01281296994457e-04
3.03895161290323e+00 8.63868861436247e-02 8.98159248395109e-04
3.05169354838710e+00 8.59069729937356e-02 8.95040146857655e-04
3.06443548387097e+00 8.54297259495661e-02 8.91924102245463e-04
3.07717741935484e+00 8.49551302013894e-02 8.88811222425902e-04
3.08991935483871e+00 8.44831710186859e-02 8.85701613378902e-04
3.10266129032258e+00 8.40138337558054e-02 8.82595379146642e-04
3.11540322580645e+00 8.35471038454555e-02 8.79492621940120e-04
3.12814516129032e+00 8.30829668042445e-02 8.76393442089135e-04
3.14088709677419e+00 8.26214082262985e-02 8.73297938146322e-04
3.15362903225806e+00 8.21624137886871e-02 8.70206206837969e-04
3.16637096774194e+00 8.17059692451661e-02 8.67118343826618e-04
3.17911290322581e+00 8.12520604300786e-02 8.64034441015850e-04
3.19185483870968e+00 8.08006732578680e-02 8.60954590606343e-04
3.20459677419355e+00 8.03517937184146e-02 8.57878882467366e-04
3.21733870967742e+00 7.99054078822160e-02 8.54807404771011e-04
3.23008064516129e+00 7.94615018943962e-02 8.51740244089058e-04
3.24282258064516e+00 7.90200619797781e-02 8.48677485345082e-04
3.25556451612903e+00 7.85810744370091e-02 8.45619211909326e-04
3.26830645161290e+00 7.81445256435280e-02 8.42565505551221e-04
3.28104838709677e+00 7.77104020498041e-02 8.39516446532294e-04
3.29379032258064e+00 7.72786901842015e-02 8.36472113559280e-04
3.30653225806452e+00 7.68493766473285e-02 8.33432584482871e-04
3.31927419354839e+00 7.64224481155332e-02 8.30397933816278e-04
3.33201612903226e+00 7.59978913404454e-02 8.27368236465097e-04
3.34475806451613e+00 7.55756931447619e-02 8.24343565306704e-04
3.35750000000000e+00 7.51558404268926e-02 8.21323991772197e-04
3.37024193548387e+00 7.47383201555483e-02 8.18309585933071e-04
3.38298387096774e+00 7.43231193742930e-02 8.15300416455704e-04
3.39572580645161e+00 7.39102251962341e-02 8.12296550686364e-04
3.40846774193548e+00 7.34996248084813e-02 8.09298054606402e-04
3.42120967741935e+00 7.30913054669381e-02 8.06304993484070e-04
3.43395161290323e+00 7.26852544995022e-02 8.03317429551779e-04
3.44669354838710e+00 7.22814593056324e-02 8.00335425494332e-04
3.45943548387097e+00 7.18799073524582e-02 7.97359042182270e-04
3.47217741935484e+00 7.14805861790420e-02 7.94388339215737e-04
3.48491935483871e+00 7.10834833913861e-02 7.91423375003866e-04
3.49766129032258e+00 7.06885866666097e-02 7.88464206721266e-04
3.51040322580645e+00 7.02958837480491e-02 7.85510890385872e-04
3.52314516129032e+00 6.99053624493507e-02 7.82563480816045e-04
3.53588709677419e+00 6.95170106496631e-02 7.79622031706792e-04
3.54862903225806e+00 6.91308162976476e-02 7.76686595587384e-04
3.56137096774194e+00 6.87467674067598e-02 7.73757224420575e-04
3.57411290322581e+00 6.83648520581248e-02 7.70833967460454e-04
3.58685483870968e+00 6.79850584001328e-02 7.67916874465821e-04
3.59959677419355e+00 6.76073746449086e-02 7.65005993610142e-04
3.61233870967742e+00 6.72317890721487e-02 7.62101371981313e-04
3.62508064516129e+00 6.68582900245952e-02 7.59203055653353e-04
3.63782258064516e+00 6.64868659117963e-02 7.56311089645269e-04
3.65056451612903e+00 6.61175052056640e-02 7.53425517991366e-04
3.66330645161290e+00 6.57501964441596e-02 7.50546383700737e-04
3.67604838709677e+00 6.53849282269335e-02 7.47673728825941e-04
3.68879032258064e+00 6.50216892189378e-02 7.44807594423241e-04
3.70153225806452e+00 6.46604681461455e-02 7.41948021103491e-04
3.71427419354839e+00 6.43012537981381e-02 7.39095047055835e-04
3.72701612903226e+00 6.39440350277257e-02 7.36248711010129e-04
3.73975806451613e+00 6.35888007477408e-02 7.33409050307940e-04
3.75250000000000e+00 6.32355399344961e-02 7.30576101362784e-04
3.76524193548387e+00 6.28842416236763e-02 7.27749899724818e-04
3.77798387096774e+00 6.25348949137286e-02 7.24930480042253e-04
3.79072580645161e+00 6.21874889618288e-02 7.22117876124755e-04
3.80346774193548e+00 6.18420129872053e-02 7.19312120905480e-04
3.81620967741935e+00 6.14984562671784e-02 7.16513246956427e-04
3.82895161290323e+00 6.11568081395390e-02 7.13721284635523e-04
3.84169354838710e+00 6.08170580021875e-02 7.10936264862266e-04
3.85443548387097e+00 6.04791953101651e-02 7.08158217308828e-04
3.86717741935484e+00 6.01432095788363e-02 7.05387170831070e-04
3.87991935483871e+00 5.98090903800864e-02 7.02623153528019e-04
3.89266129032258e+00 5.94768273454423e-02 6.99866192705345e-04
3.90540322580645e+00 5.91464101623383e-02 6.97116314933824e-04
3.91814516129032e+00 5.88178285771770e-02 6.94373546013101e-04
3.93088709677419e+00 5.84910723916614e-02 6.91637911029214e-04
3.94362903225806e+00 5.81661314657971e-02 6.88909434318805e-04
3.95637096774194e+00 5.78429957142895e-02 6.86188139944153e-04
3.96911290322581e+00 5.75216551086893e-02 6.83474049981325e-04
3.98185483870968e+00 5.72020996770549e-02 6.80767187082568e-04
3.99459677419355e+00 5.68843195012479e-02 6.78067572805110e-04
4.00733870967742e+00 5.65683047198094e-02 6.75375228008353e-04
4.02008064516129e+00 5.62540455244990e-02 6.72690172908078e-04
