Energy (eV)          EEDF (eV^-(3/2))     First Anisotropy
2.38846153846154e-03 1.46084345117522e+01 1.39491183616679e-02
7.16538461538462e-03 1.42252932435927e+01 2.28085766859189e-02
1.19423076923077e-02 1.38522007754962e+01 2.95186733517493e-02
1.67192307692308e-02 1.34888935535533e+01 3.42702322372819e-02
2.14961538461538e-02 1.31351149353259e+01 3.79562762757595e-02
2.62730769230769e-02 1.27906150104100e+01 4.09249735253427e-02
3.10500000000000e-02 1.24551504229053e+01 4.33617230954992e-02
3.58269230769231e-02 1.21284842003327e+01 4.53815406236741e-02
4.06038461538462e-02 1.18103855835374e+01 4.70626739572949e-02
4.53807692307692e-02 1.15006298665264e+01 4.84617689877975e-02
5.01576923076923e-02 1.11989982367463e+01 4.96217095632188e-02
5.49346153846154e-02 1.09052776210129e+01 5.05760741064482e-02
5.97115384615385e-02 1.06192605334954e+01 5.13518540863582e-02
6.44884615384615e-02 1.03407449306922e+01 5.19712054710393e-02
6.92653846153846e-02 1.00695340681647e+01 5.24526277337196e-02
7.40423076923077e-02 9.80543636157738e+00 5.28117864131036e-02
7.88192307692308e-02 9.54826525164071e+00 5.30621046073403e-02
8.35961538461538e-02 9.29783907142849e+00 5.32151992177736e-02
8.83730769230769e-02 9.05398091897177e+00 5.32812098819471e-02
9.31500000000000e-02 8.81651853198142e+00 5.32690518460455e-02
9.79269230769231e-02 8.58528416636717e+00 5.31866136562068e-02
1.02703846153846e-01 8.36011447631909e+00 5.30409138236361e-02
1.07480769230769e-01 8.14085040218740e+00 5.28382269836496e-02
1.12257692307692e-01 7.92733705499112e+00 5.25841866022123e-02
1.17034615384615e-01 7.71942360808817e+00 5.22838692076755e-02
1.21811538461538e-01 7.51696319063021e+00 5.19418645377252e-02
1.26588461538462e-01 7.31981278381194e+00 5.15623342801593e-02
1.31365384615385e-01 7.12783311983630e+00 5.11490617003472e-02
1.36142307692308e-01 6.94088858354672e+00 5.07054938839599e-02
1.40919230769231e-01 6.75884711662101e+00 5.02347779408738e-02
1.45696153846154e-01 6.58158012428471e+00 4.97397922282963e-02
1.50473076923077e-01 6.40896238447102e+00 4.92231734367506e-02
1.55250000000000e-01 6.24087195936336e+00 4.86873402658419e-02
1.60026923076923e-01 6.07719010838162e+00 4.81345139711821e-02
1.64803846153846e-01 5.91780120700661e+00 4.75667367085661e-02
1.69580769230769e-01 5.76259266231940e+00 4.69858877758003e-02
1.74357692307692e-01 5.61145483442156e+00 4.63936977588078e-02
1.79134615384615e-01 5.46428095898499e+00 4.57917613563032e-02
1.83911538461538e-01 5.32096707183312e+00 4.51815487971819e-02
1.88688461538462e-01 5.18141193550012e+00 4.45644160863338e-02
1.93465384615385e-01 5.04551696771458e+00 4.39416142268238e-02
1.98242307692308e-01 4.91318617176430e+00 4.33142975450671e-02
2.03019230769231e-01 4.78432606868175e+00 4.26835312264874e-02
2.07796153846154e-01 4.65884563121011e+00 4.20502981531133e-02
2.12573076923077e-01 4.53665621950126e+00 4.14155051229295e-02
2.17350000000000e-01 4.41767151850017e+00 4.07799885505105e-02
2.22126923076923e-01 4.30180747652657e+00 4.01445195501834e-02
2.26903846153846e-01 4.18898224726966e+00 3.95098087409315e-02
2.31680769230769e-01 4.07911613056651e+00 3.88765106617077e-02
2.36457692307692e-01 3.97213151658264e+00 3.82452276591970e-02
2.41234615384615e-01 3.86795283098806e+00 3.76165135968701e-02
2.46011538461538e-01 3.76650648157129e+00 3.69908772397699e-02
2.50788461538462e-01 3.66772080625349e+00 3.63687853780190e-02
2.55565384615385e-01 3.57152602246541e+00 3.57506657129227e-02
2.60342307692308e-01 3.47785417785416e+00 3.51369095273875e-02
2.65119230769231e-01 3.38663910228066e+00 3.45278741597704e-02
2.69896153846154e-01 3.29781636107671e+00 3.39238852979451e-02
2.74673076923077e-01 3.21132320952813e+00 3.33252391091469e-02
2.79450000000000e-01 3.12709854855163e+00 3.27322042387724e-02
2.84226923076923e-01 3.04508288128851e+00 3.21450235917833e-02
2.89003846153846e-01 2.96521827183039e+00 3.15639160871407e-02
2.93780769230769e-01 2.88744830352016e+00 3.09890782981974e-02
2.98557692307692e-01 2.81171803936313e+00 3.04206858768382e-02
3.03334615384615e-01 2.73797398321928e+00 2.98588949658570e-02
3.08111538461538e-01 2.66616404201344e+00 2.93038434971120e-02
3.12888461538462e-01 2.59623748893647e+00 2.87556524046513e-02
3.17665384615385e-01 2.52814492761139e+00 2.82144267589564e-02
3.22442307692308e-01 2.46183825720023e+00 2.76802568281676e-02
3.27219230769231e-01 2.39727063842505e+00 2.71532190715206e-02
3.31996153846154e-01 2.33439646048051e+00 2.66333770696344e-02
3.36773076923077e-01 2.27317130881421e+00 2.61207823961786e-02
3.41550000000000e-01 2.21355193375208e+00 2.56154754474127e-02
3.46326923076923e-01 2.15549621980411e+00 2.51174861700937e-02
3.51103846153846e-01 2.09896315635111e+00 2.46268348058740e-02
3.55880769230769e-01 2.04391280822722e+00 2.41435325933512e-02
3.60657692307692e-01 1.99030628766225e+00 2.36675823591859e-02
3.65434615384615e-01 1.93810572681121e+00 2.31989791266704e-02
3.70211538461538e-01 1.88727425100432e+00 2.27377106738332e-02
3.74988461538462e-01 1.83777595269857e+00 2.22837580576780e-02
3.79765384615385e-01 1.78957586611238e+00 2.18370961066431e-02
3.84542307692308e-01 1.74263994252596e+00 2.13976938833475e-02
3.89319230769231e-01 1.69693502622898e+00 2.09655151194795e-02
3.94096153846154e-01 1.65242883109925e+00 2.05405186244662e-02
3.98873076923077e-01 1.60908991779568e+00 2.01226586695940e-02
4.03650000000000e-01 1.56688767154943e+00 1.97118853571911e-02
4.08426923076923e-01 1.52579228045201e+00 1.93081449350960e-02
4.13203846153846e-01 1.48577471465811e+00 1.89113801323578e-02
4.17980769230769e-01 1.44680670561091e+00 1.85215304771111e-02
4.22757692307692e-01 1.40886072616437e+00 1.81385325511061e-02
4.27534615384615e-01 1.37190997113799e+00 1.77623202638258e-02
4.32311538461538e-01 1.33592833838152e+00 1.73928251013435e-02
4.37088461538462e-01 1.30089041033629e+00 1.70299763601451e-02
4.41865384615385e-01 1.26677143608006e+00 1.66737013667525e-02
4.46642307692308e-01 1.23354731384306e+00 1.63239256840105e-02
4.51419230769231e-01 1.20119457398236e+00 1.59805733048056e-02
4.56196153846154e-01 1.16969036240272e+00 1.56435668338882e-02
4.60973076923077e-01 1.13901242441250e+00 1.53128276585134e-02
4.65750000000000e-01 1.10913908900275e+00 1.49882761138869e-02
4.70526923076923e-01 1.08004925348632e+00 1.46698316168858e-02
4.75303846153846e-01 1.05172236875161e+00 1.43574128177858e-02
4.80080769230769e-01 1.02413842458232e+00 1.40509377440323e-02
4.84857692307692e-01 9.97277935578123e-01 1.37503239057666e-02
4.89634615384615e-01 9.71121927390132e-01 1.34554884175387e-02
4.94411538461538e-01 9.45651923317312e-01 1.31663481064479e-02
4.99188461538462e-01 9.20849931254497e-01 1.28828196132442e-02
5.03965384615385e-01 8.96698430982641e-01 1.26048194867691e-02
5.08742307692308e-01 8.73180361792569e-01 1.23322642721274e-02
5.13519230769231e-01 8.50279110433177e-01 1.20650705929417e-02
5.18296153846154e-01 8.27978499375771e-01 1.18031552279938e-02
5.23073076923077e-01 8.06262775386195e-01 1.15464351825839e-02
5.27850000000000e-01 7.85116598396693e-01 1.12948277584635e-02
5.32626923076923e-01 7.64525030636825e-01 1.10482506045816e-02
5.37403846153846e-01 7.44473526181828e-01 1.08066217815899e-02
5.42180769230769e-01 7.24947920574727e-01 1.05698598227674e-02
5.46957692307692e-01 7.05934420855447e-01 1.03378837711026e-02
5.51734615384615e-01 6.87419595817419e-01 1.01106132286458e-02
5.56511538461538e-01 6.69390366519717e-01 9.88796839825978e-03
5.61288461538462e-01 6.51833997048054e-01 9.66987012203542e-03
5.66065384615385e-01 6.34738085518054e-01 9.45623991654996e-03
5.70842307692308e-01 6.18090555314570e-01 9.24700000515959e-03
5.75619230769231e-01 6.01879646560687e-01 9.04207334749553e-03
5.80396153846154e-01 5.86093907810504e-01 8.84138366630746e-03
5.85173076923077e-01 5.70722187959789e-01 8.64485547181685e-03
5.89950000000000e-01 5.55753628368795e-01 8.45241408610842e-03
5.94726923076923e-01 5.41177655170898e-01 8.26398565561724e-03
5.99503846153846e-01 5.26983971866807e-01 8.07949717371827e-03
6.04280769230769e-01 5.13162551986117e-01 7.89887650177474e-03
6.09057692307692e-01 4.99703632026687e-01 7.72205237502656e-03
6.13834615384615e-01 4.86597704557667e-01 7.54895441746077e-03
6.18611538461538e-01 4.73835511503412e-01 7.37951315232304e-03
6.23388461538462e-01 4.61408037603542e-01 7.21366001109096e-03
6.28165384615385e-01 4.49306504044518e-01 7.05132734099466e-03
6.32942307692308e-01 4.37522362258281e-01 6.89244841118258e-03
6.37719230769231e-01 4.26047287883499e-01 6.73695741761461e-03
6.42496153846154e-01 4.14873174885204e-01 6.58478948675215e-03
6.47273076923077e-01 4.03992129828662e-01 6.43588067812751e-03
6.52050000000000e-01 3.93396466303420e-01 6.29016798746940e-03
6.56826923076923e-01 3.83078699480279e-01 6.14758934231893e-03
6.61603846153846e-01 3.73031540864746e-01 6.00808360492892e-03
6.66380769230769e-01 3.63247893106811e-01 5.87159057459158e-03
6.71157692307692e-01 3.53720845001515e-01 5.73805098019760e-03
6.75934615384615e-01 3.44443666606839e-01 5.60740647926485e-03
6.80711538461538e-01 3.35409804489661e-01 5.47959965443607e-03
6.85488461538462e-01 3.26612877096376e-01 5.35457400932683e-03
6.90265384615385e-01 3.18046670244938e-01 5.23227396376547e-03
6.95042307692308e-01 3.09705132735157e-01 5.11264484847415e-03
6.99819230769231e-01 3.01582372074101e-01 4.99563289923226e-03
7.04596153846154e-01 2.93672650313611e-01 4.88118525055446e-03
7.09373076923077e-01 2.85970379997000e-01 4.76924992892562e-03
7.14150000000000e-01 2.78470120212048e-01 4.65977584671372e-03
7.18926923076923e-01 2.71166572738915e-01 4.55271279129278e-03
7.23703846153846e-01 2.64054578333802e-01 4.44801141936825e-03
7.28480769230769e-01 2.57129113057564e-01 4.34562325118457e-03
7.33257692307692e-01 2.50385284735922e-01 4.24550065837958e-03
7.38034615384615e-01 2.43818329503616e-01 4.14759685646008e-03
7.42811538461538e-01 2.37423608439191e-01 4.05186589580131e-03
7.47588461538462e-01 2.31196604288048e-01 3.95826265243329e-03
7.52365384615385e-01 2.25132918271429e-01 3.86674281863366e-03
7.57142307692308e-01 2.19228266979121e-01 3.77726289335150e-03
7.61919230769231e-01 2.13478479343626e-01 3.68978017248127e-03
7.66696153846154e-01 2.07879493693709e-01 3.60425273900256e-03
7.71473076923077e-01 2.02427354885215e-01 3.52063945300588e-03
7.76250000000000e-01 1.97118211507142e-01 3.43889994235843e-03
7.81026923076923e-01 1.91948313155383e-01 3.35899459029106e-03
7.85803846153846e-01 1.86914007800581e-01 3.28088452668329e-03
7.90580769230769e-01 1.82011739190824e-01 3.20453161942982e-03
7.95357692307692e-01 1.77238044345442e-01 3.12989846164735e-03
8.00134615384615e-01 1.72589551108751e-01 3.05694836216771e-03
8.04911538461539e-01 1.68062975767947e-01 2.98564533517182e-03
8.09688461538462e-01 1.63655120733477e-01 2.91595408981712e-03
8.14465384615385e-01 1.59362872280253e-01 2.84784001986662e-03
8.19242307692308e-01 1.55183198348103e-01 2.78126919333094e-03
8.24019230769231e-01 1.51113146399918e-01 2.71620834213276e-03
8.28796153846154e-01 1.47149841335962e-01 2.65262485179886e-03
8.33573076923077e-01 1.43290483462892e-01 2.59048675118963e-03
8.38350000000000e-01 1.39532346516048e-01 2.52976270277581e-03
8.43126923076923e-01 1.35872775729929e-01 2.47042199092527e-03
8.47903846153846e-01 1.32309185974107e-01 2.41243451281132e-03
8.52680769230769e-01 1.28839059915606e-01 2.35577076947708e-03
8.57457692307692e-01 1.25459946244552e-01 2.30040185416236e-03
8.62234615384615e-01 1.22169457942561e-01 2.24629944296183e-03
8.67011538461538e-01 1.18965270596535e-01 2.19343578498769e-03
8.71788461538462e-01 1.15845120756692e-01 2.14178369261435e-03
8.76565384615385e-01 1.12806804337653e-01 2.09131653180790e-03
8.81342307692308e-01 1.09848175061474e-01 2.04200821254534e-03
8.86119230769231e-01 1.06967142941501e-01 1.99383317932660e-03
8.90896153846154e-01 1.04161672806002e-01 1.94676640178116e-03
8.95673076923077e-01 1.01429782860508e-01 1.90078336537291e-03
9.00450000000000e-01 9.87695432878684e-02 1.85586006254902e-03
9.05226923076923e-01 9.61790748825988e-02 1.81197298259758e-03
9.10003846153846e-01 9.36565477308147e-02 1.76909910336121e-03
9.14780769230769e-01 9.12001799100140e-02 1.72721588312120e-03
9.19557692307692e-01 8.88082362328907e-02 1.68630125067314e-03
9.24334615384615e-01 8.64790270215925e-02 1.64633359705390e-03
9.29111538461538e-01 8.42109069141257e-02 1.60729176698774e-03
9.33888461538462e-01 8.20022737020660e-02 1.56915505044393e-03
9.38665384615385e-01 7.98515671987510e-02 1.53190317430600e-03
9.43442307692308e-01 7.77572681371609e-02 1.49551629415412e-03
9.48219230769231e-01 7.57178970967016e-02 1.45997498616117e-03
9.52996153846154e-01 7.37320134581361e-02 1.42526023910195e-03
9.57773076923077e-01 7.17982143859263e-02 1.39135344647662e-03
9.62550000000000e-01 6.99151338372643e-02 1.35823639898350e-03
9.67326923076923e-01 6.80814415954899e-02 1.32589127615169e-03
9.72103846153846e-01 6.62958423353298e-02 1.29430063928682e-03
9.76880769230769e-01 6.45570747028685e-02 1.26344742457487e-03
9.81657692307692e-01 6.28639104262260e-02 1.23331493498743e-03
9.86434615384615e-01 6.12151534479013e-02 1.20388683335618e-03
9.91211538461539e-01 5.96096390798734e-02 1.17514713529251e-03
9.95988461538462e-01 5.80462331808613e-02 1.14708020221941e-03
1.00076538461538e+00 5.65238313551615e-02 1.11967073526380e-03
1.00554230769231e+00 5.50413581674893e-02 1.09290376567730e-03
1.01031923076923e+00 5.35977664022536e-02 1.06676465086869e-03
1.01509615384615e+00 5.21920363005480e-02 1.04123907124495e-03
1.01987307692308e+00 5.08231748377527e-02 1.01631301483256e-03
1.02465000000000e+00 4.94902150568221e-02 9.91972775962489e-04
1.02942692307692e+00 4.81922153497286e-02 9.68204952876698e-04
1.03420384615385e+00 4.69282588043871e-02 9.44996437414432e-04
1.03898076923077e+00 4.56974525469406e-02 9.22334406326550e-04
1.04375769230769e+00 4.44989271416527e-02 9.00206318498934e-04
1.04853461538462e+00 4.33318359454726e-02 8.78599913948435e-04
1.05331153846154e+00 4.21953545114957e-02 8.57503198776229e-04
1.05808846153846e+00 4.10886800344738e-02 8.36904444179934e-04
1.06286538461538e+00 4.00110307552107e-02 8.16792185356294e-04
1.06764230769231e+00 3.89616454097314e-02 7.97155207524502e-04
1.07241923076923e+00 3.79397827169495e-02 7.77982544857290e-04
1.07719615384615e+00 3.69447208290527e-02 7.59263479316484e-04
1.08197307692308e+00 3.59757568228550e-02 7.40987527671994e-04
1.08675000000000e+00 3.50322062264396e-02 7.23144440368909e-04
1.09152692307692e+00 3.41134025119718e-02 7.05724199239180e-04
1.09630384615385e+00 3.32186966329173e-02 6.88717009789708e-04
1.10108076923077e+00 3.23474565588703e-02 6.72113294623856e-04
1.10585769230769e+00 3.14990668495362e-02 6.55903690943561e-04
1.11063461538462e+00 3.06729281991073e-02 6.40079049289014e-04
1.11541153846154e+00 2.98684570139258e-02 6.24630422637331e-04
1.12018846153846e+00 2.90850850188800e-02 6.09549065184037e-04
1.12496538461538e+00 2.83222588369285e-02 5.94826431067209e-04
1.12974230769231e+00 2.75794395991250e-02 5.80454164246060e-04
1.13451923076923e+00 2.68561025809663e-02 5.66424097272491e-04
1.13929615384615e+00 2.61517368143575e-02 5.52728250013236e-04
1.14407307692308e+00 2.54658447275040e-02 5.39358820253630e-04
1.14885000000000e+00 2.47979418089468e-02 5.26308182466994e-04
1.15362692307692e+00 2.41475562494591e-02 5.13568885803168e-04
1.15840384615385e+00 2.35142286141486e-02 5.01133648356630e-04
1.16318076923077e+00 2.28975115134333e-02 4.88995352224705e-04
1.16795769230769e+00 2.22969693007061e-02 4.77147041387883e-04
1.17273461538462e+00 2.17121777506079e-02 4.65581920454849e-04
1.17751153846154e+00 2.11427237600286e-02 4.54293346777671e-04
1.18228846153846e+00 2.05882050687928e-02 4.43274829246358e-04
1.18706538461538e+00 2.00482299627354e-02 4.32520027055776e-04
1.19184230769231e+00 1.95224169976143e-02 4.22022742387730e-04
1.19661923076923e+00 1.90103947410661e-02 4.11776919229362e-04
1.20139615384615e+00 1.85118014985752e-02 4.01776642168327e-04
1.20617307692308e+00 1.80262850585332e-02 3.92016129601665e-04
1.21095000000000e+00 1.75535024538537e-02 3.82489732580844e-04
1.21572692307692e+00 1.70931197090666e-02 3.73191933128049e-04
1.22050384615385e+00 1.66448116080133e-02 3.64117339996392e-04
1.22528076923077e+00 1.62082614611040e-02 3.55260684981646e-04
1.23005769230769e+00 1.57831608908139e-02 3.46616821188230e-04
1.23483461538462e+00 1.53692096044487e-02 3.38180721899891e-04
1.23961153846154e+00 1.49661151824679e-02 3.29947474884676e-04
1.24438846153846e+00 1.45735928803246e-02 3.21912281313773e-04
1.24916538461538e+00 1.41913654187391e-02 3.14070454669246e-04
1.25394230769231e+00 1.38191627882428e-02 3.06417415460153e-04
1.25871923076923e+00 1.34567220661172e-02 2.98948690178541e-04
1.26349615384615e+00 1.31037872228294e-02 2.91659910246686e-04
1.26827307692308e+00 1.27601089415465e-02 2.84546807115085e-04
1.27305000000000e+00 1.24254444490307e-02 2.77605211255803e-04
1.27782692307692e+00 1.20995573369868e-02 2.70831050797299e-04
1.28260384615385e+00 1.17822173974970e-02 2.64220348400677e-04
1.28738076923077e+00 1.14732004583735e-02 2.57769218521337e-04
1.29215769230769e+00 1.11722882310051e-02 2.51473866025521e-04
1.29693461538462e+00 1.08792681498285e-02 2.45330585230037e-04
1.30171153846154e+00 1.05939332224737e-02 2.39335755793692e-04
1.30648846153846e+00 1.03160818892093e-02 2.33485841799818e-04
1.31126538461538e+00 1.00455178747766e-02 2.27777390836455e-04
1.31604230769231e+00 9.78205005001804e-03 2.22207030185427e-04
1.32081923076923e+00 9.52549230203877e-03 2.16771465944575e-04
1.32559615384615e+00 9.27566339745237e-03 2.11467482148803e-04
1.33037307692308e+00 9.03238685460841e-03 2.06291937235493e-04
1.33515000000000e+00 8.79549082365706e-03 2.01241763205405e-04
1.33992692307692e+00 8.56480796032588e-03 1.96313964540149e-04
1.34470384615385e+00 8.34017530934911e-03 1.91505615908247e-04
1.34948076923077e+00 8.12143418798644e-03 1.86813860140769e-04
1.35425769230769e+00 7.90843007811699e-03 1.82235907147369e-04
1.35903461538462e+00 7.70101251281441e-03 1.77769033128684e-04
1.36381153846154e+00 7.49903497025926e-03 1.73410577615228e-04
1.36858846153846e+00 7.30235477406328e-03 1.69157942715905e-04
1.37336538461538e+00 7.11083298857556e-03 1.65008592368492e-04
1.37814230769231e+00 6.92433432092449e-03 1.60960049593712e-04
1.38291923076923e+00 6.74272702894492e-03 1.57009895780729e-04
1.38769615384615e+00 6.56588282454442e-03 1.53155769975139e-04
1.39247307692308e+00 6.39367678324912e-03 1.49395366332737e-04
1.39725000000000e+00 6.22598725915631e-03 1.45726433440528e-04
1.40202692307692e+00 6.06269579573915e-03 1.42146773472272e-04
1.40680384615385e+00 5.90368704327848e-03 1.38654240508580e-04
1.41158076923077e+00 5.74884867645296e-03 1.35246739045764e-04
1.41635769230769e+00 5.59807131782594e-03 1.31922223158020e-04
1.42113461538462e+00 5.45124845768994e-03 1.28678695867312e-04
1.42591153846154e+00 5.30827637896426e-03 1.25514207011134e-04
1.43068846153846e+00 5.16905408652027e-03 1.22426852641837e-04
1.43546538461538e+00 5.03348323319359e-03 1.19414774429782e-04
1.44024230769231e+00 4.90146805043700e-03 1.16476157686446e-04
1.44501923076923e+00 4.77291528303867e-03 1.13609230795880e-04
1.44979615384615e+00 4.64773412082829e-03 1.10812264650134e-04
1.45457307692308e+00 4.52583613464241e-03 1.08083570816496e-04
1.45935000000000e+00 4.40713521602571e-03 1.05421500999534e-04
1.46412692307692e+00 4.29154751419223e-03 1.02824446390537e-04
1.46890384615385e+00 4.17899137754476e-03 1.00290836440209e-04
1.47368076923077e+00 4.06938729536773e-03 9.78191377636255e-05
1.47845769230769e+00 3.96265784358187e-03 9.54078534995087e-05
1.48323461538462e+00 3.85872762809175e-03 9.30555228151574e-05
1.48801153846154e+00 3.75752323161925e-03 9.07607193722245e-05
1.49278846153846e+00 3.65897316359893e-03 8.85220508551068e-05
1.49756538461538e+00 3.56300780788340e-03 8.63381585036412e-05
1.50234230769231e+00 3.46955937365107e-03 8.42077156909265e-05
1.50711923076923e+00 3.37856184912623e-03 8.21294274784373e-05
