Energy (eV)          EEDF (eV^-(3/2))     First Anisotropy
1.91379310344828e-03 2.18989908638625e+00 1.05982893866145e-03
5.74137931034483e-03 2.17687022938101e+00 1.75075845073378e-03
9.56896551724138e-03 2.16391888788977e+00 2.31300072748435e-03
1.33965517241379e-02 2.15104460072693e+00 2.74123879412571e-03
1.72241379310345e-02 2.13824690944392e+00 3.09930494064186e-03
2.10517241379310e-02 2.12552535833157e+00 3.41130070717445e-03
2.48793103448276e-02 2.11287949439203e+00 3.68968267384876e-03
2.87068965517241e-02 2.10030886732258e+00 3.94196359134507e-03
3.25344827586207e-02 2.08781302946056e+00 4.17311987501201e-03
3.63620689655172e-02 2.07539153588979e+00 4.38666441958950e-03
4.01896551724138e-02 2.06304394429603e+00 4.58519446381445e-03
4.40172413793103e-02 2.05076981499690e+00 4.77069925609010e-03
4.78448275862069e-02 2.03856871092616e+00 4.94474546811575e-03
5.16724137931034e-02 2.02644019761801e+00 5.10859519509551e-03
5.55000000000000e-02 2.01438384319166e+00 5.26328440405972e-03
5.93275862068966e-02 2.00239921833577e+00 5.40967698577180e-03
6.31551724137931e-02 1.99048589629330e+00 5.54850312633062e-03
6.69827586206897e-02 1.97864345284629e+00 5.68038724677598e-03
7.08103448275862e-02 1.96687146630073e+00 5.80586879533859e-03
7.46379310344828e-02 1.95516951747151e+00 5.92541801707400e-03
7.84655172413793e-02 1.94353718966745e+00 6.03944811511878e-03
8.22931034482759e-02 1.93197406867653e+00 6.14832477032475e-03
8.61206896551724e-02 1.92047974273803e+00 6.25237368405176e-03
8.99482758620690e-02 1.90905380256784e+00 6.35188663843032e-03
9.37758620689655e-02 1.89769584130309e+00 6.44712641215823e-03
9.76034482758621e-02 1.88640545450155e+00 6.53833079830363e-03
1.01431034482759e-01 1.87518224012725e+00 6.62571593603618e-03
1.05258620689655e-01 1.86402579849364e+00 6.70947905793566e-03
1.09086206896552e-01 1.85293573239930e+00 6.78980083179127e-03
1.12913793103448e-01 1.84191164693949e+00 6.86684733589135e-03
1.16741379310345e-01 1.83095314955824e+00 6.94077170305902e-03
1.20568965517241e-01 1.82005985003633e+00 7.01171557092561e-03
1.24396551724138e-01 1.80923136039212e+00 7.07981027054532e-03
1.28224137931034e-01 1.79846729512453e+00 7.14517791472222e-03
1.32051724137931e-01 1.78776727093776e+00 7.20793234657554e-03
1.35879310344828e-01 1.77713090681611e+00 7.26817990332036e-03
1.39706896551724e-01 1.76655782401150e+00 7.32602014671656e-03
1.43534482758621e-01 1.75604764595869e+00 7.38154644769056e-03
1.47362068965517e-01 1.74559999847693e+00 7.43484655807700e-03
1.51189655172414e-01 1.73521450953792e+00 7.48600311973934e-03
1.55017241379310e-01 1.72489080932673e+00 7.53509405938997e-03
1.58844827586207e-01 1.71462853022907e+00 7.58219299649533e-03
1.62672413793103e-01 1.70442730675751e+00 7.62736955516521e-03
1.66500000000000e-01 1.69428677572198e+00 7.67068969498349e-03
1.70327586206897e-01 1.68420657603042e+00 7.71221601059605e-03
1.74155172413793e-01 1.67418634873920e+00 7.75200795914917e-03
1.77982758620690e-01 1.66422573698636e+00 7.79012206771591e-03
1.81810344827586e-01 1.65432438614319e+00 7.82661215933611e-03
1.85637931034483e-01 1.64448194363486e+00 7.86152956003135e-03
1.89465517241379e-01 1.63469805898403e+00 7.89492323748333e-03
1.93293103448276e-01 1.62497238379868e+00 7.92683997568563e-03
1.97120689655172e-01 1.61530457171239e+00 7.95732448863381e-03
2.00948275862069e-01 1.60569427851560e+00 7.98641956896877e-03
2.04775862068966e-01 1.59614116199779e+00 8.01416622582372e-03
2.08603448275862e-01 1.58664488198425e+00 8.04060376549901e-03
2.12431034482759e-01 1.57720510032437e+00 8.06576991034343e-03
2.16258620689655e-01 1.56782148083764e+00 8.08970086577193e-03
2.20086206896552e-01 1.55849368942848e+00 8.11243142349817e-03
2.23913793103448e-01 1.54922139394599e+00 8.13399505831864e-03
2.27741379310345e-01 1.54000426421524e+00 8.15442397504235e-03
2.31568965517241e-01 1.53084197202591e+00 8.17374919352457e-03
2.35396551724138e-01 1.52173419108317e+00 8.19200058799383e-03
2.39224137931034e-01 1.51268059710896e+00 8.20920696214927e-03
2.43051724137931e-01 1.50368086771624e+00 8.22539612022309e-03
2.46879310344828e-01 1.49473468243592e+00 8.24059489348539e-03
2.50706896551724e-01 1.48584172270573e+00 8.25482920369606e-03
2.54534482758621e-01 1.47700167182533e+00 8.26812408533574e-03
2.58362068965517e-01 1.46821421504619e+00 8.28050374247054e-03
2.62189655172414e-01 1.45947903945810e+00 8.29199160297075e-03
2.66017241379310e-01 1.45079583401250e+00 8.30261033223695e-03
2.69844827586207e-01 1.44216428951154e+00 8.31238188229290e-03
2.73672413793103e-01 1.43358409856683e+00 8.32132750317011e-03
2.77500000000000e-01 1.42505495567976e+00 8.32946778745810e-03
2.81327586206897e-01 1.41657655713838e+00 8.33682271305472e-03
2.85155172413793e-01 1.40814860103768e+00 8.34341165532716e-03
2.88982758620690e-01 1.39977078724102e+00 8.34925339976918e-03
2.92810344827586e-01 1.39144281745392e+00 8.35436617950343e-03
2.96637931034483e-01 1.38316439512803e+00 8.35876771144531e-03
3.00465517241379e-01 1.37493522547924e+00 8.36247519731256e-03
3.04293103448276e-01 1.36675501547735e+00 8.36550535697963e-03
3.08120689655172e-01 1.35862347381019e+00 8.36787442893827e-03
3.11948275862069e-01 1.35054031095009e+00 8.36959820114657e-03
3.15775862068966e-01 1.34250523906600e+00 8.37069204096490e-03
3.19603448275862e-01 1.33451797203923e+00 8.37117089234692e-03
3.23431034482759e-01 1.32657822545345e+00 8.37104930368254e-03
3.27258620689655e-01 1.31868571656132e+00 8.37034142494418e-03
3.31086206896552e-01 1.31084016434456e+00 8.36906103362688e-03
3.34913793103448e-01 1.30304128943312e+00 8.36722156005916e-03
3.38741379310345e-01 1.29528881411903e+00 8.36483608207702e-03
3.42568965517241e-01 1.28758246234661e+00 8.36191734873282e-03
3.46396551724138e-01 1.27992195968137e+00 8.35847777524306e-03
3.50224137931034e-01 1.27230703336446e+00 8.35452946521184e-03
3.54051724137931e-01 1.26473741223816e+00 8.35008423240616e-03
3.57879310344828e-01 1.25721282675794e+00 8.34515359379808e-03
3.61706896551724e-01 1.24973300898303e+00 8.33974879009911e-03
3.65534482758621e-01 1.24229769254722e+00 8.33388077924197e-03
3.69362068965517e-01 1.23490661270852e+00 8.32756025573373e-03
3.73189655172414e-01 1.22755950628007e+00 8.32079766967625e-03
3.77017241379310e-01 1.22025611164086e+00 8.31360321876088e-03
3.80844827586207e-01 1.21299616872643e+00 8.30598686630876e-03
3.84672413793103e-01 1.20577941900158e+00 8.29795833380378e-03
3.88500000000000e-01 1.19860560550564e+00 8.28952711797504e-03
3.92327586206897e-01 1.19147447278832e+00 8.28070250762475e-03
3.96155172413793e-01 1.18438576691918e+00 8.27149357970763e-03
3.99982758620690e-01 1.17733923546162e+00 8.26190919642835e-03
4.03810344827586e-01 1.17033462751511e+00 8.25195802086153e-03
4.07637931034483e-01 1.16337169365462e+00 8.24164853237048e-03
4.11465517241379e-01 1.15645018593903e+00 8.23098901760755e-03
4.15293103448276e-01 1.14956985790238e+00 8.21998758522157e-03
4.19120689655172e-01 1.14273046452943e+00 8.20865215749935e-03
4.22948275862069e-01 1.13593176229426e+00 8.19699048440724e-03
4.26775862068966e-01 1.12917350910388e+00 8.18501015749583e-03
4.30603448275862e-01 1.12245546430561e+00 8.17271860069665e-03
4.34431034482759e-01 1.11577738867855e+00 8.16012308362604e-03
4.38258620689655e-01 1.10913904441053e+00 8.14723071304645e-03
4.42086206896552e-01 1.10254019513359e+00 8.13404844559725e-03
4.45913793103448e-01 1.09598060587125e+00 8.12058310043597e-03
4.49741379310345e-01 1.08946004304499e+00 8.10684134997785e-03
4.53568965517241e-01 1.08297827446600e+00 8.09282973202531e-03
4.57396551724138e-01 1.07653506931340e+00 8.07855464118172e-03
4.61224137931034e-01 1.07013019816682e+00 8.06402234047594e-03
4.65051724137931e-01 1.06376343295709e+00 8.04923897293021e-03
4.68879310344828e-01 1.05743454697192e+00 8.03421055235666e-03
4.72706896551724e-01 1.05114331484789e+00 8.01894297448433e-03
4.76534482758621e-01 1.04488951254978e+00 8.00344200841382e-03
4.80362068965517e-01 1.03867291740068e+00 7.98771330730507e-03
4.84189655172414e-01 1.03249330803567e+00 7.97176241902028e-03
4.88017241379310e-01 1.02635046440687e+00 7.95559477705058e-03
4.91844827586207e-01 1.02024416777557e+00 7.93921571078264e-03
4.95672413793103e-01 1.01417420069274e+00 7.92263043706008e-03
4.99500000000000e-01 1.00814034702673e+00 7.90584407006118e-03
5.03327586206897e-01 1.00214239191980e+00 7.88886163114067e-03
5.07155172413793e-01 9.96180121792553e-01 7.87168804345404e-03
5.10982758620690e-01 9.90253324325146e-01 7.85432812738551e-03
5.14810344827586e-01 9.84361788483392e-01 7.83678660987050e-03
5.18637931034483e-01 9.78505304477343e-01 7.81906813369536e-03
5.22465517241379e-01 9.72683663765189e-01 7.80117724874877e-03
5.26293103448276e-01 9.66896659045852e-01 7.78311842100345e-03
5.30120689655172e-01 9.61144084241192e-01 7.76489602436960e-03
5.33948275862069e-01 9.55425734520127e-01 7.74651434936910e-03
5.37775862068965e-01 9.49741406259648e-01 7.72797761180637e-03
5.41603448275862e-01 9.44090897048186e-01 7.70928994424918e-03
5.45431034482759e-01 9.38474005678445e-01 7.69045540441117e-03
5.49258620689655e-01 9.32890532130465e-01 7.67147796722065e-03
5.53086206896552e-01 9.27340277593965e-01 7.65236153292031e-03
5.56913793103448e-01 9.21823044431590e-01 7.63310993517510e-03
5.60741379310345e-01 9.16338636181812e-01 7.61372693280015e-03
5.64568965517241e-01 9.10886857551980e-01 7.59421621761050e-03
5.68396551724138e-01 9.05467514402200e-01 7.57458140671721e-03
5.72224137931034e-01 9.00080413766037e-01 7.55482605011414e-03
5.76051724137931e-01 8.94725363815833e-01 7.53495363827954e-03
5.79879310344828e-01 8.89402173865206e-01 7.51496759416637e-03
5.83706896551724e-01 8.84110654362279e-01 7.49487128056903e-03
5.87534482758621e-01 8.78850616874341e-01 7.47466799265356e-03
5.91362068965517e-01 8.73621874107053e-01 7.45436096508750e-03
5.95189655172414e-01 8.68424239871676e-01 7.43395337918111e-03
5.99017241379310e-01 8.63257529087202e-01 7.41344835514379e-03
6.02844827586207e-01 8.58121557773776e-01 7.39284895901785e-03
6.06672413793103e-01 8.53016143038078e-01 7.37215819544403e-03
6.10500000000000e-01 8.47941103091155e-01 7.35137901437603e-03
6.14327586206897e-01 8.42896257217425e-01 7.33051431780945e-03
6.18155172413793e-01 8.37881425776481e-01 7.30956695497999e-03
6.21982758620690e-01 8.32896430189007e-01 7.28853971816659e-03
6.25810344827586e-01 8.27941092953640e-01 7.26743534911461e-03
6.29637931034483e-01 8.23015237617267e-01 7.24625654547050e-03
6.33465517241379e-01 8.18118688776576e-01 7.22500595349653e-03
6.37293103448276e-01 8.13251272071830e-01 7.20368617432021e-03
6.41120689655172e-01 8.08412814173414e-01 7.18229975712036e-03
6.44948275862069e-01 8.03603142797520e-01 7.16084920519233e-03
6.48775862068966e-01 7.98822086678009e-01 7.13933698203477e-03
6.52603448275862e-01 7.94069475567682e-01 7.11776550432011e-03
6.56431034482759e-01 7.89345140232242e-01 7.09613714780667e-03
6.60258620689655e-01 7.84648912437435e-01 7.07445424076541e-03
6.64086206896552e-01 7.79980624963656e-01 7.05271906971686e-03
6.67913793103448e-01 7.75340111579263e-01 7.03093388519581e-03
6.71741379310345e-01 7.70727207041604e-01 7.00910089497358e-03
6.75568965517241e-01 7.66141747091152e-01 6.98722226965938e-03
6.79396551724138e-01 7.61583568439218e-01 6.96530013636417e-03
6.83224137931034e-01 7.57052508781551e-01 6.94333658413498e-03
6.87051724137931e-01 7.52548406773011e-01 6.92133366941902e-03
6.90879310344828e-01 7.48071102028383e-01 6.89929340953604e-03
6.94706896551724e-01 7.43620435116674e-01 6.87721778799250e-03
6.98534482758621e-01 7.39196247549363e-01 6.85510874837254e-03
7.02362068965517e-01 7.34798381793077e-01 6.83296819949493e-03
7.06189655172414e-01 7.30426681245539e-01 6.81079802059937e-03
7.10017241379310e-01 7.26080990236180e-01 6.78860005506140e-03
7.13844827586207e-01 7.21761154020603e-01 6.76637611544024e-03
7.17672413793103e-01 7.17467018769336e-01 6.74412797758952e-03
7.21500000000000e-01 7.13198431579655e-01 6.72185738555987e-03
7.25327586206897e-01 7.08955240452727e-01 6.69956605652464e-03
7.29155172413793e-01 7.04737294294038e-01 6.67725567680588e-03
7.32982758620690e-01 7.00544442902532e-01 6.65492789835898e-03
7.36810344827586e-01 6.96376536981825e-01 6.63258434348951e-03
7.40637931034483e-01 6.92233428118216e-01 6.61022660959587e-03
7.44465517241379e-01 6.88114968780990e-01 6.58785626329096e-03
7.48293103448276e-01 6.84021012317172e-01 6.56547484501648e-03
7.52120689655172e-01 6.79951412941120e-01 6.54308386352998e-03
7.55948275862069e-01 6.75906025744987e-01 6.52068480039373e-03
7.59775862068966e-01 6.71884706677807e-01 6.49827911449092e-03
7.63603448275862e-01 6.67887312545639e-01 6.47586823636545e-03
7.67431034482759e-01 6.63913701006489e-01 6.45345357261840e-03
7.71258620689655e-01 6.59963730560316e-01 6.43103650060095e-03
7.75086206896552e-01 6.56037260558823e-01 6.40861837268840e-03
7.78913793103448e-01 6.52134151185529e-01 6.38620052058378e-03
7.82741379310345e-01 6.48254263455789e-01 6.36378424987037e-03
7.86568965517241e-01 6.44397459211858e-01 6.34137084420385e-03
7.90396551724138e-01 6.40563601113316e-01 6.31896156020196e-03
7.94224137931034e-01 6.36752552646207e-01 6.29655763151902e-03
7.98051724137931e-01 6.32964178104062e-01 6.27416027294994e-03
8.01879310344828e-01 6.29198342587795e-01 6.25177067518825e-03
8.05706896551724e-01 6.25454912000914e-01 6.22939000882445e-03
8.09534482758621e-01 6.21733753040332e-01 6.20701941942809e-03
8.13362068965517e-01 6.18034733204912e-01 6.18466003143359e-03
8.17189655172414e-01 6.14357720777381e-01 6.16231295205507e-03
8.21017241379310e-01 6.10702584824113e-01 6.13997926624571e-03
8.24844827586207e-01 6.07069195190484e-01 6.11766004051290e-03
8.28672413793103e-01 6.03457422492052e-01 6.09535631818325e-03
8.32500000000000e-01 5.99867138122551e-01 6.07306912311343e-03
8.36327586206897e-01 5.96298214236633e-01 6.05079946342789e-03
8.40155172413793e-01 5.92750523749569e-01 6.02854832829527e-03
8.43982758620690e-01 5.89223940328721e-01 6.00631668505657e-03
8.47810344827586e-01 5.85718338401130e-01 5.98410548280989e-03
8.51637931034483e-01 5.82233593136883e-01 5.96191565601730e-03
8.55465517241379e-01 5.78769580448742e-01 5.93974811979707e-03
8.59293103448276e-01 5.75326176987730e-01 5.91760377343974e-03
8.63120689655172e-01 5.71903260134941e-01 5.89548349598029e-03
8.66948275862069e-01 5.68500708008638e-01 5.87338814962277e-03
8.70775862068966e-01 5.65118399448378e-01 5.85131858319051e-03
8.74603448275862e-01 5.61756214014560e-01 5.82927562759363e-03
8.78431034482759e-01 5.58414031984146e-01 5.80726009919178e-03
8.82258620689655e-01 5.55091734342785e-01 5.78527279553192e-03
8.86086206896552e-01 5.51789202791463e-01 5.76331449862337e-03
8.89913793103448e-01 5.48506319731340e-01 5.74138597823786e-03
8.93741379310345e-01 5.45242968263227e-01 5.71948798754596e-03
8.97568965517241e-01 5.41999032183438e-01 5.69762126633566e-03
9.01396551724138e-01 5.38774395976211e-01 5.67578653691100e-03
9.05224137931034e-01 5.35568944819946e-01 5.65398450722222e-03
9.09051724137931e-01 5.32382564572708e-01 5.63221587402397e-03
9.12879310344827e-01 5.29215141771651e-01 5.61048131867823e-03
9.16706896551724e-01 5.26066563628981e-01 5.58878151023288e-03
9.20534482758621e-01 5.22936718024681e-01 5.56711710147359e-03
9.24362068965517e-01 5.19825493512348e-01 5.54548873192174e-03
9.28189655172414e-01 5.16732779305333e-01 5.52389703085482e-03
9.32017241379310e-01 5.13658465276118e-01 5.50234261326864e-03
9.35844827586207e-01 5.10602441952389e-01 5.48082608282606e-03
9.39672413793103e-01 5.07564600510050e-01 5.45934802805404e-03
9.43500000000000e-01 5.04544832778680e-01 5.43790902521553e-03
9.47327586206896e-01 5.01543031228288e-01 5.41650964120215e-03
9.51155172413793e-01 4.98559088968638e-01 5.39515043093389e-03
9.54982758620690e-01 4.95592899742460e-01 5.37383193503086e-03
9.58810344827586e-01 4.92644357930657e-01 5.35255468259080e-03
9.62637931034483e-01 4.89713358539503e-01 5.33131919398967e-03
9.66465517241379e-01 4.86799797199932e-01 5.31012597710711e-03
9.70293103448276e-01 4.83903570163826e-01 5.28897553005652e-03
9.74120689655172e-01 4.81024574297488e-01 5.26786833762988e-03
9.77948275862069e-01 4.78162707086512e-01 5.24680487395883e-03
9.81775862068965e-01 4.75317866623545e-01 5.22578560519958e-03
9.85603448275862e-01 4.72489951607525e-01 5.20481098589855e-03
9.89431034482759e-01 4.69678861340091e-01 5.18388146160888e-03
9.93258620689655e-01 4.66884495719292e-01 5.16299746546891e-03
9.97086206896552e-01 4.64106755244156e-01 5.14215942075237e-03
1.00091379310345e+00 4.61345541002971e-01 5.12136774809502e-03
1.00474137931034e+00 4.58600754661996e-01 5.10062284105679e-03
1.00856896551724e+00 4.55872298509214e-01 5.07992510227119e-03
1.01239655172414e+00 4.53160075361779e-01 5.05927491859484e-03
1.01622413793103e+00 4.50463988666629e-01 5.03867266703713e-03
1.02005172413793e+00 4.47783942394113e-01 5.01811872745081e-03
1.02387931034483e+00 4.45119841111501e-01 4.99761343666325e-03
1.02770689655172e+00 4.42471589978586e-01 4.97715715666747e-03
1.03153448275862e+00 4.39839094669789e-01 4.95675024091008e-03
1.03536206896552e+00 4.37222261445590e-01 4.93639300095971e-03
1.03918965517241e+00 4.34620997148254e-01 4.91608577319693e-03
1.04301724137931e+00 4.32035209126015e-01 4.89582887518835e-03
1.04684482758621e+00 4.29464805326094e-01 4.87562261576262e-03
1.05067241379310e+00 4.26909694196142e-01 4.85546730692556e-03
1.05450000000000e+00 4.24369784752185e-01 4.83536322074647e-03
1.05832758620690e+00 4.21844986574479e-01 4.81531065342952e-03
1.06215517241379e+00 4.19335209735277e-01 4.79530989362737e-03
1.06598275862069e+00 4.16840364864894e-01 4.77536119111300e-03
1.06981034482759e+00 4.14360363147645e-01 4.75546481944761e-03
1.07363793103448e+00 4.11895116251544e-01 4.73562103496339e-03
1.07746551724138e+00 4.09444536414381e-01 4.71583008623627e-03
1.08129310344828e+00 4.07008536352319e-01 4.69609222527883e-03
1.08512068965517e+00 4.04587029322754e-01 4.67640766700208e-03
1.08894827586207e+00 4.02179929120407e-01 4.65677664943902e-03
1.09277586206897e+00 3.99787150010282e-01 4.63719940395148e-03
1.09660344827586e+00 3.97408606788818e-01 4.61767612577254e-03
1.10043103448276e+00 3.95044214780039e-01 4.59820703292032e-03
1.10425862068966e+00 3.92693889770300e-01 4.57879232761932e-03
1.10808620689655e+00 3.90357548088005e-01 4.55943220520903e-03
1.11191379310345e+00 3.88035106518786e-01 4.54012686466360e-03
1.11574137931034e+00 3.85726482363691e-01 4.52087647045893e-03
1.11956896551724e+00 3.83431593435498e-01 4.50168120920376e-03
1.12339655172414e+00 3.81150357996452e-01 4.48254125256549e-03
1.12722413793103e+00 3.78882694834192e-01 4.46345676582224e-03
1.13105172413793e+00 3.76628523180841e-01 4.44442791795907e-03
1.13487931034483e+00 3.74387762768454e-01 4.42545484501920e-03
1.13870689655172e+00 3.72160333825420e-01 4.40653770455129e-03
1.14253448275862e+00 3.69946157017068e-01 4.38767664865585e-03
1.14636206896552e+00 3.67745153499607e-01 4.36887179733562e-03
1.15018965517241e+00 3.65557244916615e-01 4.35012329176741e-03
1.15401724137931e+00 3.63382353341184e-01 4.33143125940981e-03
1.15784482758621e+00 3.61220401346327e-01 4.31279582205335e-03
1.16167241379310e+00 3.59071311929792e-01 4.29421710531522e-03
1.16550000000000e+00 3.56935008565459e-01 4.27569520414554e-03
1.16932758620690e+00 3.54811415199943e-01 4.25723023405757e-03
1.17315517241379e+00 3.52700456197369e-01 4.23882230575999e-03
1.17698275862069e+00 3.50602056389386e-01 4.22047150007638e-03
1.18081034482759e+00 3.48516141071842e-01 4.20217791807367e-03
1.18463793103448e+00 3.46442635950981e-01 4.18394164821460e-03
1.18846551724138e+00 3.44381467208773e-01 4.16576277393669e-03
1.19229310344828e+00 3.42332561433002e-01 4.14764138258413e-03
1.19612068965517e+00 3.40295845664944e-01 4.12957753293250e-03
1.19994827586207e+00 3.38271247396155e-01 4.11157130340891e-03
1.20377586206897e+00 3.36258694517081e-01 4.09362276820980e-03
1.20760344827586e+00 3.34258115363476e-01 4.07573197368708e-03
