Energy (eV)          EEDF (eV^-(3/2))     First Anisotropy
1.19583333333333e-01 4.64867443354678e-02 4.98140319681785e-05
3.58750000000000e-01 4.51665476333985e-02 8.13626230644983e-05
5.97916666666667e-01 4.38838437590669e-02 1.05063969705014e-04
8.37083333333333e-01 4.26375679335267e-02 1.21703826393328e-04
1.07625000000000e+00 4.14266856213564e-02 1.34493407920614e-04
1.31541666666667e+00 4.02501916710456e-02 1.44689168397506e-04
1.55458333333333e+00 3.91071094668434e-02 1.52962284143217e-04
1.79375000000000e+00 3.79964901348214e-02 1.59730289250380e-04
2.03291666666667e+00 3.69174117547187e-02 1.65277926460748e-04
2.27208333333333e+00 3.58689785758928e-02 1.69811748771245e-04
2.51125000000000e+00 3.48503202925022e-02 1.73488386623132e-04
2.75041666666667e+00 3.38605913188808e-02 1.76430642200208e-04
2.98958333333333e+00 3.28989700755161e-02 1.78737320620442e-04
3.22875000000000e+00 3.19646583192066e-02 1.80489573740774e-04
3.46791666666667e+00 3.10568804792210e-02 1.81755178364276e-04
3.70708333333333e+00 3.01748830049239e-02 1.82591525033229e-04
3.94625000000000e+00 2.93179337488881e-02 1.83047770480096e-04
4.18541666666667e+00 2.84853213583594e-02 1.83166429057292e-04
4.42458333333333e+00 2.76763546783536e-02 1.82984573811679e-04
4.66375000000000e+00 2.68903621843968e-02 1.82534761159173e-04
4.90291666666667e+00 2.61266914245540e-02 1.81845755815299e-04
5.14208333333333e+00 2.53847084728660e-02 1.80943106131975e-04
5.38125000000000e+00 2.46637974081424e-02 1.79849607435959e-04
5.62041666666667e+00 2.39633598022932e-02 1.78585680459365e-04
5.85958333333333e+00 2.32828142196345e-02 1.77169682412732e-04
6.09875000000000e+00 2.26215957382231e-02 1.75618165748866e-04
6.33791666666667e+00 2.19791554806185e-02 1.73946096021546e-04
6.57708333333333e+00 2.13549601550751e-02 1.72167035604244e-04
6.81625000000000e+00 2.07484916160807e-02 1.70293300270867e-04
7.05541666666667e+00 2.01592464340130e-02 1.68336094154378e-04
7.29458333333333e+00 1.95867354746323e-02 1.66305625749027e-04
7.53375000000000e+00 1.90304834956954e-02 1.64211208645777e-04
7.77291666666667e+00 1.84900287522750e-02 1.62061349996680e-04
8.01208333333333e+00 1.79649226112993e-02 1.59863827659705e-04
8.25125000000000e+00 1.74547291813366e-02 1.57625758184701e-04
8.49041666666667e+00 1.69590249506145e-02 1.55353657436571e-04
8.72958333333333e+00 1.64773984336502e-02 1.53053494045781e-04
8.96875000000000e+00 1.60094498315142e-02 1.50730737070040e-04
9.20791666666667e+00 1.55547906998368e-02 1.48390399038283e-04
9.44708333333333e+00 1.51130436248318e-02 1.46037074220266e-04
9.68625000000000e+00 1.46838419115556e-02 1.43674973076655e-04
9.92541666666667e+00 1.42668292794149e-02 1.41307953708282e-04
1.01645833333333e+01 1.38616595651195e-02 1.38939550090788e-04
1.04037500000000e+01 1.34679964355010e-02 1.36572997117760e-04
1.06429166666667e+01 1.30855131139213e-02 1.34211254971865e-04
1.08820833333333e+01 1.27138920966694e-02 1.31857029914688e-04
1.11212500000000e+01 1.23528249006516e-02 1.29512792614545e-04
1.13604166666667e+01 1.20020118066306e-02 1.27180797738566e-04
1.15995833333333e+01 1.16611616009245e-02 1.24863099310689e-04
1.18387500000000e+01 1.13299913433237e-02 1.22561564783631e-04
1.20779166666667e+01 1.10082261316394e-02 1.20277890396310e-04
1.23170833333333e+01 1.06955988653210e-02 1.18013612998857e-04
1.25562500000000e+01 1.03918500320526e-02 1.15770120933998e-04
1.27954166666667e+01 1.00967274918374e-02 1.13548666236412e-04
1.30345833333333e+01 9.80998626061728e-03 1.11350373842180e-04
1.32737500000000e+01 9.53138831410466e-03 1.09176250093313e-04
1.35129166666667e+01 9.26070238977559e-03 1.07027192536111e-04
1.37520833333333e+01 8.99770378875821e-03 1.04903997160129e-04
1.39912500000000e+01 8.74217419555086e-03 1.02807365102445e-04
1.42304166666667e+01 8.49390149643593e-03 1.00737910590212e-04
1.44695833333333e+01 8.25267959806153e-03 9.86961666727931e-05
1.47087500000000e+01 8.01830826179385e-03 9.66825905430137e-05
1.49479166666667e+01 7.79059293718703e-03 9.46975700247848e-05
1.51870833333333e+01 7.56934459582600e-03 9.27414281381769e-05
1.54262500000000e+01 7.35437957915194e-03 9.08144273452212e-05
1.56654166666667e+01 7.14551944573766e-03 8.89167748828789e-05
1.59045833333333e+01 6.94259081908767e-03 8.70486264142685e-05
1.61437500000000e+01 6.74542524786200e-03 8.52100894294836e-05
1.63829166666667e+01 6.55385906581092e-03 8.34012276524982e-05
1.66220833333333e+01 6.36773325234386e-03 8.16220639701365e-05
1.68612500000000e+01 6.18689330415813e-03 7.98725831630717e-05
1.71004166666667e+01 6.01118910678238e-03 7.81527355632411e-05
1.73395833333333e+01 5.84047480683035e-03 7.64624394074349e-05
1.75787500000000e+01 5.67460869411720e-03 7.48015830333356e-05
1.78179166666667e+01 5.51345308384871e-03 7.31700279255661e-05
1.80570833333333e+01 5.35687419957013e-03 7.15676106078266e-05
1.82962500000000e+01 5.20474206492419e-03 6.99941444089650e-05
1.85354166666667e+01 5.05693039560296e-03 6.84494220069476e-05
1.87745833333333e+01 4.91331649208803e-03 6.69332169488337e-05
1.90137500000000e+01 4.77378114027031e-03 6.54452850694356e-05
1.92529166666667e+01 4.63820851235488e-03 6.39853666205449e-05
1.94920833333333e+01 4.50648606856672e-03 6.25531874893678e-05
1.97312500000000e+01 4.37850446591380e-03 6.11484603352595e-05
1.99704166666667e+01 4.25415746730259e-03 5.97708863746267e-05
2.02095833333333e+01 4.13334185145434e-03 5.84201563541292e-05
2.04487500000000e+01 4.01595732915002e-03 5.70959514578335e-05
2.06879166666667e+01 3.90190645987575e-03 5.57979448050251e-05
2.09270833333333e+01 3.79109456925923e-03 5.45258022233871e-05
2.11662500000000e+01 3.68342967218774e-03 5.32791829686995e-05
2.14054166666667e+01 3.57882239635925e-03 5.20577409823945e-05
2.16445833333333e+01 3.47718590660754e-03 5.08611255012421e-05
2.18837500000000e+01 3.37843583433304e-03 4.96889816237002e-05
2.21229166666667e+01 3.28249020738736e-03 4.85409513657818e-05
2.23620833333333e+01 3.18926938070911e-03 4.74166741369186e-05
2.26012500000000e+01 3.09869597155258e-03 4.63157871807173e-05
2.28404166666667e+01 3.01069479518063e-03 4.52379264610714e-05
2.30795833333333e+01 2.92519280128252e-03 4.41827270284184e-05
2.33187500000000e+01 2.84211901452661e-03 4.31498233575894e-05
2.35579166666667e+01 2.76140447558042e-03 4.21388500907342e-05
2.37970833333333e+01 2.68298218282619e-03 4.11494423138142e-05
2.40362500000000e+01 2.60678703780234e-03 4.01812358101652e-05
2.42754166666667e+01 2.53275579110919e-03 3.92338676824311e-05
2.45145833333333e+01 2.46082698897904e-03 3.83069765556104e-05
2.47537500000000e+01 2.39094092320623e-03 3.74002027616565e-05
2.49929166666667e+01 2.32303958153366e-03 3.65131888590382e-05
2.52320833333333e+01 2.25706659867159e-03 3.56455797757950e-05
2.54712500000000e+01 2.19296721034857e-03 3.47970229378227e-05
2.57104166666667e+01 2.13068820780744e-03 3.39671687017306e-05
2.59495833333333e+01 2.07017789290128e-03 3.31556704490228e-05
2.61887500000000e+01 2.01138603592722e-03 3.23621846685338e-05
2.64279166666667e+01 1.95426383389160e-03 3.15863713158031e-05
2.66670833333333e+01 1.89876386934250e-03 3.08278938675897e-05
2.69062500000000e+01 1.84484007167618e-03 3.00864193671285e-05
2.71454166666667e+01 1.79244767885908e-03 2.93616187212072e-05
2.73845833333333e+01 1.74154319968510e-03 2.86531667226481e-05
2.76237500000000e+01 1.69208437826964e-03 2.79607420655765e-05
2.78629166666667e+01 1.64403015894201e-03 2.72840275896830e-05
2.81020833333333e+01 1.59734065164184e-03 2.66227102770078e-05
2.83412500000000e+01 1.55197709933888e-03 2.59764812431901e-05
2.85804166666667e+01 1.50790184583318e-03 2.53450359369726e-05
2.88195833333333e+01 1.46507830402889e-03 2.47280741165433e-05
2.90587500000000e+01 1.42347092603942e-03 2.41252998217244e-05
2.92979166666667e+01 1.38304517365449e-03 2.35364215355707e-05
2.95370833333333e+01 1.34376748925158e-03 2.29611521446333e-05
2.97762500000000e+01 1.30560526836553e-03 2.23992088962003e-05
3.00154166666667e+01 1.26852683260172e-03 2.18503135278274e-05
3.02545833333333e+01 1.23250140296524e-03 2.13141922151404e-05
3.04937500000000e+01 1.19749907469246e-03 2.07905755175411e-05
3.07329166666667e+01 1.16349079240748e-03 2.02791984806464e-05
3.09720833333333e+01 1.13044832566785e-03 1.97798005746250e-05
3.12112500000000e+01 1.09834424587188e-03 1.92921256311953e-05
3.14504166666667e+01 1.06715190347262e-03 1.88159219232196e-05
3.16895833333333e+01 1.03684540555555e-03 1.83509420960529e-05
3.19287500000000e+01 1.00739959465077e-03 1.78969430981654e-05
3.21679166666667e+01 9.78790027834126e-04 1.74536862415195e-05
3.24070833333333e+01 9.50992956167690e-04 1.70209371279727e-05
3.26462500000000e+01 9.23985305260032e-04 1.65984655754494e-05
3.28854166666667e+01 8.97744656098185e-04 1.61860456621955e-05
3.31245833333333e+01 8.72249226195878e-04 1.57834556499149e-05
3.33637500000000e+01 8.47477851757957e-04 1.53904779070711e-05
3.36029166666667e+01 8.23409970099786e-04 1.50068989396632e-05
3.38420833333333e+01 8.00025602361211e-04 1.46325093124688e-05
3.40812500000000e+01 7.77305337142948e-04 1.42671035707674e-05
3.43204166666667e+01 7.55230314381947e-04 1.39104802598950e-05
3.45595833333333e+01 7.33782209500868e-04 1.35624418457124e-05
3.47987500000000e+01 7.12943218395132e-04 1.32227946357978e-05
3.50379166666667e+01 6.92696042643673e-04 1.28913487897088e-05
3.52770833333333e+01 6.73023874974546e-04 1.25679182395767e-05
3.55162500000000e+01 6.53910385491322e-04 1.22523206116194e-05
3.57554166666667e+01 6.35339708108630e-04 1.19443772287489e-05
3.59945833333333e+01 6.17296427224467e-04 1.16439130320195e-05
3.62337500000000e+01 5.99765565083784e-04 1.13507565031343e-05
3.64729166666667e+01 5.82732569337355e-04 1.10647396608011e-05
3.67120833333333e+01 5.66183300820510e-04 1.07856979836050e-05
3.69512500000000e+01 5.50104021960121e-04 1.05134703340453e-05
3.71904166666667e+01 5.34481385363781e-04 1.02478989498299e-05
3.74295833333333e+01 5.19302422612997e-04 9.98882936862061e-06
3.76687500000000e+01 5.04554533627529e-04 9.73611035401495e-06
3.79079166666667e+01 4.90225476199549e-04 9.48959388279184e-06
3.81470833333333e+01 4.76303355716992e-04 9.24913507187183e-06
3.83862500000000e+01 4.62776615406291e-04 9.01459210656145e-06
3.86254166666667e+01 4.49634026733241e-04 8.78582622460668e-06
3.88645833333333e+01 4.36864679979240e-04 8.56270164562445e-06
3.91037500000000e+01 4.24457975289941e-04 8.34508550184322e-06
3.93429166666667e+01 4.12403613871053e-04 8.13284781969005e-06
3.95820833333333e+01 4.00691589346613e-04 7.92586145187617e-06
3.98212500000000e+01 3.89312179547063e-04 7.72400201079929e-06
4.00604166666667e+01 3.78255938434148e-04 7.52714784827678e-06
4.02995833333333e+01 3.67513688176271e-04 7.33517999040802e-06
4.05387500000000e+01 3.57076511614967e-04 7.14798207374728e-06
4.07779166666667e+01 3.46935744858522e-04 6.96544032369787e-06
4.10170833333333e+01 3.37082970014850e-04 6.78744349222486e-06
4.12562500000000e+01 3.27510008280386e-04 6.61388279686072e-06
4.14954166666667e+01 3.18208913147027e-04 6.44465189819165e-06
4.17345833333333e+01 3.09171963737949e-04 6.27964684045378e-06
4.19737500000000e+01 3.00391658467524e-04 6.11876599339567e-06
4.22129166666667e+01 2.91860708810806e-04 5.96191002921644e-06
4.24520833333333e+01 2.83572033192213e-04 5.80898186604539e-06
4.26912500000000e+01 2.75518751169332e-04 5.65988661265488e-06
4.29304166666667e+01 2.67694177718363e-04 5.51453154514804e-06
4.31695833333333e+01 2.60091817629764e-04 5.37282605329555e-06
4.34087500000000e+01 2.52705360172694e-04 5.23468158806691e-06
4.36479166666667e+01 2.45528673853676e-04 5.10001163831371e-06
4.38870833333333e+01 2.38555801277136e-04 4.96873167991561e-06
4.41262500000000e+01 2.31780954250778e-04 4.84075912607860e-06
4.43654166666667e+01 2.25198508978293e-04 4.71601330421429e-06
4.46045833333333e+01 2.18803001346185e-04 4.59441540783077e-06
4.48437500000000e+01 2.12589122433685e-04 4.47588844953110e-06
4.50829166666667e+01 2.06551714103543e-04 4.36035723825054e-06
4.53220833333333e+01 2.00685764679777e-04 4.24774833381503e-06
4.55612500000000e+01 1.94986404828697e-04 4.13799000256077e-06
4.58004166666667e+01 1.89448903514829e-04 4.03101219505919e-06
4.60395833333333e+01 1.84068664037132e-04 3.92674650325610e-06
4.62787500000000e+01 1.78841220250488e-04 3.82512611862443e-06
4.65179166666667e+01 1.73762232856512e-04 3.72608581047835e-06
4.67570833333333e+01 1.68827485768497e-04 3.62956188559928e-06
4.69962500000000e+01 1.64032882645243e-04 3.53549214882721e-06
4.72354166666667e+01 1.59374443489020e-04 3.44381588204257e-06
4.74745833333333e+01 1.54848301311963e-04 3.35447380617973e-06
4.77137500000000e+01 1.50450698956437e-04 3.26740804415848e-06
4.79529166666667e+01 1.46177985974718e-04 3.18256210059171e-06
4.81920833333333e+01 1.42026615571828e-04 3.09988082608457e-06
4.84312500000000e+01 1.37993141688758e-04 3.01931038240428e-06
4.86704166666667e+01 1.34074216140540e-04 2.94079822295561e-06
4.89095833333333e+01 1.30266585812587e-04 2.86429305926227e-06
4.91487500000000e+01 1.26567089985054e-04 2.78974482827207e-06
4.93879166666667e+01 1.22972657707908e-04 2.71710467362786e-06
4.96270833333333e+01 1.19480305229734e-04 2.64632491422693e-06
4.98662500000000e+01 1.16087133543318e-04 2.57735901355941e-06
5.01054166666667e+01 1.12790325978075e-04 2.51016156179003e-06
5.03445833333333e+01 1.09587145842055e-04 2.44468824629251e-06
5.05837500000000e+01 1.06474934170450e-04 2.38089582291919e-06
5.08229166666667e+01 1.03451107517394e-04 2.31874209889979e-06
5.10620833333333e+01 1.00513155793472e-04 2.25818590524902e-06
5.13012500000000e+01 9.76586402003908e-05 2.19918706986734e-06
5.15404166666667e+01 9.48851912056351e-05 2.14170640125468e-06
5.17795833333333e+01 9.21905065592633e-05 2.08570566269160e-06
5.20187500000000e+01 8.95723493993600e-05 2.03114754707308e-06
5.22579166666667e+01 8.70285463944034e-05 1.97799566142894e-06
5.24970833333333e+01 8.45569859244791e-05 1.92621450278159e-06
5.27362500000000e+01 8.21556163433954e-05 1.87576943461736e-06
5.29754166666667e+01 7.98224442748770e-05 1.82662667219983e-06
5.32145833333333e+01 7.75555329445596e-05 1.77875326001025e-06
5.34537500000000e+01 7.53530005858191e-05 1.73211704976411e-06
5.36929166666667e+01 7.32130188770522e-05 1.68668668649942e-06
5.39320833333333e+01 7.11338114119488e-05 1.64243158750897e-06
5.41712500000000e+01 6.91136522371537e-05 1.59932192181332e-06
5.44104166666667e+01 6.71508644189523e-05 1.55732859700257e-06
5.46495833333333e+01 6.52438186403524e-05 1.51642323957333e-06
5.48887500000000e+01 6.33909318596817e-05 1.47657817577251e-06
5.51279166666667e+01 6.15906659959612e-05 1.43776641916887e-06
5.53670833333333e+01 5.98415266422822e-05 1.39996165231101e-06
5.56062500000000e+01 5.81420618353404e-05 1.36313820886011e-06
5.58454166666667e+01 5.64908608496698e-05 1.32727106186547e-06
5.60845833333333e+01 5.48865530176707e-05 1.29233580666361e-06
5.63237500000000e+01 5.33278066009096e-05 1.25830864422169e-06
5.65629166666667e+01 5.18133276841986e-05 1.22516637009002e-06
5.68020833333333e+01 5.03418590934313e-05 1.19288635846608e-06
5.70412500000000e+01 4.89121793602344e-05 1.16144654667397e-06
5.72804166666667e+01 4.75231017076251e-05 1.13082542476617e-06
5.75195833333333e+01 4.61734730575444e-05 1.10100202067975e-06
5.77587500000000e+01 4.48621730811432e-05 1.07195588578102e-06
5.79979166666667e+01 4.35881132684330e-05 1.04366708508811e-06
5.82370833333333e+01 4.23502360180809e-05 1.01611618345068e-06
5.84762500000000e+01 4.11475137662483e-05 9.89284232092364e-07
5.87154166666667e+01 3.99789481332805e-05 9.63152759425661e-07
5.89545833333333e+01 3.88435690889428e-05 9.37703758189803e-07
5.91937500000000e+01 3.77404341533169e-05 9.12919672927349e-07
5.94329166666667e+01 3.66686276141494e-05 8.88783391362928e-07
5.96720833333333e+01 3.56272597612751e-05 8.65278232437625e-07
5.99112500000000e+01 3.46154661536119e-05 8.42387934659275e-07
6.01504166666667e+01 3.36324069013177e-05 8.20096648017099e-07
6.03895833333333e+01 3.26772659636649e-05 7.98388922854180e-07
6.06287500000000e+01 3.17492504766678e-05 7.77249699034489e-07
6.08679166666667e+01 3.08475900946817e-05 7.56664298365944e-07
6.11070833333333e+01 2.99715363464675e-05 7.36618414255941e-07
6.13462500000000e+01 2.91203620184387e-05 7.17098101641363e-07
6.15854166666667e+01 2.82933605507795e-05 6.98089769893129e-07
6.18245833333333e+01 2.74898454468765e-05 6.79580173202908e-07
6.20637500000000e+01 2.67091497075847e-05 6.61556401225503e-07
6.23029166666667e+01 2.59506252773509e-05 6.44005872438801e-07
6.25420833333333e+01 2.52136425025881e-05 6.26916325212829e-07
6.27812500000000e+01 2.44975896127413e-05 6.10275809116883e-07
6.30204166666667e+01 2.38018722122754e-05 5.94072678709565e-07
6.32595833333333e+01 2.31259127839350e-05 5.78295585244295e-07
6.34987500000000e+01 2.24691502127404e-05 5.62933468596447e-07
6.37379166666667e+01 2.18310393200407e-05 5.47975551459035e-07
6.39770833333333e+01 2.12110504079399e-05 5.33411331641627e-07
6.42162500000000e+01 2.06086688226710e-05 5.19230574575390e-07
6.44554166666667e+01 2.00233945272325e-05 5.05423307891025e-07
6.46945833333333e+01 1.94547416835675e-05 4.91979814270614e-07
6.49337500000000e+01 1.89022382520594e-05 4.78890624491126e-07
6.51729166666667e+01 1.83654255995568e-05 4.66146512362155e-07
6.54120833333333e+01 1.78438581161762e-05 4.53738488092747e-07
6.56512500000000e+01 1.73371028479321e-05 4.41657791836414e-07
6.58904166666667e+01 1.68447391372194e-05 4.29895888967173e-07
6.61295833333333e+01 1.63663582713703e-05 4.18444463925843e-07
6.63687500000000e+01 1.59015631456781e-05 4.07295414231917e-07
6.66079166666667e+01 1.54499679336491e-05 3.96440846077430e-07
6.68470833333333e+01 1.50111977646823e-05 3.85873068619457e-07
6.70862500000000e+01 1.45848884149723e-05 3.75584588426442e-07
6.73254166666667e+01 1.41706860050663e-05 3.65568105370364e-07
6.75645833333333e+01 1.37682467042521e-05 3.55816507334349e-07
6.78037500000000e+01 1.33772364470350e-05 3.46322865063119e-07
6.80429166666667e+01 1.29973306557377e-05 3.37080428334936e-07
6.82820833333333e+01 1.26282139693842e-05 3.28082621055232e-07
6.85212500000000e+01 1.22695799836341e-05 3.19323036482847e-07
6.87604166666667e+01 1.19211309963528e-05 3.10795433664194e-07
6.89995833333333e+01 1.15825777589604e-05 3.02493732885704e-07
6.92387500000000e+01 1.12536392378832e-05 2.94412011249399e-07
6.94779166666667e+01 1.09340423811922e-05 2.86544499352592e-07
6.97170833333333e+01 1.06235218905550e-05 2.78885577073835e-07
6.99562500000000e+01 1.03218200024247e-05 2.71429769473089e-07
7.01954166666667e+01 1.00286862740023e-05 2.64171743701210e-07
7.04345833333333e+01 9.74387737408380e-06 2.57106305095714e-07
7.06737500000000e+01 9.46715688235403e-06 2.50228393382521e-07
7.09129166666667e+01 9.19829509307216e-06 2.43533079800336e-07
7.11520833333333e+01 8.93706882324907e-06 2.37015563484152e-07
7.13912500000000e+01 8.68326122854777e-06 2.30671167947038e-07
7.16304166666667e+01 8.43666162322471e-06 2.24495338405417e-07
7.18695833333333e+01 8.19706530420092e-06 2.18483638429721e-07
7.21087500000000e+01 7.96427338219548e-06 2.12631746686185e-07
7.23479166666667e+01 7.73809261657642e-06 2.06935454449789e-07
7.25870833333333e+01 7.51833525400862e-06 2.01390662502881e-07
7.28262500000000e+01 7.30481887355998e-06 1.95993378118313e-07
7.30654166666667e+01 7.09736623522748e-06 1.90739712747592e-07
7.33045833333333e+01 6.89580513195376e-06 1.85625879149641e-07
7.35437500000000e+01 6.69996824755008e-06 1.80648188597838e-07
7.37829166666667e+01 6.50969301776511e-06 1.75803048731709e-07
7.40220833333333e+01 6.32482149456240e-06 1.71086960899165e-07
7.42612500000000e+01 6.14520021579981e-06 1.66496517571290e-07
7.45004166666667e+01 5.97068007780235e-06 1.62028400346561e-07
7.47395833333333e+01 5.80111621088465e-06 1.57679377491099e-07
7.49787500000000e+01 5.63636785981404e-06 1.53446301546121e-07
7.52179166666667e+01 5.47629826693500e-06 1.49326107474378e-07
7.54570833333333e+01 5.32077455800468e-06 1.45315810384016e-07
