Energy (eV)          EEDF (eV^-(3/2))     First Anisotropy
4.00000000000000e-03 6.14357204239244e-01 1.20234067890083e-07
1.20000000000000e-02 6.14357045619486e-01 3.92691727634693e-07
2.00000000000000e-02 6.14356604243031e-01 9.64357152389940e-07
2.80000000000000e-02 6.14355901117770e-01 1.62696962524051e-06
3.60000000000000e-02 6.14354967762618e-01 2.34204950018264e-06
4.40000000000000e-02 6.14353817724191e-01 3.14842428116949e-06
5.20000000000000e-02 6.14352427144898e-01 4.06242977090958e-06
6.00000000000000e-02 6.14350793410574e-01 5.07041639520774e-06
6.80000000000000e-02 6.14348902993277e-01 6.18543965848331e-06
7.60000000000000e-02 6.14346743516032e-01 7.37625635732633e-06
8.40000000000000e-02 6.14344322197850e-01 8.64818589637909e-06
9.20000000000000e-02 6.14341621578377e-01 1.00421206988172e-05
1.00000000000000e-01 6.14338624025251e-01 1.15273496598660e-05
1.08000000000000e-01 6.14335331413704e-01 1.30561202585090e-05
1.16000000000000e-01 6.14331751991893e-01 1.46402799854638e-05
1.24000000000000e-01 6.14327878691319e-01 1.63070709932359e-05
1.32000000000000e-01 6.14323704175243e-01 1.80574489400598e-05
1.40000000000000e-01 6.14319220881109e-01 1.98923606502034e-05
1.48000000000000e-01 6.14314421049824e-01 2.18127535695537e-05
1.56000000000000e-01 6.14309296746167e-01 2.38195817758910e-05
1.64000000000000e-01 6.14303839873131e-01 2.59138097030011e-05
1.72000000000000e-01 6.14298042182022e-01 2.80964136240531e-05
1.80000000000000e-01 6.14291895279898e-01 3.03682674014033e-05
1.88000000000000e-01 6.14285390682997e-01 3.27290253266694e-05
1.96000000000000e-01 6.14278520274699e-01 3.51750846380732e-05
2.04000000000000e-01 6.14271277127605e-01 3.75428279672190e-05
2.12000000000000e-01 6.14263721743854e-01 3.98127245186028e-05
2.20000000000000e-01 6.14255852317169e-01 4.21273402276105e-05
2.28000000000000e-01 6.14247667948397e-01 4.44834942282097e-05
2.36000000000000e-01 6.14239167714386e-01 4.68804362765172e-05
2.44000000000000e-01 6.14230350662264e-01 4.93174940547937e-05
2.52000000000000e-01 6.14221215804798e-01 5.17940658532156e-05
2.60000000000000e-01 6.14211762116616e-01 5.43096141286440e-05
2.68000000000000e-01 6.14201988531142e-01 5.68636597775823e-05
2.76000000000000e-01 6.14191893938125e-01 5.94557597566927e-05
2.84000000000000e-01 6.14181477187662e-01 6.20853027180939e-05
2.92000000000000e-01 6.14170737156860e-01 6.47509762289656e-05
3.00000000000000e-01 6.14159672929107e-01 6.75217917269015e-05
3.08000000000000e-01 6.14148262017078e-01 7.07014148502880e-05
3.16000000000000e-01 6.14136406269192e-01 7.46634722520473e-05
3.24000000000000e-01 6.14123963969521e-01 7.94942960448270e-05
3.32000000000000e-01 6.14110814866333e-01 8.50917883231631e-05
3.40000000000000e-01 6.14096857577543e-01 9.13632022236326e-05
3.48000000000000e-01 6.14082007329279e-01 9.82241936560792e-05
3.56000000000000e-01 6.14066193980591e-01 1.05597980800240e-04
3.64000000000000e-01 6.14049360294784e-01 1.13414596993496e-04
3.72000000000000e-01 6.14031460423926e-01 1.21610224731434e-04
3.80000000000000e-01 6.14012458578195e-01 1.30126581043877e-04
3.88000000000000e-01 6.13992327861856e-01 1.38910199428619e-04
3.96000000000000e-01 6.13971049298959e-01 1.47911645133313e-04
4.04000000000000e-01 6.13948611019080e-01 1.57103912665170e-04
4.12000000000000e-01 6.13925011238449e-01 1.66988096349240e-04
4.20000000000000e-01 6.13900093985535e-01 1.78003211396666e-04
4.28000000000000e-01 6.13873725836300e-01 1.90019192699467e-04
4.36000000000000e-01 6.13845794449844e-01 2.02914299907154e-04
4.44000000000000e-01 6.13816206121207e-01 2.16578394246265e-04
4.52000000000000e-01 6.13784883597874e-01 2.30911946641362e-04
4.60000000000000e-01 6.13751764129847e-01 2.45825137909508e-04
4.68000000000000e-01 6.13716797726884e-01 2.61237041638248e-04
4.76000000000000e-01 6.13679945599728e-01 2.77074876207730e-04
4.84000000000000e-01 6.13641178766435e-01 2.93273267844399e-04
4.92000000000000e-01 6.13600476819889e-01 3.09773481286353e-04
5.00000000000000e-01 6.13557826851252e-01 3.26370795415175e-04
5.08000000000000e-01 6.13513266646251e-01 3.42913471044065e-04
5.16000000000000e-01 6.13466826674309e-01 3.59599202806122e-04
5.24000000000000e-01 6.13418487868824e-01 3.76565287801993e-04
5.32000000000000e-01 6.13368240427481e-01 3.93744530957338e-04
5.40000000000000e-01 6.13316082736686e-01 4.11075946337509e-04
5.48000000000000e-01 6.13262020396336e-01 4.28504307494369e-04
5.56000000000000e-01 6.13206065335362e-01 4.45979731618076e-04
5.64000000000000e-01 6.13148235009531e-01 4.63457294520536e-04
5.72000000000000e-01 6.13088551673815e-01 4.80896673706512e-04
5.80000000000000e-01 6.13027041722516e-01 4.98261807754093e-04
5.88000000000000e-01 6.12963735093442e-01 5.15520509781745e-04
5.96000000000000e-01 6.12898664745942e-01 5.32644089316976e-04
6.04000000000000e-01 6.12831866193699e-01 5.50434023051594e-04
6.12000000000000e-01 6.12763173526102e-01 5.71159894007843e-04
6.20000000000000e-01 6.12692068578134e-01 5.96756438332459e-04
6.28000000000000e-01 6.12617925583660e-01 6.27405962733166e-04
6.36000000000000e-01 6.12540200649073e-01 6.62537686267637e-04
6.44000000000000e-01 6.12458423838573e-01 7.01628691866069e-04
6.52000000000000e-01 6.12372191995324e-01 7.44200030501248e-04
6.60000000000000e-01 6.12281162229700e-01 7.89813139364912e-04
6.68000000000000e-01 6.12185046012697e-01 8.38066547146741e-04
6.76000000000000e-01 6.12083603818524e-01 8.88592839479089e-04
6.84000000000000e-01 6.11976640266576e-01 9.41055835668905e-04
6.92000000000000e-01 6.11863999723727e-01 9.95147945836902e-04
7.00000000000000e-01 6.11745562328461e-01 1.05040857256214e-03
7.08000000000000e-01 6.11621285154229e-01 1.10751907131020e-03
7.16000000000000e-01 6.11490897030728e-01 1.17009175366958e-03
7.24000000000000e-01 6.11353529312958e-01 1.24181113901729e-03
7.32000000000000e-01 6.11208083608000e-01 1.32318703475220e-03
7.40000000000000e-01 6.11053602338294e-01 1.41314381433515e-03
7.48000000000000e-01 6.10889257170881e-01 1.51068116781971e-03
7.56000000000000e-01 6.10714338336483e-01 1.61486912483406e-03
7.64000000000000e-01 6.10528244772115e-01 1.72484338130374e-03
7.72000000000000e-01 6.10330475026298e-01 1.83980090913897e-03
7.80000000000000e-01 6.10120618870761e-01 1.95899582119465e-03
7.88000000000000e-01 6.09898349569126e-01 2.08173542382427e-03
7.96000000000000e-01 6.09663416766875e-01 2.20737653518983e-03
8.04000000000000e-01 6.09415639936329e-01 2.33510120393648e-03
8.12000000000000e-01 6.09154950440724e-01 2.46282246140915e-03
8.20000000000000e-01 6.08881621532666e-01 2.58779487456565e-03
8.28000000000000e-01 6.08596172964650e-01 2.70887632973926e-03
8.36000000000000e-01 6.08299111970550e-01 2.82611736202788e-03
8.44000000000000e-01 6.07990933203273e-01 2.93957195439903e-03
8.52000000000000e-01 6.07672118655120e-01 3.04929763591787e-03
8.60000000000000e-01 6.07343137566479e-01 3.15535553641045e-03
8.68000000000000e-01 6.07004446327429e-01 3.25781040478152e-03
8.76000000000000e-01 6.06656488376049e-01 3.35673059418340e-03
8.84000000000000e-01 6.06299694097166e-01 3.45218799277241e-03
8.92000000000000e-01 6.05934480730265e-01 3.54425791555491e-03
9.00000000000000e-01 6.05561252286122e-01 3.63303145462446e-03
9.08000000000000e-01 6.05180396884746e-01 3.71986045682626e-03
9.16000000000000e-01 6.04792029263349e-01 3.80715615443800e-03
9.24000000000000e-01 6.04396034401908e-01 3.89586543147634e-03
9.32000000000000e-01 6.03992331934954e-01 3.98573795338065e-03
9.40000000000000e-01 6.03580859447127e-01 4.07660675481439e-03
9.48000000000000e-01 6.03161571419233e-01 4.16831265509509e-03
9.56000000000000e-01 6.02734438199291e-01 4.26070421941048e-03
9.64000000000000e-01 6.02299445000147e-01 4.35363769587297e-03
9.72000000000000e-01 6.01856590925076e-01 4.44697692954116e-03
9.80000000000000e-01 6.01405888022762e-01 4.54059322932038e-03
9.88000000000000e-01 6.00947360378671e-01 4.63436507624891e-03
9.96000000000000e-01 6.00481043269351e-01 4.72817797910458e-03
1.00400000000000e+00 6.00006982313211e-01 4.82891749129973e-03
1.01200000000000e+00 5.99523784657307e-01 4.95162445009029e-03
1.02000000000000e+00 5.99028531870586e-01 5.10807244434255e-03
1.02800000000000e+00 5.98517612073985e-01 5.30055901695545e-03
1.03600000000000e+00 5.97987716110210e-01 5.52637833043853e-03
1.04400000000000e+00 5.97435824931073e-01 5.78291220649948e-03
1.05200000000000e+00 5.96859197069508e-01 6.06763186763945e-03
1.06000000000000e+00 5.96255356191213e-01 6.37809964658278e-03
1.06800000000000e+00 5.95622078724863e-01 6.71197062985672e-03
1.07600000000000e+00 5.94957381572774e-01 7.06699420898559e-03
1.08400000000000e+00 5.94259509906395e-01 7.44101551693060e-03
1.09200000000000e+00 5.93526925052973e-01 7.83197672736425e-03
1.10000000000000e+00 5.92758292482101e-01 8.24144337192360e-03
1.10800000000000e+00 5.91951690677862e-01 8.67250670410664e-03
1.11600000000000e+00 5.91105092382829e-01 9.12236263613139e-03
1.12400000000000e+00 5.90217218873389e-01 9.58674520740943e-03
1.13200000000000e+00 5.89286977818061e-01 1.00639955311247e-02
1.14000000000000e+00 5.88313418068891e-01 1.05527144036904e-02
1.14800000000000e+00 5.87295722382026e-01 1.10515638618941e-02
1.15600000000000e+00 5.86233200274329e-01 1.15592668926471e-02
1.16400000000000e+00 5.85125281026965e-01 1.20746069870102e-02
1.17200000000000e+00 5.83971506845275e-01 1.25964275546042e-02
1.18000000000000e+00 5.82771526182744e-01 1.31236312136517e-02
1.18800000000000e+00 5.81525087235465e-01 1.36551789700808e-02
1.19600000000000e+00 5.80232031612380e-01 1.41900892795747e-02
1.20400000000000e+00 5.78892288188853e-01 1.47426939466619e-02
1.21200000000000e+00 5.77502476868615e-01 1.53137559047866e-02
1.22000000000000e+00 5.76062335489280e-01 1.58879127773389e-02
1.22800000000000e+00 5.74571874479104e-01 1.64635843875167e-02
1.23600000000000e+00 5.73031118611340e-01 1.70405633955151e-02
1.24400000000000e+00 5.71440110901641e-01 1.76186004852598e-02
1.25200000000000e+00 5.69798916245553e-01 1.81974068126699e-02
1.26000000000000e+00 5.68107624806089e-01 1.87766563861166e-02
1.26800000000000e+00 5.66366355161153e-01 1.93559883776015e-02
1.27600000000000e+00 5.64575257220598e-01 1.99350093616397e-02
1.28400000000000e+00 5.62734514922770e-01 2.05132954786259e-02
1.29200000000000e+00 5.60844348720477e-01 2.10903945205600e-02
1.30000000000000e+00 5.58905017866177e-01 2.16652729515890e-02
1.30800000000000e+00 5.56917061785710e-01 2.22401995169137e-02
1.31600000000000e+00 5.54880474701433e-01 2.28221227579306e-02
1.32400000000000e+00 5.52794411211634e-01 2.34146487167538e-02
1.33200000000000e+00 5.50658077515290e-01 2.40171400718281e-02
1.34000000000000e+00 5.48470747145702e-01 2.46288500616855e-02
1.34800000000000e+00 5.46231763993308e-01 2.52489969949456e-02
1.35600000000000e+00 5.43940544534555e-01 2.58767728631987e-02
1.36400000000000e+00 5.41596579291424e-01 2.65113517546483e-02
1.37200000000000e+00 5.39199433548772e-01 2.71518980365885e-02
1.38000000000000e+00 5.36748747358695e-01 2.77975742797488e-02
1.38800000000000e+00 5.34244234862752e-01 2.84475489025418e-02
1.39600000000000e+00 5.31685682964052e-01 2.91010035177634e-02
1.40400000000000e+00 5.29072949382021e-01 2.97577166657760e-02
1.41200000000000e+00 5.26405857832344e-01 3.04180517261126e-02
1.42000000000000e+00 5.23684198999154e-01 3.10818093829431e-02
1.42800000000000e+00 5.20907829486317e-01 3.17482387119398e-02
1.43600000000000e+00 5.18076670138118e-01 3.24165971251558e-02
1.44400000000000e+00 5.15190705492730e-01 3.30861457708985e-02
1.45200000000000e+00 5.12249982947319e-01 3.37561527873324e-02
1.46000000000000e+00 5.09254611666758e-01 3.44258962275161e-02
1.46800000000000e+00 5.06204761265784e-01 3.50946666758315e-02
1.47600000000000e+00 5.03100660292325e-01 3.57617695750130e-02
1.48400000000000e+00 4.99942594537754e-01 3.64265272816065e-02
1.49200000000000e+00 4.96730905198077e-01 3.70882808573509e-02
1.50000000000000e+00 4.93465986909934e-01 3.77513642606549e-02
1.50800000000000e+00 4.90146935319669e-01 3.84190180731317e-02
1.51600000000000e+00 4.86773059925233e-01 3.90834540335166e-02
1.52400000000000e+00 4.83345259174808e-01 3.97387082542652e-02
1.53200000000000e+00 4.79864356645507e-01 4.03855516431778e-02
1.54000000000000e+00 4.76331107975418e-01 4.10246596801855e-02
1.54800000000000e+00 4.72746211237906e-01 4.16565952508151e-02
1.55600000000000e+00 4.69110316743342e-01 4.22818145336130e-02
1.56400000000000e+00 4.65424036278189e-01 4.29006728300691e-02
1.57200000000000e+00 4.61687951792251e-01 4.35134303243046e-02
1.58000000000000e+00 4.57902623545719e-01 4.41202577596512e-02
1.58800000000000e+00 4.54068597728464e-01 4.47212420141651e-02
1.59600000000000e+00 4.50186413565807e-01 4.53163914727307e-02
1.60400000000000e+00 4.46256609940344e-01 4.59579161600739e-02
1.61200000000000e+00 4.42268374997163e-01 4.66688633968050e-02
1.62000000000000e+00 4.38218189735071e-01 4.74264204457044e-02
1.62800000000000e+00 4.34101496267098e-01 4.82349628450101e-02
1.63600000000000e+00 4.29914024199702e-01 4.90911349332373e-02
1.64400000000000e+00 4.25651795031980e-01 4.99915344492159e-02
1.65200000000000e+00 4.21311124647007e-01 5.09327351052374e-02
1.66000000000000e+00 4.16888623909995e-01 5.19113089518664e-02
1.66800000000000e+00 4.12381197398017e-01 5.29238484206965e-02
1.67600000000000e+00 4.07786040294462e-01 5.39669879465379e-02
1.68400000000000e+00 4.03100633488839e-01 5.50374250801425e-02
1.69200000000000e+00 3.98322736929346e-01 5.61319409689848e-02
1.70000000000000e+00 3.93450381288896e-01 5.72726590645674e-02
1.70800000000000e+00 3.88476052955420e-01 5.84577347008260e-02
1.71600000000000e+00 3.83396508741285e-01 5.96126677235735e-02
1.72400000000000e+00 3.78218386732644e-01 6.06896201816006e-02
1.73200000000000e+00 3.72948148050827e-01 6.16907485796096e-02
1.74000000000000e+00 3.67592074845948e-01 6.26182398989404e-02
1.74800000000000e+00 3.62156267284707e-01 6.34743136323428e-02
1.75600000000000e+00 3.56646641115707e-01 6.42612148153130e-02
1.76400000000000e+00 3.51068925781754e-01 6.49812074376917e-02
1.77200000000000e+00 3.45428663048630e-01 6.56365682324922e-02
1.78000000000000e+00 3.39731206120326e-01 6.62295808360887e-02
1.78800000000000e+00 3.33981719211225e-01 6.67625302663088e-02
1.79600000000000e+00 3.28185177554414e-01 6.72376969329386e-02
1.80400000000000e+00 3.22346367952496e-01 6.80007147111955e-02
1.81200000000000e+00 3.16386062674486e-01 6.90270439066688e-02
1.82000000000000e+00 3.10312100705785e-01 6.99539105093148e-02
1.82800000000000e+00 3.04132242122214e-01 7.07830577217599e-02
1.83600000000000e+00 2.97854262714502e-01 7.15158152148627e-02
1.84400000000000e+00 2.91485927802891e-01 7.21537841312086e-02
1.85200000000000e+00 2.85034966833031e-01 7.26988217032285e-02
1.86000000000000e+00 2.78509048759587e-01 7.31530262184071e-02
1.86800000000000e+00 2.71915758220121e-01 7.35187223523361e-02
1.87600000000000e+00 2.65262572500608e-01 7.37984468766047e-02
1.88400000000000e+00 2.58556839292365e-01 7.39949347576943e-02
1.89200000000000e+00 2.51805755237238e-01 7.41111057675388e-02
1.90000000000000e+00 2.45016345237085e-01 7.41124503913932e-02
1.90800000000000e+00 2.38204241629691e-01 7.39429076517060e-02
1.91600000000000e+00 2.31388979420432e-01 7.35988265214322e-02
1.92400000000000e+00 2.24585353206636e-01 7.30993171184662e-02
1.93200000000000e+00 2.17807843837094e-01 7.24498713396635e-02
1.94000000000000e+00 2.11070573766930e-01 7.16563560945755e-02
1.94800000000000e+00 2.04387266364278e-01 7.07249593330338e-02
1.95600000000000e+00 1.97771209895451e-01 6.96621326045291e-02
1.96400000000000e+00 1.91235226354666e-01 6.84745333804850e-02
1.97200000000000e+00 1.84791645272708e-01 6.71689674793205e-02
1.98000000000000e+00 1.78452282609385e-01 6.57523318553889e-02
1.98800000000000e+00 1.72228424822043e-01 6.42315578744045e-02
1.99600000000000e+00 1.66130818210765e-01 6.26135561042614e-02
2.00400000000000e+00 1.60169663341676e-01 6.09079596631033e-02
2.01200000000000e+00 1.54357192121020e-01 5.91711069588386e-02
2.02000000000000e+00 1.48692610584460e-01 5.74514217376822e-02
2.02800000000000e+00 1.43175590616438e-01 5.57474427839415e-02
2.03600000000000e+00 1.37805597405675e-01 5.40610976530645e-02
2.04400000000000e+00 1.32581901580243e-01 5.23941642550206e-02
2.05200000000000e+00 1.27503591120721e-01 5.07482756017529e-02
2.06000000000000e+00 1.22569583036987e-01 4.91249246144322e-02
2.06800000000000e+00 1.17778634795585e-01 4.75254689735118e-02
2.07600000000000e+00 1.13129355486080e-01 4.59511359949399e-02
2.08400000000000e+00 1.08620216716258e-01 4.44030275264783e-02
2.09200000000000e+00 1.04249563225479e-01 4.28821250189803e-02
2.10000000000000e+00 1.00015623174672e-01 4.13584291840308e-02
2.10800000000000e+00 9.59280263239045e-02 3.98116068735781e-02
2.11600000000000e+00 9.19936222414707e-02 3.82902184769206e-02
2.12400000000000e+00 8.82061913695031e-02 3.68316787767704e-02
2.13200000000000e+00 8.45597310918524e-02 3.54337508421445e-02
2.14000000000000e+00 8.10484477900800e-02 3.40942799800411e-02
2.14800000000000e+00 7.76667491580030e-02 3.28111911334625e-02
2.15600000000000e+00 7.44092367485295e-02 3.15824864464350e-02
2.16400000000000e+00 7.12706987458120e-02 3.04062428955431e-02
2.17200000000000e+00 6.82461029567283e-02 2.92806099824857e-02
2.18000000000000e+00 6.53305900158538e-02 2.82038074862737e-02
2.18800000000000e+00 6.25194667982413e-02 2.71741232794474e-02
2.19600000000000e+00 5.98082000333019e-02 2.61899113050587e-02
2.20400000000000e+00 5.71924100944362e-02 2.52286468101840e-02
2.21200000000000e+00 5.46743890190224e-02 2.42758836959717e-02
2.22000000000000e+00 5.22524357339091e-02 2.33406880857460e-02
2.22800000000000e+00 4.99246541001612e-02 2.24242338690280e-02
2.23600000000000e+00 4.76891073120060e-02 2.15268955759072e-02
2.24400000000000e+00 4.55438259938868e-02 2.06489686666548e-02
2.25200000000000e+00 4.34868160266594e-02 1.97906722131080e-02
2.26000000000000e+00 4.15160661001777e-02 1.89521515993368e-02
2.26800000000000e+00 3.96295549922377e-02 1.81334812172827e-02
2.27600000000000e+00 3.78252585759888e-02 1.73346671364411e-02
2.28400000000000e+00 3.61011565599565e-02 1.65556497276814e-02
2.29200000000000e+00 3.44552389667596e-02 1.57963062214953e-02
2.30000000000000e+00 3.28855123586045e-02 1.50578147145299e-02
2.30800000000000e+00 3.13900177495102e-02 1.43457484374903e-02
2.31600000000000e+00 2.99658629554088e-02 1.36669815771555e-02
2.32400000000000e+00 2.86093517466904e-02 1.30231277187680e-02
2.33200000000000e+00 2.73169828916104e-02 1.24123627275028e-02
2.34000000000000e+00 2.60854394135414e-02 1.18329619878929e-02
2.34800000000000e+00 2.49115784502173e-02 1.12832948991288e-02
2.35600000000000e+00 2.37924216789813e-02 1.07618196889013e-02
2.36400000000000e+00 2.27251462756699e-02 1.02670785198044e-02
2.37200000000000e+00 2.17070763766899e-02 9.79769287137503e-03
2.38000000000000e+00 2.07356750156044e-02 9.35235918212439e-03
2.38800000000000e+00 1.98085365071899e-02 8.92984473767773e-03
2.39600000000000e+00 1.89233792533110e-02 8.52898380594186e-03
2.40400000000000e+00 1.80780389435901e-02 8.14560306585735e-03
2.41200000000000e+00 1.72713978431328e-02 7.77630868390258e-03
2.42000000000000e+00 1.65019411270266e-02 7.42131835544134e-03
2.42800000000000e+00 1.57681858672020e-02 7.08020701359998e-03
2.43600000000000e+00 1.50687096938371e-02 6.75241577137708e-03
2.44400000000000e+00 1.44021489085843e-02 6.43740232747761e-03
2.45200000000000e+00 1.37671966591013e-02 6.13464044149053e-03
2.46000000000000e+00 1.31626011744167e-02 5.84361940998372e-03
2.46800000000000e+00 1.25871640607236e-02 5.56384354334236e-03
2.47600000000000e+00 1.20397386571805e-02 5.29483164350980e-03
2.48400000000000e+00 1.15192284512968e-02 5.03611648272945e-03
2.49200000000000e+00 1.10245855534794e-02 4.78724428291212e-03
2.50000000000000e+00 1.05548092304050e-02 4.54812431449271e-03
2.50800000000000e+00 1.01089322277853e-02 4.31979655029233e-03
2.51600000000000e+00 9.68579513694881e-03 4.10364073762342e-03
2.52400000000000e+00 9.28408892715207e-03 3.89975032887265e-03
