Energy (eV)          EEDF (eV^-(3/2))     First Anisotropy
2.15000000000000e-02 1.01470387920636e-01 6.01372349514076e-05
6.45000000000000e-02 1.00595831030055e-01 9.92092486263304e-05
1.07500000000000e-01 9.97288118042712e-02 1.30717557111012e-04
1.50500000000000e-01 9.88692652772484e-02 1.54503117720152e-04
1.93500000000000e-01 9.80171270429786e-02 1.74215547906636e-04
2.36500000000000e-01 9.71723332505747e-02 1.91238280978072e-04
2.79500000000000e-01 9.63348205994746e-02 2.06288998853266e-04
3.22500000000000e-01 9.55045263346951e-02 2.19802123662950e-04
3.65500000000000e-01 9.46813882421289e-02 2.32066450526932e-04
4.08500000000000e-01 9.38653446438825e-02 2.43286570326671e-04
4.51500000000000e-01 9.30563343936543e-02 2.53614282654552e-04
4.94500000000000e-01 9.22542968721532e-02 2.63166262405728e-04
5.37500000000000e-01 9.14591719825558e-02 2.72034720960754e-04
5.80500000000000e-01 9.06709001460036e-02 2.80294200739043e-04
6.23500000000000e-01 8.98894222971389e-02 2.88006098608269e-04
6.66500000000000e-01 8.91146798796784e-02 2.95221786907380e-04
7.09500000000000e-01 8.83466148420265e-02 3.01984832156187e-04
7.52500000000000e-01 8.75851696329245e-02 3.08332612826083e-04
7.95500000000000e-01 8.68302871971390e-02 3.14297524952943e-04
8.38500000000000e-01 8.60819109711864e-02 3.19907897812502e-04
8.81500000000000e-01 8.53399848790945e-02 3.25188701077182e-04
9.24500000000000e-01 8.46044533282011e-02 3.30162099062963e-04
9.67500000000000e-01 8.38752612049878e-02 3.34847890891990e-04
1.01050000000000e+00 8.31523538709512e-02 3.39263864214681e-04
1.05350000000000e+00 8.24356771585080e-02 3.43426082521014e-04
1.09650000000000e+00 8.17251773669365e-02 3.47349120785026e-04
1.13950000000000e+00 8.10208012583533e-02 3.51046260451979e-04
1.18250000000000e+00 8.03224960537232e-02 3.54529652096328e-04
1.22550000000000e+00 7.96302094289053e-02 3.57810452125977e-04
1.26850000000000e+00 7.89438895107319e-02 3.60898938467069e-04
1.31150000000000e+00 7.82634848731218e-02 3.63804609086575e-04
1.35450000000000e+00 7.75889445332269e-02 3.66536266396379e-04
1.39750000000000e+00 7.69202179476121e-02 3.69102089961103e-04
1.44050000000000e+00 7.62572550084678e-02 3.71509699453145e-04
1.48350000000000e+00 7.56000060398556e-02 3.73766209425904e-04
1.52650000000000e+00 7.49484217939862e-02 3.75878277183849e-04
1.56950000000000e+00 7.43024534475288e-02 3.77852144796940e-04
1.61250000000000e+00 7.36620525979531e-02 3.79693676123157e-04
1.65550000000000e+00 7.30271712599024e-02 3.81408389555226e-04
1.69850000000000e+00 7.23977618615981e-02 3.83001487088399e-04
1.74150000000000e+00 7.17737772412749e-02 3.84477880209594e-04
1.78450000000000e+00 7.11551706436473e-02 3.85842213029154e-04
1.82750000000000e+00 7.05418957164059e-02 3.87098883011470e-04
1.87050000000000e+00 6.99339065067446e-02 3.88252059607275e-04
1.91350000000000e+00 6.93311574579170e-02 3.89305701045915e-04
1.95650000000000e+00 6.87336034058228e-02 3.90263569508730e-04
1.99950000000000e+00 6.81411995756241e-02 3.91129244873912e-04
2.04250000000000e+00 6.75539015783899e-02 3.91906137196824e-04
2.08550000000000e+00 6.69716654077702e-02 3.92597498067947e-04
2.12850000000000e+00 6.63944474366986e-02 3.93206430971905e-04
2.17150000000000e+00 6.58222044141236e-02 3.93735900755034e-04
2.21450000000000e+00 6.52548934617672e-02 3.94188742295589e-04
2.25750000000000e+00 6.46924720709126e-02 3.94567668458915e-04
2.30050000000000e+00 6.41348980992186e-02 3.94875277409973e-04
2.34350000000000e+00 6.35821297675621e-02 3.95114059347072e-04
2.38650000000000e+00 6.30341256569077e-02 3.95286402713189e-04
2.42950000000000e+00 6.24908447052036e-02 3.95394599934721e-04
2.47250000000000e+00 6.19522462043055e-02 3.95440852731972e-04
2.51550000000000e+00 6.14182897969259e-02 3.95427277040976e-04
2.55850000000000e+00 6.08889354736102e-02 3.95355907581575e-04
2.60150000000000e+00 6.03641435697389e-02 3.95228702103323e-04
2.64450000000000e+00 5.98438747625556e-02 3.95047545337284e-04
2.68750000000000e+00 5.93280900682200e-02 3.94814252678886e-04
2.73050000000000e+00 5.88167508388877e-02 3.94530573624676e-04
2.77350000000000e+00 5.83098187598134e-02 3.94198194983228e-04
2.81650000000000e+00 5.78072558464807e-02 3.93818743878684e-04
2.85950000000000e+00 5.73090244417554e-02 3.93393790563539e-04
2.90250000000000e+00 5.68150872130642e-02 3.92924851055791e-04
2.94550000000000e+00 5.63254071495973e-02 3.92413389614101e-04
2.98850000000000e+00 5.58399475595349e-02 3.91860821063283e-04
3.03150000000000e+00 5.53586720672981e-02 3.91268512981449e-04
3.07450000000000e+00 5.48815446108234e-02 3.90637787759089e-04
3.11750000000000e+00 5.44085294388602e-02 3.89969924539457e-04
3.16050000000000e+00 5.39395911082923e-02 3.89266161048739e-04
3.20350000000000e+00 5.34746944814819e-02 3.88527695323918e-04
3.24650000000000e+00 5.30138047236370e-02 3.87755687345375e-04
3.28950000000000e+00 5.25568873002008e-02 3.86951260580924e-04
3.33250000000000e+00 5.21039079742645e-02 3.86115503447238e-04
3.37550000000000e+00 5.16548328040015e-02 3.85249470694166e-04
3.41850000000000e+00 5.12096281401244e-02 3.84354184717128e-04
3.46150000000000e+00 5.07682606233637e-02 3.83430636802177e-04
3.50450000000000e+00 5.03306971819678e-02 3.82479788308155e-04
3.54750000000000e+00 4.98969050292253e-02 3.81502571789882e-04
3.59050000000000e+00 4.94668516610084e-02 3.80499892066055e-04
3.63350000000000e+00 4.90405048533367e-02 3.79472627235347e-04
3.67650000000000e+00 4.86178326599635e-02 3.78421629643818e-04
3.71950000000000e+00 4.81988034099814e-02 3.77347726806547e-04
3.76250000000000e+00 4.77833857054494e-02 3.76251722286255e-04
3.80550000000000e+00 4.73715484190406e-02 3.75134396531434e-04
3.84850000000000e+00 4.69632606917090e-02 3.73996507676364e-04
3.89150000000000e+00 4.65584919303782e-02 3.72838792305084e-04
3.93450000000000e+00 4.61572118056484e-02 3.71661966181537e-04
3.97750000000000e+00 4.57593902495240e-02 3.70466724947624e-04
4.02050000000000e+00 4.53649974531606e-02 3.69253744791001e-04
4.06350000000000e+00 4.49740038646313e-02 3.68023683084337e-04
4.10650000000000e+00 4.45863801867127e-02 3.66777178997418e-04
4.14950000000000e+00 4.42020973746894e-02 3.65514854083711e-04
4.19250000000000e+00 4.38211266341775e-02 3.64237312842654e-04
4.23550000000000e+00 4.34434394189675e-02 3.62945143258935e-04
4.27850000000000e+00 4.30690074288850e-02 3.61638917319933e-04
4.32150000000000e+00 4.26978026076701e-02 3.60319191512526e-04
4.36450000000000e+00 4.23297971408755e-02 3.58986507300175e-04
4.40750000000000e+00 4.19649634537820e-02 3.57641391581398e-04
4.45050000000000e+00 4.16032742093323e-02 3.56284357130448e-04
4.49350000000000e+00 4.12447023060832e-02 3.54915903021075e-04
4.53650000000000e+00 4.08892208761740e-02 3.53536515034337e-04
4.57950000000000e+00 4.05368032833141e-02 3.52146666050979e-04
4.62250000000000e+00 4.01874231207866e-02 3.50746816429293e-04
4.66550000000000e+00 3.98410542094699e-02 3.49337414369084e-04
4.70850000000000e+00 3.94976705958759e-02 3.47918896262354e-04
4.75150000000000e+00 3.91572465502057e-02 3.46491687031390e-04
4.79450000000000e+00 3.88197565644210e-02 3.45056200454720e-04
4.83750000000000e+00 3.84851753503335e-02 3.43612839481594e-04
4.88050000000000e+00 3.81534778377097e-02 3.42161996535423e-04
4.92350000000000e+00 3.78246391723920e-02 3.40704053806691e-04
4.96650000000000e+00 3.74986347144373e-02 3.39239383535795e-04
5.00950000000000e+00 3.71754400362698e-02 3.37768348286234e-04
5.05250000000000e+00 3.68550309208512e-02 3.36291301208584e-04
5.09550000000000e+00 3.65373833598660e-02 3.34808586295662e-04
5.13850000000000e+00 3.62224735519223e-02 3.33320538629227e-04
5.18150000000000e+00 3.59102779007687e-02 3.31827484618520e-04
5.22450000000000e+00 3.56007730135261e-02 3.30329742231062e-04
5.26750000000000e+00 3.52939356989347e-02 3.28827621216006e-04
5.31050000000000e+00 3.49897429656166e-02 3.27321423320283e-04
5.35350000000000e+00 3.46881720203527e-02 3.25811442497948e-04
5.39650000000000e+00 3.43892002663752e-02 3.24297965112877e-04
5.43950000000000e+00 3.40928053016740e-02 3.22781270135101e-04
5.48250000000000e+00 3.37989649173184e-02 3.21261629331140e-04
5.52550000000000e+00 3.35076570957927e-02 3.19739307448400e-04
5.56850000000000e+00 3.32188600093470e-02 3.18214562393959e-04
5.61150000000000e+00 3.29325520183610e-02 3.16687645407954e-04
5.65450000000000e+00 3.26487116697226e-02 3.15158801231716e-04
5.69750000000000e+00 3.23673176952210e-02 3.13628268270930e-04
5.74050000000000e+00 3.20883490099525e-02 3.12096278753966e-04
5.78350000000000e+00 3.18117847107406e-02 3.10563058885507e-04
5.82650000000000e+00 3.15376040745704e-02 3.09028828995704e-04
5.86950000000000e+00 3.12657865570347e-02 3.07493803685052e-04
5.91250000000000e+00 3.09963117907957e-02 3.05958191965075e-04
5.95550000000000e+00 3.07291595840583e-02 3.04422197394945e-04
5.99850000000000e+00 3.04643099190569e-02 3.02886018214275e-04
6.04150000000000e+00 3.02017429505563e-02 3.01349847472154e-04
6.08450000000000e+00 2.99414390043637e-02 2.99813873152577e-04
6.12750000000000e+00 2.96833785758553e-02 2.98278278296363e-04
6.17050000000000e+00 2.94275423285145e-02 2.96743241119721e-04
6.21350000000000e+00 2.91739110924828e-02 2.95208935129564e-04
6.25650000000000e+00 2.89224658631238e-02 2.93675529235648e-04
6.29950000000000e+00 2.86731877995989e-02 2.92143187859723e-04
6.34250000000000e+00 2.84260582234557e-02 2.90612071041713e-04
6.38550000000000e+00 2.81810586172284e-02 2.89082334543015e-04
6.42850000000000e+00 2.79381706230501e-02 2.87554129947120e-04
6.47150000000000e+00 2.76973760412776e-02 2.86027604757523e-04
6.51450000000000e+00 2.74586568291272e-02 2.84502902493070e-04
6.55750000000000e+00 2.72219950993234e-02 2.82980162780813e-04
6.60050000000000e+00 2.69873731187579e-02 2.81459521446464e-04
6.64350000000000e+00 2.67547733071615e-02 2.79941110602494e-04
6.68650000000000e+00 2.65241782357862e-02 2.78425058733945e-04
6.72950000000000e+00 2.62955706260998e-02 2.76911490782100e-04
6.77250000000000e+00 2.60689333484908e-02 2.75400528225996e-04
6.81550000000000e+00 2.58442494209853e-02 2.73892289161847e-04
6.85850000000000e+00 2.56215020079740e-02 2.72386888380526e-04
6.90150000000000e+00 2.54006744189513e-02 2.70884437443066e-04
6.94450000000000e+00 2.51817501072640e-02 2.69385044754305e-04
6.98750000000000e+00 2.49647126688723e-02 2.67888815634691e-04
7.03050000000000e+00 2.47495458411197e-02 2.66395852390293e-04
7.07350000000000e+00 2.45362335015152e-02 2.64906254381152e-04
7.11650000000000e+00 2.43247596665248e-02 2.63420118087921e-04
7.15950000000000e+00 2.41151084903742e-02 2.61937537176876e-04
7.20250000000000e+00 2.39072642638611e-02 2.60458602563413e-04
7.24550000000000e+00 2.37012114131783e-02 2.58983402473953e-04
7.28850000000000e+00 2.34969344987468e-02 2.57512022506387e-04
7.33150000000000e+00 2.32944182140587e-02 2.56044545689079e-04
7.37450000000000e+00 2.30936473845305e-02 2.54581052538467e-04
7.41750000000000e+00 2.28946069663661e-02 2.53121621115314e-04
7.46050000000000e+00 2.26972820454293e-02 2.51666327079608e-04
7.50350000000000e+00 2.25016578361265e-02 2.50215243744192e-04
7.54650000000000e+00 2.23077196802986e-02 2.48768442127150e-04
7.58950000000000e+00 2.21154530461231e-02 2.47325991002934e-04
7.63250000000000e+00 2.19248435270246e-02 2.45887956952352e-04
7.67550000000000e+00 2.17358768405959e-02 2.44454404411388e-04
7.71850000000000e+00 2.15485388275274e-02 2.43025395718882e-04
7.76150000000000e+00 2.13628154505464e-02 2.41600991163166e-04
7.80450000000000e+00 2.11786927933652e-02 2.40181249027576e-04
7.84750000000000e+00 2.09961570596382e-02 2.38766225634937e-04
7.89050000000000e+00 2.08151945719285e-02 2.37355975391109e-04
7.93350000000000e+00 2.06357917706826e-02 2.35950550827481e-04
7.97650000000000e+00 2.04579352132147e-02 2.34550002642527e-04
8.01950000000000e+00 2.02816115726993e-02 2.33154379742427e-04
8.06250000000000e+00 2.01068076371728e-02 2.31763729280805e-04
8.10550000000000e+00 1.99335103085432e-02 2.30378096697573e-04
8.14850000000000e+00 1.97617066016088e-02 2.28997525756867e-04
8.19150000000000e+00 1.95913836430855e-02 2.27622058584212e-04
8.23450000000000e+00 1.94225286706419e-02 2.26251735702850e-04
8.27750000000000e+00 1.92551290319428e-02 2.24886596069247e-04
8.32050000000000e+00 1.90891721837017e-02 2.23526677107845e-04
8.36350000000000e+00 1.89246456907407e-02 2.22172014745020e-04
8.40650000000000e+00 1.87615372250584e-02 2.20822643442335e-04
8.44950000000000e+00 1.85998345649068e-02 2.19478596229080e-04
8.49250000000000e+00 1.84395255938749e-02 2.18139904734085e-04
8.53550000000000e+00 1.82805982999813e-02 2.16806599216830e-04
8.57850000000000e+00 1.81230407747737e-02 2.15478708597923e-04
8.62150000000000e+00 1.79668412124370e-02 2.14156260488900e-04
8.66450000000000e+00 1.78119879089085e-02 2.12839281221402e-04
8.70750000000000e+00 1.76584692610009e-02 2.11527795875708e-04
8.75050000000000e+00 1.75062737655329e-02 2.10221828308678e-04
8.79350000000000e+00 1.73553900184672e-02 2.08921401181105e-04
8.83650000000000e+00 1.72058067140561e-02 2.07626535984456e-04
8.87950000000000e+00 1.70575126439945e-02 2.06337253067083e-04
8.92250000000000e+00 1.69104966965794e-02 2.05053571659882e-04
8.96550000000000e+00 1.67647478558784e-02 2.03775509901378e-04
9.00850000000000e+00 1.66202552009030e-02 2.02503084862305e-04
9.05150000000000e+00 1.64770079047915e-02 2.01236312569674e-04
9.09450000000000e+00 1.63349952339969e-02 1.99975208030327e-04
9.13750000000000e+00 1.61942065474828e-02 1.98719785254009e-04
9.18050000000000e+00 1.60546312959263e-02 1.97470057275951e-04
9.22350000000000e+00 1.59162590209276e-02 1.96226036178989e-04
9.26650000000000e+00 1.57790793542258e-02 1.94987733115203e-04
9.30950000000000e+00 1.56430820169227e-02 1.93755158327148e-04
9.35250000000000e+00 1.55082568187119e-02 1.92528321168640e-04
9.39550000000000e+00 1.53745936571160e-02 1.91307230125071e-04
9.43850000000000e+00 1.52420825167290e-02 1.90091892833320e-04
9.48150000000000e+00 1.51107134684661e-02 1.88882316101295e-04
9.52450000000000e+00 1.49804766688196e-02 1.87678505927043e-04
9.56750000000000e+00 1.48513623591216e-02 1.86480467517461e-04
9.61050000000000e+00 1.47233608648123e-02 1.85288205306632e-04
9.65350000000000e+00 1.45964625947158e-02 1.84101722973783e-04
9.69650000000000e+00 1.44706580403205e-02 1.82921023460894e-04
9.73950000000000e+00 1.43459377750674e-02 1.81746108989934e-04
9.78250000000000e+00 1.42222924536436e-02 1.80576981079738e-04
9.82550000000000e+00 1.40997128112816e-02 1.79413640562551e-04
9.86850000000000e+00 1.39781896630658e-02 1.78256087600245e-04
9.91150000000000e+00 1.38577139032436e-02 1.77104321700193e-04
9.95450000000000e+00 1.37382765045435e-02 1.75958341730821e-04
9.99750000000000e+00 1.36198685174989e-02 1.74818145936851e-04
1.00405000000000e+01 1.35024810697767e-02 1.73683731954237e-04
1.00835000000000e+01 1.33861053655133e-02 1.72555096824800e-04
1.01265000000000e+01 1.32707326846552e-02 1.71432237010556e-04
1.01695000000000e+01 1.31563543823057e-02 1.70315148407787e-04
1.02125000000000e+01 1.30429618880769e-02 1.69203826360786e-04
1.02555000000000e+01 1.29305467054478e-02 1.68098265675351e-04
1.02985000000000e+01 1.28191004111274e-02 1.66998460631999e-04
1.03415000000000e+01 1.27086146544240e-02 1.65904404998923e-04
1.03845000000000e+01 1.25990811566189e-02 1.64816092044685e-04
1.04275000000000e+01 1.24904917103463e-02 1.63733514550650e-04
1.04705000000000e+01 1.23828381789786e-02 1.62656664823179e-04
1.05135000000000e+01 1.22761124960163e-02 1.61585534705564e-04
1.05565000000000e+01 1.21703066644837e-02 1.60520115589747e-04
1.05995000000000e+01 1.20654127563300e-02 1.59460398427789e-04
1.06425000000000e+01 1.19614229118348e-02 1.58406373743103e-04
1.06855000000000e+01 1.18583293390193e-02 1.57358031641456e-04
1.07285000000000e+01 1.17561243130626e-02 1.56315361821800e-04
1.07715000000000e+01 1.16548001757230e-02 1.55278353586838e-04
1.08145000000000e+01 1.15543493347635e-02 1.54246995853380e-04
1.08575000000000e+01 1.14547642633837e-02 1.53221277162530e-04
1.09005000000000e+01 1.13560374996554e-02 1.52201185689633e-04
1.09435000000000e+01 1.12581616459634e-02 1.51186709254025e-04
1.09865000000000e+01 1.11611293684517e-02 1.50177835328602e-04
1.10295000000000e+01 1.10649333964732e-02 1.49174551049213e-04
1.10725000000000e+01 1.09695665220456e-02 1.48176843223838e-04
1.11155000000000e+01 1.08750215993111e-02 1.47184698341587e-04
1.11585000000000e+01 1.07812915440006e-02 1.46198102581531e-04
1.12015000000000e+01 1.06883693329034e-02 1.45217041821345e-04
1.12445000000000e+01 1.05962480033406e-02 1.44241501645784e-04
1.12875000000000e+01 1.05049206526437e-02 1.43271467354998e-04
1.13305000000000e+01 1.04143804376370e-02 1.42306923972663e-04
1.13735000000000e+01 1.03246205741250e-02 1.41347856253964e-04
1.14165000000000e+01 1.02356343363842e-02 1.40394248693407e-04
1.14595000000000e+01 1.01474150566590e-02 1.39446085532484e-04
1.15025000000000e+01 1.00599561246621e-02 1.38503350767184e-04
1.15455000000000e+01 9.97325098707912e-03 1.37566028155359e-04
1.15885000000000e+01 9.88729314707782e-03 1.36634101223916e-04
1.16315000000000e+01 9.80207616382094e-03 1.35707553275889e-04
1.16745000000000e+01 9.71759365198384e-03 1.34786367397391e-04
1.17175000000000e+01 9.63383928127592e-03 1.33870526464361e-04
1.17605000000000e+01 9.55080677596635e-03 1.32960013149218e-04
1.18035000000000e+01 9.46848991441383e-03 1.32054809927405e-04
1.18465000000000e+01 9.38688252860035e-03 1.31154899083750e-04
1.18895000000000e+01 9.30597850366907e-03 1.30260262718734e-04
1.19325000000000e+01 9.22577177746611e-03 1.29370882754616e-04
1.19755000000000e+01 9.14625634008631e-03 1.28486740941435e-04
1.20185000000000e+01 9.06742623342292e-03 1.27607818862900e-04
1.20615000000000e+01 8.98927555072115e-03 1.26734097942155e-04
1.21045000000000e+01 8.91179843613557e-03 1.25865559447438e-04
1.21475000000000e+01 8.83498908429135e-03 1.25002184497604e-04
1.21905000000000e+01 8.75884173984922e-03 1.24143954067553e-04
1.22335000000000e+01 8.68335069707428e-03 1.23290848993538e-04
1.22765000000000e+01 8.60851029940841e-03 1.22442849978375e-04
1.23195000000000e+01 8.53431493904648e-03 1.21599937596538e-04
1.23625000000000e+01 8.46075905651612e-03 1.20762092299153e-04
1.24055000000000e+01 8.38783714026113e-03 1.19929294418902e-04
1.24485000000000e+01 8.31554372622856e-03 1.19101524174811e-04
1.24915000000000e+01 8.24387339745922e-03 1.18278761676924e-04
1.25345000000000e+01 8.17282078368182e-03 1.17460986930924e-04
1.25775000000000e+01 8.10238056091060e-03 1.16648179842634e-04
1.26205000000000e+01 8.03254745104633e-03 1.15840320222419e-04
1.26635000000000e+01 7.96331622148090e-03 1.15037387789513e-04
1.27065000000000e+01 7.89468168470520e-03 1.14239362176252e-04
1.27495000000000e+01 7.82663869792040e-03 1.13446222932195e-04
1.27925000000000e+01 7.75918216265265e-03 1.12657949528209e-04
1.28355000000000e+01 7.69230702437100e-03 1.11874521360438e-04
1.28785000000000e+01 7.62600827210872e-03 1.11095917754178e-04
1.29215000000000e+01 7.56028093808775e-03 1.10322117967689e-04
1.29645000000000e+01 7.49512009734653e-03 1.09553101195928e-04
1.30075000000000e+01 7.43052086737096e-03 1.08788846574205e-04
1.30505000000000e+01 7.36647840772851e-03 1.08029333181747e-04
1.30935000000000e+01 7.30298791970558e-03 1.07274540045197e-04
1.31365000000000e+01 7.24004464594791e-03 1.06524446142050e-04
1.31795000000000e+01 7.17764387010409e-03 1.05779030403993e-04
1.32225000000000e+01 7.11578091647220e-03 1.05038271720185e-04
1.32655000000000e+01 7.05445114964941e-03 1.04302148940476e-04
1.33085000000000e+01 6.99364997418472e-03 1.03570640878548e-04
1.33515000000000e+01 6.93337283423456e-03 1.02843726314989e-04
1.33945000000000e+01 6.87361521322143e-03 1.02121384000299e-04
1.34375000000000e+01 6.81437263349549e-03 1.01403592657834e-04
1.34805000000000e+01 6.75564065599906e-03 1.00690330986691e-04
1.35235000000000e+01 6.69741487993394e-03 9.99815776645211e-05
1.35665000000000e+01 6.63969094243174e-03 9.92773113502892e-05
