Energy (eV)          EEDF (eV^-(3/2))     First Anisotropy
6.24358974358974e-03 6.70297626531350e-01 3.98996232974375e-04
1.87307692307692e-02 6.64391295734650e-01 6.58166055160290e-04
3.12179487179487e-02 6.58537008599510e-01 8.67027421065393e-04
4.37051282051282e-02 6.52734306545499e-01 1.02459385661554e-03
5.61923076923077e-02 6.46982735041169e-01 1.15509313157385e-03
6.86794871794872e-02 6.41281843535161e-01 1.26771173944231e-03
8.11666666666667e-02 6.35631185461009e-01 1.36721665291618e-03
9.36538461538462e-02 6.30030318186939e-01 1.45649415442617e-03
1.06141025641026e-01 6.24478802981279e-01 1.53746349089372e-03
1.18628205128205e-01 6.18976204995934e-01 1.61148467056346e-03
1.31115384615385e-01 6.13522093156504e-01 1.67956703004021e-03
1.43602564102564e-01 6.08116040268859e-01 1.74248655572880e-03
1.56089743589744e-01 6.02757622823786e-01 1.80085668516958e-03
1.68576923076923e-01 5.97446421115844e-01 1.85517343463551e-03
1.81064102564103e-01 5.92182019071853e-01 1.90584544732336e-03
1.93551282051282e-01 5.86964004345577e-01 1.95321472594257e-03
2.06038461538462e-01 5.81791968167950e-01 1.99757137466419e-03
2.18525641025641e-01 5.76665505424017e-01 2.03916434764888e-03
2.31012820512821e-01 5.71584214519726e-01 2.07820946158759e-03
2.43500000000000e-01 5.66547697445330e-01 2.11489548048535e-03
2.55987179487180e-01 5.61555559655248e-01 2.14938881669329e-03
2.68474358974359e-01 5.56607410120837e-01 2.18183721452198e-03
2.80961538461538e-01 5.51702861220851e-01 2.21237267718507e-03
2.93448717948718e-01 5.46841528785675e-01 2.24111381802944e-03
3.05935897435897e-01 5.42023031996559e-01 2.26816777165083e-03
3.18423076923077e-01 5.37246993422877e-01 2.29363176045408e-03
3.30910256410256e-01 5.32513038928761e-01 2.31759439208303e-03
3.43397435897436e-01 5.27820797704565e-01 2.34013674089241e-03
3.55884615384615e-01 5.23169902179851e-01 2.36133325789278e-03
3.68371794871795e-01 5.18559988049969e-01 2.38125253998652e-03
3.80858974358974e-01 5.13990694194550e-01 2.39995798601673e-03
3.93346153846154e-01 5.09461662699956e-01 2.41750835805055e-03
4.05833333333333e-01 5.04972538782593e-01 2.43395826573156e-03
4.18320512820513e-01 5.00522970807815e-01 2.44935858495486e-03
4.30807692307692e-01 4.96112610217515e-01 2.46375682290874e-03
4.43294871794872e-01 4.91741111545973e-01 2.47719743644113e-03
4.55782051282051e-01 4.87408132351253e-01 2.48972211220372e-03
4.68269230769231e-01 4.83113333228399e-01 2.50137001288016e-03
4.80756410256410e-01 4.78856377744268e-01 2.51217799564635e-03
4.93243589743590e-01 4.74636932448398e-01 2.52218080428910e-03
5.05730769230769e-01 4.70454666819138e-01 2.53141124683930e-03
5.18217948717949e-01 4.66309253239642e-01 2.53990034222055e-03
5.30705128205128e-01 4.62200366995693e-01 2.54767746327947e-03
5.43192307692308e-01 4.58127686218959e-01 2.55477045995692e-03
5.55679487179487e-01 4.54090891892115e-01 2.56120577097118e-03
5.68166666666667e-01 4.50089667794445e-01 2.56700852523689e-03
5.80653846153846e-01 4.46123700505595e-01 2.57220263327223e-03
5.93141025641026e-01 4.42192679353346e-01 2.57681087067262e-03
6.05628205128205e-01 4.38296296416141e-01 2.58085495363533e-03
6.18115384615385e-01 4.34434246472883e-01 2.58435560829325e-03
6.30602564102564e-01 4.30606227004361e-01 2.58733263366002e-03
6.43089743589744e-01 4.26811938144931e-01 2.58980495970326e-03
6.55576923076923e-01 4.23051082682964e-01 2.59179070022442e-03
6.68064102564103e-01 4.19323366014285e-01 2.59330720187647e-03
6.80551282051282e-01 4.15628496141746e-01 2.59437108891438e-03
6.93038461538462e-01 4.11966183630307e-01 2.59499830486500e-03
7.05525641025641e-01 4.08336141605829e-01 2.59520415065548e-03
7.18012820512821e-01 4.04738085711694e-01 2.59500332027030e-03
7.30500000000000e-01 4.01171734106901e-01 2.59440993344208e-03
7.42987179487180e-01 3.97636807424142e-01 2.59343756635047e-03
7.55474358974359e-01 3.94133028767258e-01 2.59209927981494e-03
7.67961538461539e-01 3.90660123670696e-01 2.59040764587647e-03
7.80448717948718e-01 3.87217820096395e-01 2.58837477224224e-03
7.92935897435898e-01 3.83805848394540e-01 2.58601232542531e-03
8.05423076923077e-01 3.80423941299945e-01 2.58333155204790e-03
8.17910256410256e-01 3.77071833894027e-01 2.58034329908414e-03
8.30397435897436e-01 3.73749263600742e-01 2.57705803251451e-03
8.42884615384615e-01 3.70455970149720e-01 2.57348585511696e-03
8.55371794871795e-01 3.67191695571794e-01 2.56963652287355e-03
8.67858974358975e-01 3.63956184163246e-01 2.56551946067628e-03
8.80346153846154e-01 3.60749182480964e-01 2.56114377681701e-03
8.92833333333333e-01 3.57570439307749e-01 2.55651827690920e-03
9.05320512820513e-01 3.54419705647141e-01 2.55165147673540e-03
9.17807692307692e-01 3.51296734689735e-01 2.54655161463520e-03
9.30294871794872e-01 3.48201281807714e-01 2.54122666293883e-03
9.42782051282051e-01 3.45133104522122e-01 2.53568433903041e-03
9.55269230769231e-01 3.42091962497142e-01 2.52993211555882e-03
9.67756410256410e-01 3.39077617508283e-01 2.52397723035209e-03
9.80243589743590e-01 3.36089833436426e-01 2.51782669496001e-03
9.92730769230769e-01 3.33128376239831e-01 2.51148730599780e-03
1.00521794871795e+00 3.30193013936202e-01 2.50496565092513e-03
1.01770512820513e+00 3.27283516587462e-01 2.49826811484506e-03
1.03019230769231e+00 3.24399656287395e-01 2.49140089045750e-03
1.04267948717949e+00 3.21541207135078e-01 2.48436998582086e-03
1.05516666666667e+00 3.18707945220114e-01 2.47718122931627e-03
1.06765384615385e+00 3.15899648605092e-01 2.46984027675193e-03
1.08014102564103e+00 3.13116097308199e-01 2.46235261754261e-03
1.09262820512821e+00 3.10357073285994e-01 2.45472357530090e-03
1.10511538461538e+00 3.07622360440651e-01 2.44695832948102e-03
1.11760256410256e+00 3.04911744529369e-01 2.43906190999632e-03
1.13008974358974e+00 3.02225013221949e-01 2.43103919145435e-03
1.14257692307692e+00 2.99561956059140e-01 2.42289491449187e-03
1.15506410256410e+00 2.96922364436152e-01 2.41463368493745e-03
1.16755128205128e+00 2.94306031586316e-01 2.40625997829288e-03
1.18003846153846e+00 2.91712752564884e-01 2.39777814402229e-03
1.19252564102564e+00 2.89142324232981e-01 2.38919240966071e-03
1.20501282051282e+00 2.86594545241688e-01 2.38050688475075e-03
1.21750000000000e+00 2.84069216016271e-01 2.37172556461884e-03
1.22998717948718e+00 2.81566138740541e-01 2.36285233399390e-03
1.24247435897436e+00 2.79085117341368e-01 2.35389097047745e-03
1.25496153846154e+00 2.76625957473325e-01 2.34484514788307e-03
1.26744871794872e+00 2.74188466503462e-01 2.33571843944196e-03
1.27993589743590e+00 2.71772453496212e-01 2.32651432087959e-03
1.29242307692308e+00 2.69377729198437e-01 2.31723617337541e-03
1.30491025641026e+00 2.67004106024604e-01 2.30788728640913e-03
1.31739743589744e+00 2.64651398042088e-01 2.29847086049949e-03
1.32988461538462e+00 2.62319420956609e-01 2.28899000984014e-03
1.34237179487180e+00 2.60007992097798e-01 2.27944776082815e-03
1.35485897435897e+00 2.57716930421496e-01 2.26984706662591e-03
1.36734615384615e+00 2.55446056445305e-01 2.26019080139483e-03
1.37983333333333e+00 2.53195192285240e-01 2.25048175432806e-03
1.39232051282051e+00 2.50964161624740e-01 2.24072264426778e-03
1.40480769230769e+00 2.48752789700857e-01 2.23091611764527e-03
1.41729487179487e+00 2.46560903290569e-01 2.22106475052025e-03
1.42978205128205e+00 2.44388330697207e-01 2.21117105054907e-03
1.44226923076923e+00 2.42234901737005e-01 2.20123745888556e-03
1.45475641025641e+00 2.40100447725775e-01 2.19126635201735e-03
1.46724358974359e+00 2.37984801465687e-01 2.18126004354175e-03
1.47973076923077e+00 2.35887797232167e-01 2.17122078587619e-03
1.49221794871795e+00 2.33809270760933e-01 2.16115077191654e-03
1.50470512820513e+00 2.31749059235115e-01 2.15105213664502e-03
1.51719230769231e+00 2.29707001272506e-01 2.14092695867919e-03
1.52967948717949e+00 2.27682936912920e-01 2.13077726177306e-03
1.54216666666667e+00 2.25676707605656e-01 2.12060501627008e-03
1.55465384615385e+00 2.23688156197087e-01 2.11041214051034e-03
1.56714102564103e+00 2.21717126918342e-01 2.10020050219286e-03
1.57962820512821e+00 2.19763465373109e-01 2.08997191657162e-03
1.59211538461538e+00 2.17827018537475e-01 2.07972815717263e-03
1.60460256410256e+00 2.15907634711835e-01 2.06947095070966e-03
1.61708974358974e+00 2.14005163545416e-01 2.05920197186658e-03
1.62957692307692e+00 2.12119456012259e-01 2.04892285414114e-03
1.64206410256410e+00 2.10250364399548e-01 2.03863518772637e-03
1.65455128205128e+00 2.08397742296041e-01 2.02834052060687e-03
1.66703846153846e+00 2.06561444580595e-01 2.01804035962295e-03
1.67952564102564e+00 2.04741327410806e-01 2.00773617150335e-03
1.69201282051282e+00 2.02937248211733e-01 1.99742938386787e-03
1.70450000000000e+00 2.01149065664739e-01 1.98712138620165e-03
1.71698717948718e+00 1.99376639696410e-01 1.97681353079970e-03
1.72947435897436e+00 1.97619831467592e-01 1.96650713368374e-03
1.74196153846154e+00 1.95878503362512e-01 1.95620347549616e-03
1.75444871794872e+00 1.94152518978001e-01 1.94590380236795e-03
1.76693589743590e+00 1.92441743112808e-01 1.93560932676050e-03
1.77942307692308e+00 1.90746041757003e-01 1.92532122828505e-03
1.79191025641026e+00 1.89065282081491e-01 1.91504065449923e-03
1.80439743589744e+00 1.87399332427596e-01 1.90476872168182e-03
1.81688461538462e+00 1.85748062296755e-01 1.89450651558603e-03
1.82937179487180e+00 1.84111342340292e-01 1.88425508973955e-03
1.84185897435897e+00 1.82489044357930e-01 1.87401547350763e-03
1.85434615384615e+00 1.80881041261616e-01 1.86378866786392e-03
1.86683333333333e+00 1.79287207091906e-01 1.85357564106621e-03
1.87932051282051e+00 1.77707416999249e-01 1.84337733685007e-03
1.89180769230769e+00 1.76141547234205e-01 1.83319467253943e-03
1.90429487179487e+00 1.74589475137754e-01 1.82302853967029e-03
1.91678205128205e+00 1.73051079131685e-01 1.81287980459781e-03
1.92926923076923e+00 1.71526238709074e-01 1.80274930908781e-03
1.94175641025641e+00 1.70014834424844e-01 1.79263787089306e-03
1.95424358974359e+00 1.68516747886408e-01 1.78254628431587e-03
1.96673076923077e+00 1.67031861744392e-01 1.77247532075279e-03
1.97921794871795e+00 1.65560059683452e-01 1.76242572922794e-03
1.99170512820513e+00 1.64101226413153e-01 1.75239823691510e-03
2.00419230769231e+00 1.62655247658947e-01 1.74239354964310e-03
2.01667948717949e+00 1.61222010153212e-01 1.73241235238985e-03
2.02916666666667e+00 1.59801401626386e-01 1.72245530976399e-03
2.04165384615385e+00 1.58393310798170e-01 1.71252306647469e-03
2.05414102564103e+00 1.56997627368812e-01 1.70261624778995e-03
2.06662820512821e+00 1.55614242010466e-01 1.69273545804863e-03
2.07911538461538e+00 1.54243046365095e-01 1.68288128694005e-03
2.09160256410256e+00 1.52883933016436e-01 1.67305430601637e-03
2.10408974358974e+00 1.51536795501281e-01 1.66325506513153e-03
2.11657692307692e+00 1.50201528294526e-01 1.65348409883753e-03
2.12906410256410e+00 1.48878026800901e-01 1.64374192476923e-03
2.14155128205128e+00 1.47566187346777e-01 1.63402904403014e-03
2.15403846153846e+00 1.46265907172046e-01 1.62434594156924e-03
2.16652564102564e+00 1.44977084422071e-01 1.61469308654878e-03
2.17901282051282e+00 1.43699618139706e-01 1.60507093270338e-03
2.19150000000000e+00 1.42433408257390e-01 1.59547991869131e-03
2.20398717948718e+00 1.41178355589308e-01 1.58592046843658e-03
2.21647435897436e+00 1.39934361823619e-01 1.57639299146234e-03
2.22896153846154e+00 1.38701329514759e-01 1.56689788321877e-03
2.24144871794872e+00 1.37479162075806e-01 1.55743552540270e-03
2.25393589743590e+00 1.36267763770914e-01 1.54800628626867e-03
2.26642307692308e+00 1.35067039707813e-01 1.53861052093375e-03
2.27891025641026e+00 1.33876895830377e-01 1.52924857167525e-03
2.29139743589744e+00 1.32697238911257e-01 1.51992076822165e-03
2.30388461538462e+00 1.31527976544574e-01 1.51062742803668e-03
2.31637179487180e+00 1.30369017138687e-01 1.50136885506563e-03
2.32885897435897e+00 1.29220269913849e-01 1.49214534463239e-03
2.34134615384615e+00 1.28081644880481e-01 1.48295718060787e-03
2.35383333333333e+00 1.26953052846853e-01 1.47380463252214e-03
2.36632051282051e+00 1.25834405407144e-01 1.46468796055976e-03
2.37880769230769e+00 1.24725614934524e-01 1.45560741421662e-03
2.39129487179487e+00 1.23626594574287e-01 1.44656323254234e-03
2.40378205128205e+00 1.22537258237048e-01 1.43755564437737e-03
2.41626923076923e+00 1.21457520591996e-01 1.42858486858498e-03
2.42875641025641e+00 1.20387297060215e-01 1.41965111427775e-03
2.44124358974359e+00 1.19326503808057e-01 1.41075458104011e-03
2.45373076923077e+00 1.18275057740571e-01 1.40189545914416e-03
2.46621794871795e+00 1.17232876495000e-01 1.39307392976169e-03
2.47870512820513e+00 1.16199878434327e-01 1.38429016517293e-03
2.49119230769231e+00 1.15175982640879e-01 1.37554432896904e-03
2.50367948717949e+00 1.14161108909989e-01 1.36683657625066e-03
2.51616666666667e+00 1.13155177743716e-01 1.35816705382215e-03
2.52865384615385e+00 1.12158110344614e-01 1.34953590038185e-03
2.54114102564103e+00 1.11169828609558e-01 1.34094324670806e-03
2.55362820512821e+00 1.10190255123635e-01 1.33238921460822e-03
2.56611538461538e+00 1.09219313157776e-01 1.32387392081977e-03
2.57860256410256e+00 1.08256926651549e-01 1.31539747469249e-03
2.59108974358974e+00 1.07303020218485e-01 1.30695997582542e-03
2.60357692307692e+00 1.06357519136383e-01 1.29856151805016e-03
2.61606410256410e+00 1.05420349341459e-01 1.29020218831360e-03
2.62855128205128e+00 1.04491437422539e-01 1.28188206683780e-03
2.64103846153846e+00 1.03570710615315e-01 1.27360122727675e-03
2.65352564102564e+00 1.02658096796640e-01 1.26535973686944e-03
2.66601282051282e+00 1.01753524478880e-01 1.25715765658968e-03
2.67850000000000e+00 1.00856922804316e-01 1.24899504129331e-03
2.69098717948718e+00 9.99682215395904e-02 1.24087193986190e-03
2.70347435897436e+00 9.90873510702079e-02 1.23278839534295e-03
2.71596153846154e+00 9.82142423950815e-02 1.22474444508796e-03
2.72844871794872e+00 9.73488271211278e-02 1.21674012088766e-03
2.74093589743590e+00 9.64910374579091e-02 1.20877544910374e-03
2.75342307692308e+00 9.56408062123237e-02 1.20085045079837e-03
2.76591025641026e+00 9.47980667833418e-02 1.19296514186074e-03
2.77839743589744e+00 9.39627531567891e-02 1.18511953313094e-03
2.79088461538462e+00 9.31347999001752e-02 1.17731363052153e-03
2.80337179487180e+00 9.23141421575683e-02 1.16954743415041e-03
2.81585897435897e+00 9.15007156473456e-02 1.16182094143434e-03
2.82834615384615e+00 9.06944566486045e-02 1.15413414521042e-03
2.84083333333333e+00 8.98953020047868e-02 1.14648703182131e-03
2.85332051282051e+00 8.91031891158386e-02 1.13887958427643e-03
2.86580769230769e+00 8.83180559333066e-02 1.13131178133507e-03
2.87829487179487e+00 8.75398409554775e-02 1.12378359761117e-03
2.89078205128205e+00 8.67684832225608e-02 1.11629500367620e-03
2.90326923076923e+00 8.60039223119132e-02 1.10884596615970e-03
2.91575641025641e+00 8.52460983333058e-02 1.10143644784779e-03
2.92824358974359e+00 8.44949519242327e-02 1.09406640778002e-03
2.94073076923077e+00 8.37504242452601e-02 1.08673580134330e-03
2.95321794871795e+00 8.30124569754189e-02 1.07944458036452e-03
2.96570512820513e+00 8.22809923076355e-02 1.07219269320189e-03
2.97819230769231e+00 8.15559729442036e-02 1.06498008483343e-03
2.99067948717949e+00 8.08373420922955e-02 1.05780669694395e-03
3.00316666666667e+00 8.01250434595141e-02 1.05067246801038e-03
3.01565384615385e+00 7.94190212494829e-02 1.04357733338532e-03
3.02814102564103e+00 7.87192201574751e-02 1.03652122537861e-03
3.04062820512821e+00 7.80255853660820e-02 1.02950407253756e-03
3.05311538461538e+00 7.73380625431242e-02 1.02252580214126e-03
3.06560256410256e+00 7.66565978307317e-02 1.01558633866055e-03
3.07808974358974e+00 7.59811378478367e-02 1.00868560218902e-03
3.09057692307692e+00 7.53116296837394e-02 1.00182351099315e-03
3.10306410256410e+00 7.46480208939623e-02 9.94999980753572e-04
3.11555128205128e+00 7.39902594961429e-02 9.88214924635961e-04
3.12803846153846e+00 7.33382939659614e-02 9.81468253360438e-04
3.14052564102564e+00 7.26920732331046e-02 9.74759875269399e-04
3.15301282051282e+00 7.20515466772659e-02 9.68089696394045e-04
3.16550000000000e+00 7.14166641241794e-02 9.61457620519762e-04
3.17798717948718e+00 7.07873758416897e-02 9.54863549249907e-04
3.19047435897436e+00 7.01636325358567e-02 9.48307382068054e-04
3.20296153846154e+00 6.95453853470940e-02 9.41789016399548e-04
3.21544871794872e+00 6.89325858463419e-02 9.35308347671649e-04
3.22793589743590e+00 6.83251860312734e-02 9.28865269372119e-04
3.24042307692308e+00 6.77231383225343e-02 9.22459673106975e-04
3.25291025641026e+00 6.71263955600160e-02 9.16091448656864e-04
3.26539743589744e+00 6.65349109991613e-02 9.09760484032260e-04
3.27788461538462e+00 6.59486383073030e-02 9.03466665527728e-04
3.29037179487180e+00 6.53675315600342e-02 8.97209877130340e-04
3.30285897435897e+00 6.47915452393193e-02 8.90990002517585e-04
3.31534615384615e+00 6.42206342247680e-02 8.84806923806118e-04
3.32783333333333e+00 6.36547537952976e-02 8.78660520276920e-04
3.34032051282051e+00 6.30938596238856e-02 8.72550670418682e-04
3.35280769230769e+00 6.25379077740970e-02 8.66477251306410e-04
3.36529487179487e+00 6.19868546966432e-02 8.60440138648306e-04
3.37778205128205e+00 6.14406572259699e-02 8.54439206831597e-04
3.39026923076923e+00 6.08992725768767e-02 8.48474328967443e-04
3.40275641025641e+00 6.03626583411647e-02 8.42545376934948e-04
3.41524358974359e+00 5.98307724843154e-02 8.36652221424392e-04
3.42773076923077e+00 5.93035733421969e-02 8.30794731979070e-04
3.44021794871795e+00 5.87810196178016e-02 8.24972777036659e-04
3.45270512820513e+00 5.82630703780105e-02 8.19186223970043e-04
3.46519230769231e+00 5.77496850503872e-02 8.13434939126695e-04
3.47767948717949e+00 5.72408234199992e-02 8.07718787867536e-04
3.49016666666667e+00 5.67364456262681e-02 8.02037634604946e-04
3.50265384615385e+00 5.62365121598472e-02 7.96391342839896e-04
3.51514102564103e+00 5.57409838595266e-02 7.90779775198394e-04
3.52762820512821e+00 5.52498219091655e-02 7.85202792941175e-04
3.54011538461538e+00 5.47629878359981e-02 7.79660257586811e-04
3.55260256410256e+00 5.42804435035525e-02 7.74152029883161e-04
3.56508974358974e+00 5.38021511127593e-02 7.68677968759637e-04
3.57757692307692e+00 5.33280731976156e-02 7.63237932987905e-04
3.59006410256410e+00 5.28581726222506e-02 7.57831780667787e-04
3.60255128205128e+00 5.23924125780163e-02 7.52459369258662e-04
3.61503846153846e+00 5.19307565806040e-02 7.47120555610229e-04
3.62752564102564e+00 5.14731684671869e-02 7.41815195992526e-04
3.64001282051282e+00 5.10196123935871e-02 7.36543146125425e-04
3.65250000000000e+00 5.05700528314676e-02 7.31304261207549e-04
3.66498717948718e+00 5.01244545655496e-02 7.26098395944389e-04
3.67747435897436e+00 4.96827826908536e-02 7.20925404575757e-04
3.68996153846154e+00 4.92450026099659e-02 7.15785140902895e-04
3.70244871794872e+00 4.88110800303278e-02 7.10677458315021e-04
3.71493589743590e+00 4.83809809615498e-02 7.05602209815199e-04
3.72742307692308e+00 4.79546717127488e-02 7.00559248045496e-04
3.73991025641026e+00 4.75321188899090e-02 6.95548425311800e-04
3.75239743589744e+00 4.71132893932662e-02 6.90569593608114e-04
3.76488461538462e+00 4.66981504147148e-02 6.85622604640165e-04
3.77737179487180e+00 4.62866694352380e-02 6.80707309422582e-04
3.78985897435898e+00 4.58788142234143e-02 6.75823559587686e-04
3.80234615384615e+00 4.54745528297093e-02 6.70971206547150e-04
3.81483333333333e+00 4.50738535871787e-02 6.66150100638168e-04
3.82732051282051e+00 4.46766851079114e-02 6.61360092462821e-04
3.83980769230769e+00 4.42830162805711e-02 6.56601032466556e-04
3.85229487179487e+00 4.38928162679592e-02 6.51872770958445e-04
3.86478205128205e+00 4.35060545045990e-02 6.47175158131056e-04
3.87726923076923e+00 4.31227006943419e-02 6.42508044079831e-04
3.88975641025641e+00 4.27427248079938e-02 6.37871278821989e-04
3.90224358974359e+00 4.23660970809630e-02 6.33264712315186e-04
3.91473076923077e+00 4.19927880109282e-02 6.28688194475359e-04
3.92721794871795e+00 4.16227683555285e-02 6.24141575194461e-04
3.93970512820513e+00 4.12560091300720e-02 6.19624704357931e-04
