Energy (eV)          EEDF (eV^-(3/2))     First Anisotropy
1.45098039215686e-04 1.26330551852953e+02 4.18844891153419e-02
4.35294117647059e-04 1.25479887379149e+02 6.91628482923623e-02
7.25490196078431e-04 1.24634950973290e+02 9.13018752860347e-02
1.01568627450980e-03 1.23795704065330e+02 1.08120510404758e-01
1.30588235294118e-03 1.22962108344830e+02 1.22147003061276e-01
1.59607843137255e-03 1.22134125757455e+02 1.34337048040887e-01
1.88627450980392e-03 1.21311718506531e+02 1.45185118238435e-01
2.17647058823529e-03 1.20494849049805e+02 1.54989752027055e-01
2.46666666666667e-03 1.19683480097821e+02 1.63948906326690e-01
2.75686274509804e-03 1.18877574612215e+02 1.72202465524954e-01
3.04705882352941e-03 1.18077095805121e+02 1.79853958935165e-01
3.33725490196078e-03 1.17282007134065e+02 1.86982762362598e-01
3.62745098039216e-03 1.16492272303839e+02 1.93651454071523e-01
3.91764705882353e-03 1.15707855263628e+02 1.99910498032144e-01
4.20784313725490e-03 1.14928720205357e+02 2.05801358782971e-01
4.49803921568627e-03 1.14154831562081e+02 2.11358648469137e-01
4.78823529411765e-03 1.13386154007003e+02 2.16611651564296e-01
5.07843137254902e-03 1.12622652449848e+02 2.21585435590370e-01
5.36862745098039e-03 1.11864292037323e+02 2.26301678077336e-01
5.65882352941176e-03 1.11111038150821e+02 2.30779293883730e-01
5.94901960784314e-03 1.10362856404838e+02 2.35034919260248e-01
6.23921568627451e-03 1.09619712645413e+02 2.39083290834784e-01
6.52941176470588e-03 1.08881572948565e+02 2.42937546295450e-01
6.81960784313726e-03 1.08148403619185e+02 2.46609465706101e-01
7.10980392156863e-03 1.07420171188156e+02 2.50109667380000e-01
7.40000000000000e-03 1.06696842412188e+02 2.53447768382970e-01
7.69019607843137e-03 1.05978384271835e+02 2.56632517100256e-01
7.98039215686275e-03 1.05264763969994e+02 2.59671903774899e-01
8.27058823529412e-03 1.04555948930407e+02 2.62573253305310e-01
8.56078431372549e-03 1.03851906796504e+02 2.65343303628375e-01
8.85098039215686e-03 1.03152605428916e+02 2.67988272464847e-01
9.14117647058824e-03 1.02458012905032e+02 2.70513914450551e-01
9.43137254901961e-03 1.01768097517198e+02 2.72925570210124e-01
9.72156862745098e-03 1.01082827771263e+02 2.75228208860229e-01
1.00117647058824e-02 1.00402172385150e+02 2.77426464998732e-01
1.03019607843137e-02 9.97261002887233e+01 2.79524670708866e-01
1.05921568627451e-02 9.90545806179205e+01 2.81526883985009e-01
1.08823529411765e-02 9.83875827183837e+01 2.83436913759547e-01
1.11725490196078e-02 9.77250761421488e+01 2.85258341598501e-01
1.14627450980392e-02 9.70670306462935e+01 2.86994541403065e-01
1.17529411764706e-02 9.64134161937852e+01 2.88648696361324e-01
1.20431372549020e-02 9.57642029453034e+01 2.90223814635985e-01
1.23333333333333e-02 9.51193612647485e+01 2.91722743486115e-01
1.26235294117647e-02 9.44788617155710e+01 2.93148181294343e-01
1.29137254901961e-02 9.38426750594472e+01 2.94502688991536e-01
1.32039215686275e-02 9.32107722568657e+01 2.95788699803985e-01
1.34941176470588e-02 9.25831244599454e+01 2.97008528593185e-01
1.37843137254902e-02 9.19597030170241e+01 2.98164380387796e-01
1.40745098039216e-02 9.13404794693722e+01 2.99258357655746e-01
1.43647058823529e-02 9.07254255516147e+01 3.00292466954614e-01
1.46549019607843e-02 9.01145131852288e+01 3.01268625385009e-01
1.49450980392157e-02 8.95077144825170e+01 3.02188666542736e-01
1.52352941176471e-02 8.89050017435566e+01 3.03054345429353e-01
1.55254901960784e-02 8.83063474549561e+01 3.03867343471136e-01
1.58156862745098e-02 8.77117242901001e+01 3.04629272646721e-01
1.61058823529412e-02 8.71211051033268e+01 3.05341679749554e-01
1.63960784313726e-02 8.65344629333012e+01 3.06006050359922e-01
1.66862745098039e-02 8.59517710002337e+01 3.06623812109157e-01
1.69764705882353e-02 8.53730027060298e+01 3.07196337718118e-01
1.72666666666667e-02 8.47981316289413e+01 3.07724948153707e-01
1.75568627450980e-02 8.42271315265244e+01 3.08210915591909e-01
1.78470588235294e-02 8.36599763330365e+01 3.08655465705629e-01
1.81372549019608e-02 8.30966401582556e+01 3.09059780238022e-01
1.84274509803922e-02 8.25370972875133e+01 3.09424998973327e-01
1.87176470588235e-02 8.19813221768384e+01 3.09752221983026e-01
1.90078431372549e-02 8.14292894555015e+01 3.10042511749905e-01
1.92980392156863e-02 8.08809739236055e+01 3.10296894723272e-01
1.95882352941176e-02 8.03363505509451e+01 3.10516363187881e-01
1.98784313725490e-02 7.97953944769506e+01 3.10701876616443e-01
2.01686274509804e-02 7.92580810062525e+01 3.10854363321973e-01
2.04588235294118e-02 7.87243856108784e+01 3.10974722030297e-01
2.07490196078431e-02 7.81942839280180e+01 3.11063823033810e-01
2.10392156862745e-02 7.76677517599141e+01 3.11122509286883e-01
2.13294117647059e-02 7.71447650697311e+01 3.11151597724417e-01
2.16196078431373e-02 7.66252999835052e+01 3.11151880522544e-01
2.19098039215686e-02 7.61093327880276e+01 3.11124125910907e-01
2.22000000000000e-02 7.55968399297682e+01 3.11069079304012e-01
2.24901960784314e-02 7.50877980147042e+01 3.10987464016631e-01
2.27803921568627e-02 7.45821838045136e+01 3.10879982282957e-01
2.30705882352941e-02 7.40799742182721e+01 3.10747316235105e-01
2.33607843137255e-02 7.35811463304717e+01 3.10590128477928e-01
2.36509803921569e-02 7.30856773699790e+01 3.10409062975247e-01
2.39411764705882e-02 7.25935447198166e+01 3.10204745558201e-01
2.42313725490196e-02 7.21047259136421e+01 3.09977784731006e-01
2.45215686274510e-02 7.16191986372274e+01 3.09728772447580e-01
2.48117647058824e-02 7.11369407266006e+01 3.09458284583816e-01
2.51019607843137e-02 7.06579301677975e+01 3.09166881392350e-01
2.53921568627451e-02 7.01821450935522e+01 3.08855108179480e-01
2.56823529411765e-02 6.97095637846181e+01 3.08523495959080e-01
2.59725490196078e-02 6.92401646679960e+01 3.08172561763831e-01
2.62627450980392e-02 6.87739263159533e+01 3.07802809246326e-01
2.65529411764706e-02 6.83108274457415e+01 3.07414728954970e-01
2.68431372549020e-02 6.78508469165178e+01 3.07008798888160e-01
2.71333333333333e-02 6.73939637305007e+01 3.06585485030792e-01
2.74235294117647e-02 6.69401570312990e+01 3.06145241573850e-01
2.77137254901961e-02 6.64894061029626e+01 3.05688511410873e-01
2.80039215686275e-02 6.60416903696747e+01 3.05215726332293e-01
2.82941176470588e-02 6.55969893928802e+01 3.04727307486481e-01
2.85843137254902e-02 6.51552828722969e+01 3.04223665826983e-01
2.88745098039216e-02 6.47165506443382e+01 3.03705202318962e-01
2.91647058823529e-02 6.42807726817887e+01 3.03172308140237e-01
2.94549019607843e-02 6.38479290910880e+01 3.02625365083054e-01
2.97450980392157e-02 6.34180001132363e+01 3.02064745943960e-01
3.00352941176471e-02 6.29909661222818e+01 3.01490814635978e-01
3.03254901960784e-02 6.25668076244285e+01 3.00903926553721e-01
3.06156862745098e-02 6.21455052576945e+01 3.00304428671050e-01
3.09058823529412e-02 6.17270397893673e+01 2.99692659883836e-01
3.11960784313726e-02 6.13113921167972e+01 2.99068951342815e-01
3.14862745098039e-02 6.08985432659642e+01 2.98433626575125e-01
3.17764705882353e-02 6.04884743911279e+01 2.97787001603303e-01
3.20666666666667e-02 6.00811667724129e+01 2.97129385249147e-01
3.23568627450980e-02 5.96766018165175e+01 2.96461079429050e-01
3.26470588235294e-02 5.92747610553398e+01 2.95782379202904e-01
3.29372549019608e-02 5.88756261451356e+01 2.95093573053303e-01
3.32274509803922e-02 5.84791788661576e+01 2.94394942925997e-01
3.35176470588235e-02 5.80854011203854e+01 2.93686764494508e-01
3.38078431372549e-02 5.76942749321461e+01 2.92969307416972e-01
3.40980392156863e-02 5.73057824468072e+01 2.92242835361472e-01
3.43882352941177e-02 5.69199059299642e+01 2.91507606250135e-01
3.46784313725490e-02 5.65366277670709e+01 2.90763872278012e-01
3.49686274509804e-02 5.61559304613029e+01 2.90011880145534e-01
3.52588235294118e-02 5.57777966340994e+01 2.89251871284191e-01
3.55490196078431e-02 5.54022090239203e+01 2.88484081905757e-01
3.58392156862745e-02 5.50291504858741e+01 2.87708743050695e-01
3.61294117647059e-02 5.46586039896819e+01 2.86926080798746e-01
3.64196078431373e-02 5.42905526201604e+01 2.86136316473307e-01
3.67098039215686e-02 5.39249795760263e+01 2.85339666637881e-01
3.70000000000000e-02 5.35618681691306e+01 2.84536343291781e-01
3.72901960784314e-02 5.32012018240822e+01 2.83726553862741e-01
3.75803921568627e-02 5.28429640763265e+01 2.82910501394702e-01
3.78705882352941e-02 5.24871385725655e+01 2.82088384729726e-01
3.81607843137255e-02 5.21337090696178e+01 2.81260398493654e-01
3.84509803921569e-02 5.17826594336784e+01 2.80426733270968e-01
3.87411764705882e-02 5.14339736399409e+01 2.79587575587381e-01
3.90313725490196e-02 5.10876357707810e+01 2.78743108078419e-01
3.93215686274510e-02 5.07436300161215e+01 2.77893509652580e-01
3.96117647058824e-02 5.04019406723443e+01 2.77038955504765e-01
3.99019607843137e-02 5.00625521419130e+01 2.76179617129575e-01
4.01921568627451e-02 4.97254489316377e+01 2.75315662476347e-01
4.04823529411765e-02 4.93906156529970e+01 2.74447256099054e-01
4.07725490196078e-02 4.90580370210894e+01 2.73574559128854e-01
4.10627450980392e-02 4.87276978539370e+01 2.72697729419167e-01
4.13529411764706e-02 4.83995830721083e+01 2.71816921516222e-01
4.16431372549020e-02 4.80736776970749e+01 2.70932286799730e-01
4.19333333333333e-02 4.77499668514881e+01 2.70043973618680e-01
4.22235294117647e-02 4.74284357581778e+01 2.69152127258970e-01
4.25137254901961e-02 4.71090697394782e+01 2.68256890075157e-01
4.28039215686275e-02 4.67918542168536e+01 2.67358401456547e-01
4.30941176470588e-02 4.64767747093398e+01 2.66456797955409e-01
4.33843137254902e-02 4.61638168337812e+01 2.65552213410628e-01
4.36745098039216e-02 4.58529663038730e+01 2.64644778943004e-01
4.39647058823529e-02 4.55442089297895e+01 2.63734622950474e-01
4.42549019607843e-02 4.52375306166913e+01 2.62821871227450e-01
4.45450980392157e-02 4.49329173649313e+01 2.61906647079555e-01
4.48352941176471e-02 4.46303552691308e+01 2.60989071285748e-01
4.51254901960784e-02 4.43298305175451e+01 2.60069262210415e-01
4.54156862745098e-02 4.40313293916951e+01 2.59147335764376e-01
4.57058823529412e-02 4.37348382649497e+01 2.58223405514498e-01
4.59960784313726e-02 4.34403436026996e+01 2.57297582788998e-01
4.62862745098039e-02 4.31478319614725e+01 2.56369976666211e-01
4.65764705882353e-02 4.28572899885682e+01 2.55440693963307e-01
4.68666666666667e-02 4.25687044206992e+01 2.54509839338774e-01
4.71568627450980e-02 4.22820620841396e+01 2.53577515390780e-01
4.74470588235294e-02 4.19973498938700e+01 2.52643822616439e-01
4.77372549019608e-02 4.17145548529811e+01 2.51708859508285e-01
4.80274509803922e-02 4.14336640523130e+01 2.50772722512853e-01
4.83176470588235e-02 4.11546646691633e+01 2.49835506125444e-01
4.86078431372549e-02 4.08775439674082e+01 2.48897302980820e-01
4.88980392156863e-02 4.06022892966842e+01 2.47958203811683e-01
4.91882352941177e-02 4.03288880918110e+01 2.47018297537898e-01
4.94784313725490e-02 4.00573278724365e+01 2.46077671224315e-01
4.97686274509804e-02 3.97875962418069e+01 2.45136410168627e-01
5.00588235294118e-02 3.95196808868648e+01 2.44194597985356e-01
5.03490196078431e-02 3.92535695774641e+01 2.43252316588910e-01
5.06392156862745e-02 3.89892501660204e+01 2.42309646176467e-01
5.09294117647059e-02 3.87267105863287e+01 2.41366665310674e-01
5.12196078431373e-02 3.84659388536436e+01 2.40423450998642e-01
5.15098039215686e-02 3.82069230639204e+01 2.39480078650055e-01
5.18000000000000e-02 3.79496513932721e+01 2.38536622155142e-01
5.20901960784314e-02 3.76941120976249e+01 2.37593153842352e-01
5.23803921568627e-02 3.74402935115925e+01 2.36649744555406e-01
5.26705882352941e-02 3.71881840485366e+01 2.35706463726705e-01
5.29607843137255e-02 3.69377721998388e+01 2.34763379335635e-01
5.32509803921569e-02 3.66890465343760e+01 2.33820557981198e-01
5.35411764705882e-02 3.64419956981819e+01 2.32878064839863e-01
5.38313725490196e-02 3.61966084133740e+01 2.31935963737515e-01
5.41215686274510e-02 3.59528734781969e+01 2.30994317217896e-01
5.44117647058824e-02 3.57107797663234e+01 2.30053186523171e-01
5.47019607843137e-02 3.54703162265224e+01 2.29112631574231e-01
5.49921568627451e-02 3.52314718816259e+01 2.28172711038774e-01
5.52823529411765e-02 3.49942358285590e+01 2.27233482395957e-01
5.55725490196078e-02 3.47585972376639e+01 2.26295001895642e-01
5.58627450980392e-02 3.45245453522061e+01 2.25357324622607e-01
5.61529411764706e-02 3.42920694880479e+01 2.24420504455371e-01
5.64431372549020e-02 3.40611590326632e+01 2.23484594130004e-01
5.67333333333333e-02 3.38318034451535e+01 2.22549645300637e-01
5.70235294117647e-02 3.36039922555987e+01 2.21615708499310e-01
5.73137254901961e-02 3.33777150645795e+01 2.20682833196113e-01
5.76039215686275e-02 3.31529615428582e+01 2.19751067758746e-01
5.78941176470588e-02 3.29297214304376e+01 2.18820459512339e-01
5.81843137254902e-02 3.27079845365649e+01 2.17891054796190e-01
5.84745098039216e-02 3.24877407391079e+01 2.16962898943631e-01
5.87647058823529e-02 3.22689799842416e+01 2.16036036261528e-01
5.90549019607843e-02 3.20516922855421e+01 2.15110510087217e-01
5.93450980392157e-02 3.18358677239798e+01 2.14186362842232e-01
5.96352941176471e-02 3.16214964473164e+01 2.13263635993719e-01
5.99254901960784e-02 3.14085686696551e+01 2.12342370108107e-01
6.02156862745098e-02 3.11970746711336e+01 2.11422604812178e-01
6.05058823529412e-02 3.09870047970585e+01 2.10504378846631e-01
6.07960784313726e-02 3.07783494578890e+01 2.09587730116569e-01
6.10862745098039e-02 3.05710991286566e+01 2.08672695671534e-01
6.13764705882353e-02 3.03652443486640e+01 2.07759311685213e-01
6.16666666666667e-02 3.01607757206509e+01 2.06847613506337e-01
6.19568627450980e-02 2.99576839107692e+01 2.05937635706727e-01
6.22470588235294e-02 2.97559596480217e+01 2.05029412044463e-01
6.25372549019608e-02 2.95555937238386e+01 2.04122975511875e-01
6.28274509803922e-02 2.93565769917836e+01 2.03218358298465e-01
6.31176470588235e-02 2.91589003667557e+01 2.02315591838988e-01
6.34078431372549e-02 2.89625548249570e+01 2.01414706858603e-01
6.36980392156863e-02 2.87675314033525e+01 2.00515733337051e-01
6.39882352941177e-02 2.85738211992613e+01 1.99618700553946e-01
6.42784313725490e-02 2.83814153700688e+01 1.98723637052595e-01
6.45686274509804e-02 2.81903051324643e+01 1.97830570685398e-01
6.48588235294118e-02 2.80004817624006e+01 1.96939528656479e-01
6.51490196078431e-02 2.78119365945753e+01 1.96050537502414e-01
6.54392156862745e-02 2.76246610221489e+01 1.95163623072579e-01
6.57294117647059e-02 2.74386464960084e+01 1.94278810572442e-01
6.60196078431373e-02 2.72538845247226e+01 1.93396124604185e-01
6.63098039215686e-02 2.70703666740382e+01 1.92515589132739e-01
6.66000000000000e-02 2.68880845664953e+01 1.91637227526543e-01
6.68901960784314e-02 2.67070298811525e+01 1.90761062523286e-01
6.71803921568628e-02 2.65271943528822e+01 1.89887116270913e-01
6.74705882352941e-02 2.63485697723198e+01 1.89015410365945e-01
6.77607843137255e-02 2.61711479853797e+01 1.88145965820536e-01
6.80509803921569e-02 2.59949208928829e+01 1.87278803101008e-01
6.83411764705882e-02 2.58198804502894e+01 1.86413942094595e-01
6.86313725490196e-02 2.56460186670234e+01 1.85551402148253e-01
6.89215686274510e-02 2.54733276064175e+01 1.84691202104926e-01
6.92117647058824e-02 2.53017993852470e+01 1.83833360285358e-01
6.95019607843137e-02 2.51314261734677e+01 1.82977894469436e-01
6.97921568627451e-02 2.49622001935638e+01 1.82124821933321e-01
7.00823529411765e-02 2.47941137204893e+01 1.81274159484071e-01
7.03725490196078e-02 2.46271590812157e+01 1.80425923428518e-01
7.06627450980392e-02 2.44613286543817e+01 1.79580129608185e-01
7.09529411764706e-02 2.42966148700383e+01 1.78736793367879e-01
7.12431372549020e-02 2.41330102090238e+01 1.77895929590905e-01
7.15333333333333e-02 2.39705072029015e+01 1.77057552731845e-01
7.18235294117647e-02 2.38090984335239e+01 1.76221676786417e-01
7.21137254901961e-02 2.36487765326950e+01 1.75388315324542e-01
7.24039215686274e-02 2.34895341819211e+01 1.74557481459968e-01
7.26941176470588e-02 2.33313641118127e+01 1.73729187883655e-01
7.29843137254902e-02 2.31742591020180e+01 1.72903446894831e-01
7.32745098039216e-02 2.30182119808043e+01 1.72080270384020e-01
7.35647058823529e-02 2.28632156248151e+01 1.71259669815660e-01
7.38549019607843e-02 2.27092629584910e+01 1.70441656260057e-01
7.41450980392157e-02 2.25563469540019e+01 1.69626240423125e-01
7.44352941176471e-02 2.24044606308404e+01 1.68813432618041e-01
7.47254901960784e-02 2.22535970555033e+01 1.68003242795272e-01
7.50156862745098e-02 2.21037493412546e+01 1.67195680514004e-01
7.53058823529412e-02 2.19549106475715e+01 1.66390754972525e-01
7.55960784313725e-02 2.18070741800729e+01 1.65588475036384e-01
7.58862745098039e-02 2.16602331901286e+01 1.64788849222308e-01
7.61764705882353e-02 2.15143809746276e+01 1.63991885681647e-01
7.64666666666667e-02 2.13695108754421e+01 1.63197592229428e-01
7.67568627450980e-02 2.12256162793545e+01 1.62405976371432e-01
7.70470588235294e-02 2.10826906176783e+01 1.61617045277536e-01
7.73372549019608e-02 2.09407273659583e+01 1.60830805809065e-01
7.76274509803922e-02 2.07997200437446e+01 1.60047264491962e-01
7.79176470588235e-02 2.06596622140793e+01 1.59266427544437e-01
7.82078431372549e-02 2.05205474834218e+01 1.58488300902643e-01
7.84980392156863e-02 2.03823695012828e+01 1.57712890194955e-01
7.87882352941176e-02 2.02451219599353e+01 1.56940200767947e-01
7.90784313725490e-02 2.01087985941947e+01 1.56170237660433e-01
7.93686274509804e-02 1.99733931809261e+01 1.55403005629817e-01
7.96588235294118e-02 1.98388995389683e+01 1.54638509176468e-01
7.99490196078431e-02 1.97053115287815e+01 1.53876752528867e-01
8.02392156862745e-02 1.95726230522333e+01 1.53117739628352e-01
8.05294117647059e-02 1.94408280521220e+01 1.52361474154379e-01
8.08196078431373e-02 1.93099205120990e+01 1.51607959547910e-01
8.11098039215686e-02 1.91798944563276e+01 1.50857198987288e-01
8.14000000000000e-02 1.90507439492104e+01 1.50109195411971e-01
8.16901960784314e-02 1.89224630951806e+01 1.49363951498172e-01
8.19803921568627e-02 1.87950460382445e+01 1.48621469682934e-01
8.22705882352941e-02 1.86684869619035e+01 1.47881752186365e-01
8.25607843137255e-02 1.85427800888253e+01 1.47144800988337e-01
8.28509803921569e-02 1.84179196805801e+01 1.46410617851085e-01
8.31411764705882e-02 1.82939000374380e+01 1.45679204295680e-01
8.34313725490196e-02 1.81707154979296e+01 1.44950561624956e-01
8.37215686274510e-02 1.80483604387678e+01 1.44224690944681e-01
8.40117647058824e-02 1.79268292745307e+01 1.43501593149944e-01
8.43019607843137e-02 1.78061164574636e+01 1.42781268911146e-01
8.45921568627451e-02 1.76862164770539e+01 1.42063718696028e-01
8.48823529411765e-02 1.75671238599523e+01 1.41348942789984e-01
8.51725490196078e-02 1.74488331696651e+01 1.40636941274262e-01
8.54627450980392e-02 1.73313390063058e+01 1.39927714046595e-01
8.57529411764706e-02 1.72146360064032e+01 1.39221260799174e-01
8.60431372549020e-02 1.70987188424929e+01 1.38517581039665e-01
8.63333333333333e-02 1.69835822230383e+01 1.37816674110541e-01
8.66235294117647e-02 1.68692208921341e+01 1.37118539168009e-01
8.69137254901961e-02 1.67556296292665e+01 1.36423175201712e-01
8.72039215686275e-02 1.66428032491261e+01 1.35730581013465e-01
8.74941176470588e-02 1.65307366012162e+01 1.35040755237281e-01
8.77843137254902e-02 1.64194245697735e+01 1.34353696357790e-01
8.80745098039216e-02 1.63088620734825e+01 1.33669402697815e-01
8.83647058823529e-02 1.61990440652928e+01 1.32987872405579e-01
8.86549019607843e-02 1.60899655320399e+01 1.32309103473958e-01
8.89450980392157e-02 1.59816214943658e+01 1.31633093758166e-01
8.92352941176471e-02 1.58740070064417e+01 1.30959840956074e-01
8.95254901960784e-02 1.57671171557425e+01 1.30289342626250e-01
8.98156862745098e-02 1.56609470628691e+01 1.29621596168047e-01
9.01058823529412e-02 1.55554918811839e+01 1.28956598839958e-01
9.03960784313726e-02 1.54507467967326e+01 1.28294347776500e-01
9.06862745098039e-02 1.53467070279760e+01 1.27634839976541e-01
9.09764705882353e-02 1.52433678256175e+01 1.26978072291225e-01
9.12666666666667e-02 1.51407244722497e+01 1.26324041441658e-01
9.15568627450980e-02 1.50387722822759e+01 1.25672744035122e-01
