Energy (eV)          EEDF (eV^-(3/2))     First Anisotropy
1.13125000000000e-02 3.70122225942254e-01 2.43879633647461e-04
3.39375000000000e-02 3.66146316844635e-01 4.01902700608545e-04
5.65625000000000e-02 3.62213117565557e-01 5.28410610283599e-04
7.91875000000000e-02 3.58322169309762e-01 6.23223321137175e-04
1.01812500000000e-01 3.54473018210366e-01 7.01232768454971e-04
1.24437500000000e-01 3.50665215275982e-01 7.68102121932413e-04
1.47062500000000e-01 3.46898316338350e-01 8.26778252089444e-04
1.69687500000000e-01 3.43171882000533e-01 8.79050251644887e-04
1.92312500000000e-01 3.39485477585664e-01 9.26110953031232e-04
2.14937500000000e-01 3.35838673086238e-01 9.68807828150969e-04
2.37562500000000e-01 3.32231043113955e-01 1.00777145640296e-03
2.60187500000000e-01 3.28662166850104e-01 1.04348785928025e-03
2.82812500000000e-01 3.25131627996469e-01 1.07634220233132e-03
3.05437500000000e-01 3.21639014726774e-01 1.10664667927225e-03
3.28062500000000e-01 3.18183919638644e-01 1.13465909697798e-03
3.50687500000000e-01 3.14765939706080e-01 1.16059571343522e-03
3.73312500000000e-01 3.11384676232452e-01 1.18464037476360e-03
3.95937500000000e-01 3.08039734803988e-01 1.20695118528693e-03
4.18562500000000e-01 3.04730725243768e-01 1.22766548416431e-03
4.41187500000000e-01 3.01457261566213e-01 1.24690362971617e-03
4.63812500000000e-01 2.98218961932060e-01 1.26477192551606e-03
4.86437500000000e-01 2.95015448603820e-01 1.28136491657628e-03
5.09062500000000e-01 2.91846347901718e-01 1.29676721515550e-03
5.31687500000000e-01 2.88711290160103e-01 1.31105496985011e-03
5.54312500000000e-01 2.85609909684331e-01 1.32429706038328e-03
5.76937500000000e-01 2.82541844708101e-01 1.33655607879934e-03
5.99562500000000e-01 2.79506737351265e-01 1.34788914242506e-03
6.22187500000000e-01 2.76504233578074e-01 1.35834857293693e-03
6.44812500000000e-01 2.73533983155889e-01 1.36798246784064e-03
6.67437500000000e-01 2.70595639614319e-01 1.37683518473591e-03
6.90062500000000e-01 2.67688860204814e-01 1.38494775430515e-03
7.12687500000000e-01 2.64813305860677e-01 1.39235823461120e-03
7.35312500000000e-01 2.61968641157520e-01 1.39910201672721e-03
7.57937500000000e-01 2.59154534274133e-01 1.40521208974658e-03
7.80562500000000e-01 2.56370656953782e-01 1.41071927168265e-03
8.03187500000000e-01 2.53616684465914e-01 1.41565241156055e-03
8.25812500000000e-01 2.50892295568283e-01 1.42003856704857e-03
8.48437500000000e-01 2.48197172469474e-01 1.42390316121645e-03
8.71062500000000e-01 2.45531000791836e-01 1.42727012139618e-03
8.93687500000000e-01 2.42893469534812e-01 1.43016200262825e-03
9.16312500000000e-01 2.40284271038659e-01 1.43260009777595e-03
9.38937500000000e-01 2.37703100948561e-01 1.43460453606199e-03
9.61562500000000e-01 2.35149658179129e-01 1.43619437151301e-03
9.84187500000000e-01 2.32623644879278e-01 1.43738766257510e-03
1.00681250000000e+00 2.30124766397484e-01 1.43820154397877e-03
1.02943750000000e+00 2.27652731247416e-01 1.43865229177764e-03
1.05206250000000e+00 2.25207251073933e-01 1.43875538235637e-03
1.07468750000000e+00 2.22788040619447e-01 1.43852554609497e-03
1.09731250000000e+00 2.20394817690652e-01 1.43797681628424e-03
1.11993750000000e+00 2.18027303125605e-01 1.43712257381009e-03
1.14256250000000e+00 2.15685220761162e-01 1.43597558805783e-03
1.16518750000000e+00 2.13368297400767e-01 1.43454805443100e-03
1.18781250000000e+00 2.11076262782582e-01 1.43285162883100e-03
1.21043750000000e+00 2.08808849547962e-01 1.43089745940223e-03
1.23306250000000e+00 2.06565793210269e-01 1.42869621581116e-03
1.25568750000000e+00 2.04346832124023e-01 1.42625811629659e-03
1.27831250000000e+00 2.02151707454377e-01 1.42359295270207e-03
1.30093750000000e+00 1.99980163146928e-01 1.42071011367709e-03
1.32356250000000e+00 1.97831945897848e-01 1.41761860621369e-03
1.34618750000000e+00 1.95706805124338e-01 1.41432707566722e-03
1.36881250000000e+00 1.93604492935396e-01 1.41084382439399e-03
1.39143750000000e+00 1.91524764102903e-01 1.40717682912495e-03
1.41406250000000e+00 1.89467376033020e-01 1.40333375718247e-03
1.43668750000000e+00 1.87432088737885e-01 1.39932198163627e-03
1.45931250000000e+00 1.85418664807622e-01 1.39514859548519e-03
1.48193750000000e+00 1.83426869382651e-01 1.39082042494320e-03
1.50456250000000e+00 1.81456470126285e-01 1.38634404190062e-03
1.52718750000000e+00 1.79507237197637e-01 1.38172577562418e-03
1.54981250000000e+00 1.77578943224803e-01 1.37697172375442e-03
1.57243750000000e+00 1.75671363278342e-01 1.37208776265359e-03
1.59506250000000e+00 1.73784274845043e-01 1.36707955715181e-03
1.61768750000000e+00 1.71917457801961e-01 1.36195256973544e-03
1.64031250000000e+00 1.70070694390747e-01 1.35671206921782e-03
1.66293750000000e+00 1.68243769192247e-01 1.35136313892907e-03
1.68556250000000e+00 1.66436469101370e-01 1.34591068445823e-03
1.70818750000000e+00 1.64648583302233e-01 1.34035944097874e-03
1.73081250000000e+00 1.62879903243568e-01 1.33471398018522e-03
1.75343750000000e+00 1.61130222614399e-01 1.32897871686777e-03
1.77606250000000e+00 1.59399337319970e-01 1.32315791514726e-03
1.79868750000000e+00 1.57687045457946e-01 1.31725569439383e-03
1.82131250000000e+00 1.55993147294855e-01 1.31127603484882e-03
1.84393750000000e+00 1.54317445242792e-01 1.30522278296884e-03
1.86656250000000e+00 1.52659743836373e-01 1.29909965650889e-03
1.88918750000000e+00 1.51019849709932e-01 1.29291024936113e-03
1.91181250000000e+00 1.49397571574965e-01 1.28665803616388e-03
1.93443750000000e+00 1.47792720197820e-01 1.28034637669421e-03
1.95706250000000e+00 1.46205108377620e-01 1.27397852005738e-03
1.97968750000000e+00 1.44634550924431e-01 1.26755760868458e-03
2.00231250000000e+00 1.43080864637654e-01 1.26108668215036e-03
2.02493750000000e+00 1.41543868284660e-01 1.25456868081953e-03
2.04756250000000e+00 1.40023382579649e-01 1.24800644933338e-03
2.07018750000000e+00 1.38519230162736e-01 1.24140273994411e-03
2.09281250000000e+00 1.37031235579262e-01 1.23476021570566e-03
2.11543750000000e+00 1.35559225259329e-01 1.22808145352854e-03
2.13806250000000e+00 1.34103027497553e-01 1.22136894710643e-03
2.16068750000000e+00 1.32662472433037e-01 1.21462510972075e-03
2.18331250000000e+00 1.31237392029552e-01 1.20785227692979e-03
2.20593750000000e+00 1.29827620055944e-01 1.20105270914845e-03
2.22856250000000e+00 1.28432992066735e-01 1.19422859412390e-03
2.25118750000000e+00 1.27053345382948e-01 1.18738204931272e-03
2.27381250000000e+00 1.25688519073128e-01 1.18051512416397e-03
2.29643750000000e+00 1.24338353934570e-01 1.17362980231334e-03
2.31906250000000e+00 1.23002692474746e-01 1.16672800369239e-03
2.34168750000000e+00 1.21681378892942e-01 1.15981158655699e-03
2.36431250000000e+00 1.20374259062073e-01 1.15288234943877e-03
2.38693750000000e+00 1.19081180510714e-01 1.14594203302342e-03
2.40956250000000e+00 1.17801992405312e-01 1.13899232195907e-03
2.43218750000000e+00 1.16536545532588e-01 1.13203484659798e-03
2.45481250000000e+00 1.15284692282136e-01 1.12507118467461e-03
2.47743750000000e+00 1.14046286629204e-01 1.11810286292299e-03
2.50006250000000e+00 1.12821184117659e-01 1.11113135863601e-03
2.52268750000000e+00 1.11609241843139e-01 1.10415810116924e-03
2.54531250000000e+00 1.10410318436380e-01 1.09718447339183e-03
2.56793750000000e+00 1.09224274046731e-01 1.09021181308659e-03
2.59056250000000e+00 1.08050970325836e-01 1.08324141430137e-03
2.61318750000000e+00 1.06890270411499e-01 1.07627452865429e-03
2.63581250000000e+00 1.05742038911717e-01 1.06931236659422e-03
2.65843750000000e+00 1.04606141888889e-01 1.06235609861855e-03
2.68106250000000e+00 1.03482446844194e-01 1.05540685645013e-03
2.70368750000000e+00 1.02370822702132e-01 1.04846573417502e-03
2.72631250000000e+00 1.01271139795234e-01 1.04153378934261e-03
2.74893750000000e+00 1.00183269848942e-01 1.03461204402945e-03
2.77156250000000e+00 9.91070859666399e-02 1.02770148586848e-03
2.79418750000000e+00 9.80424626148566e-02 1.02080306904506e-03
2.81681250000000e+00 9.69892756086192e-02 1.01391771526088e-03
2.83943750000000e+00 9.59474020969690e-02 1.00704631466705e-03
2.86206250000000e+00 9.49167205486309e-02 1.00018972676764e-03
2.88468750000000e+00 9.38971107378372e-02 9.93348781294870e-04
2.90731250000000e+00 9.28884537303036e-02 9.86524279056794e-04
2.92993750000000e+00 9.18906318693560e-02 9.79716992758653e-04
2.95256250000000e+00 9.09035287622062e-02 9.72927667798901e-04
2.97518750000000e+00 8.99270292663747e-02 9.66157023040719e-04
2.99781250000000e+00 8.89610194762603e-02 9.59405751560018e-04
3.02043750000000e+00 8.80053867098529e-02 9.52674521370859e-04
3.04306250000000e+00 8.70600194955897e-02 9.45963976128841e-04
3.06568750000000e+00 8.61248075593522e-02 9.39274735813420e-04
3.08831250000000e+00 8.51996418116035e-02 9.32607397389951e-04
3.11093750000000e+00 8.42844143346628e-02 9.25962535452194e-04
3.13356250000000e+00 8.33790183701173e-02 9.19340702845666e-04
3.15618750000000e+00 8.24833483063696e-02 9.12742431272749e-04
3.17881250000000e+00 8.15972996663179e-02 9.06168231880346e-04
3.20143750000000e+00 8.07207690951692e-02 8.99618595830317e-04
3.22406250000000e+00 7.98536543483837e-02 8.93093994853409e-04
3.24668750000000e+00 7.89958542797474e-02 8.86594881787377e-04
3.26931250000000e+00 7.81472688295749e-02 8.80121691099703e-04
3.29193750000000e+00 7.73077990130367e-02 8.73674839395374e-04
3.31456250000000e+00 7.64773469086134e-02 8.67254725910252e-04
3.33718750000000e+00 7.56558156466737e-02 8.60861732990743e-04
3.35981250000000e+00 7.48431093981742e-02 8.54496226559773e-04
3.38243750000000e+00 7.40391333634819e-02 8.48158556569790e-04
3.40506250000000e+00 7.32437937613156e-02 8.41849057443218e-04
3.42768750000000e+00 7.24569978178071e-02 8.35568048500704e-04
3.45031250000000e+00 7.16786537556789e-02 8.29315834377552e-04
3.47293750000000e+00 7.09086707835393e-02 8.23092705428532e-04
3.49556250000000e+00 7.01469590852910e-02 8.16898938121881e-04
3.51818750000000e+00 6.93934298096554e-02 8.10734795422463e-04
3.54081250000000e+00 6.86479950598075e-02 8.04600527164374e-04
3.56343750000000e+00 6.79105678831232e-02 7.98496370413652e-04
3.58606250000000e+00 6.71810622610370e-02 7.92422549821072e-04
3.60868750000000e+00 6.64593930990077e-02 7.86379277965509e-04
3.63131250000000e+00 6.57454762165925e-02 7.80366755688171e-04
3.65393750000000e+00 6.50392283376279e-02 7.74385172417725e-04
3.67656250000000e+00 6.43405670805153e-02 7.68434706486942e-04
3.69918750000000e+00 6.36494109486121e-02 7.62515525440916e-04
3.72181250000000e+00 6.29656793207246e-02 7.56627786337056e-04
3.74443750000000e+00 6.22892924417045e-02 7.50771636037225e-04
3.76706250000000e+00 6.16201714131452e-02 7.44947211492109e-04
3.78968750000000e+00 6.09582381841789e-02 7.39154640018323e-04
3.81231250000000e+00 6.03034155423720e-02 7.33394039568081e-04
3.83493750000000e+00 5.96556271047186e-02 7.27665518991901e-04
3.85756250000000e+00 5.90147973087305e-02 7.21969178294547e-04
3.88018750000000e+00 5.83808514036234e-02 7.16305108884189e-04
3.90281250000000e+00 5.77537154415972e-02 7.10673393815210e-04
3.92543750000000e+00 5.71333162692103e-02 7.05074108024751e-04
3.94806250000000e+00 5.65195815188464e-02 6.99507318563171e-04
3.97068750000000e+00 5.59124396002731e-02 6.93973084818518e-04
3.99331250000000e+00 5.53118196922913e-02 6.88471458735260e-04
4.01593750000000e+00 5.47176517344737e-02 6.83002485027461e-04
4.03856250000000e+00 5.41298664189930e-02 6.77566201386525e-04
4.06118750000000e+00 5.35483951825370e-02 6.72162638683561e-04
4.08381250000000e+00 5.29731701983109e-02 6.66791821166669e-04
4.10643750000000e+00 5.24041243681257e-02 6.61453766653199e-04
4.12906250000000e+00 5.18411913145714e-02 6.56148486717137e-04
4.15168750000000e+00 5.12843053732741e-02 6.50875986871751e-04
4.17431250000000e+00 5.07334015852366e-02 6.45636266747628e-04
4.19693750000000e+00 5.01884156892611e-02 6.40429320266159e-04
4.21956250000000e+00 4.96492841144534e-02 6.35255135808707e-04
4.24218750000000e+00 4.91159439728073e-02 6.30113696381558e-04
4.26481250000000e+00 4.85883330518694e-02 6.25004979776667e-04
4.28743750000000e+00 4.80663898074816e-02 6.19928958728361e-04
4.31006250000000e+00 4.75500533566027e-02 6.14885601066141e-04
4.33268750000000e+00 4.70392634702062e-02 6.09874869863663e-04
4.35531250000000e+00 4.65339605662552e-02 6.04896723583971e-04
4.37793750000000e+00 4.60340857027517e-02 5.99951116221134e-04
4.40056250000000e+00 4.55395805708619e-02 5.95037997438269e-04
4.42318750000000e+00 4.50503874881142e-02 5.90157312702203e-04
4.44581250000000e+00 4.45664493916710e-02 5.85309003414802e-04
4.46843750000000e+00 4.40877098316721e-02 5.80493007040915e-04
4.49106250000000e+00 4.36141129646505e-02 5.75709257233185e-04
4.51368750000000e+00 4.31456035470180e-02 5.70957683953775e-04
4.53631250000000e+00 4.26821269286216e-02 5.66238213593052e-04
4.55893750000000e+00 4.22236290463684e-02 5.61550769085330e-04
4.58156250000000e+00 4.17700564179196e-02 5.56895270021732e-04
4.60418750000000e+00 4.13213561354515e-02 5.52271632760208e-04
4.62681250000000e+00 4.08774758594845e-02 5.47679770532832e-04
4.64943750000000e+00 4.04383638127776e-02 5.43119593550527e-04
4.67206250000000e+00 4.00039687742888e-02 5.38591009105068e-04
4.69468750000000e+00 3.95742400732002e-02 5.34093921668576e-04
4.71731250000000e+00 3.91491275830076e-02 5.29628232990624e-04
4.73993750000000e+00 3.87285817156733e-02 5.25193842192798e-04
4.76256250000000e+00 3.83125534158418e-02 5.20790645861009e-04
4.78518750000000e+00 3.79009941551177e-02 5.16418538135500e-04
4.80781250000000e+00 3.74938559264050e-02 5.12077410798558e-04
4.83043750000000e+00 3.70910912383071e-02 5.07767153360076e-04
4.85306250000000e+00 3.66926531095873e-02 5.03487653141016e-04
4.87568750000000e+00 3.62984950636883e-02 4.99238795354712e-04
4.89831250000000e+00 3.59085711233114e-02 4.95020463186218e-04
4.92093750000000e+00 3.55228358050525e-02 4.90832537869704e-04
4.94356250000000e+00 3.51412441140977e-02 4.86674898763813e-04
4.96618750000000e+00 3.47637515389736e-02 4.82547423425211e-04
4.98881250000000e+00 3.43903140463564e-02 4.78449987680285e-04
5.01143750000000e+00 3.40208880759345e-02 4.74382465695042e-04
5.03406250000000e+00 3.36554305353281e-02 4.70344730043245e-04
5.05668750000000e+00 3.32938987950619e-02 4.66336651772869e-04
5.07931250000000e+00 3.29362506835932e-02 4.62358100470828e-04
5.10193750000000e+00 3.25824444823924e-02 4.58408944326142e-04
5.12456250000000e+00 3.22324389210765e-02 4.54489050191507e-04
5.14718750000000e+00 3.18861931725954e-02 4.50598283643222e-04
5.16981250000000e+00 3.15436668484691e-02 4.46736509039716e-04
5.19243750000000e+00 3.12048199940771e-02 4.42903589578570e-04
5.21506250000000e+00 3.08696130839974e-02 4.39099387351990e-04
5.23768750000000e+00 3.05380070173959e-02 4.35323763401002e-04
5.26031250000000e+00 3.02099631134657e-02 4.31576577768216e-04
5.28293750000000e+00 2.98854431069151e-02 4.27857689549208e-04
5.30556250000000e+00 2.95644091435038e-02 4.24166956942677e-04
5.32818750000000e+00 2.92468237756277e-02 4.20504237299211e-04
5.35081250000000e+00 2.89326499579503e-02 4.16869387168885e-04
5.37343750000000e+00 2.86218510430819e-02 4.13262262347586e-04
5.39606250000000e+00 2.83143907773045e-02 4.09682717922167e-04
5.41868750000000e+00 2.80102332963431e-02 4.06130608314457e-04
5.44131250000000e+00 2.77093431211823e-02 4.02605787324051e-04
5.46393750000000e+00 2.74116851539274e-02 3.99108108170058e-04
5.48656250000000e+00 2.71172246737108e-02 3.95637423531776e-04
5.50918750000000e+00 2.68259273326418e-02 3.92193585588219e-04
5.53181250000000e+00 2.65377591517997e-02 3.88776446056662e-04
5.55443750000000e+00 2.62526865172707e-02 3.85385856230187e-04
5.57706250000000e+00 2.59706761762267e-02 3.82021667014201e-04
5.59968750000000e+00 2.56916952330465e-02 3.78683728962018e-04
5.62231250000000e+00 2.54157111454788e-02 3.75371892309482e-04
5.64493750000000e+00 2.51426917208459e-02 3.72086007008662e-04
5.66756250000000e+00 2.48726051122889e-02 3.68825922760635e-04
5.69018750000000e+00 2.46054198150525e-02 3.65591489047417e-04
5.71281250000000e+00 2.43411046628105e-02 3.62382555163042e-04
5.73543750000000e+00 2.40796288240299e-02 3.59198970243764e-04
5.75806250000000e+00 2.38209617983748e-02 3.56040583297414e-04
5.78068750000000e+00 2.35650734131486e-02 3.52907243232038e-04
5.80331250000000e+00 2.33119338197741e-02 3.49798798883707e-04
5.82593750000000e+00 2.30615134903124e-02 3.46715099043534e-04
5.84856250000000e+00 2.28137832140180e-02 3.43655992483966e-04
5.87118750000000e+00 2.25687140939317e-02 3.40621327984377e-04
5.89381250000000e+00 2.23262775435098e-02 3.37610954355888e-04
5.91643750000000e+00 2.20864452832896e-02 3.34624720465550e-04
5.93906250000000e+00 2.18491893375908e-02 3.31662475259807e-04
5.96168750000000e+00 2.16144820312519e-02 3.28724067787268e-04
5.98431250000000e+00 2.13822959864022e-02 3.25809347220882e-04
6.00693750000000e+00 2.11526041192685e-02 3.22918162879459e-04
6.02956250000000e+00 2.09253796370152e-02 3.20050364248575e-04
6.05218750000000e+00 2.07005960346198e-02 3.17205801000839e-04
6.07481250000000e+00 2.04782270917805e-02 3.14384323015615e-04
6.09743750000000e+00 2.02582468698580e-02 3.11585780398113e-04
6.12006250000000e+00 2.00406297088500e-02 3.08810023497955e-04
6.14268750000000e+00 1.98253502243976e-02 3.06056902927186e-04
6.16531250000000e+00 1.96123833048246e-02 3.03326269577703e-04
6.18793750000000e+00 1.94017041082082e-02 3.00617974638225e-04
6.21056250000000e+00 1.91932880594815e-02 2.97931869610669e-04
6.23318750000000e+00 1.89871108475665e-02 2.95267806326087e-04
6.25581250000000e+00 1.87831484225385e-02 2.92625636960104e-04
6.27843750000000e+00 1.85813769928208e-02 2.90005214047804e-04
6.30106250000000e+00 1.83817730224094e-02 2.87406390498244e-04
6.32368750000000e+00 1.81843132281277e-02 2.84829019608454e-04
6.34631250000000e+00 1.79889745769104e-02 2.82272955076998e-04
6.36893750000000e+00 1.77957342831169e-02 2.79738051017100e-04
6.39156250000000e+00 1.76045698058734e-02 2.77224161969345e-04
6.41418750000000e+00 1.74154588464438e-02 2.74731142913973e-04
6.43681250000000e+00 1.72283793456280e-02 2.72258849282727e-04
6.45943750000000e+00 1.70433094811896e-02 2.69807136970352e-04
6.48206250000000e+00 1.68602276653097e-02 2.67375862345665e-04
6.50468750000000e+00 1.66791125420691e-02 2.64964882262258e-04
6.52731250000000e+00 1.64999429849571e-02 2.62574054068854e-04
6.54993750000000e+00 1.63226980944072e-02 2.60203235619259e-04
6.57256250000000e+00 1.61473571953593e-02 2.57852285281996e-04
6.59518750000000e+00 1.59738998348478e-02 2.55521061949562e-04
6.61781250000000e+00 1.58023057796160e-02 2.53209425047369e-04
6.64043750000000e+00 1.56325550137559e-02 2.50917234542361e-04
6.66306250000000e+00 1.54646277363736e-02 2.48644350951285e-04
6.68568750000000e+00 1.52985043592790e-02 2.46390635348661e-04
6.70831250000000e+00 1.51341655047018e-02 2.44155949374453e-04
6.73093750000000e+00 1.49715920030303e-02 2.41940155241421e-04
6.75356250000000e+00 1.48107648905758e-02 2.39743115742192e-04
6.77618750000000e+00 1.46516654073604e-02 2.37564694256061e-04
6.79881250000000e+00 1.44942749949288e-02 2.35404754755481e-04
6.82143750000000e+00 1.43385752941833e-02 2.33263161812296e-04
6.84406250000000e+00 1.41845481432424e-02 2.31139780603736e-04
6.86668750000000e+00 1.40321755753226e-02 2.29034476918082e-04
6.88931250000000e+00 1.38814398166420e-02 2.26947117160151e-04
6.91193750000000e+00 1.37323232843474e-02 2.24877568356507e-04
6.93456250000000e+00 1.35848085844633e-02 2.22825698160411e-04
6.95718750000000e+00 1.34388785098631e-02 2.20791374856578e-04
6.97981250000000e+00 1.32945160382615e-02 2.18774467365659e-04
7.00243750000000e+00 1.31517043302293e-02 2.16774845248523e-04
7.02506250000000e+00 1.30104267272290e-02 2.14792378710332e-04
7.04768750000000e+00 1.28706667496716e-02 2.12826938604371e-04
7.07031250000000e+00 1.27324080949945e-02 2.10878396435693e-04
7.09293750000000e+00 1.25956346357594e-02 2.08946624364567e-04
7.11556250000000e+00 1.24603304177717e-02 2.07031495209713e-04
7.13818750000000e+00 1.23264796582189e-02 2.05132882451341e-04
