Energy (eV)          EEDF (eV^-(3/2))     First Anisotropy
2.00000000000000e-04 1.26166854615560e+02 4.90480134231382e-02
6.00000000000000e-04 1.24997326353004e+02 8.08887566891488e-02
1.00000000000000e-03 1.23838639260742e+02 1.06508607885467e-01
1.40000000000000e-03 1.22690692844436e+02 1.25806424137363e-01
1.80000000000000e-03 1.21553387541295e+02 1.41764427235579e-01
2.20000000000000e-03 1.20426624711446e+02 1.55514172303390e-01
2.60000000000000e-03 1.19310306629378e+02 1.67643220723739e-01
3.00000000000000e-03 1.18204336475463e+02 1.78507553274368e-01
3.40000000000000e-03 1.17108618327565e+02 1.88344029890999e-01
3.80000000000000e-03 1.16023057152714e+02 1.97320596863789e-01
4.20000000000000e-03 1.14947558798867e+02 2.05561973170545e-01
4.60000000000000e-03 1.13882029986744e+02 2.13164101553687e-01
5.00000000000000e-03 1.12826378301732e+02 2.20202872310687e-01
5.40000000000000e-03 1.11780512185877e+02 2.26739685055868e-01
5.80000000000000e-03 1.10744340929936e+02 2.32825152702051e-01
6.20000000000000e-03 1.09717774665515e+02 2.38501657995302e-01
6.60000000000000e-03 1.08700724357272e+02 2.43805171572796e-01
7.00000000000000e-03 1.07693101795195e+02 2.48766578067080e-01
7.40000000000000e-03 1.06694819586953e+02 2.53412664712249e-01
7.80000000000000e-03 1.05705791150315e+02 2.57766872470469e-01
8.20000000000000e-03 1.04725930705640e+02 2.61849876321737e-01
8.60000000000000e-03 1.03755153268439e+02 2.65680040243397e-01
9.00000000000000e-03 1.02793374642002e+02 2.69273778672401e-01
9.40000000000000e-03 1.01840511410099e+02 2.72645847091388e-01
9.80000000000000e-03 1.00896480929741e+02 2.75809578147463e-01
1.02000000000000e-02 9.99612013240157e+01 2.78777075384535e-01
1.06000000000000e-02 9.90345914749836e+01 2.81559373611994e-01
1.10000000000000e-02 9.81165710166446e+01 2.84166572736782e-01
1.14000000000000e-02 9.72070603279666e+01 2.86607950286064e-01
1.18000000000000e-02 9.63059805259803e+01 2.88892056666993e-01
1.22000000000000e-02 9.54132534589375e+01 2.91026796327579e-01
1.26000000000000e-02 9.45288016995327e+01 2.93019497315653e-01
1.30000000000000e-02 9.36525485381879e+01 2.94876971223888e-01
1.34000000000000e-02 9.27844179763996e+01 2.96605565115978e-01
1.38000000000000e-02 9.19243347201474e+01 2.98211206723555e-01
1.42000000000000e-02 9.10722241733632e+01 2.99699443964020e-01
1.46000000000000e-02 9.02280124314619e+01 3.01075479639524e-01
1.50000000000000e-02 8.93916262749312e+01 3.02344202026756e-01
1.54000000000000e-02 8.85629931629816e+01 3.03510211945867e-01
1.58000000000000e-02 8.77420412272543e+01 3.04577846799163e-01
1.62000000000000e-02 8.69286992655885e+01 3.05551201990850e-01
1.66000000000000e-02 8.61228967358455e+01 3.06434150074087e-01
1.70000000000000e-02 8.53245637497909e+01 3.07230357918527e-01
1.74000000000000e-02 8.45336310670328e+01 3.07943302147346e-01
1.78000000000000e-02 8.37500300890168e+01 3.08576283056235e-01
1.82000000000000e-02 8.29736928530758e+01 3.09132437196515e-01
1.86000000000000e-02 8.22045520265364e+01 3.09614748778968e-01
1.90000000000000e-02 8.14425409008782e+01 3.10026060033447e-01
1.94000000000000e-02 8.06875933859485e+01 3.10369080641350e-01
1.98000000000000e-02 7.99396440042302e+01 3.10646396342640e-01
2.02000000000000e-02 7.91986278851628e+01 3.10860476806038e-01
2.06000000000000e-02 7.84644807595160e+01 3.11013682839837e-01
2.10000000000000e-02 7.77371389538160e+01 3.11108273011234e-01
2.14000000000000e-02 7.70165393848222e+01 3.11146409733985e-01
2.18000000000000e-02 7.63026195540569e+01 3.11130164876892e-01
2.22000000000000e-02 7.55953175423838e+01 3.11061524939717e-01
2.26000000000000e-02 7.48945720046384e+01 3.10942395837647e-01
2.30000000000000e-02 7.42003221643069e+01 3.10774607330916e-01
2.34000000000000e-02 7.35125078082556e+01 3.10559917132193e-01
2.38000000000000e-02 7.28310692815078e+01 3.10300014720669e-01
2.42000000000000e-02 7.21559474820705e+01 3.09996524888842e-01
2.46000000000000e-02 7.14870838558081e+01 3.09651011045269e-01
2.50000000000000e-02 7.08244203913640e+01 3.09264978294071e-01
2.54000000000000e-02 7.01678996151290e+01 3.08839876309939e-01
2.58000000000000e-02 6.95174645862569e+01 3.08377102025591e-01
2.62000000000000e-02 6.88730588917258e+01 3.07878002146896e-01
2.66000000000000e-02 6.82346266414453e+01 3.07343875509354e-01
2.70000000000000e-02 6.76021124634089e+01 3.06775975288486e-01
2.74000000000000e-02 6.69754614988920e+01 3.06175511075430e-01
2.78000000000000e-02 6.63546193976934e+01 3.05543650827942e-01
2.82000000000000e-02 6.57395323134218e+01 3.04881522706202e-01
2.86000000000000e-02 6.51301468988256e+01 3.04190216801925e-01
2.90000000000000e-02 6.45264103011657e+01 3.03470786768542e-01
2.94000000000000e-02 6.39282701576321e+01 3.02724251359494e-01
2.98000000000000e-02 6.33356745908018e+01 3.01951595881122e-01
3.02000000000000e-02 6.27485722041398e+01 3.01153773566171e-01
3.06000000000000e-02 6.21669120775415e+01 3.00331706873322e-01
3.10000000000000e-02 6.15906437629158e+01 2.99486288717689e-01
3.14000000000000e-02 6.10197172798102e+01 2.98618383636914e-01
3.18000000000000e-02 6.04540831110756e+01 2.97728828897142e-01
3.22000000000000e-02 5.98936921985721e+01 2.96818435542712e-01
3.26000000000000e-02 5.93384959389133e+01 2.95887989393219e-01
3.30000000000000e-02 5.87884461792519e+01 2.94938251991207e-01
3.34000000000000e-02 5.82434952131025e+01 2.93969961503578e-01
3.38000000000000e-02 5.77035957762042e+01 2.92983833579611e-01
3.42000000000000e-02 5.71687010424216e+01 2.91980562168165e-01
3.46000000000000e-02 5.66387646196832e+01 2.90960820296552e-01
3.50000000000000e-02 5.61137405459580e+01 2.89925260813305e-01
3.54000000000000e-02 5.55935832852686e+01 2.88874517096962e-01
3.58000000000000e-02 5.50782477237427e+01 2.87809203732838e-01
3.62000000000000e-02 5.45676891656996e+01 2.86729917159612e-01
3.66000000000000e-02 5.40618633297739e+01 2.85637236287391e-01
3.70000000000000e-02 5.35607263450750e+01 2.84531723088864e-01
3.74000000000000e-02 5.30642347473821e+01 2.83413923165023e-01
3.78000000000000e-02 5.25723454753744e+01 2.82284366286804e-01
3.82000000000000e-02 5.20850158668966e+01 2.81143566913980e-01
3.86000000000000e-02 5.16022036552584e+01 2.79992024692479e-01
3.90000000000000e-02 5.11238669655687e+01 2.78830224931237e-01
3.94000000000000e-02 5.06499643111043e+01 2.77658639059731e-01
3.98000000000000e-02 5.01804545897108e+01 2.76477725067079e-01
4.02000000000000e-02 4.97152970802385e+01 2.75287927923665e-01
4.06000000000000e-02 4.92544514390102e+01 2.74089679986269e-01
4.10000000000000e-02 4.87978776963225e+01 2.72883401387341e-01
4.14000000000000e-02 4.83455362529788e+01 2.71669500409308e-01
4.18000000000000e-02 4.78973878768549e+01 2.70448373844666e-01
4.22000000000000e-02 4.74533936994966e+01 2.69220407342425e-01
4.26000000000000e-02 4.70135152127482e+01 2.67985975741649e-01
4.30000000000000e-02 4.65777142654132e+01 2.66745443392666e-01
4.34000000000000e-02 4.61459530599446e+01 2.65499164466496e-01
4.38000000000000e-02 4.57181941491676e+01 2.64247483253093e-01
4.42000000000000e-02 4.52944004330310e+01 2.62990734448885e-01
4.46000000000000e-02 4.48745351553898e+01 2.61729243434005e-01
4.50000000000000e-02 4.44585619008174e+01 2.60463326539836e-01
4.54000000000000e-02 4.40464445914468e+01 2.59193291307226e-01
4.58000000000000e-02 4.36381474838422e+01 2.57919436735690e-01
4.62000000000000e-02 4.32336351658982e+01 2.56642053524121e-01
4.66000000000000e-02 4.28328725537690e+01 2.55361424303321e-01
4.70000000000000e-02 4.24358248888254e+01 2.54077823860668e-01
4.74000000000000e-02 4.20424577346399e+01 2.52791519357315e-01
4.78000000000000e-02 4.16527369740004e+01 2.51502770538178e-01
4.82000000000000e-02 4.12666288059508e+01 2.50211829935035e-01
4.86000000000000e-02 4.08840997428596e+01 2.48918943063005e-01
4.90000000000000e-02 4.05051166075154e+01 2.47624348610681e-01
4.94000000000000e-02 4.01296465302495e+01 2.46328278624153e-01
4.98000000000000e-02 3.97576569460849e+01 2.45030958685251e-01
5.02000000000000e-02 3.93891155919122e+01 2.43732608084093e-01
5.06000000000000e-02 3.90239905036909e+01 2.42433439986249e-01
5.10000000000000e-02 3.86622500136777e+01 2.41133661594741e-01
5.14000000000000e-02 3.83038627476795e+01 2.39833474307033e-01
5.18000000000000e-02 3.79487976223322e+01 2.38533073867214e-01
5.22000000000000e-02 3.75970238424053e+01 2.37232650513546e-01
5.26000000000000e-02 3.72485108981306e+01 2.35932389121644e-01
5.30000000000000e-02 3.69032285625562e+01 2.34632469343269e-01
5.34000000000000e-02 3.65611468889245e+01 2.33333065741015e-01
5.38000000000000e-02 3.62222362080757e+01 2.32034347919094e-01
5.42000000000000e-02 3.58864671258738e+01 2.30736480650207e-01
5.46000000000000e-02 3.55538105206574e+01 2.29439623998751e-01
5.50000000000000e-02 3.52242375407142e+01 2.28143933440474e-01
5.54000000000000e-02 3.48977196017783e+01 2.26849559978675e-01
5.58000000000000e-02 3.45742283845515e+01 2.25556650257088e-01
5.62000000000000e-02 3.42537358322465e+01 2.24265346669561e-01
5.66000000000000e-02 3.39362141481541e+01 2.22975787466657e-01
5.70000000000000e-02 3.36216357932320e+01 2.21688106859262e-01
5.74000000000000e-02 3.33099734837166e+01 2.20402435119314e-01
5.78000000000000e-02 3.30012001887563e+01 2.19118898677728e-01
5.82000000000000e-02 3.26952891280673e+01 2.17837620219628e-01
5.86000000000000e-02 3.23922137696108e+01 2.16558718777002e-01
5.90000000000000e-02 3.20919478272920e+01 2.15282309818785e-01
5.94000000000000e-02 3.17944652586802e+01 2.14008505338575e-01
5.98000000000000e-02 3.14997402627500e+01 2.12737413939940e-01
6.02000000000000e-02 3.12077472776436e+01 2.11469140919428e-01
6.06000000000000e-02 3.09184609784541e+01 2.10203788347431e-01
6.10000000000000e-02 3.06318562750283e+01 2.08941455146870e-01
6.14000000000000e-02 3.03479083097916e+01 2.07682237169805e-01
6.18000000000000e-02 3.00665924555911e+01 2.06426227272048e-01
6.22000000000000e-02 2.97878843135603e+01 2.05173515385831e-01
6.26000000000000e-02 2.95117597110027e+01 2.03924188590594e-01
6.30000000000000e-02 2.92381946992953e+01 2.02678331181930e-01
6.34000000000000e-02 2.89671655518117e+01 2.01436024738806e-01
6.38000000000000e-02 2.86986487618639e+01 2.00197348189013e-01
6.42000000000000e-02 2.84326210406638e+01 1.98962377872969e-01
6.46000000000000e-02 2.81690593153032e+01 1.97731187605912e-01
6.50000000000000e-02 2.79079407267529e+01 1.96503848738522e-01
6.54000000000000e-02 2.76492426278796e+01 1.95280430216045e-01
6.58000000000000e-02 2.73929425814823e+01 1.94060998635895e-01
6.62000000000000e-02 2.71390183583461e+01 1.92845618303855e-01
6.66000000000000e-02 2.68874479353137e+01 1.91634351288880e-01
6.70000000000000e-02 2.66382094933762e+01 1.90427257476559e-01
6.74000000000000e-02 2.63912814157800e+01 1.89224394621231e-01
6.78000000000000e-02 2.61466422861524e+01 1.88025818396855e-01
6.82000000000000e-02 2.59042708866437e+01 1.86831582446646e-01
6.86000000000000e-02 2.56641461960875e+01 1.85641738431486e-01
6.90000000000000e-02 2.54262473881769e+01 1.84456336077160e-01
6.94000000000000e-02 2.51905538296587e+01 1.83275423220466e-01
6.98000000000000e-02 2.49570450785436e+01 1.82099045854235e-01
7.02000000000000e-02 2.47257008823333e+01 1.80927248171249e-01
7.06000000000000e-02 2.44965011762640e+01 1.79760072607110e-01
7.10000000000000e-02 2.42694260815663e+01 1.78597559882118e-01
7.14000000000000e-02 2.40444559037405e+01 1.77439749042133e-01
7.18000000000000e-02 2.38215711308494e+01 1.76286677498470e-01
7.22000000000000e-02 2.36007524318252e+01 1.75138381066887e-01
7.26000000000000e-02 2.33819806547934e+01 1.73994894005633e-01
7.30000000000000e-02 2.31652368254112e+01 1.72856249052604e-01
7.34000000000000e-02 2.29505021452225e+01 1.71722477461655e-01
7.38000000000000e-02 2.27377579900271e+01 1.70593609038046e-01
7.42000000000000e-02 2.25269859082653e+01 1.69469672173084e-01
7.46000000000000e-02 2.23181676194180e+01 1.68350693877961e-01
7.50000000000000e-02 2.21112850124206e+01 1.67236699816806e-01
7.54000000000000e-02 2.19063201440928e+01 1.66127714338998e-01
7.58000000000000e-02 2.17032552375820e+01 1.65023760510707e-01
7.62000000000000e-02 2.15020726808217e+01 1.63924860145737e-01
7.66000000000000e-02 2.13027550250037e+01 1.62831033835661e-01
7.70000000000000e-02 2.11052849830650e+01 1.61742300979279e-01
7.74000000000000e-02 2.09096454281887e+01 1.60658679811407e-01
7.78000000000000e-02 2.07158193923177e+01 1.59580187430990e-01
7.82000000000000e-02 2.05237900646842e+01 1.58506839828616e-01
7.86000000000000e-02 2.03335407903506e+01 1.57438651913394e-01
7.90000000000000e-02 2.01450550687659e+01 1.56375637539226e-01
7.94000000000000e-02 1.99583165523338e+01 1.55317809530505e-01
7.98000000000000e-02 1.97733090449955e+01 1.54265179707213e-01
8.02000000000000e-02 1.95900165008247e+01 1.53217758909478e-01
8.06000000000000e-02 1.94084230226358e+01 1.52175557021588e-01
8.10000000000000e-02 1.92285128606054e+01 1.51138582995467e-01
8.14000000000000e-02 1.90502704109061e+01 1.50106844873618e-01
8.18000000000000e-02 1.88736802143532e+01 1.49080349811569e-01
8.22000000000000e-02 1.86987269550639e+01 1.48059104099822e-01
8.26000000000000e-02 1.85253954591292e+01 1.47043113185309e-01
8.30000000000000e-02 1.83536706932972e+01 1.46032381692400e-01
8.34000000000000e-02 1.81835377636701e+01 1.45026913443427e-01
8.38000000000000e-02 1.80149819144116e+01 1.44026711478755e-01
8.42000000000000e-02 1.78479885264678e+01 1.43031778076428e-01
8.46000000000000e-02 1.76825431162988e+01 1.42042114771374e-01
8.50000000000000e-02 1.75186313346227e+01 1.41057722374201e-01
8.54000000000000e-02 1.73562389651712e+01 1.40078600989572e-01
8.58000000000000e-02 1.71953519234564e+01 1.39104750034176e-01
8.62000000000000e-02 1.70359562555492e+01 1.38136168254330e-01
8.66000000000000e-02 1.68780381368692e+01 1.37172853743167e-01
8.70000000000000e-02 1.67215838709859e+01 1.36214803957475e-01
8.74000000000000e-02 1.65665798884302e+01 1.35262015734175e-01
8.78000000000000e-02 1.64130127455180e+01 1.34314485306408e-01
8.82000000000000e-02 1.62608691231840e+01 1.33372208319311e-01
8.86000000000000e-02 1.61101358258267e+01 1.32435179845429e-01
8.90000000000000e-02 1.59607997801636e+01 1.31503394399796e-01
8.94000000000000e-02 1.58128480340977e+01 1.30576845954702e-01
8.98000000000000e-02 1.56662677555939e+01 1.29655527954141e-01
9.02000000000000e-02 1.55210462315662e+01 1.28739433327921e-01
9.06000000000000e-02 1.53771708667751e+01 1.27828554505513e-01
9.10000000000000e-02 1.52346291827349e+01 1.26922883429565e-01
9.14000000000000e-02 1.50934088166319e+01 1.26022411569138e-01
9.18000000000000e-02 1.49534975202518e+01 1.25127129932672e-01
9.22000000000000e-02 1.48148831589174e+01 1.24237029080636e-01
9.26000000000000e-02 1.46775537104365e+01 1.23352099137944e-01
9.30000000000000e-02 1.45414972640588e+01 1.22472329806088e-01
9.34000000000000e-02 1.44067020194431e+01 1.21597710375019e-01
9.38000000000000e-02 1.42731562856337e+01 1.20728229734754e-01
9.42000000000000e-02 1.41408484800465e+01 1.19863876386757e-01
9.46000000000000e-02 1.40097671274644e+01 1.19004638455049e-01
9.50000000000000e-02 1.38799008590421e+01 1.18150503697111e-01
9.54000000000000e-02 1.37512384113202e+01 1.17301459514534e-01
9.58000000000000e-02 1.36237686252477e+01 1.16457492963432e-01
9.62000000000000e-02 1.34974804452150e+01 1.15618590764658e-01
9.66000000000000e-02 1.33723629180945e+01 1.14784739313776e-01
9.70000000000000e-02 1.32484051922908e+01 1.13955924690836e-01
9.74000000000000e-02 1.31255965167992e+01 1.13132132669929e-01
9.78000000000000e-02 1.30039262402740e+01 1.12313348728542e-01
9.82000000000000e-02 1.28833838101039e+01 1.11499558056703e-01
9.86000000000000e-02 1.27639587714971e+01 1.10690745565939e-01
9.90000000000000e-02 1.26456407665746e+01 1.09886895898052e-01
9.94000000000000e-02 1.25284195334719e+01 1.09087993433672e-01
9.98000000000000e-02 1.24122849054487e+01 1.08294022300658e-01
1.00200000000000e-01 1.22972268100072e+01 1.07504966382312e-01
1.00600000000000e-01 1.21832352680189e+01 1.06720809325402e-01
1.01000000000000e-01 1.20703003928584e+01 1.05941534548026e-01
1.01400000000000e-01 1.19584123895465e+01 1.05167125247299e-01
1.01800000000000e-01 1.18475615539006e+01 1.04397564406880e-01
1.02200000000000e-01 1.17377382716926e+01 1.03632834804333e-01
1.02600000000000e-01 1.16289330178155e+01 1.02872919018327e-01
1.03000000000000e-01 1.15211363554574e+01 1.02117799435678e-01
1.03400000000000e-01 1.14143389352823e+01 1.01367458258248e-01
1.03800000000000e-01 1.13085314946200e+01 1.00621877509686e-01
1.04200000000000e-01 1.12037048566623e+01 9.98810390420336e-02
1.04600000000000e-01 1.10998499296674e+01 9.91449245421683e-02
1.05000000000000e-01 1.09969577061709e+01 9.84135155381101e-02
1.05400000000000e-01 1.08950192622050e+01 9.76867934052146e-02
1.05800000000000e-01 1.07940257565244e+01 9.69647393722110e-02
1.06200000000000e-01 1.06939684298395e+01 9.62473345271020e-02
1.06600000000000e-01 1.05948386040563e+01 9.55345598229481e-02
1.07000000000000e-01 1.04966276815244e+01 9.48263960835178e-02
1.07400000000000e-01 1.03993271442910e+01 9.41228240088199e-02
1.07800000000000e-01 1.03029285533620e+01 9.34238241805052e-02
1.08200000000000e-01 1.02074235479702e+01 9.27293770671603e-02
1.08600000000000e-01 1.01128038448502e+01 9.20394630294762e-02
1.09000000000000e-01 1.00190612375201e+01 9.13540623253022e-02
1.09400000000000e-01 9.92618759556924e+00 9.06731551145952e-02
1.09800000000000e-01 9.83417486395368e+00 8.99967214642547e-02
1.10200000000000e-01 9.74301506229717e+00 8.93247413528431e-02
1.10600000000000e-01 9.65270028419913e+00 8.86571946752145e-02
1.11000000000000e-01 9.56322269654888e+00 8.79940612470355e-02
1.11400000000000e-01 9.47457453884631e+00 8.73353208091918e-02
1.11800000000000e-01 9.38674812252878e+00 8.66809530321122e-02
1.12200000000000e-01 9.29973583030427e+00 8.60309375199921e-02
1.12600000000000e-01 9.21353011549073e+00 8.53852538149202e-02
1.13000000000000e-01 9.12812350136157e+00 8.47438814009047e-02
1.13400000000000e-01 9.04350858049717e+00 8.41067997078207e-02
1.13800000000000e-01 8.95967801414240e+00 8.34739881152547e-02
1.14200000000000e-01 8.87662453157020e+00 8.28454259562731e-02
1.14600000000000e-01 8.79434092945089e+00 8.22210925211054e-02
1.15000000000000e-01 8.71282007122750e+00 8.16009670607236e-02
1.15400000000000e-01 8.63205488649672e+00 8.09850287903598e-02
1.15800000000000e-01 8.55203837039577e+00 8.03732568929405e-02
1.16200000000000e-01 8.47276358299477e+00 7.97656305224283e-02
1.16600000000000e-01 8.39422364869490e+00 7.91621288071040e-02
1.17000000000000e-01 8.31641175563204e+00 7.85627308527541e-02
1.17400000000000e-01 8.23932115508596e+00 7.79674157457904e-02
1.17800000000000e-01 8.16294516089502e+00 7.73761625563076e-02
1.18200000000000e-01 8.08727714887626e+00 7.67889503410518e-02
1.18600000000000e-01 8.01231055625087e+00 7.62057581463343e-02
1.19000000000000e-01 7.93803888107501e+00 7.56265650108622e-02
1.19400000000000e-01 7.86445568167584e+00 7.50513499685020e-02
1.19800000000000e-01 7.79155457609291e+00 7.44800920509936e-02
1.20200000000000e-01 7.71932924152458e+00 7.39127702905905e-02
1.20600000000000e-01 7.64777341377963e+00 7.33493637226247e-02
1.21000000000000e-01 7.57688088673402e+00 7.27898513880208e-02
1.21400000000000e-01 7.50664551179256e+00 7.22342123357495e-02
1.21800000000000e-01 7.43706119735566e+00 7.16824256252215e-02
1.22200000000000e-01 7.36812190829103e+00 7.11344703286144e-02
1.22600000000000e-01 7.29982166541017e+00 7.05903255331495e-02
1.23000000000000e-01 7.23215454494988e+00 7.00499703433110e-02
1.23400000000000e-01 7.16511467805841e+00 6.95133838830042e-02
1.23800000000000e-01 7.09869625028648e+00 6.89805452976728e-02
1.24200000000000e-01 7.03289350108299e+00 6.84514337563508e-02
1.24600000000000e-01 6.96770072329538e+00 6.79260284536647e-02
1.25000000000000e-01 6.90311226267467e+00 6.74043086117868e-02
1.25400000000000e-01 6.83912251738503e+00 6.68862534823410e-02
1.25800000000000e-01 6.77572593751795e+00 6.63718423482522e-02
1.26200000000000e-01 6.71291702461086e+00 6.58610545255494e-02
