Energy (eV)          EEDF (eV^-(3/2))     First Anisotropy
4.40384615384615e-04 2.32584425669697e+01 1.08694434028016e-02
1.32115384615385e-03 2.31046066772099e+01 1.79495256857499e-02
2.20192307692308e-03 2.29517882882328e+01 2.36980181090393e-02
3.08269230769231e-03 2.27999806699812e+01 2.80667831364679e-02
3.96346153846154e-03 2.26491771370197e+01 3.17117048082271e-02
4.84423076923077e-03 2.24993710481315e+01 3.48806683414113e-02
5.72500000000000e-03 2.23505558060260e+01 3.77019073962797e-02
6.60576923076923e-03 2.22027248568550e+01 4.02528306309671e-02
7.48653846153846e-03 2.20558716905337e+01 4.25847585330548e-02
8.36730769230769e-03 2.19099898398081e+01 4.47339505014291e-02
9.24807692307692e-03 2.17650728802020e+01 4.67272381102248e-02
1.01288461538462e-02 2.16211144297334e+01 4.85851898911539e-02
1.10096153846154e-02 2.14781081482852e+01 5.03240190316142e-02
1.18903846153846e-02 2.13360477387187e+01 5.19567980600555e-02
1.27711538461538e-02 2.11949269447641e+01 5.34942666929812e-02
1.36519230769231e-02 2.10547395507382e+01 5.49453882689185e-02
1.45326923076923e-02 2.09154793838453e+01 5.63177453056773e-02
1.54134615384615e-02 2.07771403111710e+01 5.76178276460292e-02
1.62942307692308e-02 2.06397162396909e+01 5.88512464725675e-02
1.71750000000000e-02 2.05032011181373e+01 6.00228971502122e-02
1.80557692307692e-02 2.03675889345038e+01 6.11370848094494e-02
1.89365384615385e-02 2.02328737165547e+01 6.21976224563221e-02
1.98173076923077e-02 2.00990495310218e+01 6.32079088170458e-02
2.06980769230769e-02 1.99661104850068e+01 6.41709909998775e-02
2.15788461538462e-02 1.98340507240000e+01 6.50896153883010e-02
2.24596153846154e-02 1.97028644317517e+01 6.59662689359658e-02
2.33403846153846e-02 1.95725458314592e+01 6.68032136830191e-02
2.42211538461538e-02 1.94430891840171e+01 6.76025155202288e-02
2.51019230769231e-02 1.93144887878736e+01 6.83660679624441e-02
2.59826923076923e-02 1.91867389800451e+01 6.90956126051263e-02
2.68634615384615e-02 1.90598341345588e+01 6.97927565282509e-02
2.77442307692308e-02 1.89337686622879e+01 7.04589868377263e-02
2.86250000000000e-02 1.88085370118349e+01 7.10956835170510e-02
2.95057692307692e-02 1.86841336681279e+01 7.17041305085593e-02
3.03865384615385e-02 1.85605531525740e+01 7.22855251893083e-02
3.12673076923077e-02 1.84377900225040e+01 7.28409866520640e-02
3.21480769230769e-02 1.83158388718941e+01 7.33715630957162e-02
3.30288461538462e-02 1.81946943301436e+01 7.38782383669703e-02
3.39096153846154e-02 1.80743510618917e+01 7.43619374377128e-02
3.47903846153846e-02 1.79548037676522e+01 7.48235315547214e-02
3.56711538461538e-02 1.78360471826884e+01 7.52638428217366e-02
3.65519230769231e-02 1.77180760768282e+01 7.56836480023674e-02
3.74326923076923e-02 1.76008852550266e+01 7.60836822033652e-02
3.83134615384615e-02 1.74844695563250e+01 7.64646421818272e-02
3.91942307692308e-02 1.73688238536634e+01 7.68271890499237e-02
4.00750000000000e-02 1.72539430543817e+01 7.71719509815290e-02
4.09557692307692e-02 1.71398220992540e+01 7.74995256339861e-02
4.18365384615385e-02 1.70264559625174e+01 7.78104822241384e-02
4.27173076923077e-02 1.69138396514397e+01 7.81053634223206e-02
4.35980769230769e-02 1.68019682067431e+01 7.83846871822353e-02
4.44788461538462e-02 1.66908367017308e+01 7.86489484403136e-02
4.53596153846154e-02 1.65804402420977e+01 7.88986204294049e-02
4.62403846153846e-02 1.64707739663096e+01 7.91341561180863e-02
4.71211538461538e-02 1.63618330447830e+01 7.93559895325495e-02
4.80019230769231e-02 1.62536126796981e+01 7.95645367424301e-02
4.88826923076923e-02 1.61461081053389e+01 7.97601969945797e-02
4.97634615384615e-02 1.60393145873217e+01 7.99433537596243e-02
5.06442307692308e-02 1.59332274224083e+01 8.01143754790360e-02
5.15250000000000e-02 1.58278419388135e+01 8.02736164726577e-02
5.24057692307692e-02 1.57231534954767e+01 8.04214177576687e-02
5.32865384615385e-02 1.56191574820342e+01 8.05581077111523e-02
5.41673076923077e-02 1.55158493184638e+01 8.06840026916945e-02
5.50480769230769e-02 1.54132244553474e+01 8.07994077040592e-02
5.59288461538462e-02 1.53112783731992e+01 8.09046170422326e-02
5.68096153846154e-02 1.52100065822835e+01 8.09999146917273e-02
5.76903846153846e-02 1.51094046228520e+01 8.10855748997718e-02
5.85711538461538e-02 1.50094680645054e+01 8.11618627088673e-02
5.94519230769231e-02 1.49101925060141e+01 8.12290342665043e-02
6.03326923076923e-02 1.48115735755325e+01 8.12873373024238e-02
6.12134615384615e-02 1.47136069299922e+01 8.13370115766704e-02
6.20942307692308e-02 1.46162882549244e+01 8.13782891178070e-02
6.29750000000000e-02 1.45196132646540e+01 8.14113946266756e-02
6.38557692307692e-02 1.44235777017220e+01 8.14365458377199e-02
6.47365384615385e-02 1.43281773368288e+01 8.14539537781007e-02
6.56173076923077e-02 1.42334079685328e+01 8.14638230167666e-02
6.64980769230769e-02 1.41392654234167e+01 8.14663519717454e-02
6.73788461538462e-02 1.40457455555472e+01 8.14617332200258e-02
6.82596153846154e-02 1.39528442463046e+01 8.14501536247339e-02
6.91403846153846e-02 1.38605574045319e+01 8.14317946188270e-02
7.00211538461538e-02 1.37688809660192e+01 8.14068324738096e-02
7.09019230769231e-02 1.36778108933352e+01 8.13754383946476e-02
7.17826923076923e-02 1.35873431759625e+01 8.13377787674041e-02
7.26634615384615e-02 1.34974738298036e+01 8.12940153942899e-02
7.35442307692308e-02 1.34081988970150e+01 8.12443055628161e-02
7.44250000000000e-02 1.33195144461295e+01 8.11888022635127e-02
7.53057692307692e-02 1.32314165715830e+01 8.11276543810717e-02
7.61865384615385e-02 1.31439013936435e+01 8.10610068075557e-02
7.70673076923077e-02 1.30569650581499e+01 8.09890005541560e-02
7.79480769230769e-02 1.29706037366167e+01 8.09117729191355e-02
7.88288461538462e-02 1.28848136257877e+01 8.08294576645379e-02
7.97096153846154e-02 1.27995909474767e+01 8.07421850438481e-02
8.05903846153846e-02 1.27149319486609e+01 8.06500819675210e-02
8.14711538461538e-02 1.26308329010526e+01 8.05532721610910e-02
8.23519230769231e-02 1.25472901009423e+01 8.04518761801846e-02
8.32326923076923e-02 1.24642998692828e+01 8.03460115593872e-02
8.41134615384615e-02 1.23818585512773e+01 8.02357929546514e-02
8.49942307692308e-02 1.22999625162248e+01 8.01213321480311e-02
8.58750000000000e-02 1.22186081575957e+01 8.00027381821991e-02
8.67557692307692e-02 1.21377918926352e+01 7.98801174756889e-02
8.76365384615385e-02 1.20575101622855e+01 7.97535738746144e-02
8.85173076923077e-02 1.19777594309570e+01 7.96232087056403e-02
8.93980769230769e-02 1.18985361865914e+01 7.94891208795804e-02
9.02788461538462e-02 1.18198369402858e+01 7.93514070050363e-02
9.11596153846154e-02 1.17416582261448e+01 7.92101613765350e-02
9.20403846153846e-02 1.16639966013365e+01 7.90654760827405e-02
9.29211538461538e-02 1.15868486457299e+01 7.89174411104383e-02
9.38019230769231e-02 1.15102109617500e+01 7.87661443274905e-02
9.46826923076923e-02 1.14340801744270e+01 7.86116715822482e-02
9.55634615384615e-02 1.13584529310462e+01 7.84541067991840e-02
9.64442307692308e-02 1.12833259010061e+01 7.82935319576249e-02
9.73250000000000e-02 1.12086957758611e+01 7.81300271833691e-02
9.82057692307692e-02 1.11345592689845e+01 7.79636708251523e-02
9.90865384615385e-02 1.10609131154875e+01 7.77945394776668e-02
9.99673076923077e-02 1.09877540720178e+01 7.76227079719921e-02
1.00848076923077e-01 1.09150789169667e+01 7.74482496423399e-02
1.01728846153846e-01 1.08428844491670e+01 7.72712360228312e-02
1.02609615384615e-01 1.07711674898373e+01 7.70917370162155e-02
1.03490384615385e-01 1.06999248806392e+01 7.69098212434377e-02
1.04371153846154e-01 1.06291534841225e+01 7.67255557146970e-02
1.05251923076923e-01 1.05588501835907e+01 7.65390060964124e-02
1.06132692307692e-01 1.04890118824326e+01 7.63502364205725e-02
1.07013461538462e-01 1.04196355055862e+01 7.61593093412878e-02
1.07894230769231e-01 1.03507179977892e+01 7.59662863921541e-02
1.08775000000000e-01 1.02822563239879e+01 7.57712277873858e-02
1.09655769230769e-01 1.02142474687047e+01 7.55741922528719e-02
1.10536538461538e-01 1.01466884374137e+01 7.53752372693423e-02
1.11417307692308e-01 1.00795762548871e+01 7.51744193165358e-02
1.12298076923077e-01 1.00129079655757e+01 7.49717936796754e-02
1.13178846153846e-01 9.94668063300858e+00 7.47674142845405e-02
1.14059615384615e-01 9.88089134108768e+00 7.45613339283615e-02
1.14940384615385e-01 9.81553719252333e+00 7.43536045118994e-02
1.15821153846154e-01 9.75061530918799e+00 7.41442767554090e-02
1.16701923076923e-01 9.68612283199194e+00 7.39334004227098e-02
1.17582692307692e-01 9.62205692031814e+00 7.37210240600180e-02
1.18463461538462e-01 9.55841475322122e+00 7.35071952117273e-02
1.19344230769231e-01 9.49519352796809e+00 7.32919606376264e-02
1.20225000000000e-01 9.43239046036392e+00 7.30753661328690e-02
1.21105769230769e-01 9.37000278421512e+00 7.28574563737360e-02
1.21986538461538e-01 9.30802775245994e+00 7.26382751232452e-02
1.22867307692308e-01 9.24646263578462e+00 7.24178654382916e-02
1.23748076923077e-01 9.18530472292738e+00 7.21962694950894e-02
1.24628846153846e-01 9.12455132016757e+00 7.19735284392868e-02
1.25509615384615e-01 9.06419975239257e+00 7.17496825821252e-02
1.26390384615385e-01 9.00424736178470e+00 7.15247715982205e-02
1.27271153846154e-01 8.94469150810475e+00 7.12988342724424e-02
1.28151923076923e-01 8.88552956857756e+00 7.10719086910751e-02
1.29032692307692e-01 8.82675893740952e+00 7.08440320085506e-02
1.29913461538462e-01 8.76837702678019e+00 7.06152406318087e-02
1.30794230769231e-01 8.71038126561304e+00 7.03855704063715e-02
1.31675000000000e-01 8.65276909983752e+00 7.01550564547537e-02
1.32555769230769e-01 8.59553799192926e+00 6.99237330371939e-02
1.33436538461538e-01 8.53868542184754e+00 6.96916337279630e-02
1.34317307692308e-01 8.48220888586673e+00 6.94587915934251e-02
1.35198076923077e-01 8.42610589682113e+00 6.92252390356248e-02
1.36078846153846e-01 8.37037398366660e+00 6.89910076572531e-02
1.36959615384615e-01 8.31501069236731e+00 6.87561284304222e-02
1.37840384615385e-01 8.26001358478419e+00 6.85206318671789e-02
1.38721153846154e-01 8.20538023890384e+00 6.82845477943665e-02
1.39601923076923e-01 8.15110824873331e+00 6.80479055186080e-02
1.40482692307692e-01 8.09719522388501e+00 6.78107336184187e-02
1.41363461538462e-01 8.04363879040329e+00 6.75730601034404e-02
1.42244230769231e-01 7.99043658972083e+00 6.73349125754848e-02
1.43125000000000e-01 7.93758627887059e+00 6.70963180840523e-02
1.44005769230769e-01 7.88508553008947e+00 6.68573030012445e-02
1.44886538461538e-01 7.83293203160139e+00 6.66178931744345e-02
1.45767307692308e-01 7.78112348662303e+00 6.63781140807658e-02
1.46648076923077e-01 7.72965761356232e+00 6.61379906874086e-02
1.47528846153846e-01 7.67853214563967e+00 6.58975473303997e-02
1.48409615384615e-01 7.62774483163023e+00 6.56568078611385e-02
1.49290384615385e-01 7.57729343491623e+00 6.54157957946778e-02
1.50171153846154e-01 7.52717573367283e+00 6.51745341095108e-02
1.51051923076923e-01 7.47738952077137e+00 6.49330453911134e-02
1.51932692307692e-01 7.42793260342001e+00 6.46913516467735e-02
1.52813461538462e-01 7.37880280385744e+00 6.44494744442156e-02
1.53694230769231e-01 7.32999795846074e+00 6.42074350520425e-02
1.54575000000000e-01 7.28151591791789e+00 6.39652543107238e-02
1.55455769230769e-01 7.23335454688389e+00 6.37229525205272e-02
1.56336538461538e-01 7.18551172463912e+00 6.34805495746804e-02
1.57217307692308e-01 7.13798534423801e+00 6.32380650943375e-02
1.58098076923077e-01 7.09077331267059e+00 6.29955183038479e-02
1.58978846153846e-01 7.04387355053350e+00 6.27529279222657e-02
1.59859615384615e-01 6.99728399265499e+00 6.25103122913514e-02
1.60740384615385e-01 6.95100258728206e+00 6.22676895053286e-02
1.61621153846154e-01 6.90502729623202e+00 6.20250772327436e-02
1.62501923076923e-01 6.85935609480358e+00 6.17824928421242e-02
1.63382692307692e-01 6.81398697146414e+00 6.15399532369946e-02
1.64263461538462e-01 6.76891792843509e+00 6.12974749772624e-02
1.65144230769231e-01 6.72414698092504e+00 6.10550744023822e-02
1.66025000000000e-01 6.67967215727059e+00 6.08127675162135e-02
1.66905769230769e-01 6.63549149863663e+00 6.05705698866943e-02
1.67786538461538e-01 6.59160305957273e+00 6.03284967626321e-02
1.68667307692308e-01 6.54800490728019e+00 6.00865631922296e-02
1.69548076923077e-01 6.50469512174412e+00 5.98447839117468e-02
1.70428846153846e-01 6.46167179544619e+00 5.96031732484184e-02
1.71309615384615e-01 6.41893303389369e+00 5.93617452328676e-02
1.72190384615385e-01 6.37647695491860e+00 5.91205137131998e-02
1.73071153846154e-01 6.33430168880163e+00 5.88794921963501e-02
1.73951923076923e-01 6.29240537819053e+00 5.86386939586047e-02
1.74832692307692e-01 6.25078617782673e+00 5.83981318984887e-02
1.75713461538462e-01 6.20944225504163e+00 5.81578186435585e-02
1.76594230769231e-01 6.16837178909422e+00 5.79177666588933e-02
1.77475000000000e-01 6.12757297128638e+00 5.76779881442778e-02
1.78355769230769e-01 6.08704400470051e+00 5.74384949444091e-02
1.79236538461538e-01 6.04678310467197e+00 5.71992986517770e-02
1.80117307692308e-01 6.00678849815500e+00 5.69604107111726e-02
1.80998076923077e-01 5.96705842383109e+00 5.67218423202675e-02
1.81878846153846e-01 5.92759113185709e+00 5.64836043427395e-02
1.82759615384615e-01 5.88838488431503e+00 5.62457074073803e-02
1.83640384615385e-01 5.84943795460503e+00 5.60081620088121e-02
1.84521153846154e-01 5.81074862754704e+00 5.57709783660367e-02
1.85401923076923e-01 5.77231519930584e+00 5.55341665200062e-02
1.86282692307692e-01 5.73413597715106e+00 5.52977362023186e-02
1.87163461538462e-01 5.69620927987986e+00 5.50616969295275e-02
1.88044230769231e-01 5.65853343724220e+00 5.48260580990349e-02
1.88925000000000e-01 5.62110679003554e+00 5.45908288972223e-02
1.89805769230769e-01 5.58392768987428e+00 5.43560182190807e-02
1.90686538461538e-01 5.54699449959249e+00 5.41216347591297e-02
1.91567307692308e-01 5.51030559269319e+00 5.38876871038785e-02
1.92448076923077e-01 5.47385935343737e+00 5.36541836429877e-02
1.93328846153846e-01 5.43765417662234e+00 5.34211324914850e-02
1.94209615384615e-01 5.40168846796573e+00 5.31885415774363e-02
1.95090384615385e-01 5.36596064357750e+00 5.29564187311429e-02
1.95971153846154e-01 5.33046913004356e+00 5.27247715588712e-02
1.96851923076923e-01 5.29521236435694e+00 5.24936075292471e-02
1.97732692307692e-01 5.26018879370645e+00 5.22629338559497e-02
1.98613461538462e-01 5.22539687583785e+00 5.20327575812495e-02
1.99494230769231e-01 5.19083507855344e+00 5.18030856610157e-02
2.00375000000000e-01 5.15650187978989e+00 5.15739248825630e-02
2.01255769230769e-01 5.12239576741495e+00 5.13452817926549e-02
2.02136538461538e-01 5.08851523957204e+00 5.11171627781001e-02
2.03017307692308e-01 5.05485880420016e+00 5.08895741477875e-02
2.03898076923077e-01 5.02142497910707e+00 5.06625220532220e-02
2.04778846153846e-01 4.98821229177376e+00 5.04360124188383e-02
2.05659615384615e-01 4.95521927968318e+00 5.02100510197818e-02
2.06540384615385e-01 4.92244448985965e+00 4.99846435610881e-02
2.07421153846154e-01 4.88988647893757e+00 4.97597955648309e-02
2.08301923076923e-01 4.85754381309824e+00 4.95355124468491e-02
2.09182692307692e-01 4.82541506788315e+00 4.93117994118233e-02
2.10063461538462e-01 4.79349882850373e+00 4.90886615274436e-02
2.10944230769231e-01 4.76179368940407e+00 4.88661037999534e-02
2.11825000000000e-01 4.73029825432496e+00 4.86441311006296e-02
2.12705769230769e-01 4.69901113612417e+00 4.84227481012482e-02
2.13586538461538e-01 4.66793095707219e+00 4.82019593456960e-02
2.14467307692308e-01 4.63705634843235e+00 4.79817693229169e-02
2.15348076923077e-01 4.60638595052105e+00 4.77621823957724e-02
2.16228846153846e-01 4.57591841253472e+00 4.75432027385745e-02
2.17109615384615e-01 4.54565239283224e+00 4.73248344062337e-02
2.17990384615385e-01 4.51558655853168e+00 4.71070814047136e-02
2.18871153846154e-01 4.48571958556693e+00 4.68899475900763e-02
2.19751923076923e-01 4.45605015862968e+00 4.66734367367384e-02
2.20632692307692e-01 4.42657697100400e+00 4.64575524435253e-02
2.21513461538462e-01 4.39729872483277e+00 4.62422981996882e-02
2.22394230769231e-01 4.36821413073446e+00 4.60276774521777e-02
2.23275000000000e-01 4.33932190785580e+00 4.58136935397783e-02
2.24155769230769e-01 4.31062078371250e+00 4.56003496352133e-02
2.25036538461538e-01 4.28210949444378e+00 4.53876488089067e-02
2.25917307692308e-01 4.25378678444408e+00 4.51755940939924e-02
2.26798076923077e-01 4.22565140641263e+00 4.49641884225611e-02
2.27678846153846e-01 4.19770212119999e+00 4.47534345696082e-02
2.28559615384615e-01 4.16993769805121e+00 4.45433352146479e-02
2.29440384615385e-01 4.14235691425196e+00 4.43338930045183e-02
2.30321153846154e-01 4.11495855517505e+00 4.41251104629550e-02
2.31201923076923e-01 4.08774141422723e+00 4.39169900514508e-02
2.32082692307692e-01 4.06070429270230e+00 4.37095340850605e-02
2.32963461538462e-01 4.03384600001081e+00 4.35027447912501e-02
2.33844230769231e-01 4.00716535334333e+00 4.32966243699195e-02
2.34725000000000e-01 3.98066117771384e+00 4.30911749343356e-02
2.35605769230769e-01 3.95433230581812e+00 4.28863984591643e-02
2.36486538461538e-01 3.92817757825340e+00 4.26822968373591e-02
2.37367307692308e-01 3.90219584319454e+00 4.24788719381645e-02
2.38248076923077e-01 3.87638595643475e+00 4.22761255499417e-02
2.39128846153846e-01 3.85074678124918e+00 4.20740593298484e-02
2.40009615384615e-01 3.82527718860484e+00 4.18726748588235e-02
2.40890384615385e-01 3.79997605684921e+00 4.16719736976624e-02
2.41771153846154e-01 3.77484227174852e+00 4.14719573059547e-02
2.42651923076923e-01 3.74987472643885e+00 4.12726270964223e-02
2.43532692307692e-01 3.72507232129551e+00 4.10739843593871e-02
2.44413461538462e-01 3.70043396413149e+00 4.08760303153371e-02
2.45294230769231e-01 3.67595856990089e+00 4.06787661685456e-02
2.46175000000000e-01 3.65164506073460e+00 4.04821930540683e-02
2.47055769230769e-01 3.62749236581418e+00 4.02863119910575e-02
2.47936538461538e-01 3.60349942156185e+00 4.00911239335763e-02
2.48817307692308e-01 3.57966517135503e+00 3.98966298224589e-02
2.49698076923077e-01 3.55598856555982e+00 3.97028305339855e-02
2.50578846153846e-01 3.53246856140945e+00 3.95097268346645e-02
2.51459615384615e-01 3.50910412318594e+00 3.93173194303732e-02
2.52340384615385e-01 3.48589422194547e+00 3.91256090165105e-02
2.53221153846154e-01 3.46283783554977e+00 3.89345962052440e-02
2.54101923076923e-01 3.43993394862126e+00 3.87442815741099e-02
2.54982692307692e-01 3.41718155242664e+00 3.85546655981930e-02
2.55863461538462e-01 3.39457964504870e+00 3.83657486971279e-02
2.56744230769231e-01 3.37212723112457e+00 3.81775312830906e-02
2.57625000000000e-01 3.34982332187495e+00 3.79900137131798e-02
2.58505769230769e-01 3.32766693499168e+00 3.78031962474423e-02
2.59386538461538e-01 3.30565709480229e+00 3.76170790943462e-02
2.60267307692308e-01 3.28379283201792e+00 3.74316624571901e-02
2.61148076923077e-01 3.26207318376078e+00 3.72469464879934e-02
2.62028846153846e-01 3.24049719345559e+00 3.70629312468415e-02
2.62909615384615e-01 3.21906391098717e+00 3.68796167458609e-02
2.63790384615385e-01 3.19777239245767e+00 3.66970029941265e-02
2.64671153846154e-01 3.17662170021227e+00 3.65150899323166e-02
2.65551923076923e-01 3.15561090279810e+00 3.63338774762267e-02
2.66432692307692e-01 3.13473907486015e+00 3.61533654558325e-02
2.67313461538462e-01 3.11400529729046e+00 3.59735536573733e-02
2.68194230769231e-01 3.09340865699654e+00 3.57944418663399e-02
2.69075000000000e-01 3.07294824692532e+00 3.56160298246753e-02
2.69955769230769e-01 3.05262316596267e+00 3.54383171930126e-02
2.70836538461538e-01 3.03243251907629e+00 3.52613035914019e-02
2.71717307692308e-01 3.01237541709259e+00 3.50849886409054e-02
2.72598076923077e-01 2.99245097671914e+00 3.49093719221359e-02
2.73478846153846e-01 2.97265832044766e+00 3.47344529386754e-02
2.74359615384615e-01 2.95299657669086e+00 3.45602311564824e-02
2.75240384615385e-01 2.93346487956749e+00 3.43867060441404e-02
2.76121153846154e-01 2.91406236892335e+00 3.42138770141247e-02
2.77001923076923e-01 2.89478819029354e+00 3.40417434618085e-02
2.77882692307692e-01 2.87564149480941e+00 3.38703047106563e-02
