Energy (eV)          EEDF (eV^-(3/2))     First Anisotropy
5.78571428571429e-02 1.10020928038932e-01 1.09296297847866e-04
1.73571428571429e-01 1.07334505634726e-01 1.78877187678878e-04
2.89285714285714e-01 1.04713678631384e-01 2.31931701928889e-04
4.05000000000000e-01 1.02156845344357e-01 2.69765764893201e-04
5.20714285714286e-01 9.96624432158962e-02 2.99336648678499e-04
6.36428571428571e-01 9.72289478415283e-02 3.23348764945063e-04
7.52142857142857e-01 9.48548720422216e-02 3.43238375412375e-04
8.67857142857143e-01 9.25387649440573e-02 3.59894366124730e-04
9.83571428571429e-01 9.02792111035475e-02 3.73920191970516e-04
1.09928571428571e+00 8.80748296427802e-02 3.85751913468545e-04
1.21500000000000e+00 8.59242733851141e-02 3.95719138593468e-04
1.33071428571429e+00 8.38262280786772e-02 4.04079626351100e-04
1.44642857142857e+00 8.17794115273005e-02 4.11040366548644e-04
1.56214285714286e+00 7.97825728732312e-02 4.16771144303323e-04
1.67785714285714e+00 7.78344917745689e-02 4.21413660130750e-04
1.79357142857143e+00 7.59339777001707e-02 4.25087881219803e-04
1.90928571428571e+00 7.40798691991594e-02 4.27896607907406e-04
2.02500000000000e+00 7.22710331589503e-02 4.29928832195903e-04
2.14071428571429e+00 7.05063641538621e-02 4.31262268695397e-04
2.25642857142857e+00 6.87847837323699e-02 4.31965297418075e-04
2.37214285714286e+00 6.71052397918339e-02 4.32098479568810e-04
2.48785714285714e+00 6.54667059046480e-02 4.31715759524114e-04
2.60357142857143e+00 6.38681807131184e-02 4.30865427403176e-04
2.71928571428571e+00 6.23086873161416e-02 4.29590905437464e-04
2.83500000000000e+00 6.07872726537874e-02 4.27931390071585e-04
2.95071428571429e+00 5.93030069486356e-02 4.25922386143147e-04
3.06642857142857e+00 5.78549831155421e-02 4.23596154005332e-04
3.18214285714286e+00 5.64423162277230e-02 4.20982086355911e-04
3.29785714285714e+00 5.50641429569431e-02 4.18107029281870e-04
3.41357142857143e+00 5.37196210596980e-02 4.14995555247745e-04
3.52928571428571e+00 5.24079288617201e-02 4.11670201377818e-04
3.64500000000000e+00 5.11282647440984e-02 4.08151673058056e-04
3.76071428571429e+00 4.98798466686390e-02 4.04459022541589e-04
3.87642857142857e+00 4.86619116856411e-02 4.00609805362196e-04
3.99214285714286e+00 4.74737154810522e-02 3.96620217644344e-04
4.10785714285714e+00 4.63145319089851e-02 3.92505217947098e-04
4.22357142857143e+00 4.51836525571526e-02 3.88278634012786e-04
4.33928571428571e+00 4.40803863134494e-02 3.83953260218360e-04
4.45500000000000e+00 4.30040589356482e-02 3.79540942482044e-04
4.57071428571429e+00 4.19540126497221e-02 3.75052655364927e-04
4.68642857142857e+00 4.09296057380639e-02 3.70498571436132e-04
4.80214285714286e+00 3.99302121565707e-02 3.65888123646880e-04
4.91785714285714e+00 3.89552211432904e-02 3.61230062151021e-04
5.03357142857143e+00 3.80040368515857e-02 3.56532504812025e-04
5.14928571428571e+00 3.70760779856689e-02 3.51802984969389e-04
5.26500000000000e+00 3.61707774397620e-02 3.47048493267543e-04
5.38071428571429e+00 3.52875819588427e-02 3.42275516615046e-04
5.49642857142857e+00 3.44259517935838e-02 3.37490073837447e-04
5.61214285714286e+00 3.35853603770969e-02 3.32697748214446e-04
5.72785714285714e+00 3.27652939968570e-02 3.27903717667393e-04
5.84357142857143e+00 3.19652514853682e-02 3.23112781735468e-04
5.95928571428571e+00 3.11847439136586e-02 3.18329387878855e-04
6.07500000000000e+00 3.04232942884366e-02 3.13557654420833e-04
6.19071428571429e+00 2.96804372658915e-02 3.08801392352954e-04
6.30642857142857e+00 2.89557188622528e-02 3.04064125512612e-04
6.42214285714286e+00 2.82486961811651e-02 2.99349109166709e-04
6.53785714285714e+00 2.75589371384251e-02 2.94659347487988e-04
6.65357142857143e+00 2.68860202013064e-02 2.89997609161438e-04
6.76928571428571e+00 2.62295341307854e-02 2.85366443034583e-04
6.88500000000000e+00 2.55890777272377e-02 2.80768191629203e-04
7.00071428571429e+00 2.49642595891723e-02 2.76205004207741e-04
7.11642857142857e+00 2.43546978702889e-02 2.71678848952836e-04
7.23214285714286e+00 2.37600200497001e-02 2.67191524246405e-04
7.34785714285714e+00 2.31798627008490e-02 2.62744669388830e-04
7.46357142857143e+00 2.26138712719335e-02 2.58339774123023e-04
7.57928571428571e+00 2.20616998691097e-02 2.53978188448073e-04
7.69500000000000e+00 2.15230110428715e-02 2.49661130965262e-04
7.81071428571429e+00 2.09974755847644e-02 2.45389697077167e-04
7.92642857142857e+00 2.04847723233808e-02 2.41164866666161e-04
8.04214285714286e+00 1.99845879307797e-02 2.36987511225957e-04
8.15785714285714e+00 1.94966167284175e-02 2.32858400697827e-04
8.27357142857143e+00 1.90205605022475e-02 2.28778209492551e-04
8.38928571428571e+00 1.85561283203839e-02 2.24747522868021e-04
8.50500000000000e+00 1.81030363536099e-02 2.20766842248865e-04
8.62071428571429e+00 1.76610077041522e-02 2.16836590532417e-04
8.73642857142857e+00 1.72297722343201e-02 2.12957117071820e-04
8.85214285714286e+00 1.68090664034696e-02 2.09128702308607e-04
8.96785714285714e+00 1.63986331049749e-02 2.05351562246704e-04
9.08357142857143e+00 1.59982215105594e-02 2.01625852346533e-04
9.19928571428571e+00 1.56075869169407e-02 1.97951671770193e-04
9.31500000000000e+00 1.52264905949878e-02 1.94329066838564e-04
9.43071428571429e+00 1.48546996455359e-02 1.90758034533492e-04
9.54642857142857e+00 1.44919868554123e-02 1.87238525791334e-04
9.66214285714286e+00 1.41381305601574e-02 1.83770448562782e-04
9.77785714285714e+00 1.37929145070424e-02 1.80353670788225e-04
9.89357142857143e+00 1.34561277240324e-02 1.76988022947077e-04
1.00092857142857e+01 1.31275643908048e-02 1.73673301091102e-04
1.01250000000000e+01 1.28070237107028e-02 1.70409268296121e-04
1.02407142857143e+01 1.24943097956188e-02 1.67195658339921e-04
1.03564285714286e+01 1.21892315333952e-02 1.64032177561788e-04
1.04721428571429e+01 1.18916024814540e-02 1.60918505571774e-04
1.05878571428571e+01 1.16012407496541e-02 1.57854298620097e-04
1.07035714285714e+01 1.13179688891266e-02 1.54839190990537e-04
1.08192857142857e+01 1.10416137838437e-02 1.51872796730857e-04
1.09350000000000e+01 1.07720065448150e-02 1.48954710968161e-04
1.10507142857143e+01 1.05089824092281e-02 1.46084512425931e-04
1.11664285714286e+01 1.02523806325619e-02 1.43261764222014e-04
1.12821428571429e+01 1.00020443976860e-02 1.40486014552902e-04
1.13978571428571e+01 9.75782071653104e-03 1.37756799034458e-04
1.15135714285714e+01 9.51956033658972e-03 1.35073641568876e-04
1.16292857142857e+01 9.28711764971283e-03 1.32436055497992e-04
1.17450000000000e+01 9.06035060311903e-03 1.29843544432683e-04
1.18607142857143e+01 8.83912061442545e-03 1.27295604069913e-04
1.19764285714286e+01 8.62329248132098e-03 1.24791722626113e-04
1.20921428571429e+01 8.41273430468334e-03 1.22331381188899e-04
1.22078571428571e+01 8.20731740601976e-03 1.19914055423162e-04
1.23235714285714e+01 8.00691624882450e-03 1.17539216090756e-04
1.24392857142857e+01 7.81140836186656e-03 1.15206329811364e-04
1.25550000000000e+01 7.62067426434021e-03 1.12914859568257e-04
1.26707142857143e+01 7.43459739429747e-03 1.10664266025675e-04
1.27864285714286e+01 7.25306403297949e-03 1.08454007728107e-04
1.29021428571429e+01 7.07596323983823e-03 1.06283541240140e-04
1.30178571428571e+01 6.90318678320202e-03 1.04152322394823e-04
1.31335714285714e+01 6.73462907412955e-03 1.02059806583293e-04
1.32492857142857e+01 6.57018710188635e-03 1.00005449246508e-04
1.33650000000000e+01 6.40976037098918e-03 9.79887061646848e-05
1.34807142857143e+01 6.25325084093673e-03 9.60090344138748e-05
1.35964285714286e+01 6.10056286279037e-03 9.40658924161673e-05
1.37121428571429e+01 5.95160312429024e-03 9.21587399462365e-05
1.38278571428571e+01 5.80628059161646e-03 9.02870390461283e-05
1.39435714285714e+01 5.66450645375389e-03 8.84502541629231e-05
1.40592857142857e+01 5.52619406822078e-03 8.66478524552285e-05
1.41750000000000e+01 5.39125890811698e-03 8.48793039383624e-05
1.42907142857143e+01 5.25961851137638e-03 8.31440821782352e-05
1.44064285714286e+01 5.13119242759309e-03 8.14416642485544e-05
1.45221428571429e+01 5.00590217168677e-03 7.97715306557235e-05
1.46378571428571e+01 4.88367117497638e-03 7.81331660087335e-05
1.47535714285714e+01 4.76442473838542e-03 7.65260590575023e-05
1.48692857142857e+01 4.64808998679392e-03 7.49497028719765e-05
1.49850000000000e+01 4.53459582450075e-03 7.34035948920566e-05
1.51007142857143e+01 4.42387289249858e-03 7.18872374291171e-05
1.52164285714286e+01 4.31585352387546e-03 7.04001375674361e-05
1.53321428571429e+01 4.21047170471385e-03 6.89418070415961e-05
1.54478571428571e+01 4.10766303298252e-03 6.75117627256444e-05
1.55635714285714e+01 4.00736467917756e-03 6.61095266078745e-05
1.56792857142857e+01 3.90951534792748e-03 6.47346258828418e-05
1.57950000000000e+01 3.81405524053264e-03 6.33865929395684e-05
1.59107142857143e+01 3.72092601899806e-03 6.20649657216962e-05
1.60264285714286e+01 3.63007076861679e-03 6.07692875978822e-05
1.61421428571429e+01 3.54143396498490e-03 5.94991072142614e-05
1.62578571428571e+01 3.45496143945844e-03 5.82539788497882e-05
1.63735714285714e+01 3.37060034604861e-03 5.70334623518403e-05
1.64892857142857e+01 3.28829912912758e-03 5.58371231694040e-05
1.66050000000000e+01 3.20800749192050e-03 5.46645323025846e-05
1.67207142857143e+01 3.12967636622969e-03 5.35152665587080e-05
1.68364285714286e+01 3.05325788103590e-03 5.23889084080378e-05
1.69521428571429e+01 2.97870533468066e-03 5.12850458260874e-05
1.70678571428571e+01 2.90597316583727e-03 5.02032725497263e-05
1.71835714285714e+01 2.83501692566631e-03 4.91431879902044e-05
1.72992857142857e+01 2.76579325065286e-03 4.81043972273758e-05
1.74150000000000e+01 2.69825983610505e-03 4.70865109363155e-05
1.75307142857143e+01 2.63237541067112e-03 4.60891455668464e-05
1.76464285714286e+01 2.56809970998500e-03 4.51119231952655e-05
1.77621428571429e+01 2.50539345321255e-03 4.41544713660444e-05
1.78778571428571e+01 2.44421831865440e-03 4.32164232743408e-05
1.79935714285714e+01 2.38453692032593e-03 4.22974176676772e-05
1.81092857142857e+01 2.32631278511049e-03 4.13970988151802e-05
1.82250000000000e+01 2.26951033046914e-03 4.05151164220831e-05
1.83407142857143e+01 2.21409484299297e-03 3.96511257530103e-05
1.84564285714286e+01 2.16003245627871e-03 3.88047874865351e-05
1.85721428571429e+01 2.10729013115861e-03 3.79757675622503e-05
1.86878571428571e+01 2.05583563519455e-03 3.71637373087842e-05
1.88035714285714e+01 2.00563752297957e-03 3.63683733416352e-05
1.89192857142857e+01 1.95666511692125e-03 3.55893575172339e-05
1.90350000000000e+01 1.90888848849341e-03 3.48263768426009e-05
1.91507142857143e+01 1.86227844018582e-03 3.40791235574812e-05
1.92664285714286e+01 1.81680648692782e-03 3.33472949959281e-05
1.93821428571429e+01 1.77244483942648e-03 3.26305934423028e-05
1.94978571428571e+01 1.72916638693041e-03 3.19287262190655e-05
1.96135714285714e+01 1.68694468066128e-03 3.12414055856812e-05
1.97292857142857e+01 1.64575391765071e-03 3.05683486843223e-05
1.98450000000000e+01 1.60556892497104e-03 2.99092774495017e-05
1.99607142857143e+01 1.56636514454499e-03 2.92639186602826e-05
2.00764285714286e+01 1.52811861754616e-03 2.86320038112856e-05
2.01921428571429e+01 1.49080597035917e-03 2.80132689795525e-05
2.03078571428571e+01 1.45440440009089e-03 2.74074548827853e-05
2.04235714285714e+01 1.41889166063473e-03 2.68143067824308e-05
2.05392857142857e+01 1.38424604907583e-03 2.62335744257248e-05
2.06550000000000e+01 1.35044639242748e-03 2.56650119583894e-05
2.07707142857143e+01 1.31747203484816e-03 2.51083779552716e-05
2.08864285714286e+01 1.28530282454032e-03 2.45634353019669e-05
2.10021428571429e+01 1.25391910192145e-03 2.40299510733789e-05
2.11178571428571e+01 1.22330168744441e-03 2.35076965704082e-05
2.12335714285714e+01 1.19343186987605e-03 2.29964472290681e-05
2.13492857142857e+01 1.16429139486257e-03 2.24959825620398e-05
2.14650000000000e+01 1.13586245377352e-03 2.20060860763284e-05
2.15807142857143e+01 1.10812767294512e-03 2.15265452885416e-05
2.16964285714286e+01 1.08107010267586e-03 2.10571516175106e-05
2.18121428571429e+01 1.05467320726181e-03 2.05977002746663e-05
2.19278571428571e+01 1.02892085475750e-03 2.01479902851614e-05
2.20435714285714e+01 1.00379730711707e-03 1.97078244040051e-05
2.21592857142857e+01 9.79287210576526e-04 1.92770090592189e-05
2.22750000000000e+01 9.55375586270473e-04 1.88553542755077e-05
2.23907142857143e+01 9.32047821180732e-04 1.84426736787802e-05
2.25064285714286e+01 9.09289658892395e-04 1.80387843996301e-05
2.26221428571429e+01 8.87087191200428e-04 1.76435069751875e-05
2.27378571428571e+01 8.65426849501637e-04 1.72566653591434e-05
2.28535714285714e+01 8.44295396502377e-04 1.68780868453046e-05
2.29692857142857e+01 8.23679918129052e-04 1.65076020136649e-05
2.30850000000000e+01 8.03567815635827e-04 1.61450446605737e-05
2.32007142857143e+01 7.83946797988481e-04 1.57902517959004e-05
2.33164285714286e+01 7.64804874098552e-04 1.54430635569075e-05
2.34321428571429e+01 7.46130345754220e-04 1.51033231209541e-05
2.35478571428571e+01 7.27911800383270e-04 1.47708767077514e-05
2.36635714285714e+01 7.10138104078450e-04 1.44455735103484e-05
2.37792857142857e+01 6.92798394793366e-04 1.41272656448830e-05
2.38950000000000e+01 6.75882075704267e-04 1.38158080873480e-05
2.40107142857143e+01 6.59378808801728e-04 1.35110586658981e-05
2.41264285714286e+01 6.43278508366023e-04 1.32128779844489e-05
2.42421428571429e+01 6.27571335013891e-04 1.29211293454564e-05
2.43578571428571e+01 6.12247689613970e-04 1.26356787468680e-05
2.44735714285714e+01 5.97298207420412e-04 1.23563948202954e-05
2.45892857142857e+01 5.82713752349937e-04 1.20831487848320e-05
2.47050000000000e+01 5.68485411398423e-04 1.18158143902562e-05
2.48207142857143e+01 5.54604489248996e-04 1.15542679063060e-05
2.49364285714286e+01 5.41062502789856e-04 1.12983880552384e-05
2.50521428571429e+01 5.27851176101196e-04 1.10480559438284e-05
2.51678571428571e+01 5.14962435339435e-04 1.08031550568351e-05
2.52835714285714e+01 5.02388403803000e-04 1.05635712019607e-05
2.53992857142857e+01 4.90121397118740e-04 1.03291924678557e-05
2.55150000000000e+01 4.78153918545712e-04 1.00999091734432e-05
2.56307142857143e+01 4.66478654438575e-04 9.87561385547542e-06
2.57464285714286e+01 4.55088469641005e-04 9.65620120924919e-06
2.58621428571429e+01 4.43976403264619e-04 9.44156802895105e-06
2.59778571428571e+01 4.33135664387645e-04 9.23161319896833e-06
2.60935714285714e+01 4.22559627904752e-04 9.02623764514318e-06
2.62092857142857e+01 4.12241830478322e-04 8.82534429691179e-06
2.63250000000000e+01 4.02175966588470e-04 8.62883804233790e-06
2.64407142857143e+01 3.92355884716130e-04 8.43662571488868e-06
2.65564285714286e+01 3.82775583471998e-04 8.24861604150244e-06
2.66721428571429e+01 3.73429208042565e-04 8.06471959042579e-06
2.67878571428571e+01 3.64311046573493e-04 7.88484876132903e-06
2.69035714285714e+01 3.55415526678897e-04 7.70891774232562e-06
2.70192857142857e+01 3.46737212035955e-04 7.53684247607553e-06
2.71350000000000e+01 3.38270799062574e-04 7.36854062006905e-06
2.72507142857143e+01 3.30011113706058e-04 7.20393153327582e-06
2.73664285714286e+01 3.21953108189965e-04 7.04293623079029e-06
2.74821428571429e+01 3.14091858021999e-04 6.88547733834830e-06
2.75978571428571e+01 3.06422558953033e-04 6.73147908193019e-06
2.77135714285714e+01 2.98940524041067e-04 6.58086725000565e-06
2.78292857142857e+01 2.91641180786942e-04 6.43356916336113e-06
2.79450000000000e+01 2.84520068339921e-04 6.28951364015960e-06
2.80607142857143e+01 2.77572834795911e-04 6.14863098290649e-06
2.81764285714286e+01 2.70795234463454e-04 6.01085293894377e-06
2.82921428571429e+01 2.64183125344801e-04 5.87611266088792e-06
2.84078571428571e+01 2.57732466578915e-04 5.74434469619774e-06
2.85235714285714e+01 2.51439315971952e-04 5.61548495411585e-06
2.86392857142857e+01 2.45299827588113e-04 5.48947067894202e-06
2.87550000000000e+01 2.39310249399253e-04 5.36624041939834e-06
2.88707142857143e+01 2.33466921011832e-04 5.24573401620290e-06
2.89864285714286e+01 2.27766271369099e-04 5.12789256773687e-06
2.91021428571429e+01 2.22204816630630e-04 5.01265839570651e-06
2.92178571428571e+01 2.16779158022231e-04 4.89997503499981e-06
2.93335714285714e+01 2.11485979758840e-04 4.78978720482178e-06
2.94492857142857e+01 2.06322047018172e-04 4.68204078511771e-06
2.95650000000000e+01 2.01284203963810e-04 4.57668278979221e-06
2.96807142857143e+01 1.96369371832882e-04 4.47366135506868e-06
2.97964285714286e+01 1.91574547004762e-04 4.37292570971220e-06
2.99121428571429e+01 1.86896799216122e-04 4.27442614528228e-06
3.00278571428571e+01 1.82333269752966e-04 4.17811400648849e-06
3.01435714285714e+01 1.77881169703578e-04 4.08394166604950e-06
3.02592857142857e+01 1.73537778254157e-04 3.99186250396964e-06
3.03750000000000e+01 1.69300441026029e-04 3.90183088418676e-06
3.04907142857143e+01 1.65166568466829e-04 3.81380214381405e-06
3.06064285714286e+01 1.61133634227198e-04 3.72773256736062e-06
3.07221428571429e+01 1.57199173658318e-04 3.64357936100481e-06
3.08378571428571e+01 1.53360782291626e-04 3.56130064357635e-06
3.09535714285714e+01 1.49616114369358e-04 3.48085542470603e-06
3.10692857142857e+01 1.45962881411004e-04 3.40220358666692e-06
3.11850000000000e+01 1.42398850814742e-04 3.32530586405836e-06
3.13007142857143e+01 1.38921844503960e-04 3.25012383396860e-06
3.14164285714286e+01 1.35529737562787e-04 3.17661989369232e-06
3.15321428571429e+01 1.32220456971463e-04 3.10475723851467e-06
3.16478571428571e+01 1.28991980327925e-04 3.03449985338765e-06
3.17635714285714e+01 1.25842334611853e-04 2.96581249397639e-06
3.18792857142857e+01 1.22769594978910e-04 2.89866067079093e-06
3.19950000000000e+01 1.19771883584406e-04 2.83301063154701e-06
3.21107142857143e+01 1.16847368444652e-04 2.76882935224858e-06
3.22264285714286e+01 1.13994262290015e-04 2.70608451795530e-06
3.23421428571429e+01 1.11210821500512e-04 2.64474450362419e-06
3.24578571428571e+01 1.08495345030781e-04 2.58477836650581e-06
3.25735714285714e+01 1.05846173370516e-04 2.52615582973145e-06
3.26892857142857e+01 1.03261687530303e-04 2.46884726847974e-06
3.28050000000000e+01 1.00740308052197e-04 2.41282369468913e-06
3.29207142857143e+01 9.82804940518262e-05 2.35805674903170e-06
3.30364285714286e+01 9.58807422542594e-05 2.30451868433472e-06
3.31521428571429e+01 9.35395860981523e-05 2.25218234907937e-06
3.32678571428571e+01 9.12555948317382e-05 2.20102118051252e-06
3.33835714285714e+01 8.90273726384478e-05 2.15100919045606e-06
3.34992857142857e+01 8.68535577838926e-05 2.10212095327327e-06
3.36150000000000e+01 8.47328217836631e-05 2.05433159264073e-06
3.37307142857143e+01 8.26638685974892e-05 2.00761677436750e-06
3.38464285714286e+01 8.06454338187622e-05 1.96195269212123e-06
3.39621428571429e+01 7.86762839205693e-05 1.91731605323142e-06
3.40778571428571e+01 7.67552154954864e-05 1.87368407249239e-06
3.41935714285714e+01 7.48810545201351e-05 1.83103445991127e-06
3.43092857142857e+01 7.30526556377100e-05 1.78934541025985e-06
3.44250000000000e+01 7.12689014580121e-05 1.74859559164512e-06
3.45407142857143e+01 6.95287018795366e-05 1.70876413911727e-06
3.46564285714286e+01 6.78309934081433e-05 1.66983064239338e-06
3.47721428571429e+01 6.61747385225236e-05 1.63177513365551e-06
3.48878571428571e+01 6.45589250349156e-05 1.59457808200821e-06
3.50035714285714e+01 6.29825654725218e-05 1.55822038291346e-06
3.51192857142857e+01 6.14446964740415e-05 1.52268334913488e-06
3.52350000000000e+01 5.99443782009279e-05 1.48794870087531e-06
3.53507142857143e+01 5.84806937670995e-05 1.45399856011178e-06
3.54664285714286e+01 5.70527486661653e-05 1.42081544004738e-06
3.55821428571429e+01 5.56596702374202e-05 1.38838223463380e-06
3.56978571428571e+01 5.43006071282426e-05 1.35668221363879e-06
3.58135714285714e+01 5.29747287738041e-05 1.32569901354637e-06
3.59292857142857e+01 5.16812248894919e-05 1.29541662971983e-06
3.60450000000000e+01 5.04193049757161e-05 1.26581940790178e-06
3.61607142857143e+01 4.91881978381627e-05 1.23689203921240e-06
3.62764285714286e+01 4.79871511062660e-05 1.20861955109434e-06
3.63921428571429e+01 4.68154307838181e-05 1.18098729832369e-06
3.65078571428571e+01 4.56723207968715e-05 1.15398095863897e-06
