Energy (eV)          EEDF (eV^-(3/2))     First Anisotropy
4.78333333333333e-02 4.68978627366625e-02 3.20569039245078e-05
1.43500000000000e-01 4.63605359152244e-02 5.28093459009054e-05
2.39166666666667e-01 4.58293654544600e-02 6.93820752060233e-05
3.34833333333333e-01 4.53042808169441e-02 8.17721364218650e-05
4.30500000000000e-01 4.47852122751846e-02 9.19411099626137e-05
5.26166666666667e-01 4.42720909018817e-02 1.00635775333438e-04
6.21833333333333e-01 4.37648485568710e-02 1.08245130516900e-04
7.17500000000000e-01 4.32634178818994e-02 1.15005581636993e-04
8.13166666666667e-01 4.27677322911828e-02 1.21074902704612e-04
9.08833333333333e-01 4.22777259604158e-02 1.26565296119894e-04
1.00450000000000e+00 4.17933338201514e-02 1.31560327343097e-04
1.10016666666667e+00 4.13144915482232e-02 1.36124464554310e-04
1.19583333333333e+00 4.08411355546617e-02 1.40308843667162e-04
1.29150000000000e+00 4.03732029811573e-02 1.44154947916018e-04
1.38716666666667e+00 3.99106316932268e-02 1.47697063050363e-04
1.48283333333333e+00 3.94533602610764e-02 1.50963972288419e-04
1.57850000000000e+00 3.90013279622826e-02 1.53980162833360e-04
1.67416666666667e+00 3.85544747730006e-02 1.56766709172964e-04
1.76983333333333e+00 3.81127413514207e-02 1.59341930479200e-04
1.86550000000000e+00 3.76760690384417e-02 1.61721890557173e-04
1.96116666666667e+00 3.72443998493705e-02 1.63920786516815e-04
2.05683333333333e+00 3.68176764592317e-02 1.65951252163535e-04
2.15250000000000e+00 3.63958422021408e-02 1.67824599225038e-04
2.24816666666667e+00 3.59788410634010e-02 1.69551013283725e-04
2.34383333333333e+00 3.55666176662209e-02 1.71139711603280e-04
2.43950000000000e+00 3.51591172702070e-02 1.72599072707790e-04
2.53516666666667e+00 3.47562857638022e-02 1.73936745383454e-04
2.63083333333333e+00 3.43580696521251e-02 1.75159738305266e-04
2.72650000000000e+00 3.39644160548470e-02 1.76274495427322e-04
2.82216666666667e+00 3.35752726989384e-02 1.77286961353898e-04
2.91783333333333e+00 3.31905879074294e-02 1.78202635763331e-04
3.01350000000000e+00 3.28103105968535e-02 1.79026620062580e-04
3.10916666666667e+00 3.24343902702739e-02 1.79763658992418e-04
3.20483333333333e+00 3.20627770068250e-02 1.80418175467788e-04
3.30050000000000e+00 3.16954214588455e-02 1.80994300901953e-04
3.39616666666667e+00 3.13322748451685e-02 1.81495902998492e-04
3.49183333333333e+00 3.09732889413341e-02 1.81926609027135e-04
3.58750000000000e+00 3.06184160765049e-02 1.82289826336263e-04
3.68316666666667e+00 3.02676091270025e-02 1.82588761680777e-04
3.77883333333333e+00 2.99208215071103e-02 1.82826437327869e-04
3.87450000000000e+00 2.95780071658368e-02 1.83005705398541e-04
3.97016666666667e+00 2.92391205806867e-02 1.83129261775956e-04
4.06583333333333e+00 2.89041167489876e-02 1.83199657581769e-04
4.16150000000000e+00 2.85729511845520e-02 1.83219309485120e-04
4.25716666666667e+00 2.82455799116720e-02 1.83190510009176e-04
4.35283333333333e+00 2.79219594569165e-02 1.83115435914307e-04
4.44850000000000e+00 2.76020468457303e-02 1.82996155785016e-04
4.54416666666667e+00 2.72857995966432e-02 1.82834637864782e-04
4.63983333333333e+00 2.69731757134923e-02 1.82632756311094e-04
4.73550000000000e+00 2.66641336819905e-02 1.82392296892920e-04
4.83116666666667e+00 2.63586324641383e-02 1.82114963081432e-04
4.92683333333333e+00 2.60566314908372e-02 1.81802380803279e-04
5.02250000000000e+00 2.57580906584480e-02 1.81456102794377e-04
5.11816666666667e+00 2.54629703233997e-02 1.81077613429318e-04
5.21383333333333e+00 2.51712312951604e-02 1.80668332391178e-04
5.30950000000000e+00 2.48828348328057e-02 1.80229618049353e-04
5.40516666666667e+00 2.45977426398154e-02 1.79762771356669e-04
5.50083333333333e+00 2.43159168573762e-02 1.79269038722116e-04
5.59650000000000e+00 2.40373200609734e-02 1.78749614666469e-04
5.69216666666667e+00 2.37619152553695e-02 1.78205645016652e-04
5.78783333333333e+00 2.34896658682139e-02 1.77638229181981e-04
5.88350000000000e+00 2.32205357466707e-02 1.77048422266353e-04
5.97916666666667e+00 2.29544891525710e-02 1.76437237723516e-04
6.07483333333333e+00 2.26914907563098e-02 1.75805649179961e-04
6.17050000000000e+00 2.24315056335184e-02 1.75154592132131e-04
6.26616666666667e+00 2.21744992603846e-02 1.74484966181462e-04
6.36183333333333e+00 2.19204375078179e-02 1.73797636507968e-04
6.45750000000000e+00 2.16692866381737e-02 1.73093435246346e-04
6.55316666666667e+00 2.14210133007354e-02 1.72373163388607e-04
6.64883333333333e+00 2.11755845261310e-02 1.71637591985169e-04
6.74450000000000e+00 2.09329677231158e-02 1.70887463269527e-04
6.84016666666667e+00 2.06931306742089e-02 1.70123492294400e-04
6.93583333333333e+00 2.04560415303483e-02 1.69346367917891e-04
7.03150000000000e+00 2.02216688077341e-02 1.68556753729099e-04
7.12716666666667e+00 1.99899813836161e-02 1.67755289468020e-04
7.22283333333333e+00 1.97609484911723e-02 1.66942591840456e-04
7.31850000000000e+00 1.95345397164172e-02 1.66119255284495e-04
7.41416666666667e+00 1.93107249941339e-02 1.65285853212933e-04
7.50983333333333e+00 1.90894746029645e-02 1.64442938690449e-04
7.60550000000000e+00 1.88707591623857e-02 1.63591045071802e-04
7.70116666666667e+00 1.86545496287808e-02 1.62730687097012e-04
7.79683333333333e+00 1.84408172907298e-02 1.61862361456861e-04
7.89250000000000e+00 1.82295337660547e-02 1.60986547326776e-04
7.98816666666667e+00 1.80206709980263e-02 1.60103707338741e-04
8.08383333333333e+00 1.78142012508439e-02 1.59214288055545e-04
8.17950000000000e+00 1.76100971067513e-02 1.58318720419216e-04
8.27516666666667e+00 1.74083314623733e-02 1.57417420618771e-04
8.37083333333333e+00 1.72088775243763e-02 1.56510790489403e-04
8.46650000000000e+00 1.70117088066551e-02 1.55599217890459e-04
8.56216666666667e+00 1.68167991267944e-02 1.54683077484426e-04
8.65783333333333e+00 1.66241226019021e-02 1.53762731073977e-04
8.75350000000000e+00 1.64336536458664e-02 1.52838527921515e-04
8.84916666666667e+00 1.62453669659390e-02 1.51910805451944e-04
8.94483333333333e+00 1.60592375587316e-02 1.50979889537947e-04
9.04050000000000e+00 1.58752407075441e-02 1.50046094770765e-04
9.13616666666667e+00 1.56933519790654e-02 1.49109725097099e-04
9.23183333333333e+00 1.55135472195247e-02 1.48171074061043e-04
9.32750000000000e+00 1.53358025520916e-02 1.47230425033952e-04
9.42316666666667e+00 1.51600943736886e-02 1.46288051793998e-04
9.51883333333333e+00 1.49863993512924e-02 1.45344218731663e-04
9.61450000000000e+00 1.48146944194033e-02 1.44399181045120e-04
9.71016666666667e+00 1.46449567769672e-02 1.43453185269574e-04
9.80583333333333e+00 1.44771638838187e-02 1.42506469451940e-04
9.90150000000000e+00 1.43112934582198e-02 1.41559263317077e-04
9.99716666666667e+00 1.41473234738879e-02 1.40611788752864e-04
1.00928333333333e+01 1.39852321565734e-02 1.39664260060002e-04
1.01885000000000e+01 1.38249979811952e-02 1.38716883589056e-04
1.02841666666667e+01 1.36665996713244e-02 1.37769859087821e-04
1.03798333333333e+01 1.35100161912037e-02 1.36823379438949e-04
1.04755000000000e+01 1.33552267476456e-02 1.35877629769931e-04
1.05711666666667e+01 1.32022107871493e-02 1.34932789648336e-04
1.06668333333333e+01 1.30509479887901e-02 1.33989032308251e-04
1.07625000000000e+01 1.29014182659293e-02 1.33046523891712e-04
1.08581666666667e+01 1.27536017634325e-02 1.32105425528660e-04
1.09538333333333e+01 1.26074788509145e-02 1.31165892588451e-04
1.10495000000000e+01 1.24630301242766e-02 1.30228073946212e-04
1.11451666666667e+01 1.23202364030242e-02 1.29292113955258e-04
1.12408333333333e+01 1.21790787238435e-02 1.28358151723737e-04
1.13365000000000e+01 1.20395383419838e-02 1.27426320405899e-04
1.14321666666667e+01 1.19015967286684e-02 1.26496749073988e-04
1.15278333333333e+01 1.17652355649856e-02 1.25569562019889e-04
1.16235000000000e+01 1.16304367431279e-02 1.24644878071111e-04
1.17191666666667e+01 1.14971823638941e-02 1.23722812368545e-04
1.18148333333333e+01 1.13654547308752e-02 1.22803475692808e-04
1.19105000000000e+01 1.12352363515635e-02 1.21886973804580e-04
1.20061666666667e+01 1.11065099349431e-02 1.20973409134082e-04
1.21018333333333e+01 1.09792583859527e-02 1.20062880131696e-04
1.21975000000000e+01 1.08534648064768e-02 1.19155480632222e-04
1.22931666666667e+01 1.07291124930207e-02 1.18251301461402e-04
1.23888333333333e+01 1.06061849314350e-02 1.17350429810299e-04
1.24845000000000e+01 1.04846657977993e-02 1.16452948622956e-04
1.25801666666667e+01 1.03645389561780e-02 1.15558938124888e-04
1.26758333333333e+01 1.02457884535925e-02 1.14668475220650e-04
1.27715000000000e+01 1.01283985208062e-02 1.13781632904290e-04
1.28671666666667e+01 1.00123535701591e-02 1.12898481714343e-04
1.29628333333333e+01 9.89763819077297e-03 1.12019089153974e-04
1.30585000000000e+01 9.78423714924717e-03 1.11143519123604e-04
1.31541666666667e+01 9.67213538756836e-03 1.10271833306589e-04
1.32498333333333e+01 9.56131801853677e-03 1.09404090611282e-04
1.33455000000000e+01 9.45177032638004e-03 1.08540346625157e-04
1.34411666666667e+01 9.34347776473575e-03 1.07680654935094e-04
1.35368333333333e+01 9.23642595228656e-03 1.06825066590663e-04
1.36325000000000e+01 9.13060067329950e-03 1.05973629579076e-04
1.37281666666667e+01 9.02598787567854e-03 1.05126390083668e-04
1.38238333333333e+01 8.92257366679772e-03 1.04283391967733e-04
1.39195000000000e+01 8.82034431397216e-03 1.03444676269635e-04
1.40151666666667e+01 8.71928624257843e-03 1.02610282402824e-04
1.41108333333333e+01 8.61938603207500e-03 1.01780247659531e-04
1.42065000000000e+01 8.52063041641126e-03 1.00954606725357e-04
1.43021666666667e+01 8.42300628221302e-03 1.00133392823968e-04
1.43978333333333e+01 8.32650066498076e-03 9.93166372399424e-05
1.44935000000000e+01 8.23110074944197e-03 9.85043688521778e-05
1.45891666666667e+01 8.13679386779957e-03 9.76966152261507e-05
1.46848333333333e+01 8.04356749609878e-03 9.68934021552896e-05
1.47805000000000e+01 7.95140925452785e-03 9.60947532124793e-05
1.48761666666667e+01 7.86030690572711e-03 9.53006907926477e-05
1.49718333333333e+01 7.77024835131595e-03 9.45112356719762e-05
1.50675000000000e+01 7.68122163214650e-03 9.37264065768504e-05
1.51631666666667e+01 7.59321492667119e-03 9.29462211793421e-05
1.52588333333333e+01 7.50621654762177e-03 9.21706956735788e-05
1.53545000000000e+01 7.42021494222016e-03 9.13998443615095e-05
1.54501666666667e+01 7.33519869060247e-03 9.06336806036777e-05
1.55458333333333e+01 7.25115650264249e-03 8.98722164121102e-05
1.56415000000000e+01 7.16807721812355e-03 8.91154620522647e-05
1.57371666666667e+01 7.08594980521705e-03 8.83634269513423e-05
1.58328333333333e+01 7.00476335744325e-03 8.76161193070830e-05
1.59285000000000e+01 6.92450709380775e-03 8.68735457052743e-05
1.60241666666667e+01 6.84517035733250e-03 8.61357119877161e-05
1.61198333333333e+01 6.76674261214734e-03 8.54026228763192e-05
1.62155000000000e+01 6.68921344359424e-03 8.46742816055839e-05
1.63111666666667e+01 6.61257255680896e-03 8.39506907522104e-05
1.64068333333333e+01 6.53680977393706e-03 8.32318518739007e-05
1.65025000000000e+01 6.46191503420879e-03 8.25177651562277e-05
1.65981666666667e+01 6.38787839256979e-03 8.18084302057817e-05
1.66938333333333e+01 6.31469001701540e-03 8.11038457031078e-05
1.67895000000000e+01 6.24234018863913e-03 8.04040090634013e-05
1.68851666666667e+01 6.17081930031053e-03 7.97089171949471e-05
1.69808333333333e+01 6.10011785412227e-03 7.90185661656464e-05
1.70765000000000e+01 6.03022646141468e-03 7.83329508770092e-05
1.71721666666667e+01 5.96113584149909e-03 7.76520657895529e-05
1.72678333333333e+01 5.89283681921247e-03 7.69759046023823e-05
1.73635000000000e+01 5.82532032492020e-03 7.63044599399540e-05
1.74591666666667e+01 5.75857739328345e-03 7.56377240460169e-05
1.75548333333333e+01 5.69259916091620e-03 7.49756884757369e-05
1.76505000000000e+01 5.62737686636852e-03 7.43183437947235e-05
1.77461666666667e+01 5.56290184893625e-03 7.36656802430048e-05
1.78418333333333e+01 5.49916554641587e-03 7.30176874391971e-05
1.79375000000000e+01 5.43615949507004e-03 7.23743540913120e-05
1.80331666666667e+01 5.37387532847826e-03 7.17356686321737e-05
1.81288333333333e+01 5.31230477538497e-03 7.11016189351640e-05
1.82245000000000e+01 5.25143965964919e-03 7.04721920363405e-05
1.83201666666667e+01 5.19127189913476e-03 6.98473747426309e-05
1.84158333333333e+01 5.13179350364733e-03 6.92271533586890e-05
1.85115000000000e+01 5.07299657486983e-03 6.86115134198782e-05
1.86071666666667e+01 5.01487330529080e-03 6.80004402745094e-05
1.87028333333333e+01 4.95741597622639e-03 6.73939188213604e-05
1.87985000000000e+01 4.90061695774300e-03 6.67919332531001e-05
1.88941666666667e+01 4.84446870762253e-03 6.61944676137592e-05
1.89898333333333e+01 4.78896376946538e-03 6.56015055464994e-05
1.90855000000000e+01 4.73409477260183e-03 6.50130300470562e-05
1.91811666666667e+01 4.67985443109279e-03 6.44290239975788e-05
1.92768333333333e+01 4.62623554191026e-03 6.38494699242431e-05
1.93725000000000e+01 4.57323098483866e-03 6.32743497603098e-05
1.94681666666667e+01 4.52083372150983e-03 6.27036453574123e-05
1.95638333333333e+01 4.46903679365759e-03 6.21373382526194e-05
1.96595000000000e+01 4.41783332301010e-03 6.15754094407291e-05
1.97551666666667e+01 4.36721651035801e-03 6.10178398640323e-05
1.98508333333333e+01 4.31717963387971e-03 6.04646101884454e-05
1.99465000000000e+01 4.26771604902590e-03 5.99157005846673e-05
2.00421666666667e+01 4.21881918761968e-03 5.93710911973889e-05
2.01378333333333e+01 4.17048255624944e-03 5.88307619301299e-05
2.02335000000000e+01 4.12269973614657e-03 5.82946922349173e-05
2.03291666666667e+01 4.07546438231638e-03 5.77628615618601e-05
2.04248333333333e+01 4.02877022199572e-03 5.72352491523459e-05
2.05205000000000e+01 3.98261105452468e-03 5.67118338368924e-05
2.06161666666667e+01 3.93698075050730e-03 5.61925944659644e-05
2.07118333333333e+01 3.89187325033107e-03 5.56775097112047e-05
2.08075000000000e+01 3.84728256403349e-03 5.51665578711328e-05
2.09031666666667e+01 3.80320277049150e-03 5.46597172840334e-05
2.09988333333333e+01 3.75962801600025e-03 5.41569661368993e-05
2.10945000000000e+01 3.71655251413513e-03 5.36582822786665e-05
2.11901666666667e+01 3.67397054496914e-03 5.31636436159741e-05
2.12858333333333e+01 3.63187645370815e-03 5.26730279295068e-05
2.13815000000000e+01 3.59026465054932e-03 5.21864126944644e-05
2.14771666666667e+01 3.54912960992520e-03 5.17037754599500e-05
2.15728333333333e+01 3.50846586919330e-03 5.12250936724165e-05
2.16685000000000e+01 3.46826802849134e-03 5.07503445030863e-05
2.17641666666667e+01 3.42853075000733e-03 5.02795052116842e-05
2.18598333333333e+01 3.38924875672092e-03 4.98125529767010e-05
2.19555000000000e+01 3.35041683225630e-03 4.93494647294905e-05
2.20511666666667e+01 3.31202982017712e-03 4.88902175030294e-05
2.21468333333333e+01 3.27408262277768e-03 4.84347882687391e-05
2.22425000000000e+01 3.23657020093375e-03 4.79831537769806e-05
2.23381666666667e+01 3.19948757342168e-03 4.75352908914904e-05
2.24338333333333e+01 3.16282981575717e-03 4.70911764325075e-05
2.25295000000000e+01 3.12659206004460e-03 4.66507870234164e-05
2.26251666666667e+01 3.09076949431945e-03 4.62140994114771e-05
2.27208333333333e+01 3.05535736143267e-03 4.57810903169968e-05
2.28165000000000e+01 3.02035095889892e-03 4.53517362858882e-05
2.29121666666667e+01 2.98574563826153e-03 4.49260139972860e-05
2.30078333333333e+01 2.95153680402055e-03 4.45039001185230e-05
2.31035000000000e+01 2.91771991348033e-03 4.40853711633631e-05
2.31991666666667e+01 2.88429047613617e-03 4.36704037870698e-05
2.32948333333333e+01 2.85124405264430e-03 4.32589746469641e-05
2.33905000000000e+01 2.81857625466913e-03 4.28510602661016e-05
2.34861666666667e+01 2.78628274429087e-03 4.24466373163364e-05
2.35818333333333e+01 2.75435923301566e-03 4.20456824842301e-05
2.36775000000000e+01 2.72280148162282e-03 4.16481723399679e-05
2.37731666666667e+01 2.69160529959278e-03 4.12540836089282e-05
2.38688333333333e+01 2.66076654415562e-03 4.08633930427323e-05
2.39645000000000e+01 2.63028112013870e-03 4.04760772931886e-05
2.40601666666667e+01 2.60014497941408e-03 4.00921131728579e-05
2.41558333333333e+01 2.57035411998404e-03 3.97114775310441e-05
2.42515000000000e+01 2.54090458582924e-03 3.93341471325695e-05
2.43471666666667e+01 2.51179246637503e-03 3.89600989077992e-05
2.44428333333333e+01 2.48301389561239e-03 3.85893098333817e-05
2.45385000000000e+01 2.45456505194684e-03 3.82217568156612e-05
2.46341666666667e+01 2.42644215768310e-03 3.78574169306104e-05
2.47298333333333e+01 2.39864147817986e-03 3.74962673091314e-05
2.48255000000000e+01 2.37115932169981e-03 3.71382850249253e-05
2.49211666666667e+01 2.34399203891185e-03 3.67834473247584e-05
2.50168333333333e+01 2.31713602207848e-03 3.64317315181441e-05
2.51125000000000e+01 2.29058770490702e-03 3.60831148694964e-05
2.52081666666667e+01 2.26434356206884e-03 3.57375748191331e-05
2.53038333333333e+01 2.23840010841800e-03 3.53950888771674e-05
2.53995000000000e+01 2.21275389884385e-03 3.50556345197750e-05
2.54951666666667e+01 2.18740152780674e-03 3.47191894013295e-05
2.55908333333333e+01 2.16233962858656e-03 3.43857312523351e-05
2.56865000000000e+01 2.13756487313696e-03 3.40552377796499e-05
2.57821666666667e+01 2.11307397163691e-03 3.37276868701189e-05
2.58778333333333e+01 2.08886367176798e-03 3.34030564923892e-05
2.59735000000000e+01 2.06493075857030e-03 3.30813246009358e-05
2.60691666666667e+01 2.04127205400941e-03 3.27624693315488e-05
2.61648333333333e+01 2.01788441628116e-03 3.24464689068840e-05
2.62605000000000e+01 1.99476473966950e-03 3.21333015441369e-05
2.63561666666667e+01 1.97190995412809e-03 3.18229456427203e-05
2.64518333333333e+01 1.94931702461177e-03 3.15153796934080e-05
2.65475000000000e+01 1.92698295093620e-03 3.12105821895138e-05
2.66431666666667e+01 1.90490476737382e-03 3.09085318070882e-05
2.67388333333333e+01 1.88307954201072e-03 3.06092073175106e-05
2.68345000000000e+01 1.86150437660834e-03 3.03125875020365e-05
2.69301666666667e+01 1.84017640621322e-03 3.00186513248225e-05
2.70258333333333e+01 1.81909279853826e-03 2.97273778488345e-05
2.71215000000000e+01 1.79825075382659e-03 2.94387461536335e-05
2.72171666666667e+01 1.77764750447459e-03 2.91527355015258e-05
2.73128333333333e+01 1.75728031443663e-03 2.88693252566539e-05
2.74085000000000e+01 1.73714647909113e-03 2.85884948058947e-05
2.75041666666667e+01 1.71724332487642e-03 2.83102237184205e-05
2.75998333333333e+01 1.69756820871805e-03 2.80344916678495e-05
2.76955000000000e+01 1.67811851789704e-03 2.77612783561406e-05
2.77911666666667e+01 1.65889166969817e-03 2.74905636668259e-05
2.78868333333333e+01 1.63988511085899e-03 2.72223275901057e-05
2.79825000000000e+01 1.62109631744026e-03 2.69565501496245e-05
2.80781666666667e+01 1.60252279448635e-03 2.66932115496380e-05
2.81738333333333e+01 1.58416207549493e-03 2.64322921029374e-05
2.82695000000000e+01 1.56601172228982e-03 2.61737721603878e-05
2.83651666666667e+01 1.54806932469292e-03 2.59176322522857e-05
2.84608333333333e+01 1.53033250001391e-03 2.56638530190019e-05
2.85565000000000e+01 1.51279889292544e-03 2.54124151431738e-05
2.86521666666667e+01 1.49546617514626e-03 2.51632994854896e-05
2.87478333333333e+01 1.47833204495010e-03 2.49164870179456e-05
2.88435000000000e+01 1.46139422704326e-03 2.46719587585955e-05
2.89391666666667e+01 1.44465047225853e-03 2.44296959019807e-05
2.90348333333333e+01 1.42809855708252e-03 2.41896797549043e-05
2.91305000000000e+01 1.41173628353563e-03 2.39518916736365e-05
2.92261666666667e+01 1.39556147887644e-03 2.37163131892140e-05
2.93218333333333e+01 1.37957199514675e-03 2.34829259456295e-05
2.94175000000000e+01 1.36376570905395e-03 2.32517116393978e-05
2.95131666666667e+01 1.34814052168549e-03 2.30226521399365e-05
2.96088333333333e+01 1.33269435807098e-03 2.27957294300749e-05
2.97045000000000e+01 1.31742516706695e-03 2.25709255478930e-05
2.98001666666667e+01 1.30233092108108e-03 2.23482227023777e-05
2.98958333333333e+01 1.28740961565062e-03 2.21276032161658e-05
2.99915000000000e+01 1.27265926932962e-03 2.19090494695687e-05
3.00871666666667e+01 1.25807792342257e-03 2.16925440116928e-05
3.01828333333333e+01 1.24366364157849e-03 2.14780695053337e-05
