Energy (eV)          EEDF (eV^-(3/2))     First Anisotropy
1.18750000000000e-02 1.21788810576889e-01 5.70496187475622e-05
3.56250000000000e-02 1.21133686026776e-01 9.42686751764925e-05
5.93750000000000e-02 1.20482085512617e-01 1.24613773707219e-04
8.31250000000000e-02 1.19833990078150e-01 1.47769993491501e-04
1.06875000000000e-01 1.19189380868938e-01 1.67167866396824e-04
1.30625000000000e-01 1.18548239131941e-01 1.84101616253346e-04
1.54375000000000e-01 1.17910546214990e-01 1.99239626939801e-04
1.78125000000000e-01 1.17276283566247e-01 2.12984705377660e-04
2.01875000000000e-01 1.16645432733664e-01 2.25603469745858e-04
2.25625000000000e-01 1.16017975364454e-01 2.37283987925430e-04
2.49375000000000e-01 1.15393893204549e-01 2.48165203113411e-04
2.73125000000000e-01 1.14773168098073e-01 2.58353454189880e-04
2.96875000000000e-01 1.14155781986817e-01 2.67932428232946e-04
3.20625000000000e-01 1.13541716909706e-01 2.76969492727729e-04
3.44375000000000e-01 1.12930955002283e-01 2.85519904095861e-04
3.68125000000000e-01 1.12323478496189e-01 2.93629706591322e-04
3.91875000000000e-01 1.11719269718640e-01 3.01337789642598e-04
4.15625000000000e-01 1.11118311091921e-01 3.08677385437249e-04
4.39375000000000e-01 1.10520585132869e-01 3.15677183081424e-04
4.63125000000000e-01 1.09926074452366e-01 3.22362173376937e-04
4.86875000000000e-01 1.09334761754834e-01 3.28754300108440e-04
5.10625000000000e-01 1.08746629837731e-01 3.34872969621642e-04
5.34375000000000e-01 1.08161661591050e-01 3.40735454808757e-04
5.58125000000000e-01 1.07579839996823e-01 3.46357219189304e-04
5.81875000000000e-01 1.07001148128623e-01 3.51752179680080e-04
6.05625000000000e-01 1.06425569151076e-01 3.56932921727294e-04
6.29375000000000e-01 1.05853086319366e-01 3.61910877000065e-04
6.53125000000000e-01 1.05283682978753e-01 3.66696471352603e-04
6.76875000000000e-01 1.04717342564083e-01 3.71299248949440e-04
7.00625000000000e-01 1.04154048599310e-01 3.75727977110723e-04
7.24375000000000e-01 1.03593784697019e-01 3.79990735436223e-04
7.48125000000000e-01 1.03036534557940e-01 3.84094992013355e-04
7.71875000000000e-01 1.02482281970485e-01 3.88047668939485e-04
7.95625000000000e-01 1.01931010810268e-01 3.91855198945936e-04
8.19375000000000e-01 1.01382705039642e-01 3.95523574566998e-04
8.43125000000000e-01 1.00837348707225e-01 3.99058391027600e-04
8.66875000000000e-01 1.00294925947445e-01 4.02464883810231e-04
8.90625000000000e-01 9.97554209800704e-02 4.05747961691983e-04
9.14375000000000e-01 9.92188181097572e-02 4.08912235906916e-04
9.38125000000000e-01 9.86851017255876e-02 4.11962045979335e-04
9.61875000000000e-01 9.81542563006188e-02 4.14901482684904e-04
9.85625000000000e-01 9.76262663914297e-02 4.17734408523458e-04
1.00937500000000e+00 9.71011166376726e-02 4.20464476028062e-04
1.03312500000000e+00 9.65787917616257e-02 4.23095144186346e-04
1.05687500000000e+00 9.60592765677492e-02 4.25629693208465e-04
1.08062500000000e+00 9.55425559422426e-02 4.28071237842611e-04
1.10437500000000e+00 9.50286148526056e-02 4.30422739410867e-04
1.12812500000000e+00 9.45174383472002e-02 4.32687016713818e-04
1.15187500000000e+00 9.40090115548165e-02 4.34866755932783e-04
1.17562500000000e+00 9.35033196842389e-02 4.36964519641031e-04
1.19937500000000e+00 9.30003480238172e-02 4.38982755021252e-04
1.22312500000000e+00 9.25000819410374e-02 4.40923801374082e-04
1.24687500000000e+00 9.20025068820967e-02 4.42789896991777e-04
1.27062500000000e+00 9.15076083714799e-02 4.44583185462302e-04
1.29437500000000e+00 9.10153720115382e-02 4.46305721461111e-04
1.31812500000000e+00 9.05257834820705e-02 4.47959476081459e-04
1.34187500000000e+00 9.00388285399065e-02 4.49546341747684e-04
1.36562500000000e+00 8.95544930184930e-02 4.51068136751377e-04
1.38937500000000e+00 8.90727628274808e-02 4.52526609445734e-04
1.41312500000000e+00 8.85936239523157e-02 4.53923442129301e-04
1.43687500000000e+00 8.81170624538301e-02 4.55260254647360e-04
1.46062500000000e+00 8.76430644678379e-02 4.56538607735972e-04
1.48437500000000e+00 8.71716162047309e-02 4.57760006131096e-04
1.50812500000000e+00 8.67027039490779e-02 4.58925901463053e-04
1.53187500000000e+00 8.62363140592256e-02 4.60037694954336e-04
1.55562500000000e+00 8.57724329669015e-02 4.61096739937134e-04
1.57937500000000e+00 8.53110471768194e-02 4.62104344205496e-04
1.60312500000000e+00 8.48521432662868e-02 4.63061772215243e-04
1.62687500000000e+00 8.43957078848142e-02 4.63970247143758e-04
1.65062500000000e+00 8.39417277537271e-02 4.64830952820750e-04
1.67437500000000e+00 8.34901896657792e-02 4.65645035539713e-04
1.69812500000000e+00 8.30410804847685e-02 4.66413605759157e-04
1.72187500000000e+00 8.25943871451552e-02 4.67137739702103e-04
1.74562500000000e+00 8.21500966516813e-02 4.67818480861052e-04
1.76937500000000e+00 8.17081960789927e-02 4.68456841415322e-04
1.79312500000000e+00 8.12686725712633e-02 4.69053803567232e-04
1.81687500000000e+00 8.08315133418207e-02 4.69610320802597e-04
1.84062500000000e+00 8.03967056727745e-02 4.70127319081143e-04
1.86437500000000e+00 7.99642369146461e-02 4.70605697961271e-04
1.88812500000000e+00 7.95340944860009e-02 4.71046331663808e-04
1.91187500000000e+00 7.91062658730821e-02 4.71450070079211e-04
1.93562500000000e+00 7.86807386294467e-02 4.71817739721154e-04
1.95937500000000e+00 7.82575003756034e-02 4.72150144630543e-04
1.98312500000000e+00 7.78365387986525e-02 4.72448067233205e-04
2.00687500000000e+00 7.74178416519277e-02 4.72712269153969e-04
2.03062500000000e+00 7.70013967546398e-02 4.72943491989917e-04
2.05437500000000e+00 7.65871919915221e-02 4.73142458045360e-04
2.07812500000000e+00 7.61752153124785e-02 4.73309871030938e-04
2.10187500000000e+00 7.57654547322324e-02 4.73446416729053e-04
2.12562500000000e+00 7.53578983299782e-02 4.73552763627472e-04
2.14937500000000e+00 7.49525342490346e-02 4.73629563523121e-04
2.17312500000000e+00 7.45493506964996e-02 4.73677452097797e-04
2.19687500000000e+00 7.41483359429074e-02 4.73697049467405e-04
2.22062500000000e+00 7.37494783218870e-02 4.73688960706286e-04
2.24437500000000e+00 7.33527662298232e-02 4.73653776347878e-04
2.26812500000000e+00 7.29581881255186e-02 4.73592072863289e-04
2.29187500000000e+00 7.25657325298582e-02 4.73504413118795e-04
2.31562500000000e+00 7.21753880254752e-02 4.73391346813478e-04
2.33937500000000e+00 7.17871432564189e-02 4.73253410898089e-04
2.36312500000000e+00 7.14009869278244e-02 4.73091129976191e-04
2.38687500000000e+00 7.10169078055840e-02 4.72905016688462e-04
2.41062500000000e+00 7.06348947160203e-02 4.72695572080930e-04
2.43437500000000e+00 7.02549365455612e-02 4.72463285958216e-04
2.45812500000000e+00 6.98770222404165e-02 4.72208637222346e-04
2.48187500000000e+00 6.95011408062564e-02 4.71932094198007e-04
2.50562500000000e+00 6.91272813078918e-02 4.71634114944959e-04
2.52937500000000e+00 6.87554328689557e-02 4.71315147557865e-04
2.55312500000000e+00 6.83855846715875e-02 4.70975630454633e-04
2.57687500000000e+00 6.80177259561174e-02 4.70615992653719e-04
2.60062500000000e+00 6.76518460207543e-02 4.70236654040729e-04
2.62437500000000e+00 6.72879342212737e-02 4.69838025624876e-04
2.64812500000000e+00 6.69259799707084e-02 4.69420509786036e-04
2.67187500000000e+00 6.65659727390407e-02 4.68984500512514e-04
2.69562500000000e+00 6.62079020528955e-02 4.68530383630151e-04
2.71937500000000e+00 6.58517574952360e-02 4.68058537023128e-04
2.74312500000000e+00 6.54975287050608e-02 4.67569330846733e-04
2.76687500000000e+00 6.51452053771019e-02 4.67063127732675e-04
2.79062500000000e+00 6.47947772615255e-02 4.66540282987031e-04
2.81437500000000e+00 6.44462341636334e-02 4.66001144781374e-04
2.83812500000000e+00 6.40995659435667e-02 4.65446054337270e-04
2.86187500000000e+00 6.37547625160105e-02 4.64875346104382e-04
2.88562500000000e+00 6.34118138499008e-02 4.64289347932568e-04
2.90937500000000e+00 6.30707099681328e-02 4.63688381238240e-04
2.93312500000000e+00 6.27314409472698e-02 4.63072761165102e-04
2.95687500000000e+00 6.23939969172556e-02 4.62442796739457e-04
2.98062500000000e+00 6.20583680611267e-02 4.61798791020598e-04
3.00437500000000e+00 6.17245446147268e-02 4.61141041246390e-04
3.02812500000000e+00 6.13925168664228e-02 4.60469838973865e-04
3.05187500000000e+00 6.10622751568224e-02 4.59785470215567e-04
3.07562500000000e+00 6.07338098784928e-02 4.59088215571530e-04
3.09937500000000e+00 6.04071114756816e-02 4.58378350357046e-04
3.12312500000000e+00 6.00821704440384e-02 4.57656144726595e-04
3.14687500000000e+00 5.97589773303383e-02 4.56921863793746e-04
3.17062500000000e+00 5.94375227322073e-02 4.56175767747564e-04
3.19437500000000e+00 5.91177972978485e-02 4.55418111965506e-04
3.21812500000000e+00 5.87997917257698e-02 4.54649147122737e-04
3.24187500000000e+00 5.84834967645139e-02 4.53869119298308e-04
3.26562500000000e+00 5.81689032123885e-02 4.53078270078182e-04
3.28937500000000e+00 5.78560019171991e-02 4.52276836655280e-04
3.31312500000000e+00 5.75447837759824e-02 4.51465051926566e-04
3.33687500000000e+00 5.72352397347417e-02 4.50643144587193e-04
3.36062500000000e+00 5.69273607881835e-02 4.49811339222188e-04
3.38437500000000e+00 5.66211379794553e-02 4.48969856395395e-04
3.40812500000000e+00 5.63165623998852e-02 4.48118912735938e-04
3.43187500000000e+00 5.60136251887228e-02 4.47258721022264e-04
3.45562500000000e+00 5.57123175328811e-02 4.46389490263810e-04
3.47937500000000e+00 5.54126306666806e-02 4.45511425780496e-04
3.50312500000000e+00 5.51145558715939e-02 4.44624729279960e-04
3.52687500000000e+00 5.48180844759920e-02 4.43729598932762e-04
3.55062500000000e+00 5.45232078548924e-02 4.42826229445490e-04
3.57437500000000e+00 5.42299174297079e-02 4.41914812131980e-04
3.59812500000000e+00 5.39382046679972e-02 4.40995534982630e-04
3.62187500000000e+00 5.36480610832165e-02 4.40068582731837e-04
3.64562500000000e+00 5.33594782344727e-02 4.39134136923694e-04
3.66937500000000e+00 5.30724477262777e-02 4.38192375976000e-04
3.69312500000000e+00 5.27869612083046e-02 4.37243475242678e-04
3.71687500000000e+00 5.25030103751442e-02 4.36287607074393e-04
3.74062500000000e+00 5.22205869660636e-02 4.35324940877760e-04
3.76437500000000e+00 5.19396827647661e-02 4.34355643173132e-04
3.78812500000000e+00 5.16602895991518e-02 4.33379877650807e-04
3.81187500000000e+00 5.13823993410803e-02 4.32397805225922e-04
3.83562500000000e+00 5.11060039061336e-02 4.31409584091847e-04
3.85937500000000e+00 5.08310952533816e-02 4.30415369772431e-04
3.88312500000000e+00 5.05576653851477e-02 4.29415315172939e-04
3.90687500000000e+00 5.02857063467763e-02 4.28409570629651e-04
3.93062500000000e+00 5.00152102264013e-02 4.27398283958363e-04
3.95437500000000e+00 4.97461691547163e-02 4.26381600501693e-04
3.97812500000000e+00 4.94785753047449e-02 4.25359663175297e-04
4.00187500000000e+00 4.92124208916137e-02 4.24332612512884e-04
4.02562500000000e+00 4.89476981723257e-02 4.23300586710283e-04
4.04937500000000e+00 4.86843994455346e-02 4.22263721668553e-04
4.07312500000000e+00 4.84225170513213e-02 4.21222151035847e-04
4.09687500000000e+00 4.81620433709708e-02 4.20176006248460e-04
4.12062500000000e+00 4.79029708267504e-02 4.19125416571036e-04
4.14437500000000e+00 4.76452918816897e-02 4.18070509135698e-04
4.16812500000000e+00 4.73889990393609e-02 4.17011408980331e-04
4.19187500000000e+00 4.71340848436608e-02 4.15948239086040e-04
4.21562500000000e+00 4.68805418785941e-02 4.14881120413754e-04
4.23937500000000e+00 4.66283627680575e-02 4.13810171940029e-04
4.26312500000000e+00 4.63775401756251e-02 4.12735510692037e-04
4.28687500000000e+00 4.61280668043349e-02 4.11657251781819e-04
4.31062500000000e+00 4.58799353964767e-02 4.10575508439745e-04
4.33437500000000e+00 4.56331387333808e-02 4.09490392047234e-04
4.35812500000000e+00 4.53876696352083e-02 4.08402012168896e-04
4.38187500000000e+00 4.51435209607416e-02 4.07310476583847e-04
4.40562500000000e+00 4.49006856071774e-02 4.06215891316410e-04
4.42937500000000e+00 4.46591565099194e-02 4.05118360666212e-04
4.45312500000000e+00 4.44189266423733e-02 4.04017987237508e-04
4.47687500000000e+00 4.41799890157419e-02 4.02914871968011e-04
4.50062500000000e+00 4.39423366788222e-02 4.01809114157106e-04
4.52437500000000e+00 4.37059627178031e-02 4.00700811493477e-04
4.54812500000000e+00 4.34708602560640e-02 3.99590060082130e-04
4.57187500000000e+00 4.32370224539749e-02 3.98476954470842e-04
4.59562500000000e+00 4.30044425086975e-02 3.97361587676120e-04
4.61937500000000e+00 4.27731136539873e-02 3.96244051208679e-04
4.64312500000000e+00 4.25430291599966e-02 3.95124435098349e-04
4.66687500000000e+00 4.23141823330788e-02 3.94002827918411e-04
4.69062500000000e+00 4.20865665155936e-02 3.92879316809514e-04
4.71437500000000e+00 4.18601750857136e-02 3.91753987503207e-04
4.73812500000000e+00 4.16350014572312e-02 3.90626924344891e-04
4.76187500000000e+00 4.14110390793673e-02 3.89498210316313e-04
4.78562500000000e+00 4.11882814365808e-02 3.88367927057659e-04
4.80937500000000e+00 4.09667220483786e-02 3.87236154889242e-04
4.83312500000000e+00 4.07463544691275e-02 3.86102972832744e-04
4.85687500000000e+00 4.05271722878668e-02 3.84968458631966e-04
4.88062500000000e+00 4.03091691281212e-02 3.83832688773364e-04
4.90437500000000e+00 4.00923386477158e-02 3.82695738506057e-04
4.92812500000000e+00 3.98766745385915e-02 3.81557681861429e-04
4.95187500000000e+00 3.96621705266211e-02 3.80418591672495e-04
4.97562500000000e+00 3.94488203714276e-02 3.79278539592783e-04
4.99937500000000e+00 3.92366178662017e-02 3.78137596114931e-04
5.02312500000000e+00 3.90255568375219e-02 3.76995830588902e-04
5.04687500000000e+00 3.88156311451745e-02 3.75853311239820e-04
5.07062500000000e+00 3.86068346819754e-02 3.74710105185576e-04
5.09437500000000e+00 3.83991613735920e-02 3.73566278454090e-04
5.11812500000000e+00 3.81926051783666e-02 3.72421896000162e-04
5.14187500000000e+00 3.79871600871409e-02 3.71277021722122e-04
5.16562500000000e+00 3.77828201230809e-02 3.70131718478139e-04
5.18937500000000e+00 3.75795793415029e-02 3.68986048102213e-04
5.21312500000000e+00 3.73774318297011e-02 3.67840071419925e-04
5.23687500000000e+00 3.71763717067749e-02 3.66693848263842e-04
5.26062500000000e+00 3.69763931234583e-02 3.65547437488732e-04
5.28437500000000e+00 3.67774902619497e-02 3.64400896986454e-04
5.30812500000000e+00 3.65796573357424e-02 3.63254283700557e-04
5.33187500000000e+00 3.63828885894564e-02 3.62107653640723e-04
5.35562500000000e+00 3.61871782986709e-02 3.60961061896839e-04
5.37937500000000e+00 3.59925207697579e-02 3.59814562652912e-04
5.40312500000000e+00 3.57989103397166e-02 3.58668209200682e-04
5.42687500000000e+00 3.56063413760082e-02 3.57522053953033e-04
5.45062500000000e+00 3.54148082763926e-02 3.56376148457191e-04
5.47437500000000e+00 3.52243054687653e-02 3.55230543407628e-04
5.49812500000000e+00 3.50348274109948e-02 3.54085288658814e-04
5.52187500000000e+00 3.48463685907621e-02 3.52940433237724e-04
5.54562500000000e+00 3.46589235253999e-02 3.51796025356132e-04
5.56937500000000e+00 3.44724867617331e-02 3.50652112422711e-04
5.59312500000000e+00 3.42870528759203e-02 3.49508741054858e-04
5.61687500000000e+00 3.41026164732958e-02 3.48365957090464e-04
5.64062500000000e+00 3.39191721882132e-02 3.47223805599387e-04
5.66437500000000e+00 3.37367146838883e-02 3.46082330894641e-04
5.68812500000000e+00 3.35552386522451e-02 3.44941576543697e-04
5.71187500000000e+00 3.33747388137603e-02 3.43801585379252e-04
5.73562500000000e+00 3.31952099173102e-02 3.42662399510029e-04
5.75937500000000e+00 3.30166467400179e-02 3.41524060331395e-04
5.78312500000000e+00 3.28390440871014e-02 3.40386608535710e-04
5.80687500000000e+00 3.26623967917224e-02 3.39250084122553e-04
5.83062500000000e+00 3.24866997148357e-02 3.38114526408805e-04
5.85437500000000e+00 3.23119477450403e-02 3.36979974038523e-04
5.87812500000000e+00 3.21381357984303e-02 3.35846464992702e-04
5.90187500000000e+00 3.19652588184469e-02 3.34714036598915e-04
5.92562500000000e+00 3.17933117757318e-02 3.33582725540660e-04
5.94937500000000e+00 3.16222896679801e-02 3.32452567866676e-04
5.97312500000000e+00 3.14521875197955e-02 3.31323599000073e-04
5.99687500000000e+00 3.12830003825454e-02 3.30195853747270e-04
6.02062500000000e+00 3.11147233342165e-02 3.29069366306946e-04
6.04437500000000e+00 3.09473514792722e-02 3.27944170278718e-04
6.06812500000000e+00 3.07808799485096e-02 3.26820298671653e-04
6.09187500000000e+00 3.06153038989184e-02 3.25697783912747e-04
6.11562500000000e+00 3.04506185135397e-02 3.24576657855228e-04
6.13937500000000e+00 3.02868190013258e-02 3.23456951786736e-04
6.16312500000000e+00 3.01239005970011e-02 3.22338696437374e-04
6.18687500000000e+00 2.99618585609231e-02 3.21221921987614e-04
6.21062500000000e+00 2.98006881789449e-02 3.20106658076104e-04
6.23437500000000e+00 2.96403847622777e-02 3.18992933807387e-04
6.25812500000000e+00 2.94809436473548e-02 3.17880777759440e-04
6.28187500000000e+00 2.93223601956954e-02 3.16770217991136e-04
6.30562500000000e+00 2.91646297937701e-02 3.15661282049565e-04
6.32937500000000e+00 2.90077478528665e-02 3.14553996977270e-04
6.35312500000000e+00 2.88517098089559e-02 3.13448389319365e-04
6.37687500000000e+00 2.86965111225600e-02 3.12344485130542e-04
6.40062500000000e+00 2.85421472786195e-02 3.11242309981993e-04
6.42437500000000e+00 2.83886137863623e-02 3.10141888968178e-04
6.44812500000000e+00 2.82359061791731e-02 3.09043246713556e-04
6.47187500000000e+00 2.80840200144632e-02 3.07946407379185e-04
6.49562500000000e+00 2.79329508735416e-02 3.06851394669180e-04
6.51937500000000e+00 2.77826943614860e-02 3.05758231837173e-04
6.54312500000000e+00 2.76332461070154e-02 3.04666941692609e-04
6.56687500000000e+00 2.74846017623626e-02 3.03577546606904e-04
6.59062500000000e+00 2.73367570031481e-02 3.02490068519649e-04
6.61437500000000e+00 2.71897075282537e-02 3.01404528944635e-04
6.63812500000000e+00 2.70434490596980e-02 3.00320948975799e-04
6.66187500000000e+00 2.68979773425113e-02 2.99239349293028e-04
6.68562500000000e+00 2.67532881446126e-02 2.98159750167976e-04
6.70937500000000e+00 2.66093772566858e-02 2.97082171469793e-04
6.73312500000000e+00 2.64662404920575e-02 2.96006632670652e-04
6.75687500000000e+00 2.63238736865751e-02 2.94933152851353e-04
6.78062500000000e+00 2.61822726984861e-02 2.93861750706773e-04
6.80437500000000e+00 2.60414334083168e-02 2.92792444551125e-04
6.82812500000000e+00 2.59013517187532e-02 2.91725252323379e-04
6.85187500000000e+00 2.57620235545215e-02 2.90660191592475e-04
6.87562500000000e+00 2.56234448622695e-02 2.89597279562355e-04
6.89937500000000e+00 2.54856116104486e-02 2.88536533077122e-04
6.92312500000000e+00 2.53485197891969e-02 2.87477968626042e-04
6.94687500000000e+00 2.52121654102220e-02 2.86421602348409e-04
6.97062500000000e+00 2.50765445066856e-02 2.85367450038448e-04
6.99437500000000e+00 2.49416531330874e-02 2.84315527150114e-04
7.01812500000000e+00 2.48074873651510e-02 2.83265848801781e-04
7.04187500000000e+00 2.46740432997092e-02 2.82218429780924e-04
7.06562500000000e+00 2.45413170545908e-02 2.81173284548705e-04
7.08937500000000e+00 2.44093047685073e-02 2.80130427244468e-04
7.11312500000000e+00 2.42780026009411e-02 2.79089871690232e-04
7.13687500000000e+00 2.41474067320331e-02 2.78051631395078e-04
7.16062500000000e+00 2.40175133624722e-02 2.77015719559496e-04
7.18437500000000e+00 2.38883187133845e-02 2.75982149079656e-04
7.20812500000000e+00 2.37598190262230e-02 2.74950932551636e-04
7.23187500000000e+00 2.36320105626592e-02 2.73922082275591e-04
7.25562500000000e+00 2.35048896044732e-02 2.72895610259840e-04
7.27937500000000e+00 2.33784524534465e-02 2.71871528224918e-04
7.30312500000000e+00 2.32526954312538e-02 2.70849847607549e-04
7.32687500000000e+00 2.31276148793562e-02 2.69830579564616e-04
7.35062500000000e+00 2.30032071588949e-02 2.68813734977059e-04
7.37437500000000e+00 2.28794686505849e-02 2.67799324453655e-04
7.39812500000000e+00 2.27563957546104e-02 2.66787358334798e-04
7.42187500000000e+00 2.26339848905193e-02 2.65777846696269e-04
7.44562500000000e+00 2.25122324971196e-02 2.64770799352892e-04
7.46937500000000e+00 2.23911350323757e-02 2.63766225862146e-04
7.49312500000000e+00 2.22706889733051e-02 2.62764135527763e-04
