Energy (eV)          EEDF (eV^-(3/2))     First Anisotropy
8.52500000000000e-02 1.05324211040599e+00 2.54985915480950e-03
2.55750000000000e-01 8.85872569764939e-01 3.88907019691467e-03
4.26250000000000e-01 7.45099537996478e-01 4.34740321768440e-03
5.96750000000000e-01 6.26696593246902e-01 4.35948938611011e-03
7.67250000000000e-01 5.27108929691926e-01 4.17049558697828e-03
9.37750000000000e-01 4.43346631775139e-01 3.88398875436764e-03
1.10825000000000e+00 3.72894908119352e-01 3.55452504399170e-03
1.27875000000000e+00 3.13638590067974e-01 3.21321489971290e-03
1.44925000000000e+00 2.63798628079796e-01 2.87821097873207e-03
1.61975000000000e+00 2.21878679411550e-01 2.55994585364449e-03
1.79025000000000e+00 1.86620183492849e-01 2.26406415488876e-03
1.96075000000000e+00 1.56964576223684e-01 1.99318500521745e-03
2.13125000000000e+00 1.32021508756178e-01 1.74801081364748e-03
2.30175000000000e+00 1.11042116594634e-01 1.52804543076472e-03
2.47225000000000e+00 9.33965364733741e-02 1.33206744985399e-03
2.64275000000000e+00 7.85549960026955e-02 1.15844471938849e-03
2.81325000000000e+00 6.60719083383003e-02 1.00534336829465e-03
2.98375000000000e+00 5.55724943492450e-02 8.70865584681884e-04
3.15425000000000e+00 4.67415306424055e-02 7.53138768327796e-04
3.32475000000000e+00 3.93138856259493e-02 6.50371321344149e-04
3.49525000000000e+00 3.30665594765101e-02 5.60885542207403e-04
3.66575000000000e+00 2.78119890263882e-02 4.83134880302868e-04
3.83625000000000e+00 2.33924165637317e-02 4.15710621876168e-04
4.00675000000000e+00 1.96751534804634e-02 3.57341565473566e-04
4.17725000000000e+00 1.65485965686837e-02 3.06889185714175e-04
4.34775000000000e+00 1.39188773630141e-02 2.63340036006564e-04
4.51825000000000e+00 1.17070439322479e-02 2.25796609002773e-04
4.68875000000000e+00 9.84669050937761e-03 1.93467494156685e-04
4.85925000000000e+00 8.28196379449737e-03 1.65657400665402e-04
5.02975000000000e+00 6.96588607390898e-03 1.41757420570427e-04
5.20025000000000e+00 5.85894481051930e-03 1.21235769158572e-04
5.37075000000000e+00 4.92790636086989e-03 1.03629142534812e-04
5.54125000000000e+00 4.14481820308349e-03 8.85347641971175e-05
5.71175000000000e+00 3.48616971966563e-03 7.56031455609520e-05
5.88225000000000e+00 2.93218633938447e-03 6.45315537918880e-05
6.05275000000000e+00 2.46623584628506e-03 5.50581597266399e-05
6.22325000000000e+00 2.07432903148243e-03 4.69568259632843e-05
6.39375000000000e+00 1.74469969582685e-03 4.00324880875401e-05
6.56425000000000e+00 1.46745139388177e-03 3.41170787959541e-05
6.73475000000000e+00 1.23426031342603e-03 2.90659441537849e-05
6.90525000000000e+00 1.03812537004633e-03 2.47547024943504e-05
7.07575000000000e+00 8.73158013922016e-04 2.10764988832774e-05
7.24625000000000e+00 7.34405438181529e-04 1.79396111733360e-05
7.41675000000000e+00 6.17701881023764e-04 1.52653671356570e-05
7.58725000000000e+00 5.19543557255065e-04 1.29863357424402e-05
7.75775000000000e+00 4.36983464317575e-04 1.10447592387074e-05
7.92825000000000e+00 3.67542904575453e-04 9.39119607323013e-06
8.09875000000000e+00 3.09137067496874e-04 7.98334799685989e-06
8.26925000000000e+00 2.60012437489317e-04 6.78504764308477e-06
8.43975000000000e+00 2.18694148186612e-04 5.76538566321259e-06
8.61025000000000e+00 1.83941702608103e-04 4.89795899318916e-06
8.78075000000000e+00 1.54711729778415e-04 4.16022408592224e-06
8.95125000000000e+00 1.30126659651648e-04 3.53294096330531e-06
9.12175000000000e+00 1.09448375868772e-04 2.99969574077285e-06
9.29225000000000e+00 9.20560553262481e-05 2.54649087101711e-06
9.46275000000000e+00 7.74275292343299e-05 2.16139376011110e-06
9.63325000000000e+00 6.51236060690039e-05 1.83423564637216e-06
9.80375000000000e+00 5.47748857463268e-05 1.55635371697907e-06
9.97425000000000e+00 4.60706691417564e-05 1.32037038584474e-06
1.01447500000000e+01 3.87496299855180e-05 1.12000448366824e-06
1.03152500000000e+01 3.25919690767771e-05 9.49909831361403e-07
1.04857500000000e+01 2.74128152629738e-05 8.05537293845055e-07
1.06562500000000e+01 2.30566750622432e-05 6.83016953992875e-07
1.08267500000000e+01 1.93927642902080e-05 5.79057516545262e-07
1.09972500000000e+01 1.63110815328018e-05 4.90860458291642e-07
1.11677500000000e+01 1.37191055791900e-05 4.16046791869058e-07
1.13382500000000e+01 1.15390176619779e-05 3.52594613345676e-07
1.15087500000000e+01 9.70536510816026e-06 2.98785864690932e-07
1.16792500000000e+01 8.16309625671802e-06 2.53160966847401e-07
1.18497500000000e+01 6.86590764528953e-06 2.14480172288747e-07
1.20202500000000e+01 5.77485384358290e-06 1.81690651931953e-07
1.21907500000000e+01 4.85717819662543e-06 1.53898473782163e-07
1.23612500000000e+01 4.08532937331210e-06 1.30344752953205e-07
1.25317500000000e+01 3.43613419413809e-06 1.10385357529324e-07
1.27022500000000e+01 2.89010190396294e-06 9.34736445435497e-08
1.28727500000000e+01 2.43083900202139e-06 7.91457772485475e-08
1.30432500000000e+01 2.04455706065101e-06 6.70082406646775e-08
1.32137500000000e+01 1.71965875600227e-06 5.67272286766280e-08
1.33842500000000e+01 1.44638968215133e-06 4.80196240678278e-08
1.35547500000000e+01 1.21654549504766e-06 4.06453339966246e-08
1.37252500000000e+01 1.02322559389352e-06 3.44007785332893e-08
1.38957500000000e+01 8.60625944743423e-07 2.91133598548835e-08
1.40662500000000e+01 7.23864826276606e-07 2.46367652770575e-08
1.42367500000000e+01 6.08836266116372e-07 2.08469791241194e-08
1.44072500000000e+01 5.12086767422070e-07 1.76388970469732e-08
1.45777500000000e+01 4.30711624722208e-07 1.49234522606142e-08
1.47482500000000e+01 3.62267716084025e-07 1.26251766895670e-08
1.49187500000000e+01 3.04700153383087e-07 1.06801315241168e-08
1.50892500000000e+01 2.56280588497549e-07 9.03415149604224e-09
1.52597500000000e+01 2.15555323196945e-07 7.64135553093457e-09
1.54302500000000e+01 1.81301664831255e-07 6.46288353976948e-09
1.56007500000000e+01 1.52491217489221e-07 5.46582515857832e-09
1.57712500000000e+01 1.28259006518158e-07 4.62231138851601e-09
1.59417500000000e+01 1.07877509432226e-07 3.90874446305316e-09
1.61122500000000e+01 9.07348135403835e-08 3.30514498855144e-09
1.62827500000000e+01 7.63162445215742e-08 2.79459856645177e-09
1.64532500000000e+01 6.41889143827306e-08 2.36278679271717e-09
1.66237500000000e+01 5.39887248837142e-08 1.99758981377875e-09
1.67942500000000e+01 4.54094362336430e-08 1.68874955832461e-09
1.69647500000000e+01 3.81934728686156e-08 1.42758441220564e-09
1.71352500000000e+01 3.21241902731424e-08 1.20674750324861e-09
1.73057500000000e+01 2.70193706724440e-08 1.02002195110123e-09
1.74762500000000e+01 2.27257523171031e-08 8.62147446081008e-10
1.76467500000000e+01 1.91144281130513e-08 7.28673377326941e-10
1.78172500000000e+01 1.60769754501830e-08 6.15834457303826e-10
1.79877500000000e+01 1.35222010356304e-08 5.20445406394268e-10
1.81582500000000e+01 1.13734030019884e-08 4.39811784524979e-10
1.83287500000000e+01 9.56606809089704e-09 3.71654500615728e-10
1.84992500000000e+01 8.04593477463867e-09 3.14045907098916e-10
1.86697500000000e+01 6.76736416494284e-09 2.65355706021686e-10
1.88402500000000e+01 5.69196979887390e-09 2.24205163965025e-10
1.90107500000000e+01 4.78746516393006e-09 1.89428362546523e-10
1.91812500000000e+01 4.02669436165638e-09 1.60039405858609e-10
1.93517500000000e+01 3.38681680743236e-09 1.35204671133078e-10
1.95222500000000e+01 2.84862148871610e-09 1.14219328716228e-10
1.96927500000000e+01 2.39595019375349e-09 9.64874759070250e-11
1.98632500000000e+01 2.01521239437632e-09 8.15053295956766e-11
2.00337500000000e+01 1.69497721823918e-09 6.88470076928638e-11
2.02042500000000e+01 1.42563026029768e-09 5.81525013951018e-11
2.03747500000000e+01 1.19908492999559e-09 4.91175013692466e-11
2.05452500000000e+01 1.00853966795170e-09 4.14847926387548e-11
2.07157500000000e+01 8.48273743074956e-10 3.50369767402931e-11
2.08862500000000e+01 7.13475499334406e-10 2.95903167996045e-11
2.10567500000000e+01 6.00097895645344e-10 2.49895325742592e-11
2.12272500000000e+01 5.04737001752576e-10 2.11033990962832e-11
2.13977500000000e+01 4.24529802198709e-10 1.78210250556071e-11
2.15682500000000e+01 3.57068240150982e-10 1.50487061195710e-11
2.17387500000000e+01 3.00326920428643e-10 1.27072645129827e-11
2.19092500000000e+01 2.52602301162417e-10 1.07297998353926e-11
2.20797500000000e+01 2.12461548440207e-10 9.05978764684286e-12
2.22502500000000e+01 1.78699518404572e-10 7.64947213191878e-12
2.24207500000000e+01 1.50302575277582e-10 6.45850742684440e-12
2.25912500000000e+01 1.26418159023395e-10 5.45280919633823e-12
2.27617500000000e+01 1.06329188979957e-10 4.60358397137738e-12
2.29322500000000e+01 8.94325349813334e-11 3.88650877138851e-12
2.31027500000000e+01 7.52209096102015e-11 3.28103777481686e-12
2.32732500000000e+01 6.32676379325164e-11 2.76981638916713e-12
2.34437500000000e+01 5.32138474568131e-11 2.33818610591481e-12
2.36142500000000e+01 4.47576937229328e-11 1.97376609219243e-12
2.37847500000000e+01 3.76452980405456e-11 1.66609964184940e-12
2.39552500000000e+01 3.16631253016368e-11 1.40635544429920e-12
2.41257500000000e+01 2.66315730263939e-11 1.18707518207343e-12
2.42962500000000e+01 2.23995791667315e-11 1.00196028084582e-12
2.44667500000000e+01 1.88400867778034e-11 8.45691745803183e-13
2.46372500000000e+01 1.58462293935568e-11 7.13777956879275e-13
2.48077500000000e+01 1.33281225800437e-11 6.02426088974739e-13
2.49782500000000e+01 1.12101653394529e-11 5.08433494235837e-13
2.51487500000000e+01 9.42877034504731e-12 4.29095950684322e-13
2.53192500000000e+01 7.93045486196033e-12 3.62130160992966e-13
2.54897500000000e+01 6.67023503766065e-12 3.05608290530619e-13
2.56602500000000e+01 5.61027535394580e-12 2.57902676414056e-13
2.58307500000000e+01 4.71875269302812e-12 2.17639128891175e-13
2.60012500000000e+01 3.96890091362444e-12 1.83657491136656e-13
2.61717500000000e+01 3.33820725240432e-12 1.54978330397578e-13
2.63422500000000e+01 2.80773642439674e-12 1.30774808243526e-13
2.65127500000000e+01 2.36156212985464e-12 1.10348925409290e-13
2.66832500000000e+01 1.98628889973597e-12 9.31114615588500e-14
2.68537500000000e+01 1.67064992419114e-12 7.85650357897857e-14
2.70242500000000e+01 1.40516878968153e-12 6.62898028332522e-14
2.71947500000000e+01 1.18187496907890e-12 5.59313752183305e-14
2.73652500000000e+01 9.94064522918859e-13 4.71906253019292e-14
2.75357500000000e+01 8.36098827353991e-13 3.98150748259974e-14
2.77062500000000e+01 7.03235286025573e-13 3.35916250823638e-14
2.78767500000000e+01 5.91484943324875e-13 2.83404191349766e-14
2.80472500000000e+01 4.97492724173838e-13 2.39096599624918e-14
2.82177500000000e+01 4.18436704769959e-13 2.01712357646530e-14
2.83882500000000e+01 3.51943390105863e-13 1.70170268042662e-14
2.85587500000000e+01 2.96016454644684e-13 1.43557876924602e-14
2.87292500000000e+01 2.48976806736024e-13 1.21105155257423e-14
2.88997500000000e+01 2.09412177329381e-13 1.02162282201599e-14
2.90702500000000e+01 1.76134719489464e-13 8.61808915866908e-15
2.92407500000000e+01 1.48145345725698e-13 7.26982420888623e-15
2.94112500000000e+01 1.24603732437314e-13 6.13238556390642e-15
2.95817500000000e+01 1.04803090918951e-13 5.17282394886701e-15
2.97522500000000e+01 8.81489474778901e-14 4.36333672323932e-15
2.99227500000000e+01 7.41412955794303e-14 3.68046446477956e-15
3.00932500000000e+01 6.23595841751282e-14 3.10441289040896e-15
3.02637500000000e+01 5.24500915192233e-14 2.61848057429119e-15
3.04342500000000e+01 4.41153053979491e-14 2.20857596731871e-15
3.06047500000000e+01 3.71049909348783e-14 1.86280979234853e-15
3.07752500000000e+01 3.12086778014554e-14 1.57115105953300e-15
3.09457500000000e+01 2.62493412766077e-14 1.32513677821082e-15
3.11162500000000e+01 2.20780874421950e-14 1.11762698862549e-15
3.12867500000000e+01 1.85696829481811e-14 9.42598042618247e-16
3.14572500000000e+01 1.56187951378855e-14 7.94968164895277e-16
3.16277500000000e+01 1.31368296507794e-14 6.70450257158177e-16
3.17982500000000e+01 1.10492705583280e-14 5.65427693052401e-16
3.19687500000000e+01 9.29344317591054e-15 4.76849515111315e-16
3.21392500000000e+01 7.81663238382566e-15 4.02142004721005e-16
3.23097500000000e+01 6.57449996382913e-15 3.39134068704084e-16
3.24802500000000e+01 5.52975343497404e-15 2.85994285014317e-16
3.26507500000000e+01 4.65102642327764e-15 2.41177786727150e-16
3.28212500000000e+01 3.91193695060806e-15 2.03381447696094e-16
3.29917500000000e+01 3.29029536984404e-15 1.71506073104452e-16
3.31622500000000e+01 2.76743816618372e-15 1.44624500584845e-16
3.33327500000000e+01 2.32766762335181e-15 1.21954688437990e-16
3.35032500000000e+01 1.95778053183088e-15 1.02837011681541e-16
3.36737500000000e+01 1.64667178954729e-15 8.67151083563558e-17
3.38442500000000e+01 1.38500099393424e-15 7.31197212207467e-17
3.40147500000000e+01 1.16491201548197e-15 6.69766601885676e-17
