Energy (eV)          EEDF (eV^-(3/2))     First Anisotropy
2.18421052631579e-02 5.80839804277729e-02 2.88570743805377e-05
6.55263157894737e-02 5.77332124110687e-02 4.76675985831054e-05
1.09210526315789e-01 5.73845626749783e-02 6.29700049627679e-05
1.52894736842105e-01 5.70380184265873e-02 7.46218037694390e-05
1.96578947368421e-01 5.66935669537596e-02 8.43614618916612e-05
2.40263157894737e-01 5.63511956157534e-02 9.28454676263745e-05
2.83947368421053e-01 5.60108918523878e-02 1.00413160274420e-04
3.27631578947368e-01 5.56726431761923e-02 1.07269224900390e-04
3.71315789473684e-01 5.53364371776806e-02 1.13549260186640e-04
4.15000000000000e-01 5.50022615201626e-02 1.19348997719489e-04
4.58684210526316e-01 5.46701039433037e-02 1.24739224230695e-04
5.02368421052632e-01 5.43399522591877e-02 1.29774162350395e-04
5.46052631578947e-01 5.40117943549463e-02 1.34496521152626e-04
5.89736842105263e-01 5.36856181895624e-02 1.38940710669838e-04
6.33421052631579e-01 5.33614117959144e-02 1.43134978994916e-04
6.77105263157895e-01 5.30391632780715e-02 1.47102884886716e-04
7.20789473684211e-01 5.27188608129357e-02 1.50864343182139e-04
7.64473684210526e-01 5.24004926478891e-02 1.54436386066865e-04
8.08157894736842e-01 5.20840471021434e-02 1.57833729592945e-04
8.51842105263158e-01 5.17695125646513e-02 1.61069203445391e-04
8.95526315789474e-01 5.14568774948783e-02 1.64154082137045e-04
9.39210526315789e-01 5.11461304223434e-02 1.67098344671481e-04
9.82894736842105e-01 5.08372599451198e-02 1.69910879977812e-04
1.02657894736842e+00 5.05302547313999e-02 1.72599652221569e-04
1.07026315789474e+00 5.02251035162547e-02 1.75171834663613e-04
1.11394736842105e+00 4.99217951034124e-02 1.77633919010557e-04
1.15763157894737e+00 4.96203183642165e-02 1.79991806317746e-04
1.20131578947368e+00 4.93206622372170e-02 1.82250882372514e-04
1.24500000000000e+00 4.90228157277651e-02 1.84416081387719e-04
1.28868421052632e+00 4.87267679052889e-02 1.86491938425968e-04
1.33236842105263e+00 4.84325079099636e-02 1.88482635645671e-04
1.37605263157895e+00 4.81400249451239e-02 1.90392041959878e-04
1.41973684210526e+00 4.78493082793063e-02 1.92223745400485e-04
1.46342105263158e+00 4.75603472458556e-02 1.93981082438840e-04
1.50710526315789e+00 4.72731312425332e-02 1.95667163128726e-04
1.55078947368421e+00 4.69876497311280e-02 1.97284893045532e-04
1.59447368421053e+00 4.67038922370698e-02 1.98836992510837e-04
1.63815789473684e+00 4.64218483490446e-02 2.00326013505316e-04
1.68184210526316e+00 4.61415077186128e-02 2.01754354604458e-04
1.72552631578947e+00 4.58628600598260e-02 2.03124274212633e-04
1.76921052631579e+00 4.55858951488566e-02 2.04437902331434e-04
1.81289473684211e+00 4.53106028236188e-02 2.05697251058104e-04
1.85657894736842e+00 4.50369729833959e-02 2.06904223976464e-04
1.90026315789474e+00 4.47649955884695e-02 2.08060624583378e-04
1.94394736842105e+00 4.44946606597510e-02 2.09168163869942e-04
1.98763157894737e+00 4.42259582784158e-02 2.10228467159926e-04
2.03131578947368e+00 4.39588785855390e-02 2.11243080293433e-04
2.07500000000000e+00 4.36934117817337e-02 2.12213475481136e-04
2.11868421052632e+00 4.34295481255423e-02 2.13141055641945e-04
2.16236842105263e+00 4.31672779368692e-02 2.14027159546395e-04
2.20605263157895e+00 4.29065915927914e-02 2.14873066553370e-04
2.24973684210526e+00 4.26474795284987e-02 2.15679999706461e-04
2.29342105263158e+00 4.23899322369427e-02 2.16449129533040e-04
2.33710526315789e+00 4.21339402684882e-02 2.17181577292821e-04
2.38078947368421e+00 4.18794942305664e-02 2.17878417963652e-04
2.42447368421053e+00 4.16265847873301e-02 2.18540682990618e-04
2.46815789473684e+00 4.13752026593114e-02 2.19169362821246e-04
2.51184210526316e+00 4.11253386230810e-02 2.19765409247371e-04
2.55552631578947e+00 4.08769835109085e-02 2.20329737570656e-04
2.59921052631579e+00 4.06301282104289e-02 2.20863228609298e-04
2.64289473684211e+00 4.03847636643067e-02 2.21366730560186e-04
2.68657894736842e+00 4.01408808699035e-02 2.21841060727956e-04
2.73026315789474e+00 3.98984708789477e-02 2.22287007133600e-04
2.77394736842105e+00 3.96575247972066e-02 2.22705330012635e-04
2.81763157894737e+00 3.94180337841593e-02 2.23096763212258e-04
2.86131578947368e+00 3.91799890526728e-02 2.23462015495674e-04
2.90500000000000e+00 3.89433818686796e-02 2.23801771949403e-04
2.94868421052632e+00 3.87082035500592e-02 2.24116694555880e-04
2.99236842105263e+00 3.84744454687355e-02 2.24407423643998e-04
3.03605263157895e+00 3.82420990479214e-02 2.24674579274363e-04
3.07973684210526e+00 3.80111557626249e-02 2.24918761600853e-04
3.12342105263158e+00 3.77816071393365e-02 2.25140551949002e-04
3.16710526315789e+00 3.75534447557178e-02 2.25340513647396e-04
3.21078947368421e+00 3.73266602402932e-02 2.25519192810365e-04
3.25447368421053e+00 3.71012452721421e-02 2.25677119075517e-04
3.29815789473684e+00 3.68771915805940e-02 2.25814806299278e-04
3.34184210526316e+00 3.66544909449247e-02 2.25932753213612e-04
3.38552631578947e+00 3.64331351940544e-02 2.26031444045914e-04
3.42921052631579e+00 3.62131162062488e-02 2.26111349105434e-04
3.47289473684211e+00 3.59944259088209e-02 2.26172925338547e-04
3.51657894736842e+00 3.57770562778343e-02 2.26216616854040e-04
3.56026315789474e+00 3.55609993378094e-02 2.26242855421042e-04
3.60394736842105e+00 3.53462471614299e-02 2.26252060941291e-04
3.64763157894737e+00 3.51327918692530e-02 2.26244641897386e-04
3.69131578947368e+00 3.49206256294193e-02 2.26220995778390e-04
3.73500000000000e+00 3.47097406573661e-02 2.26181509632349e-04
3.77868421052632e+00 3.45001292149875e-02 2.26126560004238e-04
3.82236842105263e+00 3.42917836120261e-02 2.26056513601867e-04
3.86605263157895e+00 3.40846962041014e-02 2.25971727945835e-04
3.90973684210526e+00 3.38788593929972e-02 2.25872551246590e-04
3.95342105263158e+00 3.36742656263829e-02 2.25759322873793e-04
3.99710526315789e+00 3.34709073975361e-02 2.25632373658305e-04
4.04078947368421e+00 3.32687772450676e-02 2.25492026180550e-04
4.08447368421053e+00 3.30678677526473e-02 2.25338595045904e-04
4.12815789473684e+00 3.28681715487323e-02 2.25172387147794e-04
4.17184210526316e+00 3.26696813062962e-02 2.24993701919346e-04
4.21552631578947e+00 3.24723897425602e-02 2.24802831573827e-04
4.25921052631579e+00 3.22762896187263e-02 2.24600061334955e-04
4.30289473684211e+00 3.20813737397115e-02 2.24385669657659e-04
4.34657894736842e+00 3.18876349538840e-02 2.24159928439255e-04
4.39026315789474e+00 3.16950661528004e-02 2.23923103221946e-04
4.43394736842105e+00 3.15036602709450e-02 2.23675453387049e-04
4.47763157894737e+00 3.13134102854709e-02 2.23417232341297e-04
4.52131578947368e+00 3.11243092159419e-02 2.23148687695680e-04
4.56500000000000e+00 3.09363501240765e-02 2.22870061556568e-04
4.60868421052632e+00 3.07495261130889e-02 2.22581590330397e-04
4.65236842105263e+00 3.05638303286584e-02 2.22283505123811e-04
4.69605263157895e+00 3.03792559574464e-02 2.21976032139258e-04
4.73973684210526e+00 3.01957962272597e-02 2.21659392454824e-04
4.78342105263158e+00 3.00134444068023e-02 2.21333802288348e-04
4.82710526315790e+00 2.98321938054287e-02 2.20999473133267e-04
4.87078947368421e+00 2.96520377728975e-02 2.20656611889441e-04
4.91447368421053e+00 2.94729696991287e-02 2.20305420989207e-04
4.95815789473684e+00 2.92949830139599e-02 2.19946098518884e-04
5.00184210526316e+00 2.91180711869061e-02 2.19578838335943e-04
5.04552631578947e+00 2.89422277269194e-02 2.19203830181788e-04
5.08921052631579e+00 2.87674461821516e-02 2.18821259790773e-04
5.13289473684211e+00 2.85937201397170e-02 2.18431308995549e-04
5.17657894736842e+00 2.84210432254572e-02 2.18034155828525e-04
5.22026315789474e+00 2.82494091037074e-02 2.17629974619958e-04
5.26394736842105e+00 2.80788114770635e-02 2.17218936092691e-04
5.30763157894737e+00 2.79092440861515e-02 2.16801207453744e-04
5.35131578947368e+00 2.77407007093976e-02 2.16376952482872e-04
5.39500000000000e+00 2.75731751628000e-02 2.15946331716086e-04
5.43868421052632e+00 2.74066612993967e-02 2.15509502233039e-04
5.48236842105263e+00 2.72411530099621e-02 2.15066617935128e-04
5.52605263157895e+00 2.70766442218542e-02 2.14617829822516e-04
5.56973684210526e+00 2.69131288991036e-02 2.14163285768475e-04
5.61342105263158e+00 2.67506010421923e-02 2.13703130692954e-04
5.65710526315790e+00 2.65890546878328e-02 2.13237506633061e-04
5.70078947368421e+00 2.64284839087502e-02 2.12766552811276e-04
5.74447368421053e+00 2.62688828134640e-02 2.12290405701650e-04
5.78815789473684e+00 2.61102455460725e-02 2.11809199093954e-04
5.83184210526316e+00 2.59525662860376e-02 2.11323064155969e-04
5.87552631578947e+00 2.57958392479710e-02 2.10832129493713e-04
5.91921052631579e+00 2.56400586814226e-02 2.10336521210013e-04
5.96289473684211e+00 2.54852188706692e-02 2.09836362961452e-04
6.00657894736842e+00 2.53313141345046e-02 2.09331776013444e-04
6.05026315789474e+00 2.51783388260315e-02 2.08822879293836e-04
6.09394736842105e+00 2.50262873324539e-02 2.08309789444950e-04
6.13763157894737e+00 2.48751540748714e-02 2.07792620874104e-04
6.18131578947368e+00 2.47249335080747e-02 2.07271485802717e-04
6.22500000000000e+00 2.45756201203417e-02 2.06746494395320e-04
6.26868421052632e+00 2.44272084329996e-02 2.06217754560804e-04
6.31236842105263e+00 2.42796930009362e-02 2.05685372161741e-04
6.35605263157895e+00 2.41330684116832e-02 2.05149451223791e-04
6.39973684210526e+00 2.39873292854580e-02 2.04610093728895e-04
6.44342105263158e+00 2.38424702749665e-02 2.04067399740410e-04
6.48710526315790e+00 2.36984860652067e-02 2.03521467443512e-04
6.53078947368421e+00 2.35553713732739e-02 2.02972393184505e-04
6.57447368421053e+00 2.34131209481666e-02 2.02420271509152e-04
6.61815789473684e+00 2.32717295705943e-02 2.01865195199936e-04
6.66184210526316e+00 2.31311920527854e-02 2.01307255312364e-04
6.70552631578947e+00 2.29915032382972e-02 2.00746541210290e-04
6.74921052631579e+00 2.28526580018268e-02 2.00183140600376e-04
6.79289473684211e+00 2.27146512490227e-02 1.99617139565734e-04
6.83657894736842e+00 2.25774779162984e-02 1.99048622598610e-04
6.88026315789474e+00 2.24411329706461e-02 1.98477672632264e-04
6.92394736842105e+00 2.23056114094523e-02 1.97904371072092e-04
6.96763157894737e+00 2.21709082603142e-02 1.97328797825947e-04
7.01131578947368e+00 2.20370185808571e-02 1.96751031333689e-04
7.05500000000000e+00 2.19039374585536e-02 1.96171148664120e-04
7.09868421052632e+00 2.17716600103569e-02 1.95589225337887e-04
7.14236842105263e+00 2.16401813830826e-02 1.95005335492356e-04
7.18605263157895e+00 2.15094967526666e-02 1.94419552047045e-04
7.22973684210526e+00 2.13796013241773e-02 1.93831946520939e-04
7.27342105263158e+00 2.12504903316395e-02 1.93242589128019e-04
7.31710526315790e+00 2.11221590378596e-02 1.92651548802196e-04
7.36078947368421e+00 2.09946027342519e-02 1.92058893221639e-04
7.40447368421053e+00 2.08678167406658e-02 1.91464688832592e-04
7.44815789473684e+00 2.07417964052140e-02 1.90869000872616e-04
7.49184210526316e+00 2.06165371041018e-02 1.90271893393275e-04
7.53552631578947e+00 2.04920342414574e-02 1.89673429282281e-04
7.57921052631579e+00 2.03682832491637e-02 1.89073670285156e-04
7.62289473684211e+00 2.02452795866902e-02 1.88472677026489e-04
7.66657894736842e+00 2.01230187409265e-02 1.87870509030606e-04
7.71026315789474e+00 2.00014962260169e-02 1.87267224741809e-04
7.75394736842105e+00 1.98807075831958e-02 1.86662881544188e-04
7.79763157894737e+00 1.97606483806238e-02 1.86057535780944e-04
7.84131578947368e+00 1.96413142132254e-02 1.85451242773336e-04
7.88500000000000e+00 1.95227007025273e-02 1.84844056896592e-04
7.92868421052632e+00 1.94048034963495e-02 1.84236031424968e-04
7.97236842105263e+00 1.92876182690928e-02 1.83627218665340e-04
8.01605263157895e+00 1.91711407211303e-02 1.83017670091385e-04
8.05973684210526e+00 1.90553665788004e-02 1.82407436184537e-04
8.10342105263158e+00 1.89402915942502e-02 1.81796566509546e-04
8.14710526315790e+00 1.88259115452794e-02 1.81185109730757e-04
8.19078947368421e+00 1.87122222351855e-02 1.80573113628048e-04
8.23447368421053e+00 1.85992194926098e-02 1.79960625112366e-04
8.27815789473684e+00 1.84868991713844e-02 1.79347690241033e-04
8.32184210526316e+00 1.83752571503800e-02 1.78734354232678e-04
8.36552631578947e+00 1.82642893333546e-02 1.78120661481844e-04
8.40921052631579e+00 1.81539916488036e-02 1.77506655573333e-04
8.45289473684211e+00 1.80443600498099e-02 1.76892379296253e-04
8.49657894736842e+00 1.79353905138958e-02 1.76277874657811e-04
8.54026315789474e+00 1.78270790428752e-02 1.75663182896756e-04
8.58394736842105e+00 1.77194216627069e-02 1.75048344496584e-04
8.62763157894737e+00 1.76124144233491e-02 1.74433399198508e-04
8.67131578947368e+00 1.75060533986140e-02 1.73818386014108e-04
8.71500000000000e+00 1.74003346860241e-02 1.73203343286470e-04
8.75868421052632e+00 1.72952544065493e-02 1.72588308555661e-04
8.80236842105263e+00 1.71908087048253e-02 1.71973318668847e-04
8.84605263157895e+00 1.70869937486494e-02 1.71358409891122e-04
8.88973684210526e+00 1.69838057289614e-02 1.70743617767761e-04
8.93342105263158e+00 1.68812408597041e-02 1.70128977185488e-04
8.97710526315790e+00 1.67792953776841e-02 1.69514522383527e-04
9.02078947368421e+00 1.66779655424339e-02 1.68900286964456e-04
9.06447368421053e+00 1.65772476360747e-02 1.68286303904788e-04
9.10815789473684e+00 1.64771379631798e-02 1.67672605565438e-04
9.15184210526316e+00 1.63776328506390e-02 1.67059223701995e-04
9.19552631578947e+00 1.62787286475241e-02 1.66446189474673e-04
9.23921052631579e+00 1.61804217249549e-02 1.65833533458204e-04
9.28289473684211e+00 1.60827084759656e-02 1.65221285651530e-04
9.32657894736842e+00 1.59855853153731e-02 1.64609475487263e-04
9.37026315789474e+00 1.58890486796450e-02 1.63998131840995e-04
9.41394736842105e+00 1.57930950267691e-02 1.63387283040449e-04
9.45763157894737e+00 1.56977208361232e-02 1.62776956874463e-04
9.50131578947368e+00 1.56029226083463e-02 1.62167180601753e-04
9.54500000000000e+00 1.55086968652098e-02 1.61557981001044e-04
9.58868421052632e+00 1.54150401493928e-02 1.60949384254597e-04
9.63236842105263e+00 1.53219490246487e-02 1.60341416040168e-04
9.67605263157895e+00 1.52294200753841e-02 1.59734101623593e-04
9.71973684210526e+00 1.51374499066321e-02 1.59127465739729e-04
9.76342105263158e+00 1.50460351439281e-02 1.58521532642937e-04
9.80710526315790e+00 1.49551724331858e-02 1.57916326114822e-04
9.85078947368421e+00 1.48648584405741e-02 1.57311869471875e-04
9.89447368421053e+00 1.47750898523949e-02 1.56708185572919e-04
9.93815789473684e+00 1.46858633749614e-02 1.56105296826476e-04
9.98184210526316e+00 1.45971757344774e-02 1.55503225159985e-04
1.00255263157895e+01 1.45090236770043e-02 1.54901992103756e-04
1.00692105263158e+01 1.44214039681649e-02 1.54301618797562e-04
1.01128947368421e+01 1.43343133931143e-02 1.53702125919662e-04
1.01565789473684e+01 1.42477487564222e-02 1.53103534102056e-04
1.02002631578947e+01 1.41617068811157e-02 1.52505862824057e-04
1.02439473684211e+01 1.40761846110961e-02 1.51909131163729e-04
1.02876315789474e+01 1.39911788084756e-02 1.51313358556165e-04
1.03313157894737e+01 1.39066863543157e-02 1.50718563667487e-04
1.03750000000000e+01 1.38227041485134e-02 1.50124764780479e-04
1.04186842105263e+01 1.37392291096869e-02 1.49531979800510e-04
1.04623684210526e+01 1.36562581750628e-02 1.48940226261282e-04
1.05060526315789e+01 1.35737883003641e-02 1.48349521330922e-04
1.05497368421053e+01 1.34918164596980e-02 1.47759881817890e-04
1.05934210526316e+01 1.34103396454451e-02 1.47171324516665e-04
1.06371052631579e+01 1.33293548673916e-02 1.46583865187853e-04
1.06807894736842e+01 1.32488591549047e-02 1.45997519249917e-04
1.07244736842105e+01 1.31688495545254e-02 1.45412302477359e-04
1.07681578947368e+01 1.30893231306305e-02 1.44828229962846e-04
1.08118421052632e+01 1.30102769653252e-02 1.44245316472098e-04
1.08555263157895e+01 1.29317081583352e-02 1.43663576448594e-04
1.08992105263158e+01 1.28536138269017e-02 1.43083024018621e-04
1.09428947368421e+01 1.27759911056745e-02 1.42503672996679e-04
1.09865789473684e+01 1.26988371466073e-02 1.41925537206522e-04
1.10302631578947e+01 1.26221491181614e-02 1.41348629532129e-04
1.10739473684211e+01 1.25459242072887e-02 1.40772962560699e-04
1.11176315789474e+01 1.24701596172298e-02 1.40198549231710e-04
1.11613157894737e+01 1.23948525681150e-02 1.39625401871254e-04
1.12050000000000e+01 1.23200002968619e-02 1.39053532521622e-04
1.12486842105263e+01 1.22456000570744e-02 1.38482952945635e-04
1.12923684210526e+01 1.21716491189418e-02 1.37913674630843e-04
1.13360526315789e+01 1.20981447691388e-02 1.37345708793977e-04
1.13797368421053e+01 1.20250843107261e-02 1.36779066385275e-04
1.14234210526316e+01 1.19524650630509e-02 1.36213758384531e-04
1.14671052631579e+01 1.18802843610228e-02 1.35649794924949e-04
1.15107894736842e+01 1.18085395569046e-02 1.35087185886143e-04
1.15544736842105e+01 1.17372280183161e-02 1.34525941492774e-04
1.15981578947368e+01 1.16663471287741e-02 1.33966071423115e-04
1.16418421052632e+01 1.15958942875961e-02 1.33407585112971e-04
1.16855263157895e+01 1.15258669098048e-02 1.32850491759104e-04
1.17292105263158e+01 1.14562624260341e-02 1.32294800322968e-04
1.17728947368421e+01 1.13870782824339e-02 1.31740519534699e-04
1.18165789473684e+01 1.13183119405772e-02 1.31187658168480e-04
1.18602631578947e+01 1.12499608767927e-02 1.30636224226328e-04
1.19039473684211e+01 1.11820225838025e-02 1.30086225490063e-04
1.19476315789474e+01 1.11144945688908e-02 1.29537670078635e-04
1.19913157894737e+01 1.10473743543951e-02 1.28990565617660e-04
1.20350000000000e+01 1.09806594776155e-02 1.28444919522123e-04
1.20786842105263e+01 1.09143474907243e-02 1.27900738999593e-04
1.21223684210526e+01 1.08484359606761e-02 1.27358031053303e-04
1.21660526315789e+01 1.07829224691187e-02 1.26816802485482e-04
1.22097368421053e+01 1.07178046123045e-02 1.26277059900564e-04
1.22534210526316e+01 1.06530800010019e-02 1.25738809959492e-04
1.22971052631579e+01 1.05887462598877e-02 1.25202058625250e-04
1.23407894736842e+01 1.05248010290290e-02 1.24666811672667e-04
1.23844736842105e+01 1.04612419622191e-02 1.24133075203161e-04
1.24281578947368e+01 1.03980667274196e-02 1.23600854877167e-04
1.24718421052632e+01 1.03352730066758e-02 1.23070156175217e-04
1.25155263157895e+01 1.02728584960303e-02 1.22540984400471e-04
1.25592105263158e+01 1.02108209054399e-02 1.22013344681492e-04
1.26028947368421e+01 1.01491579586907e-02 1.21487241975254e-04
1.26465789473684e+01 1.00878673933151e-02 1.20962681304017e-04
1.26902631578947e+01 1.00269469600305e-02 1.20439667051689e-04
1.27339473684211e+01 9.96639442409816e-03 1.19918203438938e-04
1.27776315789474e+01 9.90620756379214e-03 1.19398295002971e-04
1.28213157894737e+01 9.84638417080357e-03 1.18879945881725e-04
1.28650000000000e+01 9.78692205015954e-03 1.18363160057048e-04
1.29086842105263e+01 9.72781902014240e-03 1.17847941357065e-04
1.29523684210526e+01 9.66907291220988e-03 1.17334293458496e-04
1.29960526315789e+01 9.61068157091565e-03 1.16822219889184e-04
1.30397368421053e+01 9.55264285383006e-03 1.16311724030476e-04
1.30834210526316e+01 9.49495463146160e-03 1.15802809336276e-04
1.31271052631579e+01 9.43761478674422e-03 1.15295478681909e-04
1.31707894736842e+01 9.38062121627006e-03 1.14789734803494e-04
1.32144736842105e+01 9.32397182889489e-03 1.14285580741645e-04
1.32581578947368e+01 9.26766454610290e-03 1.13783019179098e-04
1.33018421052632e+01 9.21169730193038e-03 1.13282052665589e-04
1.33455263157895e+01 9.15606804288976e-03 1.12782683619712e-04
1.33892105263158e+01 9.10077472789464e-03 1.12284914331036e-04
1.34328947368421e+01 9.04581532818473e-03 1.11788746962377e-04
1.34765789473684e+01 8.99118782725141e-03 1.11294183754026e-04
1.35202631578947e+01 8.93689022036416e-03 1.10801226415969e-04
1.35639473684211e+01 8.88292051570200e-03 1.10309876537757e-04
1.36076315789474e+01 8.82927673306905e-03 1.09820136002502e-04
1.36513157894737e+01 8.77595690422779e-03 1.09332006368593e-04
1.36950000000000e+01 8.72295907282688e-03 1.08845489079364e-04
1.37386842105263e+01 8.67028129432923e-03 1.08360585464898e-04
1.37823684210526e+01 8.61792163594083e-03 1.07877296743752e-04
