Energy (eV)          EEDF (eV^-(3/2))     First Anisotropy
2.35000000000000e-02 2.69766217262052e+00 4.76164611228157e-03
7.05000000000000e-02 2.47389176217140e+00 7.56214363032016e-03
1.17500000000000e-01 2.26868305196062e+00 9.21677858711396e-03
1.64500000000000e-01 2.08049635354125e+00 1.00770856374195e-02
2.11500000000000e-01 1.90791969524245e+00 1.05108317233113e-02
2.58500000000000e-01 1.74965822809449e+00 1.06727779393384e-02
3.05500000000000e-01 1.60452451052965e+00 1.06495481300524e-02
3.52500000000000e-01 1.47142959896472e+00 1.04963781090179e-02
3.99500000000000e-01 1.34937487741760e+00 1.02511458517870e-02
4.46500000000000e-01 1.23744456485506e+00 9.94101339974358e-03
4.93500000000000e-01 1.13479884405425e+00 9.58602817540426e-03
5.40500000000000e-01 1.04066756042336e+00 9.20126790872378e-03
5.87500000000000e-01 9.54344443503617e-01 8.79820895609594e-03
6.34500000000000e-01 8.75181807796252e-01 8.38564583748092e-03
6.81500000000000e-01 8.02585693154520e-01 7.97033468400973e-03
7.28500000000000e-01 7.36011408279047e-01 7.55745811609031e-03
7.75500000000000e-01 6.74959443879111e-01 7.15096981287858e-03
8.22500000000000e-01 6.18971724836196e-01 6.75385524157650e-03
8.69500000000000e-01 5.67628173249644e-01 6.36833228831810e-03
9.16500000000000e-01 5.20543556576828e-01 5.99600777332370e-03
9.63500000000000e-01 4.77364597219318e-01 5.63800092431758e-03
1.01050000000000e+00 4.37767321868154e-01 5.29504167530650e-03
1.05750000000000e+00 4.01454630720279e-01 4.96754950275076e-03
1.10450000000000e+00 3.68154068327867e-01 4.65569702634886e-03
1.15150000000000e+00 3.37615779355146e-01 4.35946155568844e-03
1.19850000000000e+00 3.09610633904694e-01 4.07866701243592e-03
1.24550000000000e+00 2.83928508347444e-01 3.81301810800430e-03
1.29250000000000e+00 2.60376708757426e-01 3.56212824806604e-03
1.33950000000000e+00 2.38778525122201e-01 3.32554232721717e-03
1.38650000000000e+00 2.18971905481188e-01 3.10275534178625e-03
1.43350000000000e+00 2.00808240043878e-01 2.89322756692079e-03
1.48050000000000e+00 1.84151246165158e-01 2.69639690203600e-03
1.52750000000000e+00 1.68875945811639e-01 2.51168887669541e-03
1.57450000000000e+00 1.54867727846913e-01 2.33852471989411e-03
1.62150000000000e+00 1.42021488100010e-01 2.17632782429128e-03
1.66850000000000e+00 1.30240840764961e-01 2.02452887927930e-03
1.71550000000000e+00 1.19437395214583e-01 1.88256989993384e-03
1.76250000000000e+00 1.09530092802367e-01 1.74990734061708e-03
1.80950000000000e+00 1.00444598676498e-01 1.62601445057621e-03
1.85650000000000e+00 9.21127440427469e-02 1.51038300294990e-03
1.90350000000000e+00 8.44720146915165e-02 1.40252450711674e-03
1.95050000000000e+00 7.74650819514441e-02 1.30197099646258e-03
1.99750000000000e+00 7.10393725502870e-02 1.20827546875000e-03
2.04450000000000e+00 6.51466741557405e-02 1.12101204381623e-03
2.09150000000000e+00 5.97427736365484e-02 1.03977589288050e-03
2.13850000000000e+00 5.47871253297642e-02 9.64182984965565e-04
2.18550000000000e+00 5.02425468251612e-02 8.93869688550249e-04
2.23250000000000e+00 4.60749399842509e-02 8.28492260341846e-04
2.27950000000000e+00 4.22530351007044e-02 7.67726247800348e-04
2.32650000000000e+00 3.87481562826040e-02 7.11265827605573e-04
2.37350000000000e+00 3.55340062961791e-02 6.58823098504077e-04
2.42050000000000e+00 3.25864692567004e-02 6.10127343798085e-04
2.46750000000000e+00 2.98834296861162e-02 5.64924276053883e-04
2.51450000000000e+00 2.74046065798132e-02 5.22975274337117e-04
2.56150000000000e+00 2.51314012374978e-02 4.84056622364114e-04
2.60850000000000e+00 2.30467577164690e-02 4.47958754338624e-04
2.65550000000000e+00 2.11350348602570e-02 4.14485513877406e-04
2.70250000000000e+00 1.93818889424554e-02 3.83453430277845e-04
2.74950000000000e+00 1.77741660452179e-02 3.54691015414200e-04
2.79650000000000e+00 1.62998033649321e-02 3.28038083738736e-04
2.84350000000000e+00 1.49477387045641e-02 3.03345097186764e-04
2.89050000000000e+00 1.37078274735896e-02 2.80472536220535e-04
2.93750000000000e+00 1.25707665727608e-02 2.59290297779313e-04
2.98450000000000e+00 1.15280245926132e-02 2.39677120517279e-04
3.03150000000000e+00 1.05717778019888e-02 2.21520037394852e-04
3.07850000000000e+00 9.69485144629517e-03 2.04713855432159e-04
3.12550000000000e+00 8.89066591506020e-03 1.89160662226595e-04
3.17250000000000e+00 8.15318737487406e-03 1.74769358672064e-04
3.21950000000000e+00 7.47688249731692e-03 1.61455217189038e-04
3.26650000000000e+00 6.85667694219374e-03 1.49139464676200e-04
3.31350000000000e+00 6.28791728457446e-03 1.37748889321557e-04
3.36050000000000e+00 5.76633609997680e-03 1.27215470359136e-04
3.40750000000000e+00 5.28801994572451e-03 1.17476029823436e-04
3.45450000000000e+00 4.84937999824408e-03 1.08471905334445e-04
3.50150000000000e+00 4.44712512599037e-03 1.00148642938844e-04
3.54850000000000e+00 4.07823719596648e-03 9.24557090357273e-05
3.59550000000000e+00 3.73994842856162e-03 8.53462204259170e-05
3.64250000000000e+00 3.42972063079959e-03 7.87766915411595e-05
3.68950000000000e+00 3.14522615218423e-03 7.27067979318046e-05
3.73650000000000e+00 2.88433042025273e-03 6.70991551178558e-05
3.78350000000000e+00 2.64507592480045e-03 6.19191119375573e-05
3.83050000000000e+00 2.42566753061043e-03 5.71345575591679e-05
3.87750000000000e+00 2.22445900848823e-03 5.27157413545569e-05
3.92450000000000e+00 2.03994068354421e-03 4.86351048672044e-05
3.97150000000000e+00 1.87072810804768e-03 4.48671251416073e-05
4.01850000000000e+00 1.71555167386504e-03 4.13881687156002e-05
4.06550000000000e+00 1.57324708654355e-03 3.81763556113897e-05
4.11250000000000e+00 1.44274662956755e-03 3.52114326949063e-05
4.15950000000000e+00 1.32307115324248e-03 3.24746558061976e-05
4.20650000000000e+00 1.21332272809889e-03 2.99486800958557e-05
4.25350000000000e+00 1.11267790769490e-03 2.76174580337766e-05
4.30050000000000e+00 1.02038155026748e-03 2.54661445867789e-05
4.34750000000000e+00 9.35741152876162e-04 2.34810090907132e-05
4.39450000000000e+00 8.58121655528246e-04 2.16493533706175e-05
4.44150000000000e+00 7.86940676300460e-04 1.99594356891905e-05
4.48850000000000e+00 7.21664141706118e-04 1.84004001293620e-05
4.53550000000000e+00 6.61802279522254e-04 1.69622110410237e-05
4.58250000000000e+00 6.06905944010739e-04 1.56355922050699e-05
4.62950000000000e+00 5.56563245961410e-04 1.44119703897983e-05
4.67650000000000e+00 5.10396462272283e-04 1.32834229954600e-05
4.72350000000000e+00 4.68059201879321e-04 1.22426295023661e-05
4.77050000000000e+00 4.29233806771634e-04 1.12828264564789e-05
4.81750000000000e+00 3.93628968591823e-04 1.03977657438884e-05
4.86450000000000e+00 3.60977542938730e-04 9.58167592202956e-06
4.91150000000000e+00 3.31034544973248e-04 8.82922639098341e-06
4.95850000000000e+00 3.03575311288119e-04 8.13549420276188e-06
5.00550000000000e+00 2.78393814250188e-04 7.49593332014679e-06
5.05250000000000e+00 2.55301116167551e-04 6.90634614948196e-06
5.09950000000000e+00 2.34123951683144e-04 6.36285718384313e-06
5.14650000000000e+00 2.14703427758450e-04 5.86188860427652e-06
5.19350000000000e+00 1.96893831493220e-04 5.40013769734436e-06
5.24050000000000e+00 1.80561536836269e-04 4.97455595708096e-06
5.28750000000000e+00 1.65584001984328e-04 4.58232974868765e-06
5.33450000000000e+00 1.51848849946422e-04 4.22086241991252e-06
5.38150000000000e+00 1.39253025375201e-04 3.88775775410853e-06
5.42850000000000e+00 1.27702021338907e-04 3.58080466647426e-06
5.47550000000000e+00 1.17109170232410e-04 3.29796305198774e-06
5.52250000000000e+00 1.07394993507007e-04 3.03735070007609e-06
5.56950000000000e+00 9.84866053399652e-05 2.79723119715079e-06
5.61650000000000e+00 9.03171657695307e-05 2.57600274381000e-06
5.66350000000000e+00 8.28253791922580e-05 2.37218781878897e-06
5.71050000000000e+00 7.59550344598572e-05 2.18442362665509e-06
5.75750000000000e+00 6.96545831248950e-05 2.01145327081646e-06
5.80450000000000e+00 6.38767526709122e-05 1.85211759766648e-06
5.85150000000000e+00 5.85781918250055e-05 1.70534766164150e-06
5.89850000000000e+00 5.37191452916440e-05 1.57015776464405e-06
5.94550000000000e+00 4.92631554672350e-05 1.44563902669986e-06
5.99250000000000e+00 4.51767888973926e-05 1.33095344788917e-06
6.03950000000000e+00 4.14293854245088e-05 1.22532842453923e-06
6.08650000000000e+00 3.79928281434709e-05 1.12805168539984e-06
6.13350000000000e+00 3.48413324394958e-05 1.03846661606266e-06
6.18050000000000e+00 3.19512525252237e-05 9.55967942240346e-07
6.22750000000000e+00 2.93009040255117e-05 8.79997744706976e-07
6.27450000000000e+00 2.68704012787754e-05 8.10041780727917e-07
6.32150000000000e+00 2.46415081341438e-05 7.45626088686432e-07
6.36850000000000e+00 2.25975011249534e-05 6.86313854356634e-07
6.41550000000000e+00 2.07230439919669e-05 6.31702518887050e-07
6.46250000000000e+00 1.90040726148599e-05 5.81421110055378e-07
6.50950000000000e+00 1.74276894886131e-05 5.35127779741408e-07
6.55650000000000e+00 1.59820669530606e-05 4.92507531849135e-07
6.60350000000000e+00 1.46563584495238e-05 4.53270126098526e-07
6.65050000000000e+00 1.34406171386856e-05 4.17148144208614e-07
6.69750000000000e+00 1.23257212690919e-05 3.83895206013242e-07
6.74450000000000e+00 1.13033057363168e-05 3.53284323994544e-07
6.79150000000000e+00 1.03656993192794e-05 3.25106385592852e-07
6.83850000000000e+00 9.50586712279103e-06 2.99168753459993e-07
6.88550000000000e+00 8.71735779448030e-06 2.75293974570895e-07
6.93250000000000e+00 7.99425512006044e-06 2.53318589800316e-07
6.97950000000000e+00 7.33113363375749e-06 2.33092036211538e-07
7.02650000000000e+00 6.72301791084245e-06 2.14475634895738e-07
7.07350000000000e+00 6.16534523683784e-06 1.97341657748136e-07
7.12050000000000e+00 5.65393137330433e-06 1.81572467073127e-07
7.16750000000000e+00 5.18493916334692e-06 1.67059722378453e-07
7.21450000000000e+00 4.75484974128668e-06 1.53703649151030e-07
7.26150000000000e+00 4.36043613048295e-06 1.41412364806780e-07
7.30850000000000e+00 3.99873903120986e-06 1.30101257376264e-07
7.35550000000000e+00 3.66704461692233e-06 1.19692412829350e-07
7.40250000000000e+00 3.36286417231646e-06 1.10114087257531e-07
7.44950000000000e+00 3.08391542040766e-06 1.01300220424019e-07
7.49650000000000e+00 2.82810539852311e-06 9.31899874608908e-08
7.54350000000000e+00 2.59351475472641e-06 8.57273857412757e-08
7.59050000000000e+00 2.37838334684988e-06 7.88608541842516e-08
7.63750000000000e+00 2.18109703608358e-06 7.25429224622105e-08
7.68450000000000e+00 2.00017557603293e-06 6.67298877763350e-08
7.73150000000000e+00 1.83426150637590e-06 6.13815170466792e-08
7.77850000000000e+00 1.68210996778864e-06 5.64607725303250e-08
7.82550000000000e+00 1.54257936172054e-06 5.19335590352334e-08
7.87250000000000e+00 1.41462278493861e-06 4.77684910397112e-08
7.91950000000000e+00 1.29728017457425e-06 4.39366781587554e-08
7.96650000000000e+00 1.18967110473654e-06 4.04115275197708e-08
8.01350000000000e+00 1.09098818064460e-06 3.71685617220277e-08
8.06050000000000e+00 1.00049098071504e-06 3.41852511574756e-08
8.10750000000000e+00 9.17500501151827e-07 3.14408595657976e-08
8.15450000000000e+00 8.41394061355982e-07 2.89163017844891e-08
8.20150000000000e+00 7.71600631930297e-07 2.65940127358484e-08
8.24850000000000e+00 7.07596550224927e-07 2.44578267675854e-08
8.29550000000000e+00 6.48901591277401e-07 2.24928665327744e-08
8.34250000000000e+00 5.95075364667188e-07 2.06854406585452e-08
8.38950000000000e+00 5.45714010250293e-07 1.90229495116294e-08
8.43650000000000e+00 5.00447167981844e-07 1.74937984230415e-08
8.48350000000000e+00 4.58935199091149e-07 1.60873177841271e-08
8.53050000000000e+00 4.20866637759601e-07 1.47936894722719e-08
8.57750000000000e+00 3.85955854181260e-07 1.36038791070492e-08
8.62450000000000e+00 3.53940911471992e-07 1.25095736767461e-08
8.67150000000000e+00 3.24581600347461e-07 1.15031241113300e-08
8.71850000000000e+00 2.97657636824094e-07 1.05774924112113e-08
8.76550000000000e+00 2.72967009420308e-07 9.72620297185690e-09
8.81250000000000e+00 2.50324463456989e-07 8.94329777261147e-09
8.85950000000000e+00 2.29560111084866e-07 8.22329512416906e-09
8.90650000000000e+00 2.10518156609773e-07 7.56115169318812e-09
8.95350000000000e+00 1.93055727551870e-07 6.95222754470765e-09
9.00050000000000e+00 1.77041802668206e-07 6.39225396345265e-09
9.04750000000000e+00 1.62356228895548e-07 5.87730383394701e-09
9.09450000000000e+00 1.48888819837561e-07 5.40376437670546e-09
9.14150000000000e+00 1.36538529032252e-07 4.96831205376863e-09
9.18850000000000e+00 1.25212691796675e-07 4.56788947158221e-09
9.23550000000000e+00 1.14826329960429e-07 4.19968412280191e-09
9.28250000000000e+00 1.05301514271348e-07 3.86110882111884e-09
9.32950000000000e+00 9.65667796894670e-08 3.54978369472949e-09
9.37650000000000e+00 8.85565891822262e-08 3.26351961469790e-09
9.42350000000000e+00 8.12108419977162e-08 3.00030294424429e-09
9.47050000000000e+00 7.44744227265442e-08 2.75828150401154e-09
9.51750000000000e+00 6.82967877689039e-08 2.53575165666726e-09
9.56450000000000e+00 6.26315861041001e-08 2.33114642185109e-09
9.61150000000000e+00 5.74363115171478e-08 2.14302453952645e-09
9.65850000000000e+00 5.26719836730894e-08 1.97006040628804e-09
9.70550000000000e+00 4.83028556461169e-08 1.81103481515772e-09
9.75250000000000e+00 4.42961457090830e-08 1.66482643490955e-09
9.79950000000000e+00 4.06217913710046e-08 1.53040397003877e-09
9.84650000000000e+00 3.72522238170953e-08 1.40681894716179e-09
9.89350000000000e+00 3.41621610589410e-08 1.29319907793803e-09
9.94050000000000e+00 3.13284182428180e-08 1.18874215256757e-09
9.98750000000000e+00 2.87297336928882e-08 1.09271042156812e-09
1.00345000000000e+01 2.63466093840693e-08 1.00442542689593e-09
1.00815000000000e+01 2.41611646476402e-08 9.23263246569848e-10
1.01285000000000e+01 2.21570020119308e-08 8.48650119807858e-10
1.01755000000000e+01 2.03190841714932e-08 7.80058422308935e-10
1.02225000000000e+01 1.86336211616495e-08 7.17002963729583e-10
1.02695000000000e+01 1.70879668918836e-08 6.59037581628613e-10
1.03165000000000e+01 1.56705242617620e-08 6.05752008201893e-10
1.03635000000000e+01 1.43706581474658e-08 5.56768988014420e-10
1.04105000000000e+01 1.31786156060680e-08 5.11741626672958e-10
1.04575000000000e+01 1.20854526988470e-08 4.70350951980668e-10
1.05045000000000e+01 1.10829673845876e-08 4.32303670586315e-10
1.05515000000000e+01 1.01636379793660e-08 3.97330104494995e-10
1.05985000000000e+01 9.32056672108082e-09 3.65182293054031e-10
1.06455000000000e+01 8.54742801529202e-09 3.35632247175252e-10
1.06925000000000e+01 7.83842097405499e-09 3.08470343611231e-10
1.07395000000000e+01 7.18822589164632e-09 2.83503848075365e-10
1.07865000000000e+01 6.59196433061750e-09 2.60555556890597e-10
1.08335000000000e+01 6.04516251870058e-09 2.39462547675336e-10
1.08805000000000e+01 5.54371778193149e-09 2.20075030333192e-10
1.09275000000000e+01 5.08386776213744e-09 2.02255290310956e-10
1.09745000000000e+01 4.66216218782612e-09 1.85876716731383e-10
1.10215000000000e+01 4.27543698667276e-09 1.70822908598314e-10
1.10685000000000e+01 3.92079054536984e-09 1.56986852815587e-10
1.11155000000000e+01 3.59556193871655e-09 1.44270168261679e-10
1.11625000000000e+01 3.29731096459977e-09 1.32582410622615e-10
1.12095000000000e+01 3.02379983506855e-09 1.21840433109555e-10
1.12565000000000e+01 2.77297638612937e-09 1.11967798577466e-10
1.13035000000000e+01 2.54295868028472e-09 1.02894238920210e-10
1.13505000000000e+01 2.33202088628739e-09 9.45551579476207e-11
1.13975000000000e+01 2.13858033016554e-09 8.68911742539849e-11
1.14445000000000e+01 1.96118562036212e-09 7.98477008669713e-11
1.14915000000000e+01 1.79850575789099e-09 7.33745587232872e-11
1.15385000000000e+01 1.64932014980296e-09 6.74256212540479e-11
1.15855000000000e+01 1.51250945103225e-09 6.19584875806111e-11
1.16325000000000e+01 1.38704716590966e-09 5.69341820219945e-11
1.16795000000000e+01 1.27199194632800e-09 5.23168777993309e-11
1.17265000000000e+01 1.16648052877294e-09 4.80736429924022e-11
1.17735000000000e+01 1.06972125722526e-09 4.41742069593153e-11
1.18205000000000e+01 9.80988143336876e-10 4.05907455739173e-11
1.18675000000000e+01 8.99615419313751e-10 3.72976837675884e-11
1.19145000000000e+01 8.24992542635794e-10 3.42715139835213e-11
1.19615000000000e+01 7.56559615134055e-10 3.14906292633378e-11
1.20085000000000e+01 6.93803182054309e-10 2.89351697886848e-11
1.20555000000000e+01 6.36252379587287e-10 2.65868817950038e-11
1.21025000000000e+01 5.83475401960318e-10 2.44289878616504e-11
1.21495000000000e+01 5.35076261582844e-10 2.24460676625387e-11
1.21965000000000e+01 4.90691817937072e-10 2.06239483350826e-11
1.22435000000000e+01 4.49989052921403e-10 1.89496036928917e-11
1.22905000000000e+01 4.12662572203454e-10 1.74110615699429e-11
1.23375000000000e+01 3.78432313835232e-10 1.59973186412119e-11
1.23845000000000e+01 3.47041446938106e-10 1.46982621174221e-11
1.24315000000000e+01 3.18254444691349e-10 1.35045977600114e-11
1.24785000000000e+01 2.91855317165800e-10 1.24077837069724e-11
1.25255000000000e+01 2.67645990743536e-10 1.13999696412003e-11
1.25725000000000e+01 2.45444821964281e-10 1.04739408706707e-11
1.26195000000000e+01 2.25085234647898e-10 9.62306692442903e-12
1.26665000000000e+01 2.06414470067215e-10 8.84125430025136e-12
1.27135000000000e+01 1.89292440793727e-10 8.12290302915094e-12
1.27605000000000e+01 1.73590679616495e-10 7.46286674886422e-12
1.28075000000000e+01 1.59191375647978e-10 6.85641600324343e-12
1.28545000000000e+01 1.45986490384633e-10 6.29920450728245e-12
1.29015000000000e+01 1.33876947090088e-10 5.78723813846898e-12
1.29485000000000e+01 1.22771887418762e-10 5.31684643443694e-12
1.29955000000000e+01 1.12587989702381e-10 4.88465639462266e-12
1.30425000000000e+01 1.03248843784463e-10 4.48756839993213e-12
1.30895000000000e+01 9.46843777121198e-11 4.12273407941843e-12
1.31365000000000e+01 8.68303319836346e-11 3.78753596675395e-12
1.31835000000000e+01 7.96277774070762e-11 3.47956880195780e-12
1.32305000000000e+01 7.30226729524186e-11 3.19662234549486e-12
1.32775000000000e+01 6.69654602797192e-11 2.93666558257975e-12
1.33245000000000e+01 6.14106919010847e-11 2.69783220537325e-12
1.33715000000000e+01 5.63166901865094e-11 2.47840726981989e-12
1.34185000000000e+01 5.16452346550954e-11 2.27681493220551e-12
1.34655000000000e+01 4.73612752053884e-11 2.09160717817394e-12
1.35125000000000e+01 4.34326691331865e-11 1.92145346398423e-12
1.35595000000000e+01 3.98299399636569e-11 1.76513119626491e-12
1.36065000000000e+01 3.65260562882685e-11 1.62151698247510e-12
1.36535000000000e+01 3.34962289471468e-11 1.48957858975542e-12
1.37005000000000e+01 3.07177250351015e-11 1.36836755488392e-12
1.37475000000000e+01 2.81696973358094e-11 1.25701239267839e-12
1.37945000000000e+01 2.58330279043884e-11 1.15471235443972e-12
1.38415000000000e+01 2.36901846247591e-11 1.06073169194126e-12
1.38885000000000e+01 2.17250896655375e-11 9.74394386063847e-13
1.39355000000000e+01 1.99229988474793e-11 8.95079302480926e-13
1.39825000000000e+01 1.82703910173638e-11 8.22215739836279e-13
1.40295000000000e+01 1.67548665982884e-11 7.55279338649988e-13
1.40765000000000e+01 1.53650545551895e-11 6.93788321755611e-13
1.41235000000000e+01 1.40905270775518e-11 6.37300039431888e-13
1.41705000000000e+01 1.29217213391645e-11 5.85407794562062e-13
1.42175000000000e+01 1.18498677478878e-11 5.37737925148383e-13
1.42645000000000e+01 1.08669241470819e-11 4.93947123342888e-13
1.43115000000000e+01 9.96551547501292e-12 4.53719971840952e-13
1.43585000000000e+01 9.13887842949469e-12 4.16766680033329e-13
1.44055000000000e+01 8.38081072258585e-12 3.82821003736583e-13
1.44525000000000e+01 7.68562454459671e-12 3.51638333630812e-13
1.44995000000000e+01 7.04810388824556e-12 3.22993938736879e-13
1.45465000000000e+01 6.46346541276547e-12 2.96681352371409e-13
1.45935000000000e+01 5.92732255432384e-12 2.72510889034420e-13
1.46405000000000e+01 5.43565261347380e-12 2.50308281618977e-13
1.46875000000000e+01 4.98476657269330e-12 2.29913429191147e-13
1.47345000000000e+01 4.57128141755196e-12 2.11179246378029e-13
1.47815000000000e+01 4.19209475383022e-12 1.93970606127270e-13
1.48285000000000e+01 3.84436153014225e-12 1.78163368268435e-13
