Energy (eV)          EEDF (eV^-(3/2))     First Anisotropy
2.03250000000000e-03 9.79864995202159e+00 7.72703128785646e-03
6.09750000000000e-03 9.63083362748113e+00 1.26929332297142e-02
1.01625000000000e-02 9.46589140487116e+00 1.65806187510062e-02
1.42275000000000e-02 9.30377406096249e+00 1.94294735402758e-02
1.82925000000000e-02 9.14443321554383e+00 2.17203926564112e-02
2.23575000000000e-02 8.98782131698592e+00 2.36381001019350e-02
2.64225000000000e-02 8.83389162805113e+00 2.52796338718244e-02
3.04875000000000e-02 8.68259821194589e+00 2.67044458926344e-02
3.45525000000000e-02 8.53389591861191e+00 2.79525235373647e-02
3.86175000000000e-02 8.38774037125220e+00 2.90525176345602e-02
4.26825000000000e-02 8.24408795308781e+00 3.00259198165734e-02
4.67475000000000e-02 8.10289579434144e+00 3.08894233190981e-02
5.08125000000000e-02 7.96412175944392e+00 3.16563545733096e-02
5.48775000000000e-02 7.82772443445979e+00 3.23375900328632e-02
5.89425000000000e-02 7.69366311472831e+00 3.29421695382849e-02
6.30075000000000e-02 7.56189779271602e+00 3.34777216174972e-02
6.70725000000000e-02 7.43238914607749e+00 3.39507673438026e-02
7.11375000000000e-02 7.30509852592038e+00 3.43669430188232e-02
7.52025000000000e-02 7.17998794527164e+00 3.47311669774299e-02
7.92675000000000e-02 7.05702006774109e+00 3.50477669399954e-02
8.33325000000000e-02 6.93615819637930e+00 3.53205788857357e-02
8.73975000000000e-02 6.81736626272618e+00 3.55530249639666e-02
9.14625000000000e-02 6.70060881604718e+00 3.57481757067711e-02
9.55275000000000e-02 6.58585101275386e+00 3.59088003016225e-02
9.95925000000000e-02 6.47305860600557e+00 3.60374076552976e-02
1.03657500000000e-01 6.36219793548931e+00 3.61362802655726e-02
1.07722500000000e-01 6.25323591737453e+00 3.62075024108762e-02
1.11787500000000e-01 6.14614003444009e+00 3.62529838037318e-02
1.15852500000000e-01 6.04087832637015e+00 3.62744795877969e-02
1.19917500000000e-01 5.93741938021643e+00 3.62736073614704e-02
1.23982500000000e-01 5.83573232102366e+00 3.62518617636295e-02
1.28047500000000e-01 5.73578680261572e+00 3.62106270453728e-02
1.32112500000000e-01 5.63755299853947e+00 3.61511879661850e-02
1.36177500000000e-01 5.54100159316376e+00 3.60747392868944e-02
1.40242500000000e-01 5.44610377293083e+00 3.59823940802621e-02
1.44307500000000e-01 5.35283121775758e+00 3.58751910395535e-02
1.48372500000000e-01 5.26115609258406e+00 3.57541009333300e-02
1.52437500000000e-01 5.17105103906677e+00 3.56200323290583e-02
1.56502500000000e-01 5.08248916741416e+00 3.54738366875349e-02
1.60567500000000e-01 4.99544404836201e+00 3.53163129134353e-02
1.64632500000000e-01 4.90988970528620e+00 3.51482114337142e-02
1.68697500000000e-01 4.82580060645060e+00 3.49702378644659e-02
1.72762500000000e-01 4.74315165738768e+00 3.47830563176881e-02
1.76827500000000e-01 4.66191819340968e+00 3.45872923918214e-02
1.80892500000000e-01 4.58207597224796e+00 3.43835358836077e-02
1.84957500000000e-01 4.50360116681847e+00 3.41723432535536e-02
1.89022500000000e-01 4.42647035811109e+00 3.39542398728629e-02
1.93087500000000e-01 4.35066052820080e+00 3.37297220759466e-02
1.97152500000000e-01 4.27614905337843e+00 3.34992590394815e-02
2.01217500000000e-01 4.20291369739921e+00 3.32632945062993e-02
2.05282500000000e-01 4.13093260484685e+00 3.30222483700805e-02
2.09347500000000e-01 4.06018429461124e+00 3.27765181348847e-02
2.13412500000000e-01 3.99064765347799e+00 3.25264802618572e-02
2.17477500000000e-01 3.92230192982759e+00 3.22724914139970e-02
2.21542500000000e-01 3.85512672744265e+00 3.20148896086211e-02
2.25607500000000e-01 3.78910199942102e+00 3.17539952860649e-02
2.29672500000000e-01 3.72420804219333e+00 3.14901123022190e-02
2.33737500000000e-01 3.66042548964287e+00 3.12235288516687e-02
2.37802500000000e-01 3.59773530732624e+00 3.09545183274927e-02
2.41867500000000e-01 3.53611878679291e+00 3.06833401231293e-02
2.45932500000000e-01 3.47555754000219e+00 3.04102403811719e-02
2.49997500000000e-01 3.41603349383564e+00 3.01354526934668e-02
2.54062500000000e-01 3.35752888470367e+00 2.98591987564444e-02
2.58127500000000e-01 3.30002625324429e+00 2.95816889852416e-02
2.62192500000000e-01 3.24350843911287e+00 2.93031230898239e-02
2.66257500000000e-01 3.18795857586094e+00 2.90236906160234e-02
2.70322500000000e-01 3.13336008590285e+00 2.87435714541334e-02
2.74387500000000e-01 3.07969667556853e+00 2.84629363174591e-02
2.78452500000000e-01 3.02695233024102e+00 2.81819471930157e-02
2.82517500000000e-01 2.97511130957730e+00 2.79007577663687e-02
2.86582500000000e-01 2.92415814281092e+00 2.76195138224354e-02
2.90647500000000e-01 2.87407762413510e+00 2.73383536239167e-02
2.94712500000000e-01 2.82485480816494e+00 2.70574082688881e-02
2.98777500000000e-01 2.77647500547725e+00 2.67768020289517e-02
3.02842500000000e-01 2.72892377822691e+00 2.64966526692333e-02
3.06907500000000e-01 2.68218693583815e+00 2.62170717514108e-02
3.10972500000000e-01 2.63625053076973e+00 2.59381649208673e-02
3.15037500000000e-01 2.59110085435263e+00 2.56600321789729e-02
3.19102500000000e-01 2.54672443269898e+00 2.53827681414240e-02
3.23167500000000e-01 2.50310802268111e+00 2.51064622834994e-02
3.27232500000000e-01 2.46023860797943e+00 2.48311991730323e-02
3.31297500000000e-01 2.41810339519800e+00 2.45570586918280e-02
3.35362500000000e-01 2.37668981004667e+00 2.42841162462176e-02
3.39427500000000e-01 2.33598549358851e+00 2.40124429673804e-02
3.43492500000000e-01 2.29597829855164e+00 2.37421059020194e-02
3.47557500000000e-01 2.25665628570409e+00 2.34731681939519e-02
3.51622500000000e-01 2.21800772029085e+00 2.32056892571130e-02
3.55687500000000e-01 2.18002106853187e+00 2.29397249404570e-02
3.59752500000000e-01 2.14268499418012e+00 2.26753276852004e-02
3.63817500000000e-01 2.10598835513847e+00 2.24125466748208e-02
3.67882500000000e-01 2.06992020013466e+00 2.21514279782029e-02
3.71947500000000e-01 2.03446976545309e+00 2.18920146862899e-02
3.76012500000000e-01 1.99962647172267e+00 2.16343470425895e-02
3.80077500000000e-01 1.96537992075963e+00 2.13784625678464e-02
3.84142500000000e-01 1.93171989246443e+00 2.11243961791845e-02
3.88207500000000e-01 1.89863634177178e+00 2.08721803039982e-02
3.92272500000000e-01 1.86611939565296e+00 2.06218449888577e-02
3.96337500000000e-01 1.83415935016942e+00 2.03734180036780e-02
4.00402500000000e-01 1.80274666757686e+00 2.01269249413838e-02
4.04467500000000e-01 1.77187197347889e+00 1.98823893132891e-02
4.08532500000000e-01 1.74152605402952e+00 1.96398326404014e-02
4.12597500000000e-01 1.71169985318342e+00 1.93992745408457e-02
4.16662500000000e-01 1.68238446999339e+00 1.91607328135907e-02
4.20727500000000e-01 1.65357115595409e+00 1.89242235186518e-02
4.24792500000000e-01 1.62525131239120e+00 1.86897610539379e-02
4.28857500000000e-01 1.59741648789540e+00 1.84573582288950e-02
4.32922500000000e-01 1.57005837580020e+00 1.82270263350930e-02
4.36987500000000e-01 1.54316881170303e+00 1.79987752138981e-02
4.41052500000000e-01 1.51673977102873e+00 1.77726133213595e-02
4.45117500000000e-01 1.49076336663484e+00 1.75485477904363e-02
4.49182500000000e-01 1.46523184645781e+00 1.73265844906819e-02
4.53247500000000e-01 1.44013759119965e+00 1.71067280855013e-02
4.57312500000000e-01 1.41547311205404e+00 1.68889820870844e-02
4.61377500000000e-01 1.39123104847153e+00 1.66733489091177e-02
4.65442500000000e-01 1.36740416596292e+00 1.64598299173701e-02
4.69507500000000e-01 1.34398535394030e+00 1.62484254782446e-02
4.73572500000000e-01 1.32096762359507e+00 1.60391350053820e-02
4.77637500000000e-01 1.29834410581227e+00 1.58319570044002e-02
4.81702500000000e-01 1.27610804912066e+00 1.56268891158470e-02
4.85767500000000e-01 1.25425281767790e+00 1.54239281564399e-02
4.89832500000000e-01 1.23277188929024e+00 1.52230701586669e-02
4.93897500000000e-01 1.21165885346610e+00 1.50243104088129e-02
4.97962500000000e-01 1.19090740950302e+00 1.48276434834794e-02
5.02027500000000e-01 1.17051136460736e+00 1.46330632846568e-02
5.06092500000000e-01 1.15046463204620e+00 1.44405630734109e-02
5.10157500000000e-01 1.13076122933089e+00 1.42501355022357e-02
5.14222500000000e-01 1.11139527643172e+00 1.40617726461303e-02
5.18287500000000e-01 1.09236099402316e+00 1.38754660324479e-02
5.22352500000000e-01 1.07365270175914e+00 1.36912066695680e-02
5.26417500000000e-01 1.05526481657790e+00 1.35089850744377e-02
5.30482500000000e-01 1.03719185103584e+00 1.33287912990254e-02
5.34547500000000e-01 1.01942841166991e+00 1.31506149557334e-02
5.38612500000000e-01 1.00196919738808e+00 1.29744452418055e-02
5.42677500000000e-01 9.84808997887330e-01 1.28002709627715e-02
5.46742500000000e-01 9.67942692098751e-01 1.26280805549672e-02
5.50807500000000e-01 9.51365246659299e-01 1.24578621071624e-02
5.54872500000000e-01 9.35071714409690e-01 1.22896033813339e-02
5.58937500000000e-01 9.19057232918032e-01 1.21232918326149e-02
5.63002500000000e-01 9.03317023028750e-01 1.19589146284532e-02
5.67067500000000e-01 8.87846387436350e-01 1.17964586670078e-02
5.71132500000000e-01 8.72640709283620e-01 1.16359105948134e-02
5.75197500000000e-01 8.57695450783835e-01 1.14772568237404e-02
5.79262500000000e-01 8.43006151866556e-01 1.13204835472767e-02
5.83327500000000e-01 8.28568428846623e-01 1.11655767561574e-02
5.87392500000000e-01 8.14377973115949e-01 1.10125222533666e-02
5.91457500000000e-01 8.00430549857710e-01 1.08613056685343e-02
5.95522500000000e-01 7.86721996782563e-01 1.07119124717529e-02
5.99587500000000e-01 7.73248222886506e-01 1.05643279868324e-02
6.03652500000000e-01 7.60005207230011e-01 1.04185374040175e-02
6.07717500000000e-01 7.46988997738067e-01 1.02745257921852e-02
6.11782500000000e-01 7.34195710020771e-01 1.01322781105425e-02
6.15847500000000e-01 7.21621526214127e-01 9.99177921984350e-03
6.19912500000000e-01 7.09262693840683e-01 9.85301389314161e-03
6.23977500000000e-01 6.97115524689699e-01 9.71596682609711e-03
6.28042500000000e-01 6.85176393716479e-01 9.58062264685352e-03
6.32107500000000e-01 6.73441737960561e-01 9.44696592550014e-03
6.36172500000000e-01 6.61908055482433e-01 9.31498118313651e-03
6.40237500000000e-01 6.50571904318461e-01 9.18465290055148e-03
6.44302500000000e-01 6.39429901453709e-01 9.05596552653249e-03
6.48367500000000e-01 6.28478721812361e-01 8.92890348581875e-03
6.52432500000000e-01 6.17715097265425e-01 8.80345118671040e-03
6.56497500000000e-01 6.07135815655436e-01 8.67959302834701e-03
6.60562500000000e-01 5.96737719837860e-01 8.55731340766725e-03
6.64627500000000e-01 5.86517706738917e-01 8.43659672606051e-03
6.68692500000000e-01 5.76472726429540e-01 8.31742739572413e-03
6.72757500000000e-01 5.66599781215193e-01 8.19978984573436e-03
6.76822500000000e-01 5.56895924741278e-01 8.08366852784251e-03
6.80887500000000e-01 5.47358261113863e-01 7.96904792200780e-03
6.84952500000000e-01 5.37983944035468e-01 7.85591254167343e-03
6.89017500000000e-01 5.28770175955653e-01 7.74424693879765e-03
6.93082500000000e-01 5.19714207236153e-01 7.63403570864865e-03
6.97147500000000e-01 5.10813335330311e-01 7.52526349437087e-03
7.01212500000000e-01 5.02064903976568e-01 7.41791499133192e-03
7.05277500000000e-01 4.93466302405756e-01 7.31197495125710e-03
7.09342500000000e-01 4.85014964561980e-01 7.20742818616131e-03
7.13407500000000e-01 4.76708368336835e-01 7.10425957208392e-03
7.17472500000000e-01 4.68544034816738e-01 7.00245405263408e-03
7.21537500000000e-01 4.60519527543157e-01 6.90199664235414e-03
7.25602500000000e-01 4.52632451785504e-01 6.80287242990817e-03
7.29667500000000e-01 4.44880453826481e-01 6.70506658110122e-03
7.33732500000000e-01 4.37261220259671e-01 6.60856434173472e-03
7.37797500000000e-01 4.29772477299149e-01 6.51335104030649e-03
7.41862500000000e-01 4.22411990100927e-01 6.41941209055971e-03
7.45927500000000e-01 4.15177562096015e-01 6.32673299388594e-03
7.49992500000000e-01 4.08067034334905e-01 6.23529934158880e-03
7.54057500000000e-01 4.01078284843281e-01 6.14509681701289e-03
7.58122500000000e-01 3.94209227988766e-01 6.05611119754301e-03
7.62187500000000e-01 3.87457813858511e-01 5.96832835647861e-03
7.66252500000000e-01 3.80822027647447e-01 5.88173426478871e-03
7.70317500000000e-01 3.74299889057012e-01 5.79631499275086e-03
7.74382500000000e-01 3.67889451704175e-01 5.71205671147893e-03
7.78447500000000e-01 3.61588802540584e-01 5.62894569434445e-03
7.82512500000000e-01 3.55396061281660e-01 5.54696831829472e-03
7.86577500000000e-01 3.49309379845470e-01 5.46611106507271e-03
7.90642500000000e-01 3.43326941801208e-01 5.38636052234130e-03
7.94707500000000e-01 3.37446961827122e-01 5.30770338471598e-03
7.98772500000000e-01 3.31667685177728e-01 5.23012645471027e-03
8.02837500000000e-01 3.25987387160144e-01 5.15361664359722e-03
8.06902500000000e-01 3.20404372619397e-01 5.07816097218844e-03
8.10967500000000e-01 3.14916975432542e-01 5.00374657153579e-03
8.15032500000000e-01 3.09523558011443e-01 4.93036068355911e-03
8.19097500000000e-01 3.04222510814078e-01 4.85799066160092e-03
8.23162500000000e-01 2.99012251864203e-01 4.78662397091249e-03
8.27227500000000e-01 2.93891226279250e-01 4.71624818907429e-03
8.31292500000000e-01 2.88857905806305e-01 4.64685100635219e-03
8.35357500000000e-01 2.83910788366040e-01 4.57842022599297e-03
8.39422500000000e-01 2.79048397604450e-01 4.51094376446157e-03
8.43487500000000e-01 2.74269282452266e-01 4.44440965162188e-03
8.47552500000000e-01 2.69572016691923e-01 4.37880603086434e-03
8.51617500000000e-01 2.64955198531930e-01 4.31412115918183e-03
8.55682500000000e-01 2.60417450188545e-01 4.25034340719639e-03
8.59747500000000e-01 2.55957417474603e-01 4.18746125913842e-03
8.63812500000000e-01 2.51573769395388e-01 4.12546331278103e-03
8.67877500000000e-01 2.47265197751434e-01 4.06433827933143e-03
8.71942500000000e-01 2.43030416748116e-01 4.00407498328026e-03
8.76007500000000e-01 2.38868162611940e-01 3.94466236221201e-03
8.80072500000000e-01 2.34777193213395e-01 3.88608946657753e-03
8.84137500000000e-01 2.30756287696268e-01 3.82834545943041e-03
8.88202500000000e-01 2.26804246113309e-01 3.77141961612910e-03
8.92267500000000e-01 2.22919889068134e-01 3.71530132400601e-03
8.96332500000000e-01 2.19102057363259e-01 3.65998008200530e-03
9.00397500000000e-01 2.15349611654169e-01 3.60544550029113e-03
9.04462500000000e-01 2.11661432109300e-01 3.55168729982715e-03
9.08527500000000e-01 2.08036418075855e-01 3.49869531192900e-03
9.12592500000000e-01 2.04473487751339e-01 3.44645947779131e-03
9.16657500000000e-01 2.00971577860721e-01 3.39496984798995e-03
9.20722500000000e-01 1.97529643339119e-01 3.34421658196133e-03
9.24787500000000e-01 1.94146657019930e-01 3.29418994745936e-03
9.28852500000000e-01 1.90821609328293e-01 3.24488031999185e-03
9.32917500000000e-01 1.87553507979803e-01 3.19627818223705e-03
9.36982500000000e-01 1.84341377684391e-01 3.14837412344110e-03
9.41047500000000e-01 1.81184259855265e-01 3.10115883879827e-03
9.45112500000000e-01 1.78081212322848e-01 3.05462312881440e-03
9.49177500000000e-01 1.75031309053603e-01 3.00875789865435e-03
9.53242500000000e-01 1.72033639873684e-01 2.96355415747480e-03
9.57307500000000e-01 1.69087310197314e-01 2.91900301774316e-03
9.61372500000000e-01 1.66191440759814e-01 2.87509569454342e-03
9.65437500000000e-01 1.63345167355212e-01 2.83182350486952e-03
9.69502500000000e-01 1.60547640578334e-01 2.78917786690741e-03
9.73567500000000e-01 1.57798025571324e-01 2.74715029930647e-03
9.77632500000000e-01 1.55095501774496e-01 2.70573242044089e-03
9.81697500000000e-01 1.52439262681460e-01 2.66491594766171e-03
9.85762500000000e-01 1.49828515598435e-01 2.62469269654047e-03
9.89827500000000e-01 1.47262481407690e-01 2.58505458010486e-03
9.93892500000000e-01 1.44740394335033e-01 2.54599360806705e-03
9.97957500000000e-01 1.42261501721286e-01 2.50750188604543e-03
1.00202250000000e+00 1.39825063797667e-01 2.46957161478020e-03
1.00608750000000e+00 1.37430353465026e-01 2.43219508934355e-03
1.01015250000000e+00 1.35076656076855e-01 2.39536469834469e-03
1.01421750000000e+00 1.32763269226026e-01 2.35907292313064e-03
1.01828250000000e+00 1.30489502535163e-01 2.32331233698287e-03
1.02234750000000e+00 1.28254677450625e-01 2.28807560431051e-03
1.02641250000000e+00 1.26058127039998e-01 2.25335547984080e-03
1.03047750000000e+00 1.23899195793073e-01 2.21914480780645e-03
1.03454250000000e+00 1.21777239426215e-01 2.18543652113148e-03
1.03860750000000e+00 1.19691624690101e-01 2.15222364061498e-03
1.04267250000000e+00 1.17641729180732e-01 2.11949927411351e-03
1.04673750000000e+00 1.15626941153697e-01 2.08725661572269e-03
1.05080250000000e+00 1.13646659341609e-01 2.05548894495814e-03
1.05486750000000e+00 1.11700292774673e-01 2.02418962593625e-03
1.05893250000000e+00 1.09787260604320e-01 1.99335210655496e-03
1.06299750000000e+00 1.07906991929871e-01 1.96296991767495e-03
1.06706250000000e+00 1.06058925628162e-01 1.93303667230149e-03
1.07112750000000e+00 1.04242510186091e-01 1.90354606476755e-03
1.07519250000000e+00 1.02457203536030e-01 1.87449186991795e-03
1.07925750000000e+00 1.00702472894059e-01 1.84586794229506e-03
1.08332250000000e+00 9.89777946009676e-02 1.81766821532658e-03
1.08738750000000e+00 9.72826539659809e-02 1.78988670051507e-03
1.09145250000000e+00 9.56165451131628e-02 1.76251748662986e-03
1.09551750000000e+00 9.39789708304481e-02 1.73555473890171e-03
1.09958250000000e+00 9.23694424212613e-02 1.70899269821984e-03
1.10364750000000e+00 9.07874795586758e-02 1.68282568033221e-03
1.10771250000000e+00 8.92326101420720e-02 1.65704807504862e-03
1.11177750000000e+00 8.77043701562491e-02 1.63165434544737e-03
1.11584250000000e+00 8.62023035329510e-02 1.60663902708540e-03
1.11990750000000e+00 8.47259620147622e-02 1.58199672721190e-03
1.12397250000000e+00 8.32749050213367e-02 1.55772212398589e-03
1.12803750000000e+00 8.18486995179162e-02 1.53380996569777e-03
1.13210250000000e+00 8.04469198861009e-02 1.51025506999485e-03
1.13616750000000e+00 7.90691477968336e-02 1.48705232311116e-03
1.14023250000000e+00 7.77149720855587e-02 1.46419667910183e-03
1.14429750000000e+00 7.63839886295200e-02 1.44168315908167e-03
1.14836250000000e+00 7.50758002271590e-02 1.41950685046852e-03
1.15242750000000e+00 7.37900164795793e-02 1.39766290623137e-03
1.15649250000000e+00 7.25262536740415e-02 1.37614654414311e-03
1.16055750000000e+00 7.12841346694520e-02 1.35495304603835e-03
1.16462250000000e+00 7.00632887838147e-02 1.33407775707617e-03
1.16868750000000e+00 6.88633516836089e-02 1.31351608500796e-03
1.17275250000000e+00 6.76839652750627e-02 1.29326349945055e-03
1.17681750000000e+00 6.65247775972878e-02 1.27331553116429e-03
1.18088250000000e+00 6.53854427172448e-02 1.25366777133676e-03
1.18494750000000e+00 6.42656206265079e-02 1.23431587087170e-03
1.18901250000000e+00 6.31649771397963e-02 1.21525553968328e-03
1.19307750000000e+00 6.20831837952453e-02 1.19648254599607e-03
1.19714250000000e+00 6.10199177563833e-02 1.17799271565033e-03
1.20120750000000e+00 5.99748617157895e-02 1.15978193141305e-03
1.20527250000000e+00 5.89477038004004e-02 1.14184613229456e-03
1.20933750000000e+00 5.79381374784383e-02 1.12418131287069e-03
1.21340250000000e+00 5.69458614679342e-02 1.10678352261077e-03
1.21746750000000e+00 5.59705796468167e-02 1.08964886521134e-03
1.22153250000000e+00 5.50120009645417e-02 1.07277349793550e-03
1.22559750000000e+00 5.40698393552346e-02 1.05615363095815e-03
1.22966250000000e+00 5.31438136523203e-02 1.03978552671697e-03
1.23372750000000e+00 5.22336475046162e-02 1.02366549926924e-03
1.23779250000000e+00 5.13390692938609e-02 1.00778991365449e-03
1.24185750000000e+00 5.04598120536559e-02 9.92155185262957e-04
1.24592250000000e+00 4.95956133897961e-02 9.76757779209916e-04
1.24998750000000e+00 4.87462154019638e-02 9.61594209715855e-04
1.25405250000000e+00 4.79113646067646e-02 9.46661039492552e-04
1.25811750000000e+00 4.70908118620806e-02 9.31954879134952e-04
1.26218250000000e+00 4.62843122927201e-02 9.17472386518921e-04
1.26624750000000e+00 4.54916252173401e-02 9.03210266204931e-04
1.27031250000000e+00 4.47125140766202e-02 8.89165268847461e-04
1.27437750000000e+00 4.39467463626671e-02 8.75334190610309e-04
1.27844250000000e+00 4.31940935496282e-02 8.61713872587797e-04
1.28250750000000e+00 4.24543310254925e-02 8.48301200231701e-04
