Energy (eV)          EEDF (eV^-(3/2))     First Anisotropy
3.29166666666667e-02 3.21466787593159e-01 3.42909449174033e-04
9.87500000000000e-02 3.12345338501787e-01 5.60090487910557e-04
1.64583333333333e-01 3.03482705637378e-01 7.23266276762670e-04
2.30416666666667e-01 2.94871545302263e-01 8.37837503332928e-04
2.96250000000000e-01 2.86504722069678e-01 9.25907744378640e-04
3.62083333333333e-01 2.78375302977405e-01 9.96125122481858e-04
4.27916666666667e-01 2.70476551836909e-01 1.05310915065936e-03
4.93750000000000e-01 2.62801923563184e-01 1.09973351066957e-03
5.59583333333333e-01 2.55345058774240e-01 1.13795788918585e-03
6.25416666666667e-01 2.48099778562092e-01 1.16920381482856e-03
6.91250000000000e-01 2.41060079325077e-01 1.19454922787937e-03
7.57083333333333e-01 2.34220127802622e-01 1.21483924458052e-03
8.22916666666667e-01 2.27574256269406e-01 1.23075382840949e-03
8.88750000000000e-01 2.21116957807998e-01 1.24285145691870e-03
9.54583333333333e-01 2.14842881750823e-01 1.25159855781314e-03
1.02041666666667e+00 2.08746829266618e-01 1.25739008243192e-03
1.08625000000000e+00 2.02823749046319e-01 1.26056432728243e-03
1.15208333333333e+00 1.97068733041556e-01 1.26141387191404e-03
1.21791666666667e+00 1.91477012572035e-01 1.26019385151217e-03
1.28375000000000e+00 1.86043954209904e-01 1.25712833141321e-03
1.34958333333333e+00 1.80765055961574e-01 1.25241527569874e-03
1.41541666666667e+00 1.75635943656472e-01 1.24623051658104e-03
1.48125000000000e+00 1.70652367195412e-01 1.23873095131448e-03
1.54708333333333e+00 1.65810197043872e-01 1.23005712919260e-03
1.61291666666667e+00 1.61105420905335e-01 1.22033540068827e-03
1.67875000000000e+00 1.56534140295790e-01 1.20967970531053e-03
1.74458333333333e+00 1.52092567324409e-01 1.19819305602009e-03
1.81041666666667e+00 1.47777021632081e-01 1.18596881071045e-03
1.87625000000000e+00 1.43583927260321e-01 1.17309175590899e-03
1.94208333333333e+00 1.39509809696531e-01 1.15963902270974e-03
2.00791666666667e+00 1.35551293058508e-01 1.14568089126433e-03
2.07375000000000e+00 1.31705097230339e-01 1.13128148938655e-03
2.13958333333333e+00 1.27968035150932e-01 1.11649939020378e-03
2.20541666666667e+00 1.24337010226004e-01 1.10138814843672e-03
2.27125000000000e+00 1.20809013706811e-01 1.08599677297426e-03
2.33708333333333e+00 1.17381122202186e-01 1.07037013434231e-03
2.40291666666667e+00 1.14050495300480e-01 1.05454933725316e-03
2.46875000000000e+00 1.10814373169617e-01 1.03857205275591e-03
2.53458333333333e+00 1.07670074274368e-01 1.02247280592868e-03
2.60041666666667e+00 1.04614993191831e-01 1.00628324338776e-03
2.66625000000000e+00 1.01646598413458e-01 9.90032374039638e-04
2.73208333333333e+00 9.87624302507549e-02 9.73746778006060e-04
2.79791666666667e+00 9.59600988289746e-02 9.57450803919010e-04
2.86375000000000e+00 9.32372820736611e-02 9.41166747838841e-04
2.92958333333333e+00 9.05917237892895e-02 9.24915008483818e-04
2.99541666666667e+00 8.80212318169535e-02 9.08714235949546e-04
3.06125000000000e+00 8.55236761895982e-02 8.92581467415580e-04
3.12708333333333e+00 8.30969873693707e-02 8.76532244647898e-04
3.19291666666667e+00 8.07391545561316e-02 8.60580728124854e-04
3.25875000000000e+00 7.84482239969938e-02 8.44739801706917e-04
3.32458333333333e+00 7.62222973693100e-02 8.29021162945743e-04
3.39041666666667e+00 7.40595302278376e-02 8.13435411960884e-04
3.45625000000000e+00 7.19581304554885e-02 7.97992133291542e-04
3.52208333333333e+00 6.99163567799476e-02 7.82699966174531e-04
3.58791666666667e+00 6.79325173482590e-02 7.67566674601724e-04
3.65375000000000e+00 6.60049683068493e-02 7.52599212059320e-04
3.71958333333333e+00 6.41321124407525e-02 7.37803776774655e-04
3.78541666666667e+00 6.23123978652650e-02 7.23185867493177e-04
3.85125000000000e+00 6.05443167243467e-02 7.08750335163790e-04
3.91708333333333e+00 5.88264039423321e-02 6.94501426726295e-04
3.98291666666667e+00 5.71572360231205e-02 6.80442829884257e-04
4.04875000000000e+00 5.55354298570003e-02 6.66577714685867e-04
4.11458333333333e+00 5.39596415755597e-02 6.52908768455772e-04
4.18041666666667e+00 5.24285654496354e-02 6.39438231975772e-04
4.24625000000000e+00 5.09409327954636e-02 6.26167933145503e-04
4.31208333333333e+00 4.94955109242649e-02 6.13099314990816e-04
4.37791666666667e+00 4.80911021308809e-02 6.00233465059077e-04
4.44375000000000e+00 4.67265426909292e-02 5.87571142804472e-04
4.50958333333333e+00 4.54007018972430e-02 5.75112802129336e-04
4.57541666666667e+00 4.41124811317708e-02 5.62858615368403e-04
4.64125000000000e+00 4.28608129461242e-02 5.50808495655636e-04
4.70708333333333e+00 4.16446601776941e-02 5.38962115111778e-04
4.77291666666667e+00 4.04630150979911e-02 5.27318924477226e-04
4.83875000000000e+00 3.93148985696180e-02 5.15878171433409e-04
4.90458333333333e+00 3.81993592354781e-02 5.04638915298038e-04
4.97041666666667e+00 3.71154727372858e-02 4.93600043133516e-04
5.03625000000000e+00 3.60623409425845e-02 4.82760284784958e-04
5.10208333333333e+00 3.50390912010059e-02 4.72118224756963e-04
5.16791666666667e+00 3.40448756271901e-02 4.61672315449757e-04
5.23375000000000e+00 3.30788703920070e-02 4.51420889516856e-04
5.29958333333333e+00 3.21402750403244e-02 4.41362169455535e-04
5.36541666666667e+00 3.12283118330453e-02 4.31494278489941e-04
5.43125000000000e+00 3.03422250971832e-02 4.21815250729841e-04
5.49708333333333e+00 2.94812806000531e-02 4.12323038898672e-04
5.56291666666667e+00 2.86447649455670e-02 4.03015523280524e-04
5.62875000000000e+00 2.78319849782610e-02 3.93890520067409e-04
5.69458333333333e+00 2.70422672092448e-02 3.84945787565025e-04
5.76041666666667e+00 2.62749572622919e-02 3.76179033540804e-04
5.82625000000000e+00 2.55294193273286e-02 3.67587922073730e-04
5.89208333333333e+00 2.48050356338620e-02 3.59170078512595e-04
5.95791666666667e+00 2.41012059427673e-02 3.50923095499552e-04
6.02375000000000e+00 2.34173470451238e-02 3.42844538578666e-04
6.08958333333333e+00 2.27528922791955e-02 3.34931950129847e-04
6.15541666666667e+00 2.21072910641537e-02 3.27182854292664e-04
6.22125000000000e+00 2.14800084404885e-02 3.19594761543663e-04
6.28708333333333e+00 2.08705246269414e-02 3.12165171788241e-04
6.35291666666667e+00 2.02783345927086e-02 3.04891578369635e-04
6.41875000000000e+00 1.97029476359726e-02 2.97771471788144e-04
6.48458333333333e+00 1.91438869774833e-02 2.90802342100387e-04
6.55041666666667e+00 1.86006893680705e-02 2.83981682166324e-04
6.61625000000000e+00 1.80729047021298e-02 2.77306990653627e-04
6.68208333333333e+00 1.75600956448197e-02 2.70775773867355e-04
6.74791666666667e+00 1.70618372719749e-02 2.64385548361806e-04
6.81375000000000e+00 1.65777167156417e-02 2.58133843349056e-04
6.87958333333333e+00 1.61073328221119e-02 2.52018202060623e-04
6.94541666666667e+00 1.56502958215655e-02 2.46036183829742e-04
7.01125000000000e+00 1.52062270029945e-02 2.40185366003194e-04
7.07708333333333e+00 1.47747584005227e-02 2.34463344919071e-04
7.14291666666667e+00 1.43555324903272e-02 2.28867737547615e-04
7.20875000000000e+00 1.39482018925098e-02 2.23396182989200e-04
7.27458333333333e+00 1.35524290833643e-02 2.18046343137946e-04
7.34041666666667e+00 1.31678861173262e-02 2.12815903954877e-04
7.40625000000000e+00 1.27942543535556e-02 2.07702576621443e-04
7.47208333333333e+00 1.24312241920058e-02 2.02704097946964e-04
7.53791666666667e+00 1.20784948183360e-02 1.97818231335978e-04
7.60375000000000e+00 1.17357739531562e-02 1.93042767655475e-04
7.66958333333333e+00 1.14027776099271e-02 1.88375525434438e-04
7.73541666666667e+00 1.10792298609426e-02 1.83814351577318e-04
7.80125000000000e+00 1.07648626073552e-02 1.79357121993888e-04
7.86708333333333e+00 1.04594153571029e-02 1.75001741631037e-04
7.93291666666667e+00 1.01626350102216e-02 1.70746144976073e-04
7.99875000000000e+00 9.87427564792787e-03 1.66588296490314e-04
8.06458333333333e+00 9.59409832891583e-03 1.62526190506621e-04
8.13041666666667e+00 9.32187089240472e-03 1.58557851559287e-04
8.19625000000000e+00 9.05736776469812e-03 1.54681334655979e-04
8.26208333333333e+00 8.80036977233128e-03 1.50894725068859e-04
8.32791666666667e+00 8.55066396139008e-03 1.47196138522044e-04
8.39375000000000e+00 8.30804342009727e-03 1.43583721331049e-04
8.45958333333333e+00 8.07230710741673e-03 1.40055650110694e-04
8.52541666666667e+00 7.84325968730020e-03 1.36610131846195e-04
8.59125000000000e+00 7.62071136597191e-03 1.33245403924680e-04
8.65708333333333e+00 7.40447773471101e-03 1.29959733779135e-04
8.72291666666667e+00 7.19437961779378e-03 1.26751418865106e-04
8.78875000000000e+00 6.99024292325790e-03 1.23618786604934e-04
8.85458333333333e+00 6.79189849869036e-03 1.20560193983755e-04
8.92041666666667e+00 6.59918199173425e-03 1.17574027450294e-04
8.98625000000000e+00 6.41193371321523e-03 1.14658702791197e-04
9.05208333333333e+00 6.22999850485916e-03 1.11812664692334e-04
9.11791666666667e+00 6.05322561132582e-03 1.09034386579215e-04
9.18375000000000e+00 5.88146855467296e-03 1.06322370436049e-04
9.24958333333333e+00 5.71458501301682e-03 1.03675146343253e-04
9.31541666666667e+00 5.55243670314077e-03 1.01091272270561e-04
9.38125000000000e+00 5.39488926535728e-03 9.85693338530507e-05
9.44708333333333e+00 5.24181215220609e-03 9.61079439138592e-05
9.51291666666667e+00 5.09307852076445e-03 9.37057422209094e-05
9.57875000000000e+00 4.94856512704518e-03 9.13613952301790e-05
9.64458333333333e+00 4.80815222390228e-03 8.90735956009607e-05
9.71041666666667e+00 4.67172346224126e-03 8.68410619253615e-05
9.77625000000000e+00 4.53916579416318e-03 8.46625384473819e-05
9.84208333333333e+00 4.41036937931604e-03 8.25367945766947e-05
9.90791666666667e+00 4.28522749426993e-03 8.04626245985424e-05
9.97375000000000e+00 4.16363644368243e-03 7.84388474302985e-05
1.00395833333333e+01 4.04549547405008e-03 7.64643059188998e-05
1.01054166666667e+01 3.93070669197155e-03 7.45378667608984e-05
1.01712500000000e+01 3.81917498087838e-03 7.26584204570265e-05
1.02370833333333e+01 3.71080792205591e-03 7.08248800865640e-05
1.03029166666667e+01 3.60551572122847e-03 6.90361814258312e-05
1.03687500000000e+01 3.50321113090947e-03 6.72912830876519e-05
1.04345833333333e+01 3.40380937828793e-03 6.55891651550957e-05
1.05004166666667e+01 3.30722809783231e-03 6.39288293121264e-05
1.05662500000000e+01 3.21338726012139e-03 6.23092989392936e-05
1.06320833333333e+01 3.12220910569309e-03 6.07296178423910e-05
1.06979166666667e+01 3.03361808317534e-03 5.91888503421317e-05
1.07637500000000e+01 2.94754078405504e-03 5.76860813331943e-05
1.08295833333333e+01 2.86390588199628e-03 5.62204151019122e-05
1.08954166666667e+01 2.78264407604677e-03 5.47909753816340e-05
1.09612500000000e+01 2.70368803084760e-03 5.33969053812580e-05
1.10270833333333e+01 2.62697232096896e-03 5.20373666863281e-05
1.10929166666667e+01 2.55243337877701e-03 5.07115392858041e-05
1.11587500000000e+01 2.48000943962938e-03 4.94186215753544e-05
1.12245833333333e+01 2.40964049081347e-03 4.81578293364939e-05
1.12904166666667e+01 2.34126822369271e-03 4.69283957396956e-05
1.13562500000000e+01 2.27483598347071e-03 4.57295713269643e-05
1.14220833333333e+01 2.21028872235173e-03 4.45606230639134e-05
1.14879166666667e+01 2.14757295561607e-03 4.34208343234489e-05
1.15537500000000e+01 2.08663671557105e-03 4.23095048514984e-05
1.16195833333333e+01 2.02742950858450e-03 4.12259498872034e-05
1.16854166666667e+01 1.96990227476770e-03 4.01695001307975e-05
1.17512500000000e+01 1.91400734576321e-03 3.91395016958015e-05
1.18170833333333e+01 1.85969840533128e-03 3.81353152927662e-05
1.18829166666667e+01 1.80693045234488e-03 3.71563161844493e-05
1.19487500000000e+01 1.75565976209382e-03 3.62018941273043e-05
1.20145833333333e+01 1.70584385013039e-03 3.52714526144636e-05
1.20804166666667e+01 1.65744143830502e-03 3.43644088208644e-05
1.21462500000000e+01 1.61041241929321e-03 3.34801935364363e-05
1.22120833333333e+01 1.56471782343080e-03 3.26182504642726e-05
1.22779166666667e+01 1.52031978754117e-03 3.17780361579578e-05
1.23437500000000e+01 1.47718152241581e-03 3.09590199484944e-05
1.24095833333333e+01 1.43526728239216e-03 3.01606832938530e-05
1.24754166666667e+01 1.39454233674341e-03 2.93825197104129e-05
1.25412500000000e+01 1.35497293986622e-03 2.86240346953576e-05
1.26070833333333e+01 1.31652630337441e-03 2.78847451240240e-05
1.26729166666667e+01 1.27917056984113e-03 2.71641791770774e-05
1.27387500000000e+01 1.24287478546796e-03 2.64618762598275e-05
1.28045833333333e+01 1.20760887448636e-03 2.57773864440254e-05
1.28704166666667e+01 1.17334361505925e-03 2.51102703921359e-05
1.29362500000000e+01 1.14005061422452e-03 2.44600992747929e-05
1.30020833333333e+01 1.10770228441344e-03 2.38264542539055e-05
1.30679166666667e+01 1.07627182133443e-03 2.32089264051710e-05
1.31337500000000e+01 1.04573318100134e-03 2.26071166346874e-05
1.31995833333333e+01 1.01606105819375e-03 2.20206352004301e-05
1.32654166666667e+01 9.87230866160254e-04 2.14491016339620e-05
1.33312500000000e+01 9.59218715557701e-04 2.08921446570404e-05
1.33970833333333e+01 9.32001394692863e-04 2.03494017387257e-05
1.34629166666667e+01 9.05556350895748e-04 1.98205190170770e-05
1.35287500000000e+01 8.79861671210589e-04 1.93051512164461e-05
1.35945833333333e+01 8.54896064271578e-04 1.88029612376554e-05
1.36604166666667e+01 8.30638843209056e-04 1.83136200803277e-05
1.37262500000000e+01 8.07069907946295e-04 1.78368067614313e-05
1.37920833333333e+01 7.84169728574155e-04 1.73722079361380e-05
1.38579166666667e+01 7.61919329664237e-04 1.69195178213174e-05
1.39237500000000e+01 7.40300274037694e-04 1.64784381157818e-05
1.39895833333333e+01 7.19294647514860e-04 1.60486776496004e-05
1.40554166666667e+01 6.98885044519760e-04 1.56299523091814e-05
1.41212500000000e+01 6.79054553198347e-04 1.52219849595749e-05
1.41870833333333e+01 6.59786741429414e-04 1.48245051201687e-05
1.42529166666667e+01 6.41065643614312e-04 1.44372488916958e-05
1.43187500000000e+01 6.22875747032267e-04 1.40599588808720e-05
1.43845833333333e+01 6.05201979008266e-04 1.36923839005427e-05
1.44504166666667e+01 5.88029694790549e-04 1.33342788988759e-05
1.45162500000000e+01 5.71344665040029e-04 1.29854048865437e-05
1.45820833333333e+01 5.55133064059469e-04 1.26455286595246e-05
1.46479166666667e+01 5.39381458669310e-04 1.23144227306785e-05
1.47137500000000e+01 5.24076796736801e-04 1.19918652596210e-05
1.47795833333333e+01 5.09206396378698e-04 1.16776397965130e-05
1.48454166666667e+01 4.94757935753333e-04 1.13715352161601e-05
1.49112500000000e+01 4.80719442542920e-04 1.10733456506814e-05
1.49770833333333e+01 4.67079284049282e-04 1.07828702527338e-05
1.50429166666667e+01 4.53826157826784e-04 1.04999131322315e-05
1.51087500000000e+01 4.40949082038521e-04 1.02242832918716e-05
1.51745833333333e+01 4.28437386371208e-04 9.95579440835055e-06
1.52404166666667e+01 4.16280703439803e-04 9.69426477176264e-06
1.53062500000000e+01 4.04468959944885e-04 9.43951722400669e-06
1.53720833333333e+01 3.92992368338958e-04 9.19137895665850e-06
1.54379166666667e+01 3.81841418939273e-04 8.94968145307233e-06
1.55037500000000e+01 3.71006871819747e-04 8.71426042966803e-06
1.55695833333333e+01 3.60479749166546e-04 8.48495564921575e-06
1.56354166666667e+01 3.50251328040820e-04 8.26161086564064e-06
1.57012500000000e+01 3.40313132944079e-04 8.04407376816456e-06
1.57670833333333e+01 3.30656928806051e-04 7.83219580885046e-06
1.58329166666667e+01 3.21274714343832e-04 7.62583215008701e-06
1.58987500000000e+01 3.12158715244727e-04 7.42484161154118e-06
1.59645833333333e+01 3.03301377734084e-04 7.22908651089335e-06
1.60304166666667e+01 2.94695362481771e-04 7.03843261396049e-06
1.60962500000000e+01 2.86333538351141e-04 6.85274908440022e-06
1.61620833333333e+01 2.78208976498877e-04 6.67190833664565e-06
1.62279166666667e+01 2.70314944783734e-04 6.49578598861164e-06
1.62937500000000e+01 2.62644902034563e-04 6.32426081407900e-06
1.63595833333333e+01 2.55192492638174e-04 6.15721460691015e-06
1.64254166666667e+01 2.47951541408980e-04 5.99453213627191e-06
1.64912500000000e+01 2.40916048332944e-04 5.83610110161887e-06
1.65570833333333e+01 2.34080183603089e-04 5.68181200733837e-06
1.66229166666667e+01 2.27438282912092e-04 5.53155812041462e-06
1.66887500000000e+01 2.20984842632600e-04 5.38523542792341e-06
1.67545833333333e+01 2.14714515263367e-04 5.24274252131758e-06
1.68204166666667e+01 2.08622105109960e-04 5.10398055645003e-06
1.68862500000000e+01 2.02702563865182e-04 4.96885321348672e-06
1.69520833333333e+01 1.96950986431876e-04 4.83726659010276e-06
1.70179166666667e+01 1.91362606959769e-04 4.70912916377708e-06
1.70837500000000e+01 1.85932794792767e-04 4.58435175402738e-06
1.71495833333333e+01 1.80657050637260e-04 4.46284742384009e-06
1.72154166666667e+01 1.75531002925782e-04 4.34453144414705e-06
1.72812500000000e+01 1.70550404100675e-04 4.22932125828377e-06
1.73470833333333e+01 1.65711127099344e-04 4.11713639102693e-06
1.74129166666667e+01 1.61009162017784e-04 4.00789841516084e-06
1.74787500000000e+01 1.56440612702690e-04 3.90153091805996e-06
1.75445833333333e+01 1.52001693527435e-04 3.79795941775491e-06
1.76104166666667e+01 1.47688726330756e-04 3.69711133149502e-06
1.76762500000000e+01 1.43498137291700e-04 3.59891594435600e-06
1.77420833333333e+01 1.39426453972261e-04 3.50330433179817e-06
1.78079166666667e+01 1.35470302508573e-04 3.41020933013244e-06
1.78737500000000e+01 1.31626404745178e-04 3.31956550705475e-06
1.79395833333333e+01 1.27891575522284e-04 3.23130909020035e-06
1.80054166666667e+01 1.24262720098647e-04 3.14537793942099e-06
1.80712500000000e+01 1.20736831523622e-04 3.06171151914943e-06
1.81370833333333e+01 1.17310988148822e-04 2.98025083249101e-06
1.82029166666667e+01 1.13982351263573e-04 2.90093839522114e-06
1.82687500000000e+01 1.10748162685024e-04 2.82371820988504e-06
1.83345833333333e+01 1.07605742475627e-04 2.74853570500246e-06
1.84004166666667e+01 1.04552486773658e-04 2.67533771069667e-06
1.84662500000000e+01 1.01585865583271e-04 2.60407243443701e-06
1.85320833333333e+01 9.87034206807783e-05 2.53468940496444e-06
1.85979166666667e+01 9.59027636241560e-05 2.46713944946528e-06
1.86637500000000e+01 9.31815737264412e-05 2.40137467086724e-06
1.87295833333333e+01 9.05375961352002e-05 2.33734839612315e-06
1.87954166666667e+01 8.79686400062558e-05 2.27501515484532e-06
1.88612500000000e+01 8.54725766452122e-05 2.21433065806874e-06
1.89270833333333e+01 8.30473377457825e-05 2.15525175055741e-06
1.89929166666667e+01 8.06909137142016e-05 2.09773639081837e-06
1.90587500000000e+01 7.84013519649189e-05 2.04174363124858e-06
1.91245833333333e+01 7.61767553046467e-05 1.98723357415435e-06
1.91904166666667e+01 7.40152803950330e-05 1.93416735306659e-06
1.92562500000000e+01 7.19151361897254e-05 1.88250711419137e-06
1.93220833333333e+01 6.98745824520875e-05 1.83221597585615e-06
1.93879166666667e+01 6.78919283447301e-05 1.78325801105120e-06
1.94537500000000e+01 6.59655309962125e-05 1.73559823010723e-06
1.95195833333333e+01 6.40937941413707e-05 1.68920254330386e-06
1.95854166666667e+01 6.22751668272448e-05 1.64403774456520e-06
1.96512500000000e+01 6.05081420986591e-05 1.60007149529145e-06
1.97170833333333e+01 5.87912557510200e-05 1.55727228988521e-06
1.97829166666667e+01 5.71230851430399e-05 1.51560944053252e-06
1.98487500000000e+01 5.55022479913301e-05 1.47505306211848e-06
1.99145833333333e+01 5.39274012263666e-05 1.43557404044577e-06
1.99804166666667e+01 5.23972399032005e-05 1.39714401803557e-06
2.00462500000000e+01 5.09104960960189e-05 1.35973538006085e-06
2.01120833333333e+01 4.94659378487434e-05 1.32332122504857e-06
2.01779166666667e+01 4.80623681756459e-05 1.28787535163809e-06
2.02437500000000e+01 4.66986240475819e-05 1.25337224546897e-06
2.03095833333333e+01 4.53735754293940e-05 1.21978705217448e-06
2.03754166666667e+01 4.40861243630172e-05 1.18709556503805e-06
2.04412500000000e+01 4.28352040377769e-05 1.15527421277590e-06
2.05070833333333e+01 4.16197779074195e-05 1.12430003464405e-06
2.05729166666667e+01 4.04388388488995e-05 1.09415066893656e-06
2.06387500000000e+01 3.92914083097703e-05 1.06480434160631e-06
2.07045833333333e+01 3.81765354982531e-05 1.03623984332137e-06
2.07704166666667e+01 3.70932966114635e-05 1.00843651875189e-06
