Energy (eV)          EEDF (eV^-(3/2))     First Anisotropy
1.79545454545455e-02 6.25592599234709e-02 2.88902713843529e-05
5.38636363636364e-02 6.22329102859051e-02 4.77421163575350e-05
8.97727272727273e-02 6.19082630994343e-02 6.31206229861996e-05
1.25681818181818e-01 6.15853094818773e-02 7.48621762555510e-05
1.61590909090909e-01 6.12640405997463e-02 8.47032273625425e-05
1.97500000000000e-01 6.09444476643306e-02 9.32987283155023e-05
2.33409090909091e-01 6.06265219342991e-02 1.00986845706018e-04
2.69318181818182e-01 6.03102547107050e-02 1.07971334699681e-04
3.05227272727273e-01 5.99956373417473e-02 1.14387032197052e-04
3.41136363636364e-01 5.96826612207451e-02 1.20329029851397e-04
3.77045454545455e-01 5.93713177859070e-02 1.25867565886693e-04
4.12954545454545e-01 5.90615985201001e-02 1.31056385143823e-04
4.48863636363636e-01 5.87534949506104e-02 1.35937775075757e-04
4.84772727272727e-01 5.84469986489308e-02 1.40545769596454e-04
5.20681818181818e-01 5.81421012305204e-02 1.44908278258534e-04
5.56590909090909e-01 5.78387943545752e-02 1.49048552739339e-04
5.92500000000000e-01 5.75370697238010e-02 1.52986227457081e-04
6.28409090909091e-01 5.72369190846780e-02 1.56738077232889e-04
6.64318181818182e-01 5.69383342257317e-02 1.60318580652441e-04
7.00227272727273e-01 5.66413069788439e-02 1.63740347152983e-04
7.36136363636364e-01 5.63458292185057e-02 1.67014446555249e-04
7.72045454545455e-01 5.60518928615953e-02 1.70150666655706e-04
8.07954545454545e-01 5.57594898671574e-02 1.73157717477019e-04
8.43863636363636e-01 5.54686122361808e-02 1.76043395105075e-04
8.79772727272727e-01 5.51792520113844e-02 1.78814714520178e-04
9.15681818181818e-01 5.48914012769971e-02 1.81478018338571e-04
9.51590909090909e-01 5.46050521585411e-02 1.84039066621586e-04
9.87500000000000e-01 5.43201968226171e-02 1.86503111841031e-04
1.02340909090909e+00 5.40368274755380e-02 1.88874960985163e-04
1.05931818181818e+00 5.37549363668988e-02 1.91159029017411e-04
1.09522727272727e+00 5.34745157852264e-02 1.93359384287305e-04
1.13113636363636e+00 5.31955580592784e-02 1.95479786351181e-04
1.16704545454545e+00 5.29180555578322e-02 1.97523719316918e-04
1.20295454545455e+00 5.26420006894768e-02 1.99494420446902e-04
1.23886363636364e+00 5.23673859023954e-02 2.01394904988143e-04
1.27477272727273e+00 5.20942036841777e-02 2.03227987831552e-04
1.31068181818182e+00 5.18224465616041e-02 2.04996302485592e-04
1.34659090909091e+00 5.15521071004413e-02 2.06702317755754e-04
1.38250000000000e+00 5.12831779052385e-02 2.08348352835212e-04
1.41840909090909e+00 5.10156516172296e-02 2.09936589235066e-04
1.45431818181818e+00 5.07495209198917e-02 2.11469083125043e-04
1.49022727272727e+00 5.04847785329081e-02 2.12947776412465e-04
1.52613636363636e+00 5.02214172139415e-02 2.14374504849666e-04
1.56204545454545e+00 4.99594297584364e-02 2.15751006702012e-04
1.59795454545455e+00 4.96988089994213e-02 2.17078930200682e-04
1.63386363636364e+00 4.94395478073084e-02 2.18359840258824e-04
1.66977272727273e+00 4.91816390897082e-02 2.19595224543628e-04
1.70568181818182e+00 4.89250757912301e-02 2.20786498979184e-04
1.74159090909091e+00 4.86698508932896e-02 2.21935012739942e-04
1.77750000000000e+00 4.84159574139159e-02 2.23042053101700e-04
1.81340909090909e+00 4.81633884061650e-02 2.24108848659844e-04
1.84931818181818e+00 4.79121369621636e-02 2.25136573738966e-04
1.88522727272727e+00 4.76621962086385e-02 2.26126352480406e-04
1.92113636363636e+00 4.74135593081725e-02 2.27079261077614e-04
1.95704545454545e+00 4.71662194590170e-02 2.27996331012501e-04
1.99295454545455e+00 4.69201698949062e-02 2.28878551742668e-04
2.02886363636364e+00 4.66754038848688e-02 2.29726873176162e-04
2.06477272727273e+00 4.64319147330503e-02 2.30542207957438e-04
2.10068181818182e+00 4.61896957785260e-02 2.31325433582120e-04
2.13659090909091e+00 4.59487403951196e-02 2.32077394352986e-04
2.17250000000000e+00 4.57090419912210e-02 2.32798903455966e-04
2.20840909090909e+00 4.54705940085262e-02 2.33490743853716e-04
2.24431818181818e+00 4.52333899251300e-02 2.34153670383406e-04
2.28022727272727e+00 4.49974232520431e-02 2.34788411746004e-04
2.31613636363636e+00 4.47626875341273e-02 2.35395671060061e-04
2.35204545454545e+00 4.45291763499187e-02 2.35976127399409e-04
2.38795454545455e+00 4.42968833114522e-02 2.36530436977707e-04
2.42386363636364e+00 4.40658020640845e-02 2.37059234254841e-04
2.45977272727273e+00 4.38359262863247e-02 2.37563132973645e-04
2.49568181818182e+00 4.36072496896590e-02 2.38042727132584e-04
2.53159090909091e+00 4.33797660183786e-02 2.38498591896746e-04
2.56750000000000e+00 4.31534690494087e-02 2.38931284681273e-04
2.60340909090909e+00 4.29283525912738e-02 2.39341345269126e-04
2.63931818181818e+00 4.27044104865441e-02 2.39729297029610e-04
2.67522727272727e+00 4.24816366090282e-02 2.40095648093370e-04
2.71113636363636e+00 4.22600248644927e-02 2.40440891325715e-04
2.74704545454545e+00 4.20395691904962e-02 2.40765505194894e-04
2.78295454545455e+00 4.18202635562229e-02 2.41069954370929e-04
2.81886363636364e+00 4.16021019623163e-02 2.41354690290301e-04
2.85477272727273e+00 4.13850784407180e-02 2.41620151690796e-04
2.89068181818182e+00 4.11691870545032e-02 2.41866765118339e-04
2.92659090909091e+00 4.09544218977176e-02 2.42094945405844e-04
2.96250000000000e+00 4.07407770952167e-02 2.42305096327610e-04
2.99840909090909e+00 4.05282468017964e-02 2.42497610426389e-04
3.03431818181818e+00 4.03168252041743e-02 2.42672869827651e-04
3.07022727272727e+00 4.01065065186724e-02 2.42831247034425e-04
3.10613636363636e+00 3.98972849917842e-02 2.42973104682563e-04
3.14204545454545e+00 3.96891549000173e-02 2.43098796097698e-04
3.17795454545455e+00 3.94821105497367e-02 2.43208665629632e-04
3.21386363636364e+00 3.92761462770084e-02 2.43303048969872e-04
3.24977272727273e+00 3.90712564474460e-02 2.43382273454749e-04
3.28568181818182e+00 3.88674354560560e-02 2.43446658354960e-04
3.32159090909091e+00 3.86646777270841e-02 2.43496515150928e-04
3.35750000000000e+00 3.84629777138629e-02 2.43532147973423e-04
3.39340909090909e+00 3.82623298980697e-02 2.43553853319249e-04
3.42931818181818e+00 3.80627287913598e-02 2.43561920650538e-04
3.46522727272727e+00 3.78641689334185e-02 2.43556632984867e-04
3.50113636363636e+00 3.76666448924159e-02 2.43538266570489e-04
3.53704545454545e+00 3.74701512648578e-02 2.43507091278870e-04
3.57295454545455e+00 3.72746826754386e-02 2.43463370806059e-04
3.60886363636364e+00 3.70802337768927e-02 2.43407362864848e-04
3.64477272727273e+00 3.68867992498504e-02 2.43339319369526e-04
3.68068181818182e+00 3.66943738026912e-02 2.43259486613329e-04
3.71659090909091e+00 3.65029521713991e-02 2.43168105437994e-04
3.75250000000000e+00 3.63125291194189e-02 2.43065411555431e-04
3.78840909090909e+00 3.61230994370136e-02 2.42951635225775e-04
3.82431818181818e+00 3.59346579426293e-02 2.42827001728478e-04
3.86022727272727e+00 3.57471994812356e-02 2.42691731828896e-04
3.89613636363636e+00 3.55607189246941e-02 2.42546041431057e-04
3.93204545454545e+00 3.53752111716181e-02 2.42390141874169e-04
3.96795454545455e+00 3.51906711472331e-02 2.42224240061267e-04
4.00386363636364e+00 3.50070938032374e-02 2.42048538582480e-04
4.03977272727273e+00 3.48244741176651e-02 2.41863235834125e-04
4.07568181818182e+00 3.46428070947482e-02 2.41668526133722e-04
4.11159090909091e+00 3.44620877647799e-02 2.41464599830348e-04
4.14750000000000e+00 3.42823111839786e-02 2.41251643553613e-04
4.18340909090909e+00 3.41034724339263e-02 2.41029839886781e-04
4.21931818181818e+00 3.39255666227218e-02 2.40799367753752e-04
4.25522727272727e+00 3.37485888835505e-02 2.40560402804042e-04
4.29113636363636e+00 3.35725343749862e-02 2.40313117068692e-04
4.32704545454545e+00 3.33973982808587e-02 2.40057679195601e-04
4.36295454545455e+00 3.32231758101222e-02 2.39794254535759e-04
4.39886363636364e+00 3.30498621967237e-02 2.39523005226089e-04
4.43477272727273e+00 3.28774526994733e-02 2.39244090269840e-04
4.47068181818182e+00 3.27059426019146e-02 2.38957665614617e-04
4.50659090909091e+00 3.25353272121949e-02 2.38663884227368e-04
4.54250000000000e+00 3.23656018629376e-02 2.38362896295597e-04
4.57840909090909e+00 3.21967619107464e-02 2.38054848910206e-04
4.61431818181818e+00 3.20288027371883e-02 2.37739886393248e-04
4.65022727272727e+00 3.18617197475506e-02 2.37418150624978e-04
4.68613636363636e+00 3.16955083710891e-02 2.37089780714076e-04
4.72204545454546e+00 3.15301640609040e-02 2.36754913191396e-04
4.75795454545455e+00 3.13656822938147e-02 2.36413682070054e-04
4.79386363636364e+00 3.12020585702366e-02 2.36066218903302e-04
4.82977272727273e+00 3.10392884140577e-02 2.35712652840893e-04
4.86568181818182e+00 3.08773673725168e-02 2.35353110683941e-04
4.90159090909091e+00 3.07162910160808e-02 2.34987716937800e-04
4.93750000000000e+00 3.05560549383243e-02 2.34616593979941e-04
4.97340909090909e+00 3.03966547554890e-02 2.34239861758905e-04
5.00931818181818e+00 3.02380861073283e-02 2.33857638077844e-04
5.04522727272727e+00 3.00803446560178e-02 2.33470038878094e-04
5.08113636363636e+00 2.99234260863620e-02 2.33077177928400e-04
5.11704545454545e+00 2.97673261056763e-02 2.32679166988726e-04
5.15295454545455e+00 2.96120404436695e-02 2.32276115853538e-04
5.18886363636364e+00 2.94575648523266e-02 2.31868132393497e-04
5.22477272727273e+00 2.93038951057936e-02 2.31455322596230e-04
5.26068181818182e+00 2.91510270002611e-02 2.31037790606183e-04
5.29659090909091e+00 2.89989563538496e-02 2.30615638763047e-04
5.33250000000000e+00 2.88476790064949e-02 2.30188967745035e-04
5.36840909090909e+00 2.86971908195552e-02 2.29757876286499e-04
5.40431818181818e+00 2.85474876765408e-02 2.29322461426957e-04
5.44022727272727e+00 2.83985654821531e-02 2.28882818760550e-04
5.47613636363636e+00 2.82504201624575e-02 2.28439042145881e-04
5.51204545454546e+00 2.81030476647716e-02 2.27991223847216e-04
5.54795454545455e+00 2.79564439575544e-02 2.27539454566467e-04
5.58386363636364e+00 2.78106050302959e-02 2.27083823474136e-04
5.61977272727273e+00 2.76655268934076e-02 2.26624418239588e-04
5.65568181818182e+00 2.75212055781136e-02 2.26161325060707e-04
5.69159090909091e+00 2.73776371363414e-02 2.25694628692549e-04
5.72750000000000e+00 2.72348176406144e-02 2.25224412571763e-04
5.76340909090909e+00 2.70927431836986e-02 2.24750758553457e-04
5.79931818181818e+00 2.69514098792369e-02 2.24273747132351e-04
5.83522727272727e+00 2.68108138608973e-02 2.23793457664520e-04
5.87113636363636e+00 2.66709512825171e-02 2.23309968097795e-04
5.90704545454545e+00 2.65318183179977e-02 2.22823355095347e-04
5.94295454545455e+00 2.63934111612001e-02 2.22333694059858e-04
5.97886363636364e+00 2.62557260258400e-02 2.21841059156921e-04
6.01477272727273e+00 2.61187591453853e-02 2.21345523338097e-04
6.05068181818182e+00 2.59825067729526e-02 2.20847158363516e-04
6.08659090909091e+00 2.58469651812047e-02 2.20346034823714e-04
6.12250000000000e+00 2.57121306622484e-02 2.19842222249011e-04
6.15840909090909e+00 2.55779995273164e-02 2.19335788865233e-04
6.19431818181818e+00 2.54445681073211e-02 2.18826801791724e-04
6.23022727272727e+00 2.53118327520954e-02 2.18315327240068e-04
6.26613636363636e+00 2.51797898305141e-02 2.17801430264292e-04
6.30204545454546e+00 2.50484357303941e-02 2.17285174870127e-04
6.33795454545455e+00 2.49177668583960e-02 2.16766624033727e-04
6.37386363636364e+00 2.47877796399251e-02 2.16245839719770e-04
6.40977272727273e+00 2.46584705190347e-02 2.15722882899222e-04
6.44568181818182e+00 2.45298359583280e-02 2.15197813566946e-04
6.48159090909091e+00 2.44018724388615e-02 2.14670690758643e-04
6.51750000000000e+00 2.42745764600490e-02 2.14141572648046e-04
6.55340909090909e+00 2.41479445393730e-02 2.13610516320554e-04
6.58931818181818e+00 2.40219732128703e-02 2.13077577951589e-04
6.62522727272727e+00 2.38966590344532e-02 2.12542812985825e-04
6.66113636363636e+00 2.37719985760110e-02 2.12006275906059e-04
6.69704545454545e+00 2.36479884273165e-02 2.11468020330701e-04
6.73295454545455e+00 2.35246251959322e-02 2.10928099028458e-04
6.76886363636364e+00 2.34019055071178e-02 2.10386563932530e-04
6.80477272727273e+00 2.32798260037378e-02 2.09843466154650e-04
6.84068181818182e+00 2.31583833461699e-02 2.09298855998928e-04
6.87659090909091e+00 2.30375742122132e-02 2.08752782975253e-04
6.91250000000000e+00 2.29173952969979e-02 2.08205295886307e-04
6.94840909090909e+00 2.27978433127229e-02 2.07656442617970e-04
6.98431818181818e+00 2.26789149890830e-02 2.07106270300844e-04
7.02022727272727e+00 2.25606070726601e-02 2.06554825472711e-04
7.05613636363636e+00 2.24429163270076e-02 2.06002153864761e-04
7.09204545454546e+00 2.23258395325626e-02 2.05448300489092e-04
7.12795454545455e+00 2.22093734865575e-02 2.04893309650470e-04
7.16386363636364e+00 2.20935150029322e-02 2.04337224957653e-04
7.19977272727273e+00 2.19782609122473e-02 2.03780089334590e-04
7.23568181818182e+00 2.18636080615974e-02 2.03221945031503e-04
7.27159090909091e+00 2.17495533145245e-02 2.02662833635619e-04
7.30750000000000e+00 2.16360935509325e-02 2.02102796149529e-04
7.34340909090909e+00 2.15232256668488e-02 2.01541872797247e-04
7.37931818181818e+00 2.14109465748007e-02 2.00980103171091e-04
7.41522727272727e+00 2.12992532032670e-02 2.00417526379385e-04
7.45113636363636e+00 2.11881424967499e-02 1.99854180848820e-04
7.48704545454545e+00 2.10776114156906e-02 1.99290104403537e-04
7.52295454545455e+00 2.09676569363870e-02 1.98725334274573e-04
7.55886363636364e+00 2.08582760509104e-02 1.98159907108976e-04
7.59477272727273e+00 2.07494657670233e-02 1.97593858978915e-04
7.63068181818182e+00 2.06412231080979e-02 1.97027225390652e-04
7.66659090909091e+00 2.05335451130343e-02 1.96460041293208e-04
7.70250000000000e+00 2.04264288361796e-02 1.95892341149295e-04
7.73840909090909e+00 2.03198713471105e-02 1.95324158755860e-04
7.77431818181818e+00 2.02138697309659e-02 1.94755527378058e-04
7.81022727272727e+00 2.01084210879522e-02 1.94186479884042e-04
7.84613636363636e+00 2.00035225334031e-02 1.93617048562211e-04
7.88204545454546e+00 1.98991711977003e-02 1.93047265192871e-04
7.91795454545455e+00 1.97953642261956e-02 1.92477161055973e-04
7.95386363636364e+00 1.96920987791323e-02 1.91906766938609e-04
7.98977272727273e+00 1.95893720315677e-02 1.91336113142380e-04
8.02568181818182e+00 1.94871811732959e-02 1.90765229490766e-04
8.06159090909091e+00 1.93855234087710e-02 1.90194145336280e-04
8.09750000000000e+00 1.92843959570302e-02 1.89622889624847e-04
8.13340909090909e+00 1.91837960514952e-02 1.89051490729746e-04
8.16931818181818e+00 1.90837209402672e-02 1.88479976574154e-04
8.20522727272727e+00 1.89841678856789e-02 1.87908374754452e-04
8.24113636363636e+00 1.88851341643442e-02 1.87336712371152e-04
8.27704545454545e+00 1.87866170670844e-02 1.86765016094166e-04
8.31295454545455e+00 1.86886138988531e-02 1.86193312169164e-04
8.34886363636364e+00 1.85911219786632e-02 1.85621626423694e-04
8.38477272727273e+00 1.84941386395136e-02 1.85049984273387e-04
8.42068181818182e+00 1.83976612283156e-02 1.84478410727952e-04
8.45659090909091e+00 1.83016871058212e-02 1.83906930397099e-04
8.49250000000000e+00 1.82062136465502e-02 1.83335567549306e-04
8.52840909090909e+00 1.81112382386076e-02 1.82764345958000e-04
8.56431818181818e+00 1.80167582839468e-02 1.82193289013919e-04
8.60022727272727e+00 1.79227711979622e-02 1.81622419838170e-04
8.63613636363636e+00 1.78292744095312e-02 1.81051761125765e-04
8.67204545454545e+00 1.77362653609440e-02 1.80481335205215e-04
8.70795454545455e+00 1.76437415078332e-02 1.79911164043813e-04
8.74386363636364e+00 1.75517003191046e-02 1.79341269252731e-04
8.77977272727273e+00 1.74601392768678e-02 1.78771672092111e-04
8.81568181818182e+00 1.73690558763675e-02 1.78202393476165e-04
8.85159090909091e+00 1.72784476259147e-02 1.77633453978071e-04
8.88750000000000e+00 1.71883120468185e-02 1.77064873883653e-04
8.92340909090909e+00 1.70986466732189e-02 1.76496673048987e-04
8.95931818181818e+00 1.70094490523200e-02 1.75928871003546e-04
8.99522727272727e+00 1.69207167440205e-02 1.75361487054076e-04
9.03113636363636e+00 1.68324473209482e-02 1.74794540139774e-04
9.06704545454546e+00 1.67446383683936e-02 1.74228048886791e-04
9.10295454545455e+00 1.66572874842440e-02 1.73662031612608e-04
9.13886363636364e+00 1.65703922789175e-02 1.73096506330366e-04
9.17477272727273e+00 1.64839503752980e-02 1.72531490753138e-04
9.21068181818182e+00 1.63979594086698e-02 1.71967002298191e-04
9.24659090909091e+00 1.63124170266533e-02 1.71403058091095e-04
9.28250000000000e+00 1.62273208891403e-02 1.70839675014884e-04
9.31840909090909e+00 1.61426686681396e-02 1.70276869578162e-04
9.35431818181818e+00 1.60584580479864e-02 1.69714658009972e-04
9.39022727272727e+00 1.59746867250042e-02 1.69153056355368e-04
9.42613636363637e+00 1.58913524075343e-02 1.68592080341290e-04
9.46204545454546e+00 1.58084528158725e-02 1.68031745426511e-04
9.49795454545455e+00 1.57259856822071e-02 1.67472066805360e-04
9.53386363636364e+00 1.56439487505569e-02 1.66913059411360e-04
9.56977272727273e+00 1.55623397767092e-02 1.66354737920832e-04
9.60568181818182e+00 1.54811565281587e-02 1.65797116756461e-04
9.64159090909091e+00 1.54003967840463e-02 1.65240210090790e-04
9.67750000000000e+00 1.53200583350981e-02 1.64684031891414e-04
9.71340909090909e+00 1.52401389834837e-02 1.64128595798646e-04
9.74931818181818e+00 1.51606365430023e-02 1.63573915212918e-04
9.78522727272727e+00 1.50815488387751e-02 1.63020003382900e-04
9.82113636363636e+00 1.50028737072689e-02 1.62466873281105e-04
9.85704545454545e+00 1.49246089962370e-02 1.61914537649808e-04
9.89295454545455e+00 1.48467525646601e-02 1.61363009004303e-04
9.92886363636364e+00 1.47693022826878e-02 1.60812299635864e-04
9.96477272727273e+00 1.46922560315805e-02 1.60262421614816e-04
1.00006818181818e+01 1.46156117036513e-02 1.59713386950697e-04
1.00365909090909e+01 1.45393672019051e-02 1.59165207161086e-04
1.00725000000000e+01 1.44635204408201e-02 1.58617893125711e-04
1.01084090909091e+01 1.43880693462675e-02 1.58071456572489e-04
1.01443181818182e+01 1.43130118534463e-02 1.57525908902095e-04
1.01802272727273e+01 1.42383459090758e-02 1.56981260526203e-04
1.02161363636364e+01 1.41640694705870e-02 1.56437522050877e-04
1.02520454545455e+01 1.40901805060657e-02 1.55894703884222e-04
1.02879545454545e+01 1.40166769941980e-02 1.55352816239237e-04
1.03238636363636e+01 1.39435569242136e-02 1.54811869136093e-04
1.03597727272727e+01 1.38708182958326e-02 1.54271872404759e-04
1.03956818181818e+01 1.37984591192093e-02 1.53732835687922e-04
1.04315909090909e+01 1.37264774148786e-02 1.53194768443349e-04
1.04675000000000e+01 1.36548712137015e-02 1.52657679588544e-04
1.05034090909091e+01 1.35836385574864e-02 1.52121578580938e-04
1.05393181818182e+01 1.35127774969012e-02 1.51586474700000e-04
1.05752272727273e+01 1.34422860934632e-02 1.51052376322573e-04
1.06111363636364e+01 1.33721624188024e-02 1.50519292018627e-04
1.06470454545455e+01 1.33024045546081e-02 1.49987230187701e-04
1.06829545454545e+01 1.32330105925770e-02 1.49456199061351e-04
1.07188636363636e+01 1.31639786343603e-02 1.48926206705109e-04
1.07547727272727e+01 1.30953067915125e-02 1.48397261020716e-04
1.07906818181818e+01 1.30269931854395e-02 1.47869369748633e-04
1.08265909090909e+01 1.29590359473470e-02 1.47342540470074e-04
1.08625000000000e+01 1.28914332181898e-02 1.46816780277495e-04
1.08984090909091e+01 1.28241831492348e-02 1.46292096775514e-04
1.09343181818182e+01 1.27572839001595e-02 1.45768497415437e-04
1.09702272727273e+01 1.26907336408610e-02 1.45245988823514e-04
1.10061363636364e+01 1.26245305507835e-02 1.44724577816260e-04
1.10420454545455e+01 1.25586728188682e-02 1.44204271063352e-04
1.10779545454545e+01 1.24931586435042e-02 1.43685075089769e-04
1.11138636363636e+01 1.24279862324785e-02 1.43166996277463e-04
1.11497727272727e+01 1.23631538029277e-02 1.42650040867246e-04
1.11856818181818e+01 1.22986595812890e-02 1.42134214960988e-04
1.12215909090909e+01 1.22345018032518e-02 1.41619524523369e-04
1.12575000000000e+01 1.21706787137089e-02 1.41105975076114e-04
1.12934090909091e+01 1.21071885672688e-02 1.40593572626128e-04
1.13293181818182e+01 1.20440296265214e-02 1.40082323048220e-04
