Energy (eV)          EEDF (eV^-(3/2))     First Anisotropy
8.87931034482759e-04 6.86572663515274e+00 3.23216269336015e-03
2.66379310344828e-03 6.82512933606468e+00 5.33938967601057e-03
4.43965517241379e-03 6.78477209033088e+00 7.05435150612324e-03
6.21551724137931e-03 6.74465347851178e+00 8.36072880285619e-03
7.99137931034483e-03 6.70477208955150e+00 9.45317104271326e-03
9.76724137931034e-03 6.66512652078306e+00 1.04051693235259e-02
1.15431034482759e-02 6.62571537777374e+00 1.12547047142565e-02
1.33189655172414e-02 6.58653727423405e+00 1.20246830360395e-02
1.50948275862069e-02 6.54759083221209e+00 1.27302762711351e-02
1.68706896551724e-02 6.50887468213763e+00 1.33821939797591e-02
1.86465517241379e-02 6.47038746204610e+00 1.39883538236195e-02
2.04224137931034e-02 6.43212781827303e+00 1.45548196817558e-02
2.21982758620690e-02 6.39409440532979e+00 1.50863670949098e-02
2.39741379310345e-02 6.35628588533580e+00 1.55868430118209e-02
2.57500000000000e-02 6.31870092849358e+00 1.60594049376560e-02
2.75258620689655e-02 6.28133821300273e+00 1.65066858214044e-02
2.93017241379310e-02 6.24419642461158e+00 1.69309110079151e-02
3.10775862068966e-02 6.20727425697187e+00 1.73339833840159e-02
3.28534482758621e-02 6.17057041156768e+00 1.77175468435567e-02
3.46293103448276e-02 6.13408359734595e+00 1.80830343297542e-02
3.64051724137931e-02 6.09781253099511e+00 1.84317048775577e-02
3.81810344827586e-02 6.06175593688079e+00 1.87646726959923e-02
3.99568965517241e-02 6.02591254673242e+00 1.90829301465229e-02
4.17327586206897e-02 5.99028109986880e+00 1.93873661865145e-02
4.35086206896552e-02 5.95486034306291e+00 1.96787813662423e-02
4.52844827586207e-02 5.91964903057222e+00 1.99579001105806e-02
4.70603448275862e-02 5.88464592387083e+00 2.02253808326975e-02
4.88362068965517e-02 5.84984979183104e+00 2.04818243458192e-02
5.06120689655172e-02 5.81525941066977e+00 2.07277809996326e-02
5.23879310344828e-02 5.78087356371023e+00 2.09637566372763e-02
5.41637931034483e-02 5.74669104153459e+00 2.11902176574700e-02
5.59396551724138e-02 5.71271064193380e+00 2.14075954167096e-02
5.77155172413793e-02 5.67893116969290e+00 2.16162899473426e-02
5.94913793103448e-02 5.64535143672150e+00 2.18166731690468e-02
6.12672413793103e-02 5.61197026200533e+00 2.20090917460009e-02
6.30431034482759e-02 5.57878647141149e+00 2.21938695158274e-02
6.48189655172414e-02 5.54579889780093e+00 2.23713096228218e-02
6.65948275862069e-02 5.51300638093600e+00 2.25416964236898e-02
6.83706896551724e-02 5.48040776748429e+00 2.27052971698558e-02
7.01465517241379e-02 5.44800191084290e+00 2.28623634722003e-02
7.19224137931034e-02 5.41578767123408e+00 2.30131325950309e-02
7.36982758620690e-02 5.38376391566033e+00 2.31578286698846e-02
7.54741379310345e-02 5.35192951774192e+00 2.32966637243516e-02
7.72500000000000e-02 5.32028335780026e+00 2.34298386035965e-02
7.90258620689655e-02 5.28882432281471e+00 2.35575438558580e-02
8.08017241379310e-02 5.25755130627147e+00 2.36799604770825e-02
8.25775862068965e-02 5.22646320823682e+00 2.37972605828251e-02
8.43534482758621e-02 5.19555893531507e+00 2.39096080707699e-02
8.61293103448276e-02 5.16483740050758e+00 2.40171591711575e-02
8.79051724137931e-02 5.13429752327735e+00 2.41200629466919e-02
8.96810344827586e-02 5.10393822950793e+00 2.42184617994173e-02
9.14568965517241e-02 5.07375845137134e+00 2.43124918850375e-02
9.32327586206897e-02 5.04375712738527e+00 2.44022834967208e-02
9.50086206896552e-02 5.01393320234395e+00 2.44879614393897e-02
9.67844827586207e-02 4.98428562730960e+00 2.45696453731856e-02
9.85603448275862e-02 4.95481335948953e+00 2.46474501096080e-02
1.00336206896552e-01 4.92551536228586e+00 2.47214858835556e-02
1.02112068965517e-01 4.89639060523029e+00 2.47918586257617e-02
1.03887931034483e-01 4.86743806397364e+00 2.48586702093643e-02
1.05663793103448e-01 4.83865672019617e+00 2.49220186733932e-02
1.07439655172414e-01 4.81004556159999e+00 2.49819984201111e-02
1.09215517241379e-01 4.78160358187304e+00 2.50387004133108e-02
1.10991379310345e-01 4.75332978065362e+00 2.50922123576162e-02
1.12767241379310e-01 4.72522316349527e+00 2.51426188655482e-02
1.14543103448276e-01 4.69728274183174e+00 2.51900016132887e-02
1.16318965517241e-01 4.66950753294225e+00 2.52344395302162e-02
1.18094827586207e-01 4.64189655970254e+00 2.52760088015034e-02
1.19870689655172e-01 4.61444885119966e+00 2.53147830850067e-02
1.21646551724138e-01 4.58716344204243e+00 2.53508337200786e-02
1.23422413793103e-01 4.56003937254809e+00 2.53842297034212e-02
1.25198275862069e-01 4.53307568870857e+00 2.54150378395473e-02
1.26974137931034e-01 4.50627144215687e+00 2.54433228392802e-02
1.28750000000000e-01 4.47962569013379e+00 2.54691474124095e-02
1.30525862068966e-01 4.45313749545458e+00 2.54925723548604e-02
1.32301724137931e-01 4.42680592647611e+00 2.55136566307930e-02
1.34077586206897e-01 4.40063005706427e+00 2.55324574501375e-02
1.35853448275862e-01 4.37460896656125e+00 2.55490303417453e-02
1.37629310344828e-01 4.34874173975311e+00 2.55634292224324e-02
1.39405172413793e-01 4.32302746683764e+00 2.55757064622791e-02
1.41181034482759e-01 4.29746524339234e+00 2.55859129833123e-02
1.42956896551724e-01 4.27205417017971e+00 2.55940982065551e-02
1.44732758620690e-01 4.24679335360846e+00 2.56003101823577e-02
1.46508620689655e-01 4.22168190520499e+00 2.56045957180574e-02
1.48284482758621e-01 4.19671894174929e+00 2.56070003143144e-02
1.50060344827586e-01 4.17190358524389e+00 2.56075682506029e-02
1.51836206896552e-01 4.14723496288297e+00 2.56063426302240e-02
1.53612068965517e-01 4.12271220702165e+00 2.56033654231125e-02
1.55387931034483e-01 4.09833445514549e+00 2.55986775066076e-02
1.57163793103448e-01 4.07410084983996e+00 2.55923187041487e-02
1.58939655172414e-01 4.05001053876066e+00 2.55843278222295e-02
1.60715517241379e-01 4.02606267460314e+00 2.55747426856986e-02
1.62491379310345e-01 4.00225641507310e+00 2.55636001713095e-02
1.64267241379310e-01 3.97859092285679e+00 2.55509362397887e-02
1.66043103448276e-01 3.95506536559151e+00 2.55367859664539e-02
1.67818965517241e-01 3.93167891583637e+00 2.55211836014251e-02
1.69594827586207e-01 3.90843075091774e+00 2.55041625041255e-02
1.71370689655172e-01 3.88532005327957e+00 2.54857552327686e-02
1.73146551724138e-01 3.86234601007237e+00 2.54659936330092e-02
1.74922413793103e-01 3.83950781325306e+00 2.54449087672315e-02
1.76698275862069e-01 3.81680465955659e+00 2.54225309699759e-02
1.78474137931035e-01 3.79423575046763e+00 2.53988898704464e-02
1.80250000000000e-01 3.77180029219253e+00 2.53740144141041e-02
1.82025862068966e-01 3.74949749563131e+00 2.53479328833525e-02
1.83801724137931e-01 3.72732657634998e+00 2.53206729173732e-02
1.85577586206897e-01 3.70528675455300e+00 2.52922615312353e-02
1.87353448275862e-01 3.68337725505582e+00 2.52627251342387e-02
1.89129310344828e-01 3.66159730725757e+00 2.52320895475023e-02
1.90905172413793e-01 3.63994614511399e+00 2.52003800208997e-02
1.92681034482759e-01 3.61842300711046e+00 2.51676212759573e-02
1.94456896551724e-01 3.59702713613458e+00 2.51338374411956e-02
1.96232758620690e-01 3.57575777975372e+00 2.50990521210898e-02
1.98008620689655e-01 3.55461418988211e+00 2.50632884648101e-02
1.99784482758621e-01 3.53359562285745e+00 2.50265690983901e-02
2.01560344827586e-01 3.51270133941476e+00 2.49889161656558e-02
2.03336206896552e-01 3.49193060466035e+00 2.49503513412215e-02
2.05112068965517e-01 3.47128268804600e+00 2.49108958430267e-02
2.06887931034483e-01 3.45075686334325e+00 2.48705704444551e-02
2.08663793103448e-01 3.43035240861779e+00 2.48293954859596e-02
2.10439655172414e-01 3.41006860620421e+00 2.47873908863290e-02
2.12215517241379e-01 3.38990474268071e+00 2.47445761536172e-02
2.13991379310345e-01 3.36986010884395e+00 2.47009703956302e-02
2.15767241379310e-01 3.34993399968418e+00 2.46565923300859e-02
2.17543103448276e-01 3.33012571436038e+00 2.46114602944342e-02
2.19318965517241e-01 3.31043455617563e+00 2.45655922781672e-02
2.21094827586207e-01 3.29085983247169e+00 2.45190058631572e-02
2.22870689655172e-01 3.27140085484908e+00 2.44717182786876e-02
2.24646551724138e-01 3.25205693889673e+00 2.44237464565558e-02
2.26422413793103e-01 3.23282740425050e+00 2.43751069692670e-02
2.28198275862069e-01 3.21371157456929e+00 2.43258160616168e-02
2.29974137931034e-01 3.19470877751123e+00 2.42758896584992e-02
2.31750000000000e-01 3.17581834471003e+00 2.42253433724828e-02
2.33525862068966e-01 3.15703961175145e+00 2.41741925111337e-02
2.35301724137931e-01 3.13837191814997e+00 2.41224520841163e-02
2.37077586206897e-01 3.11981460732558e+00 2.40701368101025e-02
2.38853448275862e-01 3.10136702658065e+00 2.40172611234668e-02
2.40629310344828e-01 3.08302852707698e+00 2.39638391807731e-02
2.42405172413793e-01 3.06479846381297e+00 2.39098848670674e-02
2.44181034482759e-01 3.04667619560097e+00 2.38554118219010e-02
2.45956896551724e-01 3.02866108497770e+00 2.38004333851957e-02
2.47732758620690e-01 3.01075249838410e+00 2.37449626432534e-02
2.49508620689655e-01 2.99294980593945e+00 2.36890124749453e-02
2.51284482758621e-01 2.97525238148756e+00 2.36325954959647e-02
2.53060344827586e-01 2.95765960257473e+00 2.35757240846265e-02
2.54836206896552e-01 2.94017085042783e+00 2.35184103870043e-02
2.56612068965517e-01 2.92278550993259e+00 2.34606663219258e-02
2.58387931034483e-01 2.90550296961191e+00 2.34025035858488e-02
2.60163793103448e-01 2.88832262160436e+00 2.33439336575574e-02
2.61939655172414e-01 2.87124386164286e+00 2.32849678027606e-02
2.63715517241379e-01 2.85426608903338e+00 2.32256170785962e-02
2.65491379310345e-01 2.83738870663381e+00 2.31658923379670e-02
2.67267241379310e-01 2.82061112083299e+00 2.31058042337845e-02
2.69043103448276e-01 2.80393274152979e+00 2.30453632230935e-02
2.70818965517241e-01 2.78735298211237e+00 2.29845795883866e-02
2.72594827586207e-01 2.77087125938234e+00 2.29234633893511e-02
2.74370689655172e-01 2.75448699370094e+00 2.28620245016192e-02
2.76146551724138e-01 2.73819960880090e+00 2.28002726557512e-02
2.77922413793103e-01 2.72200853182242e+00 2.27382173877164e-02
2.79698275862069e-01 2.70591319329306e+00 2.26758680602366e-02
2.81474137931034e-01 2.68991302710769e+00 2.26132338662278e-02
2.83250000000000e-01 2.67400747050858e+00 2.25503238321618e-02
2.85025862068966e-01 2.65819596406559e+00 2.24871468213312e-02
2.86801724137931e-01 2.64247795165653e+00 2.24237115370360e-02
2.88577586206897e-01 2.62685288044758e+00 2.23600265257084e-02
2.90353448275862e-01 2.61132020087386e+00 2.22961001799546e-02
2.92129310344828e-01 2.59587936662009e+00 2.22319407415176e-02
2.93905172413793e-01 2.58052983460137e+00 2.21675563041747e-02
2.95681034482759e-01 2.56527106494409e+00 2.21029548318000e-02
2.97456896551724e-01 2.55010252092034e+00 2.20381441151604e-02
2.99232758620690e-01 2.53502366906966e+00 2.19731318053799e-02
3.01008620689655e-01 2.52003397903878e+00 2.19079254476564e-02
3.02784482758621e-01 2.50513292361045e+00 2.18425324370123e-02
3.04560344827586e-01 2.49031997868486e+00 2.17769600364930e-02
3.06336206896552e-01 2.47559462326123e+00 2.17112153796262e-02
3.08112068965517e-01 2.46095633941949e+00 2.16453054728171e-02
3.09887931034483e-01 2.44640461230202e+00 2.15792371976994e-02
3.11663793103448e-01 2.43193893009557e+00 2.15130173134097e-02
3.13439655172414e-01 2.41755878401331e+00 2.14466524588283e-02
3.15215517241379e-01 2.40326366827684e+00 2.13801491547878e-02
3.16991379310345e-01 2.38905308009848e+00 2.13135138062025e-02
3.18767241379310e-01 2.37492651966356e+00 2.12467527041642e-02
3.20543103448276e-01 2.36088349011280e+00 2.11798720279907e-02
3.22318965517241e-01 2.34692349752490e+00 2.11128778605825e-02
3.24094827586207e-01 2.33304605086002e+00 2.10457761501153e-02
3.25870689655172e-01 2.31925066206054e+00 2.09785727389090e-02
3.27646551724138e-01 2.30553684591515e+00 2.09112733925422e-02
3.29422413793103e-01 2.29190412008163e+00 2.08438837606745e-02
3.31198275862069e-01 2.27835200506986e+00 2.07764093925874e-02
3.32974137931034e-01 2.26488002422498e+00 2.07088557389464e-02
3.34750000000000e-01 2.25148770371059e+00 2.06412281535291e-02
3.36525862068966e-01 2.23817457249209e+00 2.05735318949083e-02
3.38301724137931e-01 2.22494016232016e+00 2.05057721281012e-02
3.40077586206897e-01 2.21178400771423e+00 2.04379539261901e-02
3.41853448275862e-01 2.19870564594616e+00 2.03700822719177e-02
3.43629310344828e-01 2.18570461702392e+00 2.03021620592361e-02
3.45405172413793e-01 2.17278046367545e+00 2.02341980948267e-02
3.47181034482759e-01 2.15993273133255e+00 2.01661951114373e-02
3.48956896551724e-01 2.14716096808147e+00 2.00981577336274e-02
3.50732758620690e-01 2.13446472474789e+00 2.00300905030983e-02
3.52508620689655e-01 2.12184355477964e+00 1.99619979042613e-02
3.54284482758621e-01 2.10929701426506e+00 1.98938843292355e-02
3.56060344827586e-01 2.09682466191732e+00 1.98257540913834e-02
3.57836206896552e-01 2.08442605905898e+00 1.97576114266334e-02
3.59612068965517e-01 2.07210076960649e+00 1.96894604947769e-02
3.61387931034483e-01 2.05984836005487e+00 1.96213053807499e-02
3.63163793103448e-01 2.04766839946249e+00 1.95531500958620e-02
3.64939655172414e-01 2.03556045943588e+00 1.94849985790212e-02
3.66715517241379e-01 2.02352411411469e+00 1.94168546979488e-02
3.68491379310345e-01 2.01155894015670e+00 1.93487222503460e-02
3.70267241379310e-01 1.99966451672294e+00 1.92806049650484e-02
3.72043103448276e-01 1.98784042546285e+00 1.92125065031629e-02
3.73818965517241e-01 1.97608625049961e+00 1.91444304696159e-02
3.75594827586207e-01 1.96440157838711e+00 1.90763803827619e-02
3.77370689655172e-01 1.95278599818105e+00 1.90083596965167e-02
3.79146551724138e-01 1.94123910133835e+00 1.89403718227078e-02
3.80922413793103e-01 1.92976048173167e+00 1.88724201000403e-02
3.82698275862069e-01 1.91834973563512e+00 1.88045078058541e-02
3.84474137931035e-01 1.90700646171003e+00 1.87366381571140e-02
3.86250000000000e-01 1.89573026099089e+00 1.86688143113873e-02
3.88025862068966e-01 1.88452073687128e+00 1.86010393678007e-02
3.89801724137931e-01 1.87337749508991e+00 1.85333163679745e-02
3.91577586206897e-01 1.86230014371680e+00 1.84656482969507e-02
3.93353448275862e-01 1.85128829313946e+00 1.83980380841027e-02
3.95129310344828e-01 1.84034155604918e+00 1.83304886040209e-02
3.96905172413793e-01 1.82945954742745e+00 1.82630026773888e-02
3.98681034482759e-01 1.81864188453236e+00 1.81955830811504e-02
4.00456896551724e-01 1.80788818686067e+00 1.81282325212900e-02
4.02232758620690e-01 1.79719807620836e+00 1.80609536524297e-02
4.04008620689655e-01 1.78657117658298e+00 1.79937490976396e-02
4.05784482758621e-01 1.77600711421530e+00 1.79266214206523e-02
4.07560344827586e-01 1.76550551754623e+00 1.78595731362237e-02
4.09336206896552e-01 1.75506601721373e+00 1.77926067109077e-02
4.11112068965517e-01 1.74468824603979e+00 1.77257245638132e-02
4.12887931034483e-01 1.73437183901755e+00 1.76589290673558e-02
4.14663793103448e-01 1.72411643329843e+00 1.75922225479823e-02
4.16439655172414e-01 1.71392166817941e+00 1.75256072868892e-02
4.18215517241379e-01 1.70378718509032e+00 1.74590855207419e-02
4.19991379310345e-01 1.69371262758123e+00 1.73926594423666e-02
4.21767241379310e-01 1.68369764130990e+00 1.73263312014352e-02
4.23543103448276e-01 1.67374187402934e+00 1.72601029051351e-02
4.25318965517241e-01 1.66384497557540e+00 1.71939766270764e-02
4.27094827586207e-01 1.65400659783347e+00 1.71279543830900e-02
4.28870689655172e-01 1.64422639478959e+00 1.70620381484878e-02
4.30646551724138e-01 1.63450402245455e+00 1.69962298755150e-02
4.32422413793103e-01 1.62483913887319e+00 1.69305314686510e-02
4.34198275862069e-01 1.61523140411230e+00 1.68649447936998e-02
4.35974137931035e-01 1.60568048024875e+00 1.67994716783904e-02
4.37750000000000e-01 1.59618603135755e+00 1.67341139129632e-02
4.39525862068966e-01 1.58674772350002e+00 1.66688732507486e-02
4.41301724137931e-01 1.57736522471211e+00 1.66037514087342e-02
4.43077586206897e-01 1.56803820499267e+00 1.65387500681260e-02
4.44853448275862e-01 1.55876633629185e+00 1.64738708749010e-02
4.46629310344828e-01 1.54954929249959e+00 1.64091154403484e-02
4.48405172413793e-01 1.54038674943413e+00 1.63444853416032e-02
4.50181034482759e-01 1.53127838483059e+00 1.62799821295461e-02
4.51956896551724e-01 1.52222387831140e+00 1.62156073070836e-02
4.53732758620690e-01 1.51322291143013e+00 1.61513623445230e-02
4.55508620689655e-01 1.50427516760487e+00 1.60872486951278e-02
4.57284482758621e-01 1.49538033212566e+00 1.60232677729599e-02
4.59060344827586e-01 1.48653809214345e+00 1.59594209609501e-02
4.60836206896552e-01 1.47774813665906e+00 1.58957096113759e-02
4.62612068965517e-01 1.46901015651228e+00 1.58321350463255e-02
4.64387931034483e-01 1.46032384437096e+00 1.57686985581678e-02
4.66163793103448e-01 1.45168889472022e+00 1.57054014099989e-02
4.67939655172414e-01 1.44310500385171e+00 1.56422448360867e-02
4.69715517241379e-01 1.43457186985290e+00 1.55792300423209e-02
4.71491379310345e-01 1.42608919259651e+00 1.55163582066398e-02
4.73267241379310e-01 1.41765667372989e+00 1.54536304794562e-02
4.75043103448276e-01 1.40927401666460e+00 1.53910479840801e-02
4.76818965517241e-01 1.40094092656590e+00 1.53286118236858e-02
4.78594827586207e-01 1.39265711032666e+00 1.52663230619570e-02
4.80370689655172e-01 1.38442227660462e+00 1.52041827367003e-02
4.82146551724138e-01 1.37623613576430e+00 1.51421918736204e-02
4.83922413793103e-01 1.36809839988285e+00 1.50803514665794e-02
4.85698275862069e-01 1.36000878273991e+00 1.50186624847202e-02
4.87474137931035e-01 1.35196699980754e+00 1.49571258728437e-02
4.89250000000000e-01 1.34397276824026e+00 1.48957425517817e-02
4.91025862068966e-01 1.33602580686504e+00 1.48345134187600e-02
4.92801724137931e-01 1.32812583617142e+00 1.47734393477568e-02
4.94577586206897e-01 1.32027257830174e+00 1.47125211898589e-02
4.96353448275862e-01 1.31246575704129e+00 1.46517597736098e-02
4.98129310344828e-01 1.30470509780864e+00 1.45911559053555e-02
4.99905172413793e-01 1.29699032764598e+00 1.45307103695814e-02
5.01681034482759e-01 1.28932117520949e+00 1.44704239351273e-02
5.03456896551724e-01 1.28169737074602e+00 1.44102973377847e-02
5.05232758620690e-01 1.27411864612523e+00 1.43503312924730e-02
5.07008620689655e-01 1.26658473478831e+00 1.42905265055681e-02
5.08784482758621e-01 1.25909537175261e+00 1.42308836571536e-02
5.10560344827586e-01 1.25165029360233e+00 1.41714034073786e-02
5.12336206896552e-01 1.24424923847927e+00 1.41120863967641e-02
5.14112068965517e-01 1.23689194607361e+00 1.40529332465001e-02
5.15887931034483e-01 1.22957815761473e+00 1.39939445587462e-02
5.17663793103448e-01 1.22230761586214e+00 1.39351209169190e-02
5.19439655172414e-01 1.21508006509644e+00 1.38764628859770e-02
5.21215517241379e-01 1.20789525111029e+00 1.38179710127094e-02
5.22991379310345e-01 1.20075292119949e+00 1.37596458260107e-02
5.24767241379310e-01 1.19365282415411e+00 1.37014878371577e-02
5.26543103448276e-01 1.18659471024959e+00 1.36434975400788e-02
5.28318965517241e-01 1.17957833123805e+00 1.35856754168647e-02
5.30094827586207e-01 1.17260344032748e+00 1.35280219222250e-02
5.31870689655172e-01 1.16566979220928e+00 1.34705374943107e-02
5.33646551724138e-01 1.15877714301327e+00 1.34132225656777e-02
5.35422413793104e-01 1.15192525031126e+00 1.33560775474358e-02
5.37198275862069e-01 1.14511387310856e+00 1.32991028348883e-02
5.38974137931035e-01 1.13834277183549e+00 1.32422988077775e-02
5.40750000000000e-01 1.13161170833894e+00 1.31856658305257e-02
5.42525862068966e-01 1.12492044587404e+00 1.31292042524715e-02
5.44301724137931e-01 1.11826874909577e+00 1.30729144081031e-02
5.46077586206897e-01 1.11165638405073e+00 1.30167966172894e-02
5.47853448275862e-01 1.10508311816889e+00 1.29608511855076e-02
5.49629310344828e-01 1.09854872025543e+00 1.29050784040666e-02
5.51405172413793e-01 1.09205296048256e+00 1.28494785503268e-02
5.53181034482759e-01 1.08559561038151e+00 1.27940518926382e-02
5.54956896551724e-01 1.07917644282387e+00 1.27387986763331e-02
5.56732758620690e-01 1.07279523204549e+00 1.26837191334414e-02
5.58508620689655e-01 1.06645175360648e+00 1.26288134925286e-02
5.60284482758621e-01 1.06014578439409e+00 1.25740819644202e-02
