Energy (eV)          EEDF (eV^-(3/2))     First Anisotropy
3.00000000000000e-02 8.54607486712782e-02 5.64773068335194e-05
9.00000000000000e-02 8.45444513801840e-02 9.30730190820752e-05
1.50000000000000e-01 8.36379784907994e-02 1.22372355437007e-04
2.10000000000000e-01 8.27412246673701e-02 1.44332588043559e-04
2.70000000000000e-01 8.18540857035335e-02 1.62402166230683e-04
3.30000000000000e-01 8.09764585102115e-02 1.77892440452066e-04
3.90000000000000e-01 8.01082411036317e-02 1.91485761059678e-04
4.50000000000000e-01 7.92493325934763e-02 2.03596382098225e-04
5.10000000000000e-01 7.83996331711581e-02 2.14500489247395e-04
5.70000000000000e-01 7.75590440982228e-02 2.24394298802738e-04
6.30000000000000e-01 7.67274676948748e-02 2.33423805714906e-04
6.90000000000000e-01 7.59048073286265e-02 2.41701533190215e-04
7.50000000000000e-01 7.50909674030696e-02 2.49316652083093e-04
8.10000000000000e-01 7.42858533467657e-02 2.56341437519738e-04
8.70000000000000e-01 7.34893716022574e-02 2.62835572242737e-04
9.30000000000000e-01 7.27014296151963e-02 2.68849119198627e-04
9.90000000000000e-01 7.19219358235876e-02 2.74424637162257e-04
1.05000000000000e+00 7.11507996471507e-02 2.79598725135395e-04
1.11000000000000e+00 7.03879314767928e-02 2.84403174630301e-04
1.17000000000000e+00 6.96332426641966e-02 2.88865845877912e-04
1.23000000000000e+00 6.88866455115186e-02 2.93011345315796e-04
1.29000000000000e+00 6.81480532611985e-02 2.96861557225368e-04
1.35000000000000e+00 6.74173800858774e-02 3.00436066457020e-04
1.41000000000000e+00 6.66945410784244e-02 3.03752498561317e-04
1.47000000000000e+00 6.59794522420701e-02 3.06826796408926e-04
1.53000000000000e+00 6.52720304806460e-02 3.09673447355774e-04
1.59000000000000e+00 6.45721935889280e-02 3.12305671456586e-04
1.65000000000000e+00 6.38798602430841e-02 3.14735578677805e-04
1.71000000000000e+00 6.31949499912243e-02 3.16974301200727e-04
1.77000000000000e+00 6.25173832440516e-02 3.19032105532109e-04
1.83000000000000e+00 6.18470812656133e-02 3.20918488112574e-04
1.89000000000000e+00 6.11839661641520e-02 3.22642257336643e-04
1.95000000000000e+00 6.05279608830539e-02 3.24211604305240e-04
2.01000000000000e+00 5.98789891918947e-02 3.25634164173897e-04
2.07000000000000e+00 5.92369756775809e-02 3.26917069603854e-04
2.13000000000000e+00 5.86018457355874e-02 3.28066997543722e-04
2.19000000000000e+00 5.79735255612871e-02 3.29090210348360e-04
2.25000000000000e+00 5.73519421413752e-02 3.29992592065340e-04
2.31000000000000e+00 5.67370232453848e-02 3.30779680578043e-04
2.37000000000000e+00 5.61286974172928e-02 3.31456696180252e-04
2.43000000000000e+00 5.55268939672171e-02 3.32028567064306e-04
2.49000000000000e+00 5.49315429632017e-02 3.32499952129038e-04
2.55000000000000e+00 5.43425752230907e-02 3.32875261451460e-04
2.61000000000000e+00 5.37599223064887e-02 3.33158674714563e-04
2.67000000000000e+00 5.31835165068080e-02 3.33354157840830e-04
2.73000000000000e+00 5.26132908434008e-02 3.33465478045673e-04
2.79000000000000e+00 5.20491790537756e-02 3.33496217494798e-04
2.85000000000000e+00 5.14911155858975e-02 3.33449785724505e-04
2.91000000000000e+00 5.09390355905706e-02 3.33329430962826e-04
2.97000000000000e+00 5.03928749139023e-02 3.33138250471164e-04
3.03000000000000e+00 4.98525700898484e-02 3.32879200010971e-04
3.09000000000000e+00 4.93180583328381e-02 3.32555102526797e-04
3.15000000000000e+00 4.87892775304780e-02 3.32168656125835e-04
3.21000000000000e+00 4.82661662363345e-02 3.31722441424539e-04
3.27000000000000e+00 4.77486636627934e-02 3.31218928324362e-04
3.33000000000000e+00 4.72367096739961e-02 3.30660482271705e-04
3.39000000000000e+00 4.67302447788516e-02 3.30049370050740e-04
3.45000000000000e+00 4.62292101241237e-02 3.29387765152405e-04
3.51000000000000e+00 4.57335474875914e-02 3.28677752758156e-04
3.57000000000000e+00 4.52431992712838e-02 3.27921334372830e-04
3.63000000000000e+00 4.47581084947867e-02 3.27120432137400e-04
3.69000000000000e+00 4.42782187886213e-02 3.26276892849182e-04
3.75000000000000e+00 4.38034743876939e-02 3.25392491714310e-04
3.81000000000000e+00 4.33338201248159e-02 3.24468935854685e-04
3.87000000000000e+00 4.28692014242927e-02 3.23507867589460e-04
3.93000000000000e+00 4.24095642955823e-02 3.22510867509214e-04
3.99000000000000e+00 4.19548553270212e-02 3.21479457359209e-04
4.05000000000000e+00 4.15050216796176e-02 3.20415102746559e-04
4.11000000000000e+00 4.10600110809115e-02 3.19319215684773e-04
4.17000000000000e+00 4.06197718189001e-02 3.18193156987937e-04
4.23000000000000e+00 4.01842527360294e-02 3.17038238525699e-04
4.29000000000000e+00 3.97534032232486e-02 3.15855725349137e-04
4.35000000000000e+00 3.93271732141296e-02 3.14646837696868e-04
4.41000000000000e+00 3.89055131790492e-02 3.13412752889852e-04
4.47000000000000e+00 3.84883741194332e-02 3.12154607122591e-04
4.53000000000000e+00 3.80757075620627e-02 3.10873497157931e-04
4.59000000000000e+00 3.76674655534415e-02 3.09570481931919e-04
4.65000000000000e+00 3.72636006542235e-02 3.08246584074757e-04
4.71000000000000e+00 3.68640659337002e-02 3.06902791353364e-04
4.77000000000000e+00 3.64688149643469e-02 3.05540058040573e-04
4.83000000000000e+00 3.60778018164280e-02 3.04159306215734e-04
4.89000000000000e+00 3.56909810526598e-02 3.02761427001013e-04
4.95000000000000e+00 3.53083077229298e-02 3.01347281737374e-04
5.01000000000000e+00 3.49297373590744e-02 2.99917703103945e-04
5.07000000000000e+00 3.45552259697106e-02 2.98473496184231e-04
5.13000000000000e+00 3.41847300351245e-02 2.97015439482301e-04
5.19000000000000e+00 3.38182065022140e-02 2.95544285891920e-04
5.25000000000000e+00 3.34556127794861e-02 2.94060763621398e-04
5.31000000000000e+00 3.30969067321070e-02 2.92565577076634e-04
5.37000000000000e+00 3.27420466770065e-02 2.91059407704750e-04
5.43000000000000e+00 3.23909913780340e-02 2.89542914800597e-04
5.49000000000000e+00 3.20437000411666e-02 2.88016736278033e-04
5.55000000000000e+00 3.17001323097689e-02 2.86481489408066e-04
5.61000000000000e+00 3.13602482599032e-02 2.84937771525573e-04
5.67000000000000e+00 3.10240083956902e-02 2.83386160706229e-04
5.73000000000000e+00 3.06913736447196e-02 2.81827216415249e-04
5.79000000000000e+00 3.03623053535095e-02 2.80261480129465e-04
5.85000000000000e+00 3.00367652830149e-02 2.78689475934100e-04
5.91000000000000e+00 2.97147156041840e-02 2.77111711095429e-04
5.97000000000000e+00 2.93961188935625e-02 2.75528676610612e-04
6.03000000000000e+00 2.90809381289447e-02 2.73940847735873e-04
6.09000000000000e+00 2.87691366850714e-02 2.72348684494051e-04
6.15000000000000e+00 2.84606783293739e-02 2.70752632162471e-04
6.21000000000000e+00 2.81555272177638e-02 2.69153121742146e-04
6.27000000000000e+00 2.78536478904674e-02 2.67550570409240e-04
6.33000000000000e+00 2.75550052679056e-02 2.65945381949538e-04
6.39000000000000e+00 2.72595646466170e-02 2.64337947176746e-04
6.45000000000000e+00 2.69672916952258e-02 2.62728644335389e-04
6.51000000000000e+00 2.66781524504517e-02 2.61117839488967e-04
6.57000000000000e+00 2.63921133131639e-02 2.59505886894097e-04
6.63000000000000e+00 2.61091410444763e-02 2.57893129361231e-04
6.69000000000000e+00 2.58292027618850e-02 2.56279898602500e-04
6.75000000000000e+00 2.55522659354476e-02 2.54666515567332e-04
6.81000000000000e+00 2.52782983840027e-02 2.53053290766340e-04
6.87000000000000e+00 2.50072682714305e-02 2.51440524583954e-04
6.93000000000000e+00 2.47391441029533e-02 2.49828507580300e-04
6.99000000000000e+00 2.44738947214757e-02 2.48217520782810e-04
7.05000000000000e+00 2.42114893039639e-02 2.46607835967953e-04
7.11000000000000e+00 2.39518973578642e-02 2.44999715933470e-04
7.17000000000000e+00 2.36950887175592e-02 2.43393414761569e-04
7.23000000000000e+00 2.34410335408630e-02 2.41789178073411e-04
7.29000000000000e+00 2.31897023055530e-02 2.40187243275230e-04
7.35000000000000e+00 2.29410658059393e-02 2.38587839796450e-04
7.41000000000000e+00 2.26950951494712e-02 2.36991189320072e-04
7.47000000000000e+00 2.24517617533796e-02 2.35397506005652e-04
7.53000000000000e+00 2.22110373413554e-02 2.33806996705198e-04
7.59000000000000e+00 2.19728939402639e-02 2.32219861172207e-04
7.65000000000000e+00 2.17373038768942e-02 2.30636292264124e-04
7.71000000000000e+00 2.15042397747433e-02 2.29056476138430e-04
7.77000000000000e+00 2.12736745508350e-02 2.27480592442670e-04
7.83000000000000e+00 2.10455814125728e-02 2.25908814498663e-04
7.89000000000000e+00 2.08199338546262e-02 2.24341309480962e-04
7.95000000000000e+00 2.05967056558510e-02 2.22778238589915e-04
8.01000000000000e+00 2.03758708762420e-02 2.21219757219481e-04
8.07000000000000e+00 2.01574038539191e-02 2.19666015119989e-04
8.13000000000000e+00 1.99412792021448e-02 2.18117156556030e-04
8.19000000000000e+00 1.97274718063745e-02 2.16573320459607e-04
8.25000000000000e+00 1.95159568213378e-02 2.15034640578785e-04
8.31000000000000e+00 1.93067096681517e-02 2.13501245621935e-04
8.37000000000000e+00 1.90997060314644e-02 2.11973259397766e-04
8.43000000000000e+00 1.88949218566293e-02 2.10450800951275e-04
8.49000000000000e+00 1.86923333469105e-02 2.08933984695723e-04
8.55000000000000e+00 1.84919169607167e-02 2.07422920540861e-04
8.61000000000000e+00 1.82936494088664e-02 2.05917714017416e-04
8.67000000000000e+00 1.80975076518810e-02 2.04418466398047e-04
8.73000000000000e+00 1.79034688973077e-02 2.02925274814861e-04
8.79000000000000e+00 1.77115105970710e-02 2.01438232373574e-04
8.85000000000000e+00 1.75216104448525e-02 1.99957428264507e-04
8.91000000000000e+00 1.73337463734988e-02 1.98482947870439e-04
8.97000000000000e+00 1.71478965524570e-02 1.97014872871446e-04
9.03000000000000e+00 1.69640393852385e-02 1.95553281346807e-04
9.09000000000000e+00 1.67821535069086e-02 1.94098247874121e-04
9.15000000000000e+00 1.66022177816044e-02 1.92649843625700e-04
9.21000000000000e+00 1.64242113000786e-02 1.91208136462253e-04
9.27000000000000e+00 1.62481133772696e-02 1.89773191024071e-04
9.33000000000000e+00 1.60739035498979e-02 1.88345068819708e-04
9.39000000000000e+00 1.59015615740884e-02 1.86923828312229e-04
9.45000000000000e+00 1.57310674230174e-02 1.85509525003153e-04
9.51000000000000e+00 1.55624012845863e-02 1.84102211514124e-04
9.57000000000000e+00 1.53955435591183e-02 1.82701937666402e-04
9.63000000000000e+00 1.52304748570819e-02 1.81308750558182e-04
9.69000000000000e+00 1.50671759968368e-02 1.79922694639907e-04
9.75000000000000e+00 1.49056280024057e-02 1.78543811787563e-04
9.81000000000000e+00 1.47458121012687e-02 1.77172141373994e-04
9.87000000000000e+00 1.45877097221819e-02 1.75807720338372e-04
9.93000000000000e+00 1.44313024930199e-02 1.74450583253833e-04
9.99000000000000e+00 1.42765722386401e-02 1.73100762393322e-04
1.00500000000000e+01 1.41235009787711e-02 1.71758287793711e-04
1.01100000000000e+01 1.39720709259234e-02 1.70423187318260e-04
1.01700000000000e+01 1.38222644833222e-02 1.69095486717450e-04
1.02300000000000e+01 1.36740642428626e-02 1.67775209688221e-04
1.02900000000000e+01 1.35274529830870e-02 1.66462377931678e-04
1.03500000000000e+01 1.33824136671835e-02 1.65157011209318e-04
1.04100000000000e+01 1.32389294410064e-02 1.63859127397788e-04
1.04700000000000e+01 1.30969836311175e-02 1.62568742542259e-04
1.05300000000000e+01 1.29565597428488e-02 1.61285870908402e-04
1.05900000000000e+01 1.28176414583857e-02 1.60010525033052e-04
1.06500000000000e+01 1.26802126348706e-02 1.58742715773577e-04
1.07100000000000e+01 1.25442573025274e-02 1.57482452355971e-04
1.07700000000000e+01 1.24097596628054e-02 1.56229742421744e-04
1.08300000000000e+01 1.22767040865435e-02 1.54984592073611e-04
1.08900000000000e+01 1.21450751121543e-02 1.53747005920013e-04
1.09500000000000e+01 1.20148574438271e-02 1.52516987118527e-04
1.10100000000000e+01 1.18860359497506e-02 1.51294537418162e-04
1.10700000000000e+01 1.17585956603545e-02 1.50079657200610e-04
1.11300000000000e+01 1.16325217665701e-02 1.48872345520444e-04
1.11900000000000e+01 1.15077996181091e-02 1.47672600144292e-04
1.12500000000000e+01 1.13844147217615e-02 1.46480417589047e-04
1.13100000000000e+01 1.12623527397113e-02 1.45295793159115e-04
1.13700000000000e+01 1.11415994878705e-02 1.44118720982721e-04
1.14300000000000e+01 1.10221409342306e-02 1.42949194047311e-04
1.14900000000000e+01 1.09039631972322e-02 1.41787204234066e-04
1.15500000000000e+01 1.07870525441521e-02 1.40632742351564e-04
1.16100000000000e+01 1.06713953895070e-02 1.39485798168585e-04
1.16700000000000e+01 1.05569782934753e-02 1.38346360446109e-04
1.17300000000000e+01 1.04437879603352e-02 1.37214416968532e-04
1.17900000000000e+01 1.03318112369193e-02 1.36089954574065e-04
1.18500000000000e+01 1.02210351110869e-02 1.34972959184406e-04
1.19100000000000e+01 1.01114467102112e-02 1.33863415833673e-04
1.19700000000000e+01 1.00030332996839e-02 1.32761308696616e-04
1.20300000000000e+01 9.89578228143531e-03 1.31666621116123e-04
1.20900000000000e+01 9.78968119247024e-03 1.30579335630041e-04
1.21500000000000e+01 9.68471770341989e-03 1.29499433997340e-04
1.22100000000000e+01 9.58087961710914e-03 1.28426897223634e-04
1.22700000000000e+01 9.47815486713908e-03 1.27361705586047e-04
1.23300000000000e+01 9.37653151648497e-03 1.26303838657477e-04
1.23900000000000e+01 9.27599775610902e-03 1.25253275330260e-04
1.24500000000000e+01 9.17654190358818e-03 1.24209993839242e-04
1.25100000000000e+01 9.07815240175658e-03 1.23173971784281e-04
1.25700000000000e+01 8.98081781736255e-03 1.22145186152185e-04
1.26300000000000e+01 8.88452683974002e-03 1.21123613338127e-04
1.26900000000000e+01 8.78926827949417e-03 1.20109229166493e-04
1.27500000000000e+01 8.69503106720120e-03 1.19102008911239e-04
1.28100000000000e+01 8.60180425212202e-03 1.18101927315746e-04
1.28700000000000e+01 8.50957700092968e-03 1.17108958612158e-04
1.29300000000000e+01 8.41833859645057e-03 1.16123076540256e-04
1.29900000000000e+01 8.32807843641897e-03 1.15144254365866e-04
1.30500000000000e+01 8.23878603224509e-03 1.14172464898793e-04
1.31100000000000e+01 8.15045100779620e-03 1.13207680510328e-04
1.31700000000000e+01 8.06306309819091e-03 1.12249873150293e-04
1.32300000000000e+01 7.97661214860635e-03 1.11299014363696e-04
1.32900000000000e+01 7.89108811309812e-03 1.10355075306927e-04
1.33500000000000e+01 7.80648105343293e-03 1.09418026763584e-04
1.34100000000000e+01 7.72278113793374e-03 1.08487839159893e-04
1.34700000000000e+01 7.63997864033727e-03 1.07564482579730e-04
1.35300000000000e+01 7.55806393866376e-03 1.06647926779285e-04
1.35900000000000e+01 7.47702751409889e-03 1.05738141201339e-04
1.36500000000000e+01 7.39685994988761e-03 1.04835094989194e-04
1.37100000000000e+01 7.31755193023993e-03 1.03938757000243e-04
1.37700000000000e+01 7.23909423924833e-03 1.03049095819210e-04
1.38300000000000e+01 7.16147775981688e-03 1.02166079771044e-04
1.38900000000000e+01 7.08469347260178e-03 1.01289676933487e-04
1.39500000000000e+01 7.00873245496328e-03 1.00419855149329e-04
1.40100000000000e+01 6.93358587992882e-03 9.95565820383451e-05
1.40700000000000e+01 6.85924501516733e-03 9.86998250089369e-05
1.41300000000000e+01 6.78570122197446e-03 9.78495512694628e-05
1.41900000000000e+01 6.71294595426875e-03 9.70057278392908e-05
1.42500000000000e+01 6.64097075759857e-03 9.61683215595674e-05
1.43100000000000e+01 6.56976726815961e-03 9.53372991037066e-05
1.43700000000000e+01 6.49932721182303e-03 9.45126269875975e-05
1.44300000000000e+01 6.42964240317396e-03 9.36942715795616e-05
1.44900000000000e+01 6.36070474456029e-03 9.28821991100566e-05
1.45500000000000e+01 6.29250622515175e-03 9.20763756811084e-05
1.46100000000000e+01 6.22503892000897e-03 9.12767672755169e-05
1.46700000000000e+01 6.15829498916259e-03 9.04833397658196e-05
1.47300000000000e+01 6.09226667670222e-03 8.96960589229962e-05
1.47900000000000e+01 6.02694630987519e-03 8.89148904249726e-05
1.48500000000000e+01 5.96232629819491e-03 8.81397998648981e-05
1.49100000000000e+01 5.89839913255886e-03 8.73707527591826e-05
1.49700000000000e+01 5.83515738437597e-03 8.66077145553369e-05
1.50300000000000e+01 5.77259370470343e-03 8.58506506395977e-05
1.50900000000000e+01 5.71070082339267e-03 8.50995263443586e-05
1.51500000000000e+01 5.64947154824456e-03 8.43543069553914e-05
1.52100000000000e+01 5.58889876417367e-03 8.36149577188668e-05
1.52700000000000e+01 5.52897543238141e-03 8.28814438482056e-05
1.53300000000000e+01 5.46969458953815e-03 8.21537305307227e-05
1.53900000000000e+01 5.41104934697404e-03 8.14317829341026e-05
1.54500000000000e+01 5.35303288987850e-03 8.07155662126929e-05
1.55100000000000e+01 5.29563847650832e-03 8.00050455136175e-05
1.55700000000000e+01 5.23885943740426e-03 7.93001859827428e-05
1.56300000000000e+01 5.18268917461601e-03 7.86009527704533e-05
1.56900000000000e+01 5.12712116093549e-03 7.79073110372684e-05
1.57500000000000e+01 5.07214893913836e-03 7.72192259593208e-05
1.58100000000000e+01 5.01776612123369e-03 7.65366627336634e-05
1.58700000000000e+01 4.96396638772160e-03 7.58595865834261e-05
1.59300000000000e+01 4.91074348685894e-03 7.51879627628320e-05
1.59900000000000e+01 4.85809123393283e-03 7.45217565620683e-05
1.60500000000000e+01 4.80600351054194e-03 7.38609333120121e-05
1.61100000000000e+01 4.75447426388551e-03 7.32054583888175e-05
1.61700000000000e+01 4.70349750606001e-03 7.25552972183762e-05
1.62300000000000e+01 4.65306731336331e-03 7.19104152806483e-05
1.62900000000000e+01 4.60317782560631e-03 7.12707781138467e-05
1.63500000000000e+01 4.55382324543199e-03 7.06363513185174e-05
1.64100000000000e+01 4.50499783764173e-03 7.00071005614935e-05
1.64700000000000e+01 4.45669592852882e-03 6.93829915797120e-05
1.65300000000000e+01 4.40891190521920e-03 6.87639901839384e-05
1.65900000000000e+01 4.36164021501919e-03 6.81500622623619e-05
1.66500000000000e+01 4.31487536477026e-03 6.75411737840773e-05
1.67100000000000e+01 4.26861192021070e-03 6.69372908024724e-05
1.67700000000000e+01 4.22284450534414e-03 6.63383794584973e-05
1.68300000000000e+01 4.17756780181484e-03 6.57444059838314e-05
1.68900000000000e+01 4.13277654828964e-03 6.51553367039498e-05
1.69500000000000e+01 4.08846553984664e-03 6.45711380410921e-05
1.70100000000000e+01 4.04462962737031e-03 6.39917765171335e-05
1.70700000000000e+01 4.00126371695316e-03 6.34172187563616e-05
1.71300000000000e+01 3.95836276930382e-03 6.28474314881580e-05
1.71900000000000e+01 3.91592179916144e-03 6.22823815495906e-05
1.72500000000000e+01 3.87393587471639e-03 6.17220358879187e-05
1.73100000000000e+01 3.83240011703715e-03 6.11663615630155e-05
1.73700000000000e+01 3.79130969950338e-03 6.06153257497044e-05
1.74300000000000e+01 3.75065984724504e-03 6.00688957400070e-05
1.74900000000000e+01 3.71044583658751e-03 5.95270389453136e-05
1.75500000000000e+01 3.67066299450272e-03 5.89897228984804e-05
1.76100000000000e+01 3.63130669806610e-03 5.84569152558474e-05
1.76700000000000e+01 3.59237237391936e-03 5.79285837991824e-05
1.77300000000000e+01 3.55385549773911e-03 5.74046964375506e-05
1.77900000000000e+01 3.51575159371103e-03 5.68852212091073e-05
1.78500000000000e+01 3.47805623400984e-03 5.63701262828328e-05
1.79100000000000e+01 3.44076503828472e-03 5.58593799601923e-05
1.79700000000000e+01 3.40387367315033e-03 5.53529506767285e-05
1.80300000000000e+01 3.36737785168321e-03 5.48508070035918e-05
1.80900000000000e+01 3.33127333292367e-03 5.43529176490097e-05
1.81500000000000e+01 3.29555592138294e-03 5.38592514596898e-05
1.82100000000000e+01 3.26022146655566e-03 5.33697774221641e-05
1.82700000000000e+01 3.22526586243755e-03 5.28844646640743e-05
1.83300000000000e+01 3.19068504704831e-03 5.24032824554009e-05
1.83900000000000e+01 3.15647500195956e-03 5.19262002096374e-05
1.84500000000000e+01 3.12263175182791e-03 5.14531874849080e-05
1.85100000000000e+01 3.08915136393303e-03 5.09842139850299e-05
1.85700000000000e+01 3.05602994772058e-03 5.05192495605248e-05
1.86300000000000e+01 3.02326365435019e-03 5.00582642095835e-05
1.86900000000000e+01 2.99084867624818e-03 4.96012280789750e-05
1.87500000000000e+01 2.95878124666508e-03 4.91481114649142e-05
1.88100000000000e+01 2.92705763923795e-03 4.86988848138776e-05
1.88700000000000e+01 2.89567416755737e-03 4.82535187233681e-05
1.89300000000000e+01 2.86462718473902e-03 4.78119839426455e-05
