Energy (eV)          EEDF (eV^-(3/2))     First Anisotropy
5.73684210526316e-03 7.92939689387844e-01 4.77934315088162e-04
1.72105263157895e-02 7.85759100912563e-01 7.88282061516814e-04
2.86842105263158e-02 7.78643537371519e-01 1.03817844526084e-03
4.01578947368421e-02 7.71592409921238e-01 1.22654626324855e-03
5.16315789473684e-02 7.64605135050588e-01 1.38242697335851e-03
6.31052631578947e-02 7.57681134520579e-01 1.51683632552975e-03
7.45789473684211e-02 7.50819835354944e-01 1.63549250822492e-03
8.60526315789474e-02 7.44020669750935e-01 1.74185891825590e-03
9.75263157894737e-02 7.37283075047964e-01 1.83823932912668e-03
1.09000000000000e-01 7.30606493673993e-01 1.92626676377396e-03
1.20473684210526e-01 7.23990373132101e-01 2.00715357890398e-03
1.31947368421053e-01 7.17434165906555e-01 2.08183214825469e-03
1.43421052631579e-01 7.10937329395304e-01 2.15103976296968e-03
1.54894736842105e-01 7.04499326007367e-01 2.21537277142120e-03
1.66368421052632e-01 6.98119622968363e-01 2.27532263178122e-03
1.77842105263158e-01 6.91797692328369e-01 2.33130077613969e-03
1.89315789473684e-01 6.85533010919239e-01 2.38365630572849e-03
2.00789473684211e-01 6.79325060279962e-01 2.43268888257380e-03
2.12263157894737e-01 6.73173326708921e-01 2.47865835173378e-03
2.23736842105263e-01 6.67077301122815e-01 2.52179205255484e-03
2.35210526315789e-01 6.61036479048166e-01 2.56229045240588e-03
2.46684210526316e-01 6.55050360580433e-01 2.60033157625027e-03
2.58157894736842e-01 6.49118450319381e-01 2.63607451351917e-03
2.69631578947368e-01 6.43240257397962e-01 2.66966224796686e-03
2.81105263157895e-01 6.37415295369870e-01 2.70122395769039e-03
2.92578947368421e-01 6.31643082193846e-01 2.73087689017568e-03
3.04052631578947e-01 6.25923140194106e-01 2.75872792538921e-03
3.15526315789474e-01 6.20254996002896e-01 2.78487486974152e-03
3.27000000000000e-01 6.14638180575475e-01 2.80940755356738e-03
3.38473684210526e-01 6.09072229095817e-01 2.83240876071330e-03
3.49947368421053e-01 6.03556680957170e-01 2.85395501205502e-03
3.61421052631579e-01 5.98091079709023e-01 2.87411723744443e-03
3.72894736842105e-01 5.92674973065040e-01 2.89296136169874e-03
3.84368421052632e-01 5.87307912818882e-01 2.91054881260998e-03
3.95842105263158e-01 5.81989454822945e-01 2.92693695364974e-03
4.07315789473684e-01 5.76719158951768e-01 2.94217947120678e-03
4.18789473684211e-01 5.71496589053273e-01 2.95632670621003e-03
4.30263157894737e-01 5.66321312950169e-01 2.96942595439856e-03
4.41736842105263e-01 5.61192902365954e-01 2.98152173238362e-03
4.53210526315790e-01 5.56110932902379e-01 2.99265600550258e-03
4.64684210526316e-01 5.51074984004513e-01 3.00286839884503e-03
4.76157894736842e-01 5.46084638915537e-01 3.01219637837059e-03
4.87631578947368e-01 5.41139484673657e-01 3.02067542043950e-03
4.99105263157895e-01 5.36239112045975e-01 3.02833916454742e-03
5.10578947368421e-01 5.31383115505449e-01 3.03521954349982e-03
5.22052631578947e-01 5.26571093197410e-01 3.04134690830659e-03
5.33526315789474e-01 5.21802646897500e-01 3.04675013457192e-03
5.45000000000000e-01 5.17077382005388e-01 3.05145672563701e-03
5.56473684210526e-01 5.12394907484988e-01 3.05549290672483e-03
5.67947368421053e-01 5.07754835841317e-01 3.05888370530423e-03
5.79421052631579e-01 5.03156783080635e-01 3.06165302491312e-03
5.90894736842105e-01 4.98600368702414e-01 3.06382371756115e-03
6.02368421052632e-01 4.94085215643720e-01 3.06541765039479e-03
6.13842105263158e-01 4.89610950256144e-01 3.06645576066452e-03
6.25315789473684e-01 4.85177202274940e-01 3.06695811247090e-03
6.36789473684211e-01 4.80783604781590e-01 3.06694394337551e-03
6.48263157894737e-01 4.76429794194040e-01 3.06643171303165e-03
6.59736842105263e-01 4.72115410215707e-01 3.06543914838888e-03
6.71210526315789e-01 4.67840095812702e-01 3.06398327981880e-03
6.82684210526316e-01 4.63603497184352e-01 3.06208048025009e-03
6.94157894736842e-01 4.59405263727958e-01 3.05974649629208e-03
7.05631578947368e-01 4.55245048027795e-01 3.05699648229764e-03
7.17105263157895e-01 4.51122505808097e-01 3.05384503227918e-03
7.28578947368421e-01 4.47037295910732e-01 3.05030620441144e-03
7.40052631578947e-01 4.42989080267001e-01 3.04639354906203e-03
7.51526315789474e-01 4.38977523864421e-01 3.04212013017984e-03
7.63000000000000e-01 4.35002294734864e-01 3.03749855001788e-03
7.74473684210526e-01 4.31063063911003e-01 3.03254097245129e-03
7.85947368421053e-01 4.27159505404530e-01 3.02725914091826e-03
7.97421052631579e-01 4.23291296174427e-01 3.02166439553381e-03
8.08894736842105e-01 4.19458116114682e-01 3.01576769265596e-03
8.20368421052632e-01 4.15659648013156e-01 3.00957962342939e-03
8.31842105263158e-01 4.11895577530261e-01 3.00311042669530e-03
8.43315789473684e-01 4.08165593172975e-01 2.99637000561209e-03
8.54789473684211e-01 4.04469386264815e-01 2.98936793915618e-03
8.66263157894737e-01 4.00806650933159e-01 2.98211349706636e-03
8.77736842105263e-01 3.97177084070908e-01 2.97461565408961e-03
8.89210526315790e-01 3.93580385315781e-01 2.96688309924581e-03
9.00684210526316e-01 3.90016257025496e-01 2.95892424871314e-03
9.12157894736842e-01 3.86484404249327e-01 2.95074725416743e-03
9.23631578947368e-01 3.82984534715196e-01 2.94236001446491e-03
9.35105263157895e-01 3.79516358793852e-01 2.93377018683262e-03
9.46578947368421e-01 3.76079589478819e-01 2.92498519360103e-03
9.58052631578947e-01 3.72673942362666e-01 2.91601223240911e-03
9.69526315789474e-01 3.69299135610056e-01 2.90685828231772e-03
9.81000000000000e-01 3.65954889944745e-01 2.89753011313139e-03
9.92473684210526e-01 3.62640928616027e-01 2.88803429436245e-03
1.00394736842105e+00 3.59356977379355e-01 2.87837720016470e-03
1.01542105263158e+00 3.56102764473653e-01 2.86856501427722e-03
1.02689473684211e+00 3.52878020611037e-01 2.85860374839361e-03
1.03836842105263e+00 3.49682478899519e-01 2.84849922869138e-03
1.04984210526316e+00 3.46515874924619e-01 2.83825711584945e-03
1.06131578947368e+00 3.43377946606751e-01 2.82788290770432e-03
1.07278947368421e+00 3.40268434298144e-01 2.81738194358288e-03
1.08426315789474e+00 3.37187080644799e-01 2.80675941060777e-03
1.09573684210526e+00 3.34133630679739e-01 2.79602034161184e-03
1.10721052631579e+00 3.31107831716148e-01 2.78516964505282e-03
1.11868421052632e+00 3.28109433329529e-01 2.77421207259969e-03
1.13015789473684e+00 3.25138187415981e-01 2.76315224776589e-03
1.14163157894737e+00 3.22193848066388e-01 2.75199466480764e-03
1.15310526315789e+00 3.19276171649586e-01 2.74074369178591e-03
1.16457894736842e+00 3.16384916690415e-01 2.72940357544831e-03
1.17605263157895e+00 3.13519843949807e-01 2.71797843854891e-03
1.18752631578947e+00 3.10680716330105e-01 2.70647230624270e-03
1.19900000000000e+00 3.07867298857962e-01 2.69488907600020e-03
1.21047368421053e+00 3.05079358734180e-01 2.68323254290409e-03
1.22194736842105e+00 3.02316665222147e-01 2.67150639802570e-03
1.23342105263158e+00 2.99578989719541e-01 2.65971422555217e-03
1.24489473684211e+00 2.96866105671443e-01 2.64785952696303e-03
1.25636842105263e+00 2.94177788553818e-01 2.63594569267937e-03
1.26784210526316e+00 2.91513815917954e-01 2.62397602526382e-03
1.27931578947368e+00 2.88873967288129e-01 2.61195373759685e-03
1.29078947368421e+00 2.86258024225938e-01 2.59988195461607e-03
1.30226315789474e+00 2.83665770230958e-01 2.58776371661715e-03
1.31373684210526e+00 2.81096990802801e-01 2.57560197623029e-03
1.32521052631579e+00 2.78551473363489e-01 2.56339962002282e-03
1.33668421052632e+00 2.76029007241795e-01 2.55115944232147e-03
1.34815789473684e+00 2.73529383711422e-01 2.53888416598407e-03
1.35963157894737e+00 2.71052395899638e-01 2.52657644038747e-03
1.37110526315789e+00 2.68597838843097e-01 2.51423884269464e-03
1.38257894736842e+00 2.66165509399065e-01 2.50187388055191e-03
1.39405263157895e+00 2.63755206299305e-01 2.48948398903091e-03
1.40552631578947e+00 2.61366730080511e-01 2.47707155005005e-03
1.41700000000000e+00 2.58999883069427e-01 2.46463886823948e-03
1.42847368421053e+00 2.56654469415788e-01 2.45218818961851e-03
1.43994736842105e+00 2.54330295010451e-01 2.43972169951659e-03
1.45142105263158e+00 2.52027167533994e-01 2.42724151956887e-03
1.46289473684211e+00 2.49744896392394e-01 2.41474972570593e-03
1.47436842105263e+00 2.47483292702712e-01 2.40224832545914e-03
1.48584210526316e+00 2.45242169322634e-01 2.38973927527250e-03
1.49731578947368e+00 2.43021340774834e-01 2.37722447843249e-03
1.50878947368421e+00 2.40820623290869e-01 2.36470578580747e-03
1.52026315789474e+00 2.38639834737607e-01 2.35218499780923e-03
1.53173684210526e+00 2.36478794659653e-01 2.33966386147675e-03
1.54321052631579e+00 2.34337324221365e-01 2.32714408675121e-03
1.55468421052632e+00 2.32215246193337e-01 2.31462732556871e-03
1.56615789473684e+00 2.30112384977955e-01 2.30211518754276e-03
1.57763157894737e+00 2.28028566541284e-01 2.28960923791606e-03
1.58910526315789e+00 2.25963618451465e-01 2.27711099810039e-03
1.60057894736842e+00 2.23917369812415e-01 2.26462194733543e-03
1.61205263157895e+00 2.21889651300952e-01 2.25214351988449e-03
1.62352631578947e+00 2.19880295114410e-01 2.23967711981251e-03
1.63500000000000e+00 2.17889134957855e-01 2.22722410172776e-03
1.64647368421053e+00 2.15916006066251e-01 2.21478578501921e-03
1.65794736842105e+00 2.13960745142970e-01 2.20236345187068e-03
1.66942105263158e+00 2.12023190393449e-01 2.18995834456716e-03
1.68089473684211e+00 2.10103181476485e-01 2.17757167927112e-03
1.69236842105263e+00 2.08200559491965e-01 2.16520462790742e-03
1.70384210526316e+00 2.06315167000819e-01 2.15285833143965e-03
1.71531578947368e+00 2.04446847967908e-01 2.14053389795058e-03
1.72678947368421e+00 2.02595447792567e-01 2.12823240294766e-03
1.73826315789474e+00 2.00760813252970e-01 2.11595489062799e-03
1.74973684210526e+00 1.98942792535686e-01 2.10370237132727e-03
1.76121052631579e+00 1.97141235191491e-01 2.09147583407347e-03
1.77268421052632e+00 1.95355992123804e-01 2.07927622989312e-03
1.78415789473684e+00 1.93586915606022e-01 2.06710448392123e-03
1.79563157894737e+00 1.91833859229768e-01 2.05496149356296e-03
1.80710526315789e+00 1.90096677931747e-01 2.04284812870740e-03
1.81857894736842e+00 1.88375227943317e-01 2.03076523282211e-03
1.83005263157895e+00 1.86669366816478e-01 2.01871362054308e-03
1.84152631578947e+00 1.84978953383723e-01 2.00669408914195e-03
1.85300000000000e+00 1.83303847747122e-01 1.99470740313864e-03
1.86447368421053e+00 1.81643911293409e-01 1.98275430536021e-03
1.87594736842105e+00 1.79999006646997e-01 1.97083551519678e-03
1.88742105263158e+00 1.78368997693638e-01 1.95895172630536e-03
1.89889473684211e+00 1.76753749542934e-01 1.94710361734295e-03
1.91036842105263e+00 1.75153128517875e-01 1.93529183747865e-03
1.92184210526316e+00 1.73567002168446e-01 1.92351701674651e-03
1.93331578947368e+00 1.71995239227819e-01 1.91177976437733e-03
1.94478947368421e+00 1.70437709633888e-01 1.90008066890232e-03
1.95626315789474e+00 1.68894284486543e-01 1.88842029901436e-03
1.96773684210526e+00 1.67364836068537e-01 1.87679920141454e-03
1.97921052631579e+00 1.65849237811302e-01 1.86521791063818e-03
1.99068421052632e+00 1.64347364285109e-01 1.85367693569053e-03
2.00215789473684e+00 1.62859091210908e-01 1.84217676953207e-03
2.01363157894737e+00 1.61384295420445e-01 1.83071788750194e-03
2.02510526315789e+00 1.59922854875270e-01 1.81930074737777e-03
2.03657894736842e+00 1.58474648627827e-01 1.80792579013238e-03
2.04805263157895e+00 1.57039556839873e-01 1.79659343791453e-03
2.05952631578947e+00 1.55617460751275e-01 1.78530410306059e-03
2.07100000000000e+00 1.54208242670738e-01 1.77405817576209e-03
2.08247368421053e+00 1.52811785986126e-01 1.76285603276232e-03
2.09394736842105e+00 1.51427975128088e-01 1.75169803587433e-03
2.10542105263158e+00 1.50056695586870e-01 1.74058453006326e-03
2.11689473684211e+00 1.48697833883087e-01 1.72951585190501e-03
2.12836842105263e+00 1.47351277558844e-01 1.71849231796220e-03
2.13984210526316e+00 1.46016915187051e-01 1.70751423294751e-03
2.15131578947368e+00 1.44694636337402e-01 1.69658188831270e-03
2.16278947368421e+00 1.43384331591710e-01 1.68569556225518e-03
2.17426315789474e+00 1.42085892510699e-01 1.67485552032671e-03
2.18573684210526e+00 1.40799211648868e-01 1.66406201364252e-03
2.19721052631579e+00 1.39524182527748e-01 1.65331528665055e-03
2.20868421052632e+00 1.38260699627547e-01 1.64261556639594e-03
2.22015789473684e+00 1.37008658395266e-01 1.63196307002411e-03
2.23163157894737e+00 1.35767955213605e-01 1.62135800345554e-03
2.24310526315789e+00 1.34538487414539e-01 1.61080056137133e-03
2.25457894736842e+00 1.33320153248958e-01 1.60029092775372e-03
2.26605263157895e+00 1.32112851899825e-01 1.58982927421238e-03
2.27752631578947e+00 1.30916483457681e-01 1.57941576713049e-03
2.28900000000000e+00 1.29730948912775e-01 1.56905055774646e-03
2.30047368421053e+00 1.28556150162140e-01 1.55873378905253e-03
2.31194736842105e+00 1.27391989981139e-01 1.54846559455456e-03
2.32342105263158e+00 1.26238372035495e-01 1.53824609668506e-03
2.33489473684211e+00 1.25095200858289e-01 1.52807541352430e-03
2.34636842105263e+00 1.23962381842425e-01 1.51795364944186e-03
2.35784210526316e+00 1.22839821247019e-01 1.50788090158570e-03
2.36931578947368e+00 1.21727426170712e-01 1.49785725870373e-03
2.38078947368421e+00 1.20625104562669e-01 1.48788280110427e-03
2.39226315789474e+00 1.19532765196511e-01 1.47795760109738e-03
2.40373684210526e+00 1.18450317680981e-01 1.46808172151567e-03
2.41521052631579e+00 1.17377672438824e-01 1.45825522190234e-03
2.42668421052632e+00 1.16314740699712e-01 1.44847814985885e-03
2.43815789473684e+00 1.15261434505794e-01 1.43875054702283e-03
2.44963157894737e+00 1.14217666687239e-01 1.42907244796441e-03
2.46110526315789e+00 1.13183350871986e-01 1.41944388013756e-03
2.47257894736842e+00 1.12158401461842e-01 1.40986486427463e-03
2.48405263157895e+00 1.11142733641945e-01 1.40033541300641e-03
2.49552631578947e+00 1.10136263361355e-01 1.39085553656631e-03
2.50700000000000e+00 1.09138907326402e-01 1.38142523478743e-03
2.51847368421053e+00 1.08150583005511e-01 1.37204450261077e-03
2.52994736842105e+00 1.07171208606767e-01 1.36271332905495e-03
2.54142105263158e+00 1.06200703086555e-01 1.35343169590804e-03
2.55289473684211e+00 1.05238986131318e-01 1.34419958310115e-03
2.56436842105263e+00 1.04285978151177e-01 1.33501696115022e-03
2.57584210526316e+00 1.03341600284288e-01 1.32588379634524e-03
2.58731578947368e+00 1.02405774375749e-01 1.31680004977229e-03
2.59878947368421e+00 1.01478422985516e-01 1.30776567725366e-03
2.61026315789474e+00 1.00559469367789e-01 1.29878062967369e-03
2.62173684210526e+00 9.96488374786894e-02 1.28984485176077e-03
2.63321052631579e+00 9.87464519594641e-02 1.28095828704406e-03
2.64468421052632e+00 9.78522381304962e-02 1.27212087085801e-03
2.65615789473684e+00 9.69661219950829e-02 1.26333253513177e-03
2.66763157894737e+00 9.60880302200502e-02 1.25459320747453e-03
2.67910526315789e+00 9.52178901427829e-02 1.24590281111237e-03
2.69057894736842e+00 9.43556297522741e-02 1.23726126518147e-03
2.70205263157895e+00 9.35011776959428e-02 1.22866848359241e-03
2.71352631578947e+00 9.26544632641646e-02 1.22012437960701e-03
2.72500000000000e+00 9.18154163846405e-02 1.21162885936141e-03
2.73647368421053e+00 9.09839676256744e-02 1.20318182628676e-03
2.74794736842105e+00 9.01600481783414e-02 1.19478318025619e-03
2.75942105263158e+00 8.93435898627312e-02 1.18643281650829e-03
2.77089473684211e+00 8.85345251133680e-02 1.17813062996411e-03
2.78236842105263e+00 8.77327869738246e-02 1.16987650910515e-03
2.79384210526316e+00 8.69383090996647e-02 1.16167034014340e-03
2.80531578947368e+00 8.61510257416572e-02 1.15351200621157e-03
2.81678947368421e+00 8.53708717514924e-02 1.14540138729661e-03
2.82826315789474e+00 8.45977825653689e-02 1.13733836048386e-03
2.83973684210526e+00 8.38316942095388e-02 1.12932279895466e-03
2.85121052631579e+00 8.30725432868602e-02 1.12135457597469e-03
2.86268421052632e+00 8.23202669717394e-02 1.11343355922239e-03
2.87415789473684e+00 8.15748030126704e-02 1.10555961464308e-03
2.88563157894737e+00 8.08360897167766e-02 1.09773260569270e-03
2.89710526315789e+00 8.01040659548879e-02 1.08995239327085e-03
2.90857894736842e+00 7.93786711464222e-02 1.08221883594116e-03
2.92005263157895e+00 7.86598452643100e-02 1.07453178899719e-03
2.93152631578947e+00 7.79475288225870e-02 1.06689110815006e-03
2.94300000000000e+00 7.72416628716392e-02 1.05929664427263e-03
2.95447368421053e+00 7.65421890003929e-02 1.05174824696181e-03
2.96594736842105e+00 7.58490493220685e-02 1.04424576383334e-03
2.97742105263158e+00 7.51621864786893e-02 1.03678903963625e-03
2.98889473684211e+00 7.44815436293726e-02 1.02937791973478e-03
3.00036842105263e+00 7.38070644457812e-02 1.02201224513675e-03
3.01184210526316e+00 7.31386931140801e-02 1.01469185585742e-03
3.02331578947368e+00 7.24763743215063e-02 1.00741659025025e-03
3.03478947368421e+00 7.18200532604968e-02 1.00018628494046e-03
3.04626315789474e+00 7.11696756155512e-02 9.93000775009687e-04
3.05773684210526e+00 7.05251875672367e-02 9.85859893171519e-04
3.06921052631579e+00 6.98865357813692e-02 9.78763472992209e-04
3.08068421052632e+00 6.92536674047432e-02 9.71711344280928e-04
3.09215789473684e+00 6.86265300668072e-02 9.64703336202567e-04
3.10363157894737e+00 6.80050718672735e-02 9.57739276652864e-04
3.11510526315789e+00 6.73892413797840e-02 9.50818992193218e-04
3.12657894736842e+00 6.67789876397877e-02 9.43942308217902e-04
3.13805263157895e+00 6.61742601480967e-02 9.37109048185528e-04
3.14952631578947e+00 6.55750088608871e-02 9.30319036600469e-04
3.16100000000000e+00 6.49811841856866e-02 9.23572094737581e-04
3.17247368421053e+00 6.43927369828055e-02 9.16868043522548e-04
3.18394736842105e+00 6.38096185538991e-02 9.10206702949451e-04
3.19542105263158e+00 6.32317806452223e-02 9.03587891351905e-04
3.20689473684211e+00 6.26591754381818e-02 8.97011428220504e-04
3.21836842105263e+00 6.20917555454985e-02 8.90477130156282e-04
3.22984210526316e+00 6.15294740124760e-02 8.83984813592860e-04
3.24131578947368e+00 6.09722843062048e-02 8.77534294243450e-04
3.25278947368421e+00 6.04201403185397e-02 8.71125387038229e-04
3.26426315789474e+00 5.98729963555361e-02 8.64757906265139e-04
3.27573684210526e+00 5.93308071403377e-02 8.58431664891243e-04
3.28721052631579e+00 5.87935278044357e-02 8.52146477171497e-04
3.29868421052632e+00 5.82611138840653e-02 8.45902154893895e-04
3.31015789473684e+00 5.77335213212789e-02 8.39698509901093e-04
3.32163157894737e+00 5.72107064539706e-02 8.33535353574128e-04
3.33310526315789e+00 5.66926260185188e-02 8.27412496771616e-04
3.34457894736842e+00 5.61792371400231e-02 8.21329749957704e-04
3.35605263157895e+00 5.56704973348663e-02 8.15286922569368e-04
3.36752631578947e+00 5.51663645026245e-02 8.09283825433583e-04
3.37900000000000e+00 5.46667969226815e-02 8.03320267282531e-04
3.39047368421053e+00 5.41717532551326e-02 7.97396057089059e-04
3.40194736842105e+00 5.36811925315628e-02 7.91511003585385e-04
3.41342105263158e+00 5.31950741573897e-02 7.85664914663182e-04
3.42489473684211e+00 5.27133579042114e-02 7.79857599659611e-04
3.43636842105263e+00 5.22360039065693e-02 7.74088866056616e-04
3.44784210526316e+00 5.17629726627387e-02 7.68358521690047e-04
3.45931578947368e+00 5.12942250260146e-02 7.62666374292705e-04
3.47078947368421e+00 5.08297222068541e-02 7.57012231436991e-04
3.48226315789474e+00 5.03694257643468e-02 7.51395900642820e-04
3.49373684210526e+00 4.99132976082914e-02 7.45817188818729e-04
3.50521052631579e+00 4.94612999921069e-02 7.40275904380532e-04
3.51668421052632e+00 4.90133955097933e-02 7.34771854186599e-04
3.52815789473684e+00 4.85695470965864e-02 7.29304845585862e-04
3.53963157894737e+00 4.81297180208965e-02 7.23874685991231e-04
3.55110526315789e+00 4.76938718862055e-02 7.18481182824448e-04
3.56257894736842e+00 4.72619726231745e-02 7.13124143614225e-04
3.57405263157895e+00 4.68339844914830e-02 7.07803375475156e-04
3.58552631578947e+00 4.64098720732596e-02 7.02518687072373e-04
3.59700000000000e+00 4.59896002702276e-02 6.97269885775330e-04
3.60847368421053e+00 4.55731343042426e-02 6.92056779556348e-04
3.61994736842105e+00 4.51604397098309e-02 6.86879176592827e-04
