Energy (eV)          EEDF (eV^-(3/2))     First Anisotropy
5.87500000000000e-03 2.78842252326221e+00 2.53993114525566e-03
1.76250000000000e-02 2.72874133093039e+00 4.16326019340922e-03
2.93750000000000e-02 2.67033750767970e+00 5.41475039407894e-03
4.11250000000000e-02 2.61318371371220e+00 6.31749476801821e-03
5.28750000000000e-02 2.55725319438893e+00 7.03165702403497e-03
6.46250000000000e-02 2.50251976770606e+00 7.61918860890633e-03
7.63750000000000e-02 2.44895781203864e+00 8.11284327485113e-03
8.81250000000000e-02 2.39654225414674e+00 8.53280905336245e-03
9.98750000000000e-02 2.34524855743823e+00 8.89274067026452e-03
1.11625000000000e-01 2.29505271048283e+00 9.20247251155060e-03
1.23375000000000e-01 2.24593121577190e+00 9.46941664441585e-03
1.35125000000000e-01 2.19786107871896e+00 9.69935500149379e-03
1.46875000000000e-01 2.15081979689544e+00 9.89692105133688e-03
1.58625000000000e-01 2.10478534949701e+00 1.00659091107481e-02
1.70375000000000e-01 2.05973618703519e+00 1.02094818490490e-02
1.82125000000000e-01 2.01565122124977e+00 1.03303145744105e-02
1.93875000000000e-01 1.97250981523697e+00 1.04306986157216e-02
2.05625000000000e-01 1.93029177378901e+00 1.05126173078624e-02
2.17375000000000e-01 1.88897733394035e+00 1.05778030796305e-02
2.29125000000000e-01 1.84854715571638e+00 1.06277811715480e-02
2.40875000000000e-01 1.80898231308000e+00 1.06639036821171e-02
2.52625000000000e-01 1.77026428507207e+00 1.06873764800130e-02
2.64375000000000e-01 1.73237494714143e+00 1.06992807618928e-02
2.76125000000000e-01 1.69529656266046e+00 1.07005905287082e-02
2.87875000000000e-01 1.65901177462233e+00 1.06921869070548e-02
2.99625000000000e-01 1.62350359751587e+00 1.06748700007309e-02
3.11375000000000e-01 1.58875540937434e+00 1.06493687865109e-02
3.23125000000000e-01 1.55475094399449e+00 1.06163494447913e-02
3.34875000000000e-01 1.52147428332198e+00 1.05764224255950e-02
3.46625000000000e-01 1.48890984999996e+00 1.05301484835994e-02
3.58375000000000e-01 1.45704240007701e+00 1.04780438657484e-02
3.70125000000000e-01 1.42585701587120e+00 1.04205847969976e-02
3.81875000000000e-01 1.39533909898687e+00 1.03582113806062e-02
3.93625000000000e-01 1.36547436348088e+00 1.02913310068472e-02
4.05375000000000e-01 1.33624882917516e+00 1.02203213463947e-02
4.17125000000000e-01 1.30764881511230e+00 1.01455329907840e-02
4.28875000000000e-01 1.27966093315128e+00 1.00672917913328e-02
4.40625000000000e-01 1.25227208170029e+00 9.98590093911002e-03
4.52375000000000e-01 1.22546943958365e+00 9.90164282144939e-03
4.64125000000000e-01 1.19924046003996e+00 9.81478068476614e-03
4.75875000000000e-01 1.17357286484882e+00 9.72556012874501e-03
4.87625000000000e-01 1.14845463858314e+00 9.63421045312917e-03
4.99375000000000e-01 1.12387402298453e+00 9.54094587516776e-03
5.11125000000000e-01 1.09981951145909e+00 9.44596663315445e-03
5.22875000000000e-01 1.07627984369095e+00 9.34945998929861e-03
5.34625000000000e-01 1.05324400037115e+00 9.25160114333466e-03
5.46375000000000e-01 1.03070119803931e+00 9.15255406673782e-03
5.58125000000000e-01 1.00864088403572e+00 9.05247226611119e-03
5.69875000000000e-01 9.87052731561441e-01 8.95149948320182e-03
5.81625000000000e-01 9.65926634844202e-01 8.84977033806689e-03
5.93375000000000e-01 9.45252704407684e-01 8.74741092110508e-03
6.05125000000000e-01 9.25021262442108e-01 8.64453933898065e-03
6.16875000000000e-01 9.05222838273887e-01 8.54126621887383e-03
6.28625000000000e-01 8.85848163932248e-01 8.43769517497917e-03
6.40375000000000e-01 8.66888169810742e-01 8.33392324073058e-03
6.52125000000000e-01 8.48333980421609e-01 8.23004126984539e-03
6.63875000000000e-01 8.30176910241015e-01 8.12613430894446e-03
6.75625000000000e-01 8.12408459643217e-01 8.02228194421284e-03
6.87375000000000e-01 7.95020310921744e-01 7.91855862430685e-03
6.99125000000000e-01 7.78004324395741e-01 7.81503396148743e-03
7.10875000000000e-01 7.61352534599653e-01 7.71177301276393e-03
7.22625000000000e-01 7.45057146554453e-01 7.60883654265211e-03
7.34375000000000e-01 7.29110532118687e-01 7.50628126899844e-03
7.46125000000000e-01 7.13505226417611e-01 7.40416009318388e-03
7.57875000000000e-01 6.98233924348765e-01 7.30252231589597e-03
7.69625000000000e-01 6.83289477162326e-01 7.20141383955254e-03
7.81375000000000e-01 6.68664889114665e-01 7.10087735835951e-03
7.93125000000000e-01 6.54353314193524e-01 7.00095253690005e-03
8.04875000000000e-01 6.40348052913277e-01 6.90167617807359e-03
8.16625000000000e-01 6.26642549178799e-01 6.80308238113315e-03
8.28375000000000e-01 6.13230387216442e-01 6.70520269050682e-03
8.40125000000000e-01 6.00105288570708e-01 6.60806623603115e-03
8.51875000000000e-01 5.87261109165200e-01 6.51169986517479e-03
8.63625000000000e-01 5.74691836426477e-01 6.41612826778283e-03
8.75375000000000e-01 5.62391586469469e-01 6.32137409383041e-03
8.87125000000000e-01 5.50354601343132e-01 6.22745806463740e-03
8.98875000000000e-01 5.38575246335056e-01 6.13439907795977e-03
9.10625000000000e-01 5.27048007333765e-01 6.04221430734242e-03
9.22375000000000e-01 5.15767488247468e-01 5.95091929609053e-03
9.34125000000000e-01 5.04728408478055e-01 5.86052804618751e-03
9.45875000000000e-01 4.93925600449169e-01 5.77105310246718e-03
9.57625000000000e-01 4.83354007187173e-01 5.68250563232460e-03
9.69375000000000e-01 4.73008679953898e-01 5.59489550122803e-03
9.81125000000000e-01 4.62884775930055e-01 5.50823134427941e-03
9.92875000000000e-01 4.52977555948235e-01 5.42252063405159e-03
1.00462500000000e+00 4.43282382274420e-01 5.33776974491563e-03
1.01637500000000e+00 4.33794716436990e-01 5.25398401405778e-03
1.02812500000000e+00 4.24510117102182e-01 5.17116779937181e-03
1.03987500000000e+00 4.15424237995034e-01 5.08932453440048e-03
1.05162500000000e+00 4.06532825864818e-01 5.00845678048892e-03
1.06337500000000e+00 3.97831718494023e-01 4.92856627630268e-03
1.07512500000000e+00 3.89316842749953e-01 4.84965398485213e-03
1.08687500000000e+00 3.80984212678026e-01 4.77172013815775e-03
1.09862500000000e+00 3.72829927635883e-01 4.69476427968188e-03
1.11037500000000e+00 3.64850170467432e-01 4.61878530464496e-03
1.12212500000000e+00 3.57041205715970e-01 4.54378149833655e-03
1.13387500000000e+00 3.49399377875564e-01 4.46975057252584e-03
1.14562500000000e+00 3.41921109679835e-01 4.39668970006988e-03
1.15737500000000e+00 3.34602900427391e-01 4.32459554781147e-03
1.16912500000000e+00 3.27441324343086e-01 4.25346430785404e-03
1.18087500000000e+00 3.20433028974357e-01 4.18329172729541e-03
1.19262500000000e+00 3.13574733621886e-01 4.11407313649842e-03
1.20437500000000e+00 3.06863227803854e-01 4.04580347597055e-03
1.21612500000000e+00 3.00295369753055e-01 3.97847732192219e-03
1.22787500000000e+00 2.93868084946187e-01 3.91208891056888e-03
1.23962500000000e+00 2.87578364664614e-01 3.84663216123866e-03
1.25137500000000e+00 2.81423264585939e-01 3.78210069834314e-03
1.26312500000000e+00 2.75399903405712e-01 3.71848787226782e-03
1.27487500000000e+00 2.69505461488648e-01 3.65578677923320e-03
1.28662500000000e+00 2.63737179548708e-01 3.59399028017659e-03
1.29837500000000e+00 2.58092357357432e-01 3.53309101870159e-03
1.31012500000000e+00 2.52568352479913e-01 3.47308143813946e-03
1.32187500000000e+00 2.47162579037835e-01 3.41395379776477e-03
1.33362500000000e+00 2.41872506498980e-01 3.35570018820536e-03
1.34537500000000e+00 2.36695658492637e-01 3.29831254608414e-03
1.35712500000000e+00 2.31629611650381e-01 3.24178266792947e-03
1.36887500000000e+00 2.26671994471650e-01 3.18610222338800e-03
1.38062500000000e+00 2.21820486213603e-01 3.13126276777249e-03
1.39237500000000e+00 2.17072815804748e-01 3.07725575397573e-03
1.40412500000000e+00 2.12426760781811e-01 3.02407254377972e-03
1.41587500000000e+00 2.07880146249366e-01 2.97170441858845e-03
1.42762500000000e+00 2.03430843861730e-01 2.92014258961075e-03
1.43937500000000e+00 1.99076770826651e-01 2.86937820751847e-03
1.45112500000000e+00 1.94815888930315e-01 2.81940237160409e-03
1.46287500000000e+00 1.90646203583224e-01 2.77020613846105e-03
1.47462500000000e+00 1.86565762886502e-01 2.72178053020826e-03
1.48637500000000e+00 1.82572656718171e-01 2.67411654228007e-03
1.49812500000000e+00 1.78665015838995e-01 2.62720515080116e-03
1.50987500000000e+00 1.74841011017458e-01 2.58103731956561e-03
1.52162500000000e+00 1.71098852173470e-01 2.53560400663815e-03
1.53337500000000e+00 1.67436787540401e-01 2.49089617059457e-03
1.54512500000000e+00 1.63853102845048e-01 2.44690477641831e-03
1.55687500000000e+00 1.60346120505160e-01 2.40362080106814e-03
1.56862500000000e+00 1.56914198844128e-01 2.36103523873253e-03
1.58037500000000e+00 1.53555731322494e-01 2.31913910578461e-03
1.59212500000000e+00 1.50269145785900e-01 2.27792344545170e-03
1.60387500000000e+00 1.47052903729137e-01 2.23737933221200e-03
1.61562500000000e+00 1.43905499575948e-01 2.19749787593132e-03
1.62737500000000e+00 1.40825459974239e-01 2.15827022575139e-03
1.63912500000000e+00 1.37811343106380e-01 2.11968757374133e-03
1.65087500000000e+00 1.34861738014266e-01 2.08174115832283e-03
1.66262500000000e+00 1.31975263938826e-01 2.04442226747977e-03
1.67437500000000e+00 1.29150569673663e-01 2.00772224176205e-03
1.68612500000000e+00 1.26386332932535e-01 1.97163247709289e-03
1.69787500000000e+00 1.23681259730371e-01 1.93614442738880e-03
1.70962500000000e+00 1.21034083777531e-01 1.90124960700105e-03
1.72137500000000e+00 1.18443565887042e-01 1.86693959298653e-03
1.73312500000000e+00 1.15908493394505e-01 1.83320602721629e-03
1.74487500000000e+00 1.13427679590436e-01 1.80004061832911e-03
1.75662500000000e+00 1.10999963164740e-01 1.76743514353734e-03
1.76837500000000e+00 1.08624207663087e-01 1.73538145029197e-03
1.78012500000000e+00 1.06299300954918e-01 1.70387145781352e-03
1.79187500000000e+00 1.04024154712836e-01 1.67289715849527e-03
1.80362500000000e+00 1.01797703903145e-01 1.64245061918454e-03
1.81537500000000e+00 9.96189062872886e-02 1.61252398234817e-03
1.82712500000000e+00 9.74867419339600e-02 1.58310946712748e-03
1.83887500000000e+00 9.54002127416568e-02 1.55419937028823e-03
1.85062500000000e+00 9.33583419714525e-02 1.52578606707042e-03
1.86237500000000e+00 9.13601737897687e-02 1.49786201194314e-03
1.87412500000000e+00 8.94047728209335e-02 1.47041973926870e-03
1.88587500000000e+00 8.74912237093170e-02 1.44345186388081e-03
1.89762500000000e+00 8.56186306908377e-02 1.41695108158105e-03
1.90937500000000e+00 8.37861171736408e-02 1.39091016955745e-03
1.92112500000000e+00 8.19928253277509e-02 1.36532198672940e-03
1.93287500000000e+00 8.02379156835075e-02 1.34017947402241e-03
1.94462500000000e+00 7.85205667385954e-02 1.31547565457642e-03
1.95637500000000e+00 7.68399745734857e-02 1.29120363389100e-03
1.96812500000000e+00 7.51953524751082e-02 1.26735659991079e-03
1.97987500000000e+00 7.35859305685772e-02 1.24392782305417e-03
1.99162500000000e+00 7.20109554568009e-02 1.22091065618844e-03
2.00337500000000e+00 7.04696898678037e-02 1.19829853455400e-03
2.01512500000000e+00 6.89614123095964e-02 1.17608497564059e-03
2.02687500000000e+00 6.74854167324346e-02 1.15426357901808e-03
2.03862500000000e+00 6.60410121983046e-02 1.13282802612432e-03
2.05037500000000e+00 6.46275225574838e-02 1.11177208001255e-03
2.06212500000000e+00 6.32442861320242e-02 1.09108958506052e-03
2.07387500000000e+00 6.18906554060098e-02 1.07077446664358e-03
2.08562500000000e+00 6.05659967224434e-02 1.05082073077405e-03
2.09737500000000e+00 5.92696899866215e-02 1.03122246370843e-03
2.10912500000000e+00 5.80011283758578e-02 1.01197383152486e-03
2.12087500000000e+00 5.67597180554192e-02 9.93069079672347e-04
2.13262500000000e+00 5.55448779005419e-02 9.74502532493666e-04
2.14437500000000e+00 5.43560392243975e-02 9.56268592723603e-04
2.15612500000000e+00 5.31926455118810e-02 9.38361740964009e-04
2.16787500000000e+00 5.20541521590970e-02 9.20776535137414e-04
2.17962500000000e+00 5.09400262184216e-02 9.03507609920611e-04
2.19137500000000e+00 4.98497461490207e-02 8.86549676159478e-04
2.20312500000000e+00 4.87828015727079e-02 8.69897520266464e-04
2.21487500000000e+00 4.77386930350286e-02 8.53546003602129e-04
2.22662500000000e+00 4.67169317714563e-02 8.37490061841774e-04
2.23837500000000e+00 4.57170394785944e-02 8.21724704328409e-04
2.25012500000000e+00 4.47385480902743e-02 8.06245013413259e-04
2.26187500000000e+00 4.37809995584457e-02 7.91046143784691e-04
2.27362500000000e+00 4.28439456387568e-02 7.76123321786697e-04
2.28537500000000e+00 4.19269476807239e-02 7.61471844727931e-04
2.29712500000000e+00 4.10295764223916e-02 7.47087080182087e-04
2.30887500000000e+00 4.01514117893879e-02 7.32964465280610e-04
2.32062500000000e+00 3.92920426982812e-02 7.19099505998569e-04
2.33237500000000e+00 3.84510668641444e-02 7.05487776434399e-04
2.34412500000000e+00 3.76280906122393e-02 6.92124918084355e-04
2.35587500000000e+00 3.68227286937309e-02 6.79006639112425e-04
2.36762500000000e+00 3.60346041053455e-02 6.66128713616315e-04
2.37937500000000e+00 3.52633479128898e-02 6.53486980890173e-04
2.39112500000000e+00 3.45085990785464e-02 6.41077344684724e-04
2.40287500000000e+00 3.37700042918660e-02 6.28895772465361e-04
2.41462500000000e+00 3.30472178043771e-02 6.16938294668742e-04
2.42637500000000e+00 3.23399012677352e-02 6.05201003958518e-04
2.43812500000000e+00 3.16477235753363e-02 5.93680054480605e-04
2.44987500000000e+00 3.09703607073207e-02 5.82371661118481e-04
2.46162500000000e+00 3.03074955788937e-02 5.71272098749035e-04
2.47337500000000e+00 2.96588178918929e-02 5.60377701499344e-04
2.48512500000000e+00 2.90240239895327e-02 5.49684862004793e-04
2.49687500000000e+00 2.84028167142574e-02 5.39190030668933e-04
2.50862500000000e+00 2.77949052686366e-02 5.28889714925447e-04
2.52037500000000e+00 2.72000050792385e-02 5.18780478502566e-04
2.53212500000000e+00 2.66178376634162e-02 5.08858940690269e-04
2.54387500000000e+00 2.60481304989453e-02 4.99121775610540e-04
2.55562500000000e+00 2.54906168964516e-02 4.89565711490995e-04
2.56737500000000e+00 2.49450358745697e-02 4.80187529942194e-04
2.57912500000000e+00 2.44111320377731e-02 4.70984065238830e-04
2.59087500000000e+00 2.38886554568193e-02 4.61952203605027e-04
2.60262500000000e+00 2.33773615517538e-02 4.53088882504069e-04
2.61437500000000e+00 2.28770109774182e-02 4.44391089932673e-04
2.62612500000000e+00 2.23873695114088e-02 4.35855863720035e-04
2.63787500000000e+00 2.19082079444330e-02 4.27480290831852e-04
2.64962500000000e+00 2.14393019730131e-02 4.19261506679494e-04
2.66137500000000e+00 2.09804320944854e-02 4.11196694434443e-04
2.67312500000000e+00 2.05313835042480e-02 4.03283084348193e-04
2.68487500000000e+00 2.00919459952069e-02 3.95517953077752e-04
2.69662500000000e+00 1.96619138593747e-02 3.87898623016811e-04
2.70837500000000e+00 1.92410857915752e-02 3.80422461632781e-04
2.72012500000000e+00 1.88292647952091e-02 3.73086880809763e-04
2.73187500000000e+00 1.84262580900365e-02 3.65889336197534e-04
2.74362500000000e+00 1.80318770219337e-02 3.58827326566676e-04
2.75537500000000e+00 1.76459369745806e-02 3.51898393169937e-04
2.76712500000000e+00 1.72682572830391e-02 3.45100119109825e-04
2.77887500000000e+00 1.68986611491805e-02 3.38430128712578e-04
2.79062500000000e+00 1.65369755589235e-02 3.31886086908569e-04
2.80237500000000e+00 1.61830312012438e-02 3.25465698619113e-04
2.81412500000000e+00 1.58366623889163e-02 3.19166708149842e-04
2.82587500000000e+00 1.54977069809541e-02 3.12986898590597e-04
2.83762500000000e+00 1.51660063067082e-02 3.06924091221892e-04
2.84937500000000e+00 1.48414050915908e-02 3.00976144928019e-04
2.86112500000000e+00 1.45237513843884e-02 2.95140955616756e-04
2.87287500000000e+00 1.42128964861314e-02 2.89416455645738e-04
2.88462500000000e+00 1.39086948804855e-02 2.83800613255469e-04
2.89637500000000e+00 1.36110041656329e-02 2.78291432009029e-04
2.90812500000000e+00 1.33196849876118e-02 2.72886950238448e-04
2.91987500000000e+00 1.30346009750825e-02 2.67585240497736e-04
2.93162500000000e+00 1.27556186754899e-02 2.62384409022593e-04
2.94337500000000e+00 1.24826074925915e-02 2.57282595196774e-04
2.95512500000000e+00 1.22154396253240e-02 2.52277971025103e-04
2.96687500000000e+00 1.19539900079768e-02 2.47368740613104e-04
2.97862500000000e+00 1.16981362516471e-02 2.42553139653265e-04
2.99037500000000e+00 1.14477585869475e-02 2.37829434917881e-04
3.00212500000000e+00 1.12027398079397e-02 2.33195923758457e-04
3.01387500000000e+00 1.09629652172689e-02 2.28650933611660e-04
3.02562500000000e+00 1.07283225724718e-02 2.24192821511762e-04
3.03737500000000e+00 1.04987020334341e-02 2.19819973609594e-04
3.04912500000000e+00 1.02739961109725e-02 2.15530804697903e-04
3.06087500000000e+00 1.00540996165171e-02 2.11323757743129e-04
3.07262500000000e+00 9.83890961287129e-03 2.07197303423553e-04
3.08437500000000e+00 9.62832536602473e-03 2.03149939673762e-04
3.09612500000000e+00 9.42224829799827e-03 1.99180191235411e-04
3.10787500000000e+00 9.22058194069792e-03 1.95286609214209e-04
3.11962500000000e+00 9.02323189075655e-03 1.91467770643097e-04
3.13137500000000e+00 8.83010576534210e-03 1.87722278051587e-04
3.14312500000000e+00 8.64111315891166e-03 1.84048759041188e-04
3.15487500000000e+00 8.45616560089112e-03 1.80445865866894e-04
3.16662500000000e+00 8.27517651426063e-03 1.76912275024653e-04
3.17837500000000e+00 8.09806117502647e-03 1.73446686844797e-04
3.19012500000000e+00 7.92473667256033e-03 1.70047825091366e-04
3.20187500000000e+00 7.75512187078744e-03 1.66714436567249e-04
3.21362500000000e+00 7.58913737020552e-03 1.63445290725148e-04
3.22537500000000e+00 7.42670547071646e-03 1.60239179284248e-04
3.23712500000000e+00 7.26775013525366e-03 1.57094915852562e-04
3.24887500000000e+00 7.11219695418782e-03 1.54011335554917e-04
3.26062500000000e+00 6.95997311049454e-03 1.50987294666478e-04
3.27237500000000e+00 6.81100734566746e-03 1.48021670251781e-04
3.28412500000000e+00 6.66522992636101e-03 1.45113359809227e-04
3.29587500000000e+00 6.52257261174702e-03 1.42261280920955e-04
3.30762500000000e+00 6.38296862157011e-03 1.39464370908038e-04
3.31937500000000e+00 6.24635260488670e-03 1.36721586490958e-04
3.33112500000000e+00 6.11266060947316e-03 1.34031903455304e-04
3.34287500000000e+00 5.98183005188875e-03 1.31394316322605e-04
3.35462500000000e+00 5.85379968817922e-03 1.28807838026262e-04
3.36637500000000e+00 5.72850958520752e-03 1.26271499592527e-04
3.37812500000000e+00 5.60590109259812e-03 1.23784349826437e-04
3.38987500000000e+00 5.48591681528179e-03 1.21345455002681e-04
3.40162500000000e+00 5.36850058662798e-03 1.18953898561323e-04
3.41337500000000e+00 5.25359744215235e-03 1.16608780808304e-04
3.42512500000000e+00 5.14115359378694e-03 1.14309218620703e-04
3.43687500000000e+00 5.03111640470109e-03 1.12054345156669e-04
3.44862500000000e+00 4.92343436466127e-03 1.09843309569970e-04
3.46037500000000e+00 4.81805706591829e-03 1.07675276729107e-04
3.47212500000000e+00 4.71493517961060e-03 1.05549426940934e-04
3.48387500000000e+00 4.61402043267261e-03 1.03464955678719e-04
3.49562500000000e+00 4.51526558523728e-03 1.01421073314582e-04
3.50737500000000e+00 4.41862440852239e-03 9.94170048562779e-05
3.51912500000000e+00 4.32405166318999e-03 9.74519896882439e-05
3.53087500000000e+00 4.23150307816922e-03 9.55252813168591e-05
3.54262500000000e+00 4.14093532993221e-03 9.36361471198625e-05
3.55437500000000e+00 4.05230602221366e-03 9.17838680998721e-05
3.56612500000000e+00 3.96557366616444e-03 8.99677386419478e-05
3.57787500000000e+00 3.88069766092994e-03 8.81870662751448e-05
3.58962500000000e+00 3.79763827464418e-03 8.64411714379987e-05
3.60137500000000e+00 3.71635662583063e-03 8.47293872478899e-05
3.61312500000000e+00 3.63681466520117e-03 8.30510592742328e-05
3.62487500000000e+00 3.55897515784458e-03 8.14055453154320e-05
3.63662500000000e+00 3.48280166579625e-03 7.97922151795569e-05
3.64837500000000e+00 3.40825853098096e-03 7.82104504686836e-05
3.66012500000000e+00 3.33531085852079e-03 7.66596443668406e-05
3.67187500000000e+00 3.26392450040017e-03 7.51392014315134e-05
3.68362500000000e+00 3.19406603948072e-03 7.36485373886594e-05
3.69537500000000e+00 3.12570277385804e-03 7.21870789311766e-05
3.70712500000000e+00 3.05880270155348e-03 7.07542635207724e-05
