Energy (eV)          EEDF (eV^-(3/2))     First Anisotropy
3.30000000000000e-01 3.59632453395899e-01 1.14817406019037e-03
9.90000000000000e-01 2.53719347628152e-01 1.62223142619350e-03
1.65000000000000e+00 1.78998048571523e-01 1.52106797006565e-03
2.31000000000000e+00 1.26282452213188e-01 1.27939896181920e-03
2.97000000000000e+00 8.90917966103080e-02 1.02661996496764e-03
3.63000000000000e+00 6.28539285082362e-02 8.01958092546822e-04
4.29000000000000e+00 4.43432109265757e-02 6.15611833545393e-04
4.95000000000000e+00 3.12839690683952e-02 4.66784926865950e-04
5.61000000000000e+00 2.20707228958416e-02 3.50712582628819e-04
6.27000000000000e+00 1.55708122610675e-02 2.61644236220286e-04
6.93000000000000e+00 1.09851496760485e-02 1.94097880068649e-04
7.59000000000000e+00 7.74998191371912e-03 1.43328100398483e-04
8.25000000000000e+00 5.46758318586501e-03 1.05433717392239e-04
8.91000000000000e+00 3.85735943995356e-03 7.73078047874475e-05
9.57000000000000e+00 2.72135262385493e-03 5.65281745858982e-05
1.02300000000000e+01 1.91990407392557e-03 4.12349744761336e-05
1.08900000000000e+01 1.35448512653776e-03 3.00162548368826e-05
1.15500000000000e+01 9.55584178880769e-04 2.18094586204147e-05
1.22100000000000e+01 6.74161055766881e-04 1.58205082397943e-05
1.28700000000000e+01 4.75618097450130e-04 1.14593103229154e-05
1.35300000000000e+01 3.35546784684495e-04 8.28939842095716e-06
1.41900000000000e+01 2.36726998648129e-04 5.98920022130515e-06
1.48500000000000e+01 1.67010010069516e-04 4.32258190409681e-06
1.55100000000000e+01 1.17824935992532e-04 3.11664484847398e-06
1.61700000000000e+01 8.31250506234067e-05 2.24510695677122e-06
1.68300000000000e+01 5.86444115834859e-05 1.61593546263036e-06
1.74900000000000e+01 4.13734125174161e-05 1.16218751933080e-06
1.81500000000000e+01 2.91887874243470e-05 8.35253816965446e-07
1.88100000000000e+01 2.05925801006884e-05 5.99891868948649e-07
1.94700000000000e+01 1.45279880605645e-05 4.30585703033175e-07
2.01300000000000e+01 1.02494411120853e-05 3.08884592750642e-07
2.07900000000000e+01 7.23094227997475e-06 2.21461914096056e-07
2.14500000000000e+01 5.10140267010992e-06 1.58702091409710e-07
2.21100000000000e+01 3.59902045887933e-06 1.13673792827724e-07
2.27700000000000e+01 2.53909544120595e-06 8.13849832355341e-08
2.34300000000000e+01 1.79132231483906e-06 5.82432389055795e-08
2.40900000000000e+01 1.26377117754830e-06 4.16652728740137e-08
2.47500000000000e+01 8.91585827950402e-07 2.97947503546776e-08
2.54100000000000e+01 6.29010459111869e-07 2.12985813420289e-08
2.60700000000000e+01 4.43764520777168e-07 1.52200102065330e-08
2.67300000000000e+01 3.13074205759059e-07 1.08727622278291e-08
2.73900000000000e+01 2.20872678464720e-07 7.76483657777565e-09
2.80500000000000e+01 1.55824846617111e-07 5.54368501619889e-09
2.87100000000000e+01 1.09933845109434e-07 3.95680314956900e-09
2.93700000000000e+01 7.75579155886548e-08 2.82342001021303e-09
3.00300000000000e+01 5.47168186873572e-08 2.01417307170914e-09
3.06900000000000e+01 3.86025104535310e-08 1.43652474281959e-09
3.13500000000000e+01 2.72339264062383e-08 1.02430415398599e-09
3.20100000000000e+01 1.92134329810812e-08 7.30211125048890e-10
3.26700000000000e+01 1.35550049380297e-08 5.20445883894530e-10
3.33300000000000e+01 9.56300516679819e-09 3.70863446238128e-10
3.39900000000000e+01 6.74666429398599e-09 2.64220968096496e-10
3.46500000000000e+01 4.75974636652689e-09 1.88208228193758e-10
3.53100000000000e+01 3.35798321755253e-09 1.34038976493448e-10
3.59700000000000e+01 2.36904457108550e-09 9.54437931071406e-11
3.66300000000000e+01 1.67135206348061e-09 6.79502612671815e-11
3.72900000000000e+01 1.17913261497691e-09 4.83686579344786e-11
3.79500000000000e+01 8.31873639361689e-10 3.44245986738078e-11
3.86100000000000e+01 5.86883733920305e-10 2.44967248591262e-11
3.92700000000000e+01 4.14044274085338e-10 1.74294499279956e-11
3.99300000000000e+01 2.92106683137574e-10 1.23993229834025e-11
4.05900000000000e+01 2.06080169861372e-10 8.81968171416762e-12
4.12500000000000e+01 1.45388787253766e-10 6.27264075362570e-12
4.19100000000000e+01 1.02571244352817e-10 4.46058998893512e-12
4.25700000000000e+01 7.23636283568542e-11 3.17161396184194e-12
4.32300000000000e+01 5.10522685184243e-11 2.25484202542327e-12
4.38900000000000e+01 3.60171840475496e-11 1.60288102149810e-12
4.45500000000000e+01 2.54099883190675e-11 1.13929799118280e-12
4.52100000000000e+01 1.79266514984276e-11 8.09702910331360e-13
4.58700000000000e+01 1.26471854260920e-11 5.75397240858203e-13
4.65300000000000e+01 8.92254190449245e-12 4.08850825507677e-13
4.71900000000000e+01 6.29481986349148e-12 2.90481366683203e-13
4.78500000000000e+01 4.44097181475339e-12 2.06361744274605e-13
4.85100000000000e+01 3.13308896634492e-12 1.46588120327185e-13
4.91700000000000e+01 2.21038251997494e-12 1.04118560260100e-13
4.98300000000000e+01 1.55941658123757e-12 7.39466317671753e-14
5.04900000000000e+01 1.10016255189453e-12 5.25134479682228e-14
5.11500000000000e+01 7.76160555911570e-13 3.72894138547916e-14
5.18100000000000e+01 5.47578362411588e-13 2.64767342170143e-14
5.24700000000000e+01 3.86314481839654e-13 1.87978433997876e-14
5.31300000000000e+01 2.72543418665738e-13 1.33449598805960e-14
5.37900000000000e+01 1.92278360118114e-13 9.47311915983685e-15
5.44500000000000e+01 1.35651662222137e-13 6.72412886817233e-15
5.51100000000000e+01 9.57017391469587e-14 4.77251326648903e-15
5.57700000000000e+01 6.75172181875255e-14 3.38709290194857e-15
5.64300000000000e+01 4.76331443128930e-14 2.40368002560334e-15
5.70900000000000e+01 3.36050047386593e-14 1.70567580574510e-15
5.77500000000000e+01 2.37082048597754e-14 1.21028401123938e-15
5.84100000000000e+01 1.67260496477914e-14 8.58716355218805e-16
5.90700000000000e+01 1.18001653214596e-14 6.09234435396092e-16
5.97300000000000e+01 8.32497239610697e-15 4.32207239108823e-16
6.03900000000000e+01 5.87323681558135e-15 3.06600679111918e-16
6.10500000000000e+01 4.14354655494488e-15 2.17484468058507e-16
6.17100000000000e+01 2.92325656058125e-15 1.54261658870591e-16
6.23700000000000e+01 2.06234654435903e-15 1.09411482949803e-16
6.30300000000000e+01 1.45497775541943e-15 7.75967427216784e-17
6.36900000000000e+01 1.02648135181535e-15 5.50300952452525e-17
6.43500000000000e+01 7.24178745482553e-16 3.90241736213843e-17
6.50100000000000e+01 5.10905390030917e-16 2.76722402396959e-17
6.56700000000000e+01 3.60441837310085e-16 2.30097428585796e-17
