Energy (eV)          EEDF (eV^-(3/2))     First Anisotropy
2.00000000000000e-02 1.47276746129603e-01 2.69236011586550e-04
6.00000000000000e-02 1.45763581450784e-01 1.56904599913011e-04
1.00000000000000e-01 1.44265963471943e-01 2.06391413967118e-04
1.40000000000000e-01 1.42783732461494e-01 2.43539347865775e-04
1.80000000000000e-01 1.41316730329149e-01 2.74152992255975e-04
2.20000000000000e-01 1.39864800608916e-01 3.00438163397807e-04
2.60000000000000e-01 1.38427788442386e-01 3.23541893905686e-04
3.00000000000000e-01 1.37005540562213e-01 3.44160106389276e-04
3.40000000000000e-01 1.35597905275768e-01 3.62756489849940e-04
3.80000000000000e-01 1.34204732448957e-01 3.79660272557231e-04
4.20000000000000e-01 1.32825873490209e-01 3.95116271423497e-04
4.60000000000000e-01 1.31461181334626e-01 4.09313065248193e-04
5.00000000000000e-01 1.30110510428297e-01 4.22400011591888e-04
5.40000000000000e-01 1.28773716712777e-01 4.34498101630384e-04
5.80000000000000e-01 1.27450657609719e-01 4.45707193140826e-04
6.20000000000000e-01 1.26141192005668e-01 4.56111005537149e-04
6.60000000000000e-01 1.24845180237010e-01 4.65780674006566e-04
7.00000000000000e-01 1.23562484075078e-01 4.74777343363730e-04
7.40000000000000e-01 1.22292966711404e-01 4.83154102845593e-04
7.80000000000000e-01 1.21036492743133e-01 4.90957456970384e-04
8.20000000000000e-01 1.19792928158577e-01 4.98228462515460e-04
8.60000000000000e-01 1.18562140322925e-01 5.05003620488920e-04
9.00000000000000e-01 1.17343997964095e-01 5.11315585180451e-04
9.40000000000000e-01 1.16138371158732e-01 5.17193734519860e-04
9.80000000000000e-01 1.14945131318352e-01 5.22664633807280e-04
1.02000000000000e+00 1.13764151175629e-01 5.27752416430250e-04
1.06000000000000e+00 1.12595304770817e-01 5.32479099210760e-04
1.10000000000000e+00 1.11438467438317e-01 5.36864845735981e-04
1.14000000000000e+00 1.10293515793383e-01 5.40928187900926e-04
1.18000000000000e+00 1.09160327718959e-01 5.44686213583247e-04
1.22000000000000e+00 1.08038782352656e-01 5.48154726645491e-04
1.26000000000000e+00 1.06928760073861e-01 5.51348384155648e-04
1.30000000000000e+00 1.05830142490978e-01 5.54280814720740e-04
1.34000000000000e+00 1.04742812428802e-01 5.56964721060069e-04
1.38000000000000e+00 1.03666653916018e-01 5.59411969346894e-04
1.42000000000000e+00 1.02601552172838e-01 5.61633667377723e-04
1.46000000000000e+00 1.01547393598753e-01 5.63640233257443e-04
1.50000000000000e+00 1.00504065760420e-01 5.65441455993109e-04
1.54000000000000e+00 9.94714573796692e-02 5.67046549151335e-04
1.58000000000000e+00 9.84494583216350e-02 5.68464198543246e-04
1.62000000000000e+00 9.74379595830105e-02 5.69702604744842e-04
1.66000000000000e+00 9.64368532804206e-02 5.70769521133509e-04
1.70000000000000e+00 9.54460326389157e-02 5.71672288017085e-04
1.74000000000000e+00 9.44653919805837e-02 5.72417863345188e-04
1.78000000000000e+00 9.34948267132783e-02 5.73012850421117e-04
1.82000000000000e+00 9.25342333194638e-02 5.73463522972701e-04
1.86000000000000e+00 9.15835093451743e-02 5.73775847890412e-04
1.90000000000000e+00 9.06425533890859e-02 5.73955505898963e-04
1.94000000000000e+00 8.97112650917019e-02 5.74007910393165e-04
1.98000000000000e+00 8.87895451246487e-02 5.73938224638277e-04
2.02000000000000e+00 8.78772951800814e-02 5.73751377509761e-04
2.06000000000000e+00 8.69744179601993e-02 5.73452077925349e-04
2.10000000000000e+00 8.60808171668675e-02 5.73044828103241e-04
2.14000000000000e+00 8.51963974913468e-02 5.72533935764665e-04
2.18000000000000e+00 8.43210646041280e-02 5.71923525384452e-04
2.22000000000000e+00 8.34547251448711e-02 5.71217548581633e-04
2.26000000000000e+00 8.25972867124476e-02 5.70419793731655e-04
2.30000000000000e+00 8.17486578550856e-02 5.69533894872225e-04
2.34000000000000e+00 8.09087480606154e-02 5.68563339967448e-04
2.38000000000000e+00 8.00774677468164e-02 5.67511478587793e-04
2.42000000000000e+00 7.92547282518617e-02 5.66381529056931e-04
2.46000000000000e+00 7.84404418248624e-02 5.65176585111721e-04
2.50000000000000e+00 7.76345216165081e-02 5.63899622116730e-04
2.54000000000000e+00 7.68368816698035e-02 5.62553502870226e-04
2.58000000000000e+00 7.60474369109011e-02 5.61140983035381e-04
2.62000000000000e+00 7.52661031400271e-02 5.59664716226682e-04
2.66000000000000e+00 7.44927970225009e-02 5.58127258779045e-04
2.70000000000000e+00 7.37274360798469e-02 5.56531074224431e-04
2.74000000000000e+00 7.29699386809980e-02 5.54878537498250e-04
2.78000000000000e+00 7.22202240335883e-02 5.53171938896111e-04
2.82000000000000e+00 7.14782121753367e-02 5.51413487799372e-04
2.86000000000000e+00 7.07438239655182e-02 5.49605316186601e-04
2.90000000000000e+00 7.00169810765226e-02 5.47749481946166e-04
2.94000000000000e+00 6.92976059855011e-02 5.45847972004265e-04
2.98000000000000e+00 6.85856219660972e-02 5.43902705281236e-04
3.02000000000000e+00 6.78809530802636e-02 5.41915535487926e-04
3.06000000000000e+00 6.71835241701628e-02 5.39888253773100e-04
3.10000000000000e+00 6.64932608501514e-02 5.37822591231780e-04
3.14000000000000e+00 6.58100894988456e-02 5.35720221283837e-04
3.18000000000000e+00 6.51339372512698e-02 5.33582761931063e-04
3.22000000000000e+00 6.44647319910842e-02 5.31411777900698e-04
3.26000000000000e+00 6.38024023428938e-02 5.29208782682527e-04
3.30000000000000e+00 6.31468776646354e-02 5.26975240466205e-04
3.34000000000000e+00 6.24980880400432e-02 5.24712567985040e-04
3.38000000000000e+00 6.18559642711914e-02 5.22422136271745e-04
3.42000000000000e+00 6.12204378711146e-02 5.20105272331627e-04
3.46000000000000e+00 6.05914410565021e-02 5.17763260738001e-04
3.50000000000000e+00 5.99689067404694e-02 5.15397345154361e-04
3.54000000000000e+00 5.93527685254021e-02 5.13008729787652e-04
3.58000000000000e+00 5.87429606958746e-02 5.10598580776487e-04
3.62000000000000e+00 5.81394182116409e-02 5.08168027517868e-04
3.66000000000000e+00 5.75420767006976e-02 5.05718163936039e-04
3.70000000000000e+00 5.69508724524183e-02 5.03250049696579e-04
3.74000000000000e+00 5.63657424107583e-02 5.00764711368558e-04
3.78000000000000e+00 5.57866241675294e-02 4.98263143537776e-04
3.82000000000000e+00 5.52134559557432e-02 4.95746309873544e-04
3.86000000000000e+00 5.46461766430239e-02 4.93215144151375e-04
3.90000000000000e+00 5.40847257250874e-02 4.90670551234028e-04
3.94000000000000e+00 5.35290433192889e-02 4.88113408012932e-04
3.98000000000000e+00 5.29790701582350e-02 4.85544564312035e-04
4.02000000000000e+00 5.24347475834633e-02 4.82964843755910e-04
4.06000000000000e+00 5.18960175391857e-02 4.80375044603944e-04
4.10000000000000e+00 5.13628225660962e-02 4.77775940552204e-04
4.14000000000000e+00 5.08351057952429e-02 4.75168281504594e-04
4.18000000000000e+00 5.03128109419619e-02 4.72552794314793e-04
4.22000000000000e+00 4.97958822998749e-02 4.69930183500302e-04
4.26000000000000e+00 4.92842647349471e-02 4.67301131929903e-04
4.30000000000000e+00 4.87779036796071e-02 4.64666301485773e-04
4.34000000000000e+00 4.82767451269267e-02 4.62026333701473e-04
4.38000000000000e+00 4.77807356248611e-02 4.59381850376866e-04
4.42000000000000e+00 4.72898222705473e-02 4.56733454170974e-04
4.46000000000000e+00 4.68039527046618e-02 4.54081729173736e-04
4.50000000000000e+00 4.63230751058364e-02 4.51427241457673e-04
4.54000000000000e+00 4.58471381851309e-02 4.48770539610338e-04
4.58000000000000e+00 4.53760911805628e-02 4.46112155248271e-04
4.62000000000000e+00 4.49098838516929e-02 4.43452603513365e-04
4.66000000000000e+00 4.44484664742675e-02 4.40792383552345e-04
4.70000000000000e+00 4.39917898349142e-02 4.38131978979980e-04
4.74000000000000e+00 4.35398052258934e-02 4.35471858326924e-04
4.78000000000000e+00 4.30924644399031e-02 4.32812475472624e-04
4.82000000000000e+00 4.26497197649375e-02 4.30154270063883e-04
4.86000000000000e+00 4.22115239791979e-02 4.27497667919844e-04
4.90000000000000e+00 4.17778303460562e-02 4.24843081423822e-04
4.94000000000000e+00 4.13485926090702e-02 4.22190909902438e-04
4.98000000000000e+00 4.09237649870502e-02 4.19541539992700e-04
5.02000000000000e+00 4.05033021691757e-02 4.16895345997396e-04
5.06000000000000e+00 4.00871593101630e-02 4.14252690229319e-04
5.10000000000000e+00 3.96752920254821e-02 4.11613923344679e-04
5.14000000000000e+00 3.92676563866227e-02 4.08979384666176e-04
5.18000000000000e+00 3.88642089164091e-02 4.06349402496108e-04
5.22000000000000e+00 3.84649065843625e-02 4.03724294419811e-04
5.26000000000000e+00 3.80697068021123e-02 4.01104367599954e-04
5.30000000000000e+00 3.76785674188534e-02 3.98489919061857e-04
5.34000000000000e+00 3.72914467168501e-02 3.95881235970237e-04
5.38000000000000e+00 3.69083034069874e-02 3.93278595897686e-04
5.42000000000000e+00 3.65290966243667e-02 3.90682267085220e-04
5.46000000000000e+00 3.61537859239473e-02 3.88092508695042e-04
5.50000000000000e+00 3.57823312762329e-02 3.85509571055920e-04
5.54000000000000e+00 3.54146930630020e-02 3.82933695901471e-04
5.58000000000000e+00 3.50508320730823e-02 3.80365116601435e-04
5.62000000000000e+00 3.46907094981688e-02 3.77804058386321e-04
5.66000000000000e+00 3.43342869286844e-02 3.75250738565603e-04
5.70000000000000e+00 3.39815263496832e-02 3.72705366739707e-04
5.74000000000000e+00 3.36323901367960e-02 3.70168145005927e-04
5.78000000000000e+00 3.32868410522179e-02 3.67639268158576e-04
5.82000000000000e+00 3.29448422407355e-02 3.65118923883504e-04
5.86000000000000e+00 3.26063572257974e-02 3.62607292947131e-04
5.90000000000000e+00 3.22713499056225e-02 3.60104549380298e-04
5.94000000000000e+00 3.19397845493504e-02 3.57610860657021e-04
5.98000000000000e+00 3.16116257932298e-02 3.55126387868231e-04
6.02000000000000e+00 3.12868386368472e-02 3.52651285890822e-04
6.06000000000000e+00 3.09653884393936e-02 3.50185703552115e-04
6.10000000000000e+00 3.06472409159700e-02 3.47729783789770e-04
6.14000000000000e+00 3.03323621339302e-02 3.45283663807427e-04
6.18000000000000e+00 3.00207185092623e-02 3.42847475226167e-04
6.22000000000000e+00 2.97122768030065e-02 3.40421344231859e-04
6.26000000000000e+00 2.94070041177096e-02 3.38005391718594e-04
6.30000000000000e+00 2.91048678939167e-02 3.35599733428348e-04
6.34000000000000e+00 2.88058359066982e-02 3.33204480086886e-04
6.38000000000000e+00 2.85098762622131e-02 3.30819737536069e-04
6.42000000000000e+00 2.82169573943071e-02 3.28445606862740e-04
6.46000000000000e+00 2.79270480611456e-02 3.26082184524236e-04
6.50000000000000e+00 2.76401173418821e-02 3.23729562470569e-04
6.54000000000000e+00 2.73561346333600e-02 3.21387828263442e-04
6.58000000000000e+00 2.70750696468483e-02 3.19057065192231e-04
6.62000000000000e+00 2.67968924048115e-02 3.16737352386920e-04
6.66000000000000e+00 2.65215732377122e-02 3.14428764928144e-04
6.70000000000000e+00 2.62490827808464e-02 3.12131373954448e-04
6.74000000000000e+00 2.59793919712119e-02 3.09845246766733e-04
6.78000000000000e+00 2.57124720444081e-02 3.07570446930084e-04
6.82000000000000e+00 2.54482945315686e-02 3.05307034373019e-04
6.86000000000000e+00 2.51868312563243e-02 3.03055065484193e-04
6.90000000000000e+00 2.49280543317986e-02 3.00814593206689e-04
6.94000000000000e+00 2.46719361576328e-02 2.98585667129916e-04
6.98000000000000e+00 2.44184494170424e-02 2.96368333579189e-04
7.02000000000000e+00 2.41675670739036e-02 2.94162635703079e-04
7.06000000000000e+00 2.39192623698697e-02 2.91968613558616e-04
7.10000000000000e+00 2.36735088215172e-02 2.89786304194289e-04
7.14000000000000e+00 2.34302802175210e-02 2.87615741731022e-04
7.18000000000000e+00 2.31895506158589e-02 2.85456957441189e-04
7.22000000000000e+00 2.29512943410448e-02 2.83309979825596e-04
7.26000000000000e+00 2.27154859813898e-02 2.81174834688594e-04
7.30000000000000e+00 2.24821003862926e-02 2.79051545211352e-04
7.34000000000000e+00 2.22511126635563e-02 2.76940132023328e-04
7.38000000000000e+00 2.20224981767338e-02 2.74840613271977e-04
7.42000000000000e+00 2.17962325425001e-02 2.72753004690750e-04
7.46000000000000e+00 2.15722916280519e-02 2.70677319665433e-04
7.50000000000000e+00 2.13506515485331e-02 2.68613569298881e-04
7.54000000000000e+00 2.11312886644878e-02 2.66561762474159e-04
7.58000000000000e+00 2.09141795793389e-02 2.64521905916151e-04
7.62000000000000e+00 2.06993011368925e-02 2.62494004251689e-04
7.66000000000000e+00 2.04866304188683e-02 2.60478060068204e-04
7.70000000000000e+00 2.02761447424553e-02 2.58474073970991e-04
7.74000000000000e+00 2.00678216578921e-02 2.56482044639050e-04
7.78000000000000e+00 1.98616389460730e-02 2.54501968879606e-04
7.82000000000000e+00 1.96575746161779e-02 2.52533841681298e-04
7.86000000000000e+00 1.94556069033267e-02 2.50577656266106e-04
7.90000000000000e+00 1.92557142662583e-02 2.48633404140042e-04
7.94000000000000e+00 1.90578753850328e-02 2.46701075142588e-04
7.98000000000000e+00 1.88620691587576e-02 2.44780657494953e-04
8.02000000000000e+00 1.86682747033369e-02 2.42872137847223e-04
8.06000000000000e+00 1.84764713492442e-02 2.40975501324321e-04
8.10000000000000e+00 1.82866386393179e-02 2.39090731570921e-04
8.14000000000000e+00 1.80987563265793e-02 2.37217810795234e-04
8.18000000000000e+00 1.79128043720731e-02 2.35356719811779e-04
8.22000000000000e+00 1.77287629427301e-02 2.33507438083176e-04
8.26000000000000e+00 1.75466124092520e-02 2.31669943760860e-04
8.30000000000000e+00 1.73663333440175e-02 2.29844213724862e-04
8.34000000000000e+00 1.71879065190105e-02 2.28030223622665e-04
8.38000000000000e+00 1.70113129037693e-02 2.26227947907122e-04
8.42000000000000e+00 1.68365336633567e-02 2.24437359873445e-04
8.46000000000000e+00 1.66635501563512e-02 2.22658431695344e-04
8.50000000000000e+00 1.64923439328586e-02 2.20891134460313e-04
8.54000000000000e+00 1.63228967325447e-02 2.19135438204038e-04
8.58000000000000e+00 1.61551904826869e-02 2.17391311944016e-04
8.62000000000000e+00 1.59892072962476e-02 2.15658723712378e-04
8.66000000000000e+00 1.58249294699654e-02 2.13937640587931e-04
8.70000000000000e+00 1.56623394824676e-02 2.12228028727418e-04
8.74000000000000e+00 1.55014199924015e-02 2.10529853396050e-04
8.78000000000000e+00 1.53421538365842e-02 2.08843078997311e-04
8.82000000000000e+00 1.51845240281726e-02 2.07167669102048e-04
8.86000000000000e+00 1.50285137548513e-02 2.05503586476905e-04
8.90000000000000e+00 1.48741063770397e-02 2.03850793112018e-04
8.94000000000000e+00 1.47212854261172e-02 2.02209250248070e-04
8.98000000000000e+00 1.45700346026664e-02 2.00578918402754e-04
9.02000000000000e+00 1.44203377747352e-02 1.98959757396548e-04
9.06000000000000e+00 1.42721789761158e-02 1.97351726377868e-04
9.10000000000000e+00 1.41255424046419e-02 1.95754783847679e-04
9.14000000000000e+00 1.39804124205034e-02 1.94168887683479e-04
9.18000000000000e+00 1.38367735445781e-02 1.92593995162690e-04
9.22000000000000e+00 1.36946104567810e-02 1.91030062985541e-04
9.26000000000000e+00 1.35539079944301e-02 1.89477047297364e-04
9.30000000000000e+00 1.34146511506292e-02 1.87934903710356e-04
9.34000000000000e+00 1.32768250726674e-02 1.86403587324847e-04
9.38000000000000e+00 1.31404150604350e-02 1.84883052750030e-04
9.42000000000000e+00 1.30054065648556e-02 1.83373254124205e-04
9.46000000000000e+00 1.28717851863341e-02 1.81874145134532e-04
9.50000000000000e+00 1.27395366732212e-02 1.80385679036300e-04
9.54000000000000e+00 1.26086469202933e-02 1.78907808671753e-04
9.58000000000000e+00 1.24791019672479e-02 1.77440486488430e-04
9.62000000000000e+00 1.23508879972148e-02 1.75983664557067e-04
9.66000000000000e+00 1.22239913352825e-02 1.74537294589096e-04
9.70000000000000e+00 1.20983984470395e-02 1.73101327953686e-04
9.74000000000000e+00 1.19740959371307e-02 1.71675715694362e-04
9.78000000000000e+00 1.18510705478290e-02 1.70260408545251e-04
9.82000000000000e+00 1.17293091576210e-02 1.68855356946914e-04
9.86000000000000e+00 1.16087987798077e-02 1.67460511061770e-04
9.90000000000000e+00 1.14895265611192e-02 1.66075820789164e-04
9.94000000000000e+00 1.13714797803438e-02 1.64701235780083e-04
9.98000000000000e+00 1.12546458469714e-02 1.63336705451461e-04
1.00200000000000e+01 1.11390122998505e-02 1.61982179000162e-04
1.00600000000000e+01 1.10245668058591e-02 1.60637605416603e-04
1.01000000000000e+01 1.09112971585894e-02 1.59302933498051e-04
1.01400000000000e+01 1.07991912770456e-02 1.57978111861572e-04
1.01800000000000e+01 1.06882372043559e-02 1.56663088956668e-04
1.02200000000000e+01 1.05784231064968e-02 1.55357813077612e-04
1.02600000000000e+01 1.04697372710310e-02 1.54062232375418e-04
1.03000000000000e+01 1.03621681058583e-02 1.52776294869562e-04
1.03400000000000e+01 1.02557041379791e-02 1.51499948459415e-04
1.03800000000000e+01 1.01503340122709e-02 1.50233140935314e-04
1.04200000000000e+01 1.00460464902769e-02 1.48975819989425e-04
1.04600000000000e+01 9.94283044900764e-03 1.47727933226300e-04
1.05000000000000e+01 9.84067487975447e-03 1.46489428173168e-04
1.05400000000000e+01 9.73956888691546e-03 1.45260252289935e-04
1.05800000000000e+01 9.63950168683335e-03 1.44040352978958e-04
1.06200000000000e+01 9.54046260664530e-03 1.42829677594564e-04
1.06600000000000e+01 9.44244108314464e-03 1.41628173452299e-04
1.07000000000000e+01 9.34542666165418e-03 1.40435787837956e-04
1.07400000000000e+01 9.24940899491117e-03 1.39252468016348e-04
1.07800000000000e+01 9.15437784196368e-03 1.38078161239855e-04
1.08200000000000e+01 9.06032306707834e-03 1.36912814756762e-04
1.08600000000000e+01 8.96723463865930e-03 1.35756375819359e-04
1.09000000000000e+01 8.87510262817828e-03 1.34608791691817e-04
1.09400000000000e+01 8.78391720911560e-03 1.33470009657858e-04
1.09800000000000e+01 8.69366865591217e-03 1.32339977028236e-04
1.10200000000000e+01 8.60434734293214e-03 1.31218641147995e-04
1.10600000000000e+01 8.51594374343629e-03 1.30105949403528e-04
1.11000000000000e+01 8.42844842856592e-03 1.29001849229445e-04
1.11400000000000e+01 8.34185206633719e-03 1.27906288115268e-04
1.11800000000000e+01 8.25614542064583e-03 1.26819213611917e-04
1.12200000000000e+01 8.17131935028202e-03 1.25740573338020e-04
1.12600000000000e+01 8.08736480795541e-03 1.24670314986055e-04
1.13000000000000e+01 8.00427283933021e-03 1.23608386328319e-04
1.13400000000000e+01 7.92203458207007e-03 1.22554735222712e-04
1.13800000000000e+01 7.84064126489293e-03 1.21509309618375e-04
1.14200000000000e+01 7.76008420663545e-03 1.20472057561145e-04
1.14600000000000e+01 7.68035481532713e-03 1.19442927198861e-04
1.15000000000000e+01 7.60144458727388e-03 1.18421866786523e-04
1.15400000000000e+01 7.52334510615109e-03 1.17408824691285e-04
1.15800000000000e+01 7.44604804210596e-03 1.16403749397311e-04
1.16200000000000e+01 7.36954515086902e-03 1.15406589510483e-04
1.16600000000000e+01 7.29382827287488e-03 1.14417293762955e-04
1.17000000000000e+01 7.21888933239192e-03 1.13435811017584e-04
1.17400000000000e+01 7.14472033666096e-03 1.12462090272218e-04
1.17800000000000e+01 7.07131337504279e-03 1.11496080663861e-04
1.18200000000000e+01 6.99866061817443e-03 1.10537731472688e-04
1.18600000000000e+01 6.92675431713410e-03 1.09586992125951e-04
1.19000000000000e+01 6.85558680261470e-03 1.08643812201757e-04
1.19400000000000e+01 6.78515048410588e-03 1.07708141432718e-04
1.19800000000000e+01 6.71543784908439e-03 1.06779929709484e-04
1.20200000000000e+01 6.64644146221289e-03 1.05859127084174e-04
1.20600000000000e+01 6.57815396454688e-03 1.04945683773676e-04
1.21000000000000e+01 6.51056807274981e-03 1.04039550162840e-04
1.21400000000000e+01 6.44367657831629e-03 1.03140676807572e-04
1.21800000000000e+01 6.37747234680323e-03 1.02249014437817e-04
1.22200000000000e+01 6.31194831706892e-03 1.01364513960425e-04
1.22600000000000e+01 6.24709750051988e-03 1.00487126461935e-04
1.23000000000000e+01 6.18291298036553e-03 9.96168032112615e-05
1.23400000000000e+01 6.11938791088041e-03 9.87534956622652e-05
1.23800000000000e+01 6.05651551667405e-03 9.78971554562403e-05
1.24200000000000e+01 5.99428909196838e-03 9.70477344243132e-05
1.24600000000000e+01 5.93270199988242e-03 9.62051845897420e-05
1.25000000000000e+01 5.87174767172450e-03 9.53694581701379e-05
1.25400000000000e+01 5.81141960629160e-03 9.45405075795880e-05
1.25800000000000e+01 5.75171136917598e-03 9.37182854307056e-05
1.26200000000000e+01 5.69261659207891e-03 9.29027445365901e-05
