Energy (eV)          EEDF (eV^-(3/2))     First Anisotropy
3.82258064516129e-02 6.23721696017476e-02 4.19049112160282e-05
1.14677419354839e-01 6.16814726187775e-02 6.90459014411188e-05
1.91129032258064e-01 6.09984242751930e-02 9.07492171613360e-05
2.67580645161290e-01 6.03229398731949e-02 1.06996465689026e-04
3.44032258064516e-01 5.96549356510287e-02 1.20348953019656e-04
4.20483870967742e-01 5.89943287746258e-02 1.31781199681740e-04
4.96935483870968e-01 5.83410373286983e-02 1.41800549626902e-04
5.73387096774194e-01 5.76949803019437e-02 1.50715164109247e-04
6.49838709677419e-01 5.70560775818878e-02 1.58730596019063e-04
7.26290322580645e-01 5.64242499431928e-02 1.65992950275900e-04
8.02741935483871e-01 5.57994190378383e-02 1.72610987152938e-04
8.79193548387097e-01 5.51815073854020e-02 1.78668570019946e-04
9.55645161290323e-01 5.45704383634671e-02 1.84232187203753e-04
1.03209677419355e+00 5.39661361981178e-02 1.89355752163022e-04
1.10854838709677e+00 5.33685259550876e-02 1.94083803473017e-04
1.18500000000000e+00 5.27775335302447e-02 1.98453716235223e-04
1.26145161290323e+00 5.21930856343130e-02 2.02497274562746e-04
1.33790322580645e+00 5.16151097994368e-02 2.06241821414901e-04
1.41435483870968e+00 5.10435343550253e-02 2.09711117364182e-04
1.49080645161290e+00 5.04782884204051e-02 2.12925990426705e-04
1.56725806451613e+00 4.99193019078941e-02 2.15904841663870e-04
1.64370967741935e+00 4.93665055017319e-02 2.18664041796607e-04
1.72016129032258e+00 4.88198306537531e-02 2.21218245210235e-04
1.79661290322581e+00 4.82792095719337e-02 2.23580642805894e-04
1.87306451612903e+00 4.77445752212139e-02 2.25763168775000e-04
1.94951612903226e+00 4.72158613055893e-02 2.27776670803134e-04
2.02596774193548e+00 4.66930022606592e-02 2.29631048544644e-04
2.10241935483871e+00 4.61759332534507e-02 2.31335371779549e-04
2.17887096774194e+00 4.56645901661482e-02 2.32897979660080e-04
2.25532258064516e+00 4.51589095909723e-02 2.34326563693586e-04
2.33177419354839e+00 4.46588288201983e-02 2.35628238635319e-04
2.40822580645161e+00 4.41642858449177e-02 2.36809604225944e-04
2.48467741935484e+00 4.36752193406050e-02 2.37876798742161e-04
2.56112903225806e+00 4.31915686599727e-02 2.38835543319156e-04
2.63758064516129e+00 4.27132738312194e-02 2.39691182626868e-04
2.71403225806452e+00 4.22402755446508e-02 2.40448720288911e-04
2.79048387096774e+00 4.17725151473650e-02 2.41112849084799e-04
2.86693548387097e+00 4.13099346343793e-02 2.41687977695343e-04
2.94338709677419e+00 4.08524766463345e-02 2.42178255164578e-04
3.01983870967742e+00 4.04000844573599e-02 2.42587592883082e-04
3.09629032258065e+00 3.99527019683317e-02 2.42919682414551e-04
3.17274193548387e+00 3.95102737043121e-02 2.43178013187551e-04
3.24919354838710e+00 3.90727448031605e-02 2.43365888211729e-04
3.32564516129032e+00 3.86400610102775e-02 2.43486437437391e-04
3.40209677419355e+00 3.82121686706260e-02 2.43542629888430e-04
3.47854838709677e+00 3.77890147258836e-02 2.43537285299683e-04
3.55500000000000e+00 3.73705467039765e-02 2.43473084872551e-04
3.63145161290323e+00 3.69567127127712e-02 2.43352579530870e-04
3.70790322580645e+00 3.65474614370967e-02 2.43178198937392e-04
3.78435483870968e+00 3.61427421288455e-02 2.42952259739996e-04
3.86080645161290e+00 3.57425046008549e-02 2.42676971681136e-04
3.93725806451613e+00 3.53466992238426e-02 2.42354444609717e-04
4.01370967741935e+00 3.49552769170301e-02 2.41986694788798e-04
4.09016129032258e+00 3.45681891431486e-02 2.41575650061672e-04
4.16661290322581e+00 3.41853879015137e-02 2.41123154673857e-04
4.24306451612903e+00 3.38068257248543e-02 2.40630974268633e-04
4.31951612903226e+00 3.34324556705876e-02 2.40100800663503e-04
4.39596774193548e+00 3.30622313151296e-02 2.39534255029658e-04
4.47241935483871e+00 3.26961067506947e-02 2.38932892066918e-04
4.54887096774194e+00 3.23340365769973e-02 2.38298203762702e-04
4.62532258064516e+00 3.19759758965059e-02 2.37631622335265e-04
4.70177419354839e+00 3.16218803081308e-02 2.36934523025858e-04
4.77822580645161e+00 3.12717059039943e-02 2.36208227176882e-04
4.85467741935484e+00 3.09254092616664e-02 2.35454005240960e-04
4.93112903225806e+00 3.05829474388822e-02 2.34673078507091e-04
5.00758064516129e+00 3.02442779703187e-02 2.33866621788515e-04
5.08403225806452e+00 2.99093588601874e-02 2.33035765834334e-04
5.16048387096774e+00 2.95781485777542e-02 2.32181599108239e-04
5.23693548387097e+00 2.92506060515699e-02 2.31305169502164e-04
5.31338709677419e+00 2.89266906662633e-02 2.30407486362800e-04
5.38983870967742e+00 2.86063622555866e-02 2.29489522515953e-04
5.46629032258064e+00 2.82895810975117e-02 2.28552215217625e-04
5.54274193548387e+00 2.79763079110564e-02 2.27596467993290e-04
5.61919354838710e+00 2.76665038496312e-02 2.26623152277856e-04
5.69564516129032e+00 2.73601304968276e-02 2.25633108539067e-04
5.77209677419355e+00 2.70571498611336e-02 2.24627147376772e-04
5.84854838709677e+00 2.67575243728040e-02 2.23606050929021e-04
5.92500000000000e+00 2.64612168775959e-02 2.22570574306468e-04
6.00145161290323e+00 2.61681906322220e-02 2.21521446107465e-04
6.07790322580645e+00 2.58784093012684e-02 2.20459369739114e-04
6.15435483870968e+00 2.55918369511903e-02 2.19385024671705e-04
6.23080645161290e+00 2.53084380459127e-02 2.18299066826212e-04
6.30725806451613e+00 2.50281774438002e-02 2.17202129735654e-04
6.38370967741935e+00 2.47510203919016e-02 2.16094825568661e-04
6.46016129032258e+00 2.44769325221127e-02 2.14977745744005e-04
6.53661290322581e+00 2.42058798465048e-02 2.13851461546487e-04
6.61306451612903e+00 2.39378287543600e-02 2.12716525024134e-04
6.68951612903226e+00 2.36727460067339e-02 2.11573469928514e-04
6.76596774193548e+00 2.34105987323793e-02 2.10422811898483e-04
6.84241935483871e+00 2.31513544248413e-02 2.09265049339862e-04
6.91887096774193e+00 2.28949809372378e-02 2.08100664192758e-04
6.99532258064516e+00 2.26414464786749e-02 2.06930122345843e-04
7.07177419354839e+00 2.23907196099539e-02 2.05753874059222e-04
7.14822580645161e+00 2.21427692407412e-02 2.04572354645064e-04
7.22467741935484e+00 2.18975646246281e-02 2.03385985194124e-04
7.30112903225806e+00 2.16550753553572e-02 2.02195172636462e-04
7.37758064516129e+00 2.14152713640533e-02 2.01000310426994e-04
7.45403225806452e+00 2.11781229144782e-02 1.99801779136895e-04
7.53048387096774e+00 2.09436005996870e-02 1.98599946736825e-04
7.60693548387097e+00 2.07116753380801e-02 1.97395168892197e-04
7.68338709677419e+00 2.04823183707143e-02 1.96187789492728e-04
7.75983870967742e+00 2.02555012568057e-02 1.94978141227860e-04
7.83629032258064e+00 2.00311958702352e-02 1.93766545572535e-04
7.91274193548387e+00 1.98093743969227e-02 1.92553313333741e-04
7.98919354838710e+00 1.95900093305033e-02 1.91338745116959e-04
8.06564516129032e+00 1.93730734692129e-02 1.90123131521224e-04
8.14209677419355e+00 1.91585399122531e-02 1.88906753347672e-04
8.21854838709677e+00 1.89463820572487e-02 1.87689882020227e-04
8.29500000000000e+00 1.87365735961456e-02 1.86472780050536e-04
8.37145161290323e+00 1.85290885119746e-02 1.85255700978372e-04
8.44790322580645e+00 1.83239010763717e-02 1.84038889815571e-04
8.52435483870968e+00 1.81209858456305e-02 1.82822583472783e-04
8.60080645161290e+00 1.79203176575720e-02 1.81607010685730e-04
8.67725806451613e+00 1.77218716291280e-02 1.80392392423566e-04
8.75370967741936e+00 1.75256231525426e-02 1.79178942232436e-04
8.83016129032258e+00 1.73315478925612e-02 1.77966866349536e-04
8.90661290322581e+00 1.71396217831994e-02 1.76756363830830e-04
8.98306451612903e+00 1.69498210254080e-02 1.75547626863480e-04
9.05951612903226e+00 1.67621220834638e-02 1.74340841118374e-04
9.13596774193548e+00 1.65765016820724e-02 1.73136185655449e-04
9.21241935483871e+00 1.63929368040942e-02 1.71933833262523e-04
9.28887096774194e+00 1.62114046870696e-02 1.70733950737285e-04
9.36532258064516e+00 1.60318828206062e-02 1.69536698964854e-04
9.44177419354839e+00 1.58543489434011e-02 1.68342233008534e-04
9.51822580645161e+00 1.56787810410458e-02 1.67150702367486e-04
9.59467741935484e+00 1.55051573427238e-02 1.65962251271484e-04
9.67112903225806e+00 1.53334563185285e-02 1.64777018575105e-04
9.74758064516129e+00 1.51636566773280e-02 1.63595138042177e-04
9.82403225806452e+00 1.49957373635835e-02 1.62416738579992e-04
9.90048387096774e+00 1.48296775549212e-02 1.61241944290877e-04
9.97693548387097e+00 1.46654566593870e-02 1.60070874575259e-04
1.00533870967742e+01 1.45030543132269e-02 1.58903644189785e-04
1.01298387096774e+01 1.43424503785080e-02 1.57740363617016e-04
1.02062903225806e+01 1.41836249399710e-02 1.56581139148056e-04
1.02827419354839e+01 1.40265583028961e-02 1.55426072844586e-04
1.03591935483871e+01 1.38712309906592e-02 1.54275263101000e-04
1.04356451612903e+01 1.37176237408536e-02 1.53128803668048e-04
1.05120967741935e+01 1.35657175073358e-02 1.51986784497356e-04
1.05885483870968e+01 1.34154934533830e-02 1.50849292595440e-04
1.06650000000000e+01 1.32669329508670e-02 1.49716411003106e-04
1.07414516129032e+01 1.31200175779429e-02 1.48588219276332e-04
1.08179032258065e+01 1.29747291167660e-02 1.47464793585051e-04
1.08943548387097e+01 1.28310495512335e-02 1.46346206810022e-04
1.09708064516129e+01 1.26889610647496e-02 1.45232528956988e-04
1.10472580645161e+01 1.25484460367526e-02 1.44123826277574e-04
1.11237096774194e+01 1.24094870443586e-02 1.43020162008452e-04
1.12001612903226e+01 1.22720668563335e-02 1.41921597119565e-04
1.12766129032258e+01 1.21361684322583e-02 1.40828189397047e-04
1.13530645161290e+01 1.20017749204155e-02 1.39739993860242e-04
1.14295161290323e+01 1.18688696557009e-02 1.38657062840138e-04
1.15059677419355e+01 1.17374361575571e-02 1.37579446056425e-04
1.15824193548387e+01 1.16074581279292e-02 1.36507190976812e-04
1.16588709677419e+01 1.14789194481491e-02 1.35440342026014e-04
1.17353225806452e+01 1.13518041802540e-02 1.34378941235205e-04
1.18117741935484e+01 1.12260965616589e-02 1.33323028899971e-04
1.18882258064516e+01 1.11017810043311e-02 1.32272642756415e-04
1.19646774193548e+01 1.09788420928553e-02 1.31227818344561e-04
1.20411290322581e+01 1.08572645825250e-02 1.30188589071140e-04
1.21175806451613e+01 1.07370333974507e-02 1.29154986529467e-04
1.21940322580645e+01 1.06181336277213e-02 1.28127039777161e-04
1.22704838709677e+01 1.05005505304914e-02 1.27104775918206e-04
1.23469354838710e+01 1.03842695251873e-02 1.26088220692995e-04
1.24233870967742e+01 1.02692761926981e-02 1.25077397726948e-04
1.24998387096774e+01 1.01555562735873e-02 1.24072328854939e-04
1.25762903225806e+01 1.00430956663237e-02 1.23073034172626e-04
1.26527419354839e+01 9.93188042553504e-03 1.22079532086995e-04
1.27291935483871e+01 9.82189676027719e-03 1.21091839596141e-04
1.28056451612903e+01 9.71313103148072e-03 1.20109971639626e-04
1.28820967741935e+01 9.60556975281520e-03 1.19133941612679e-04
1.29585483870968e+01 9.49919958643600e-03 1.18163761887820e-04
1.30350000000000e+01 9.39400734219925e-03 1.17199443139778e-04
1.31114516129032e+01 9.28997997602575e-03 1.16240994630125e-04
1.31879032258065e+01 9.18710458828398e-03 1.15288424248772e-04
1.32643548387097e+01 9.08536842219090e-03 1.14341738554874e-04
1.33408064516129e+01 8.98475886222968e-03 1.13400943022318e-04
1.34172580645161e+01 8.88526343184897e-03 1.12466041455383e-04
1.34937096774194e+01 8.78686979414602e-03 1.11537036444029e-04
1.35701612903226e+01 8.68956574808495e-03 1.10613929826062e-04
1.36466129032258e+01 8.59333922774179e-03 1.09696722080420e-04
1.37230645161290e+01 8.49817830080775e-03 1.08785412577623e-04
1.37995161290323e+01 8.40407116711053e-03 1.07879999613449e-04
1.38759677419355e+01 8.31100615715087e-03 1.06980480442161e-04
1.39524193548387e+01 8.21897173065529e-03 1.06086851492540e-04
1.40288709677419e+01 8.12795647450116e-03 1.05199107842104e-04
1.41053225806452e+01 8.03794910325166e-03 1.04317243621093e-04
1.41817741935484e+01 7.94893845578733e-03 1.03441252422721e-04
1.42582258064516e+01 7.86091349458481e-03 1.02571126757695e-04
1.43346774193548e+01 7.77386330434749e-03 1.01706858275142e-04
1.44111290322581e+01 7.68777709065334e-03 1.00848437790022e-04
1.44875806451613e+01 7.60264417861566e-03 9.99958554773964e-05
1.45640322580645e+01 7.51845401098525e-03 9.91491003922680e-05
1.46404838709677e+01 7.43519614858003e-03 9.83081608342796e-05
1.47169354838710e+01 7.35286026723517e-03 9.74730247181983e-05
1.47933870967742e+01 7.27143615711365e-03 9.66436790760817e-05
1.48698387096774e+01 7.19091372144010e-03 9.58201102562522e-05
1.49462903225806e+01 7.11128297524861e-03 9.50023039458936e-05
1.50227419354839e+01 7.03253404414528e-03 9.41902451933755e-05
1.50991935483871e+01 6.95465716308333e-03 9.33839185799371e-05
1.51756451612903e+01 6.87764267464836e-03 9.25833077874274e-05
1.52520967741935e+01 6.80148102938660e-03 9.17883959228618e-05
1.53285483870968e+01 6.72616278308049e-03 9.09991658482838e-05
1.54050000000000e+01 6.65167859609593e-03 9.02155997328375e-05
1.54814516129032e+01 6.57801923222386e-03 8.94376792289425e-05
1.55579032258065e+01 6.50517555753525e-03 8.86653854907070e-05
1.56343548387097e+01 6.43313853924866e-03 8.78986991921529e-05
1.57108064516129e+01 6.36189924460992e-03 8.71376006792190e-05
1.57872580645161e+01 6.29144883934152e-03 8.63820695804550e-05
1.58637096774194e+01 6.22177858788830e-03 8.56320850962635e-05
1.59401612903226e+01 6.15287985098046e-03 8.48876262929787e-05
1.60166129032258e+01 6.08474408501782e-03 8.41486716996623e-05
1.60930645161290e+01 6.01736284101004e-03 8.34151994643494e-05
1.61695161290323e+01 5.95072776352950e-03 8.26871873690638e-05
1.62459677419355e+01 5.88483058967506e-03 8.19646128446867e-05
1.63224193548387e+01 5.81966314804734e-03 8.12474531057457e-05
1.63988709677419e+01 5.75521735734548e-03 8.05356847996741e-05
1.64753225806452e+01 5.69148522654577e-03 7.98292842648891e-05
1.65517741935484e+01 5.62845885271898e-03 7.91282277932777e-05
1.66282258064516e+01 5.56613042045143e-03 7.84324912670863e-05
1.67046774193548e+01 5.50449220087544e-03 7.77420502977041e-05
1.67811290322581e+01 5.44353655071167e-03 7.70568802378811e-05
1.68575806451613e+01 5.38325591132099e-03 7.63769563036343e-05
1.69340322580645e+01 5.32364280741763e-03 7.57022532536047e-05
1.70104838709677e+01 5.26468984720044e-03 7.50327456230308e-05
1.70869354838710e+01 5.20638972036830e-03 7.43684079617884e-05
1.71633870967742e+01 5.14873519757295e-03 7.37092145025748e-05
1.72398387096774e+01 5.09171912952244e-03 7.30551392865171e-05
1.73162903225806e+01 5.03533444609457e-03 7.24061561731923e-05
1.73927419354839e+01 4.97957415546050e-03 7.17622388505702e-05
1.74691935483871e+01 4.92443134321756e-03 7.11233609433794e-05
1.75456451612903e+01 4.86989917122332e-03 7.04894957240111e-05
1.76220967741935e+01 4.81597087768160e-03 6.98606163216976e-05
1.76985483870968e+01 4.76263977536145e-03 6.92366959353837e-05
1.77750000000000e+01 4.70989925108502e-03 6.86177075346653e-05
1.78514516129032e+01 4.65774276490737e-03 6.80036239716149e-05
1.79279032258064e+01 4.60616384930566e-03 6.73944179888905e-05
1.80043548387097e+01 4.55515610837726e-03 6.67900622277856e-05
1.80808064516129e+01 4.50471321704650e-03 6.61905293246950e-05
1.81572580645161e+01 4.45482892000777e-03 6.55957916503629e-05
1.82337096774194e+01 4.40549703177508e-03 6.50058214970520e-05
1.83101612903226e+01 4.35671143508227e-03 6.44205912690715e-05
1.83866129032258e+01 4.30846608040457e-03 6.38400732131211e-05
1.84630645161290e+01 4.26075498520831e-03 6.32642395179604e-05
1.85395161290323e+01 4.21357223320936e-03 6.26930623209407e-05
1.86159677419355e+01 4.16691197363941e-03 6.21265137144959e-05
1.86924193548387e+01 4.12076842052042e-03 6.15645658321015e-05
1.87688709677419e+01 4.07513585170593e-03 6.10071906129900e-05
1.88453225806452e+01 4.03000860890165e-03 6.04543599697698e-05
1.89217741935484e+01 3.98538109622705e-03 5.99060459590955e-05
1.89982258064516e+01 3.94124777976928e-03 5.93622205384271e-05
1.90746774193548e+01 3.89760318689677e-03 5.88228556549452e-05
1.91511290322581e+01 3.85444190558102e-03 5.82879232507782e-05
1.92275806451613e+01 3.81175858372525e-03 5.77573953410085e-05
1.93040322580645e+01 3.76954792828372e-03 5.72312437983338e-05
1.93804838709677e+01 3.72780470526235e-03 5.67094405054657e-05
1.94569354838710e+01 3.68652373840677e-03 5.61919575103388e-05
1.95333870967742e+01 3.64569990878343e-03 5.56787668035502e-05
1.96098387096774e+01 3.60532815414482e-03 5.51698403990939e-05
1.96862903225806e+01 3.56540346830171e-03 5.46651503385380e-05
1.97627419354839e+01 3.52592090050252e-03 5.41646686951785e-05
1.98391935483871e+01 3.48687555481934e-03 5.36683676436565e-05
1.99156451612903e+01 3.44826258934841e-03 5.31762192655321e-05
1.99920967741935e+01 3.41007721619207e-03 5.26881956859469e-05
2.00685483870968e+01 3.37231470027745e-03 5.22042692128334e-05
2.01450000000000e+01 3.33497035896693e-03 5.17244121360127e-05
2.02214516129032e+01 3.29803956147747e-03 5.12485967993382e-05
2.02979032258065e+01 3.26151772830639e-03 5.07767956039672e-05
2.03743548387097e+01 3.22540033066362e-03 5.03089810116248e-05
2.04508064516129e+01 3.18968288991001e-03 4.98451256067965e-05
2.05272580645161e+01 3.15436097683127e-03 4.93852019211063e-05
2.06037096774194e+01 3.11943021160544e-03 4.89291825559509e-05
2.06801612903226e+01 3.08488626273844e-03 4.84770403074460e-05
2.07566129032258e+01 3.05072484670231e-03 4.80287479850044e-05
2.08330645161290e+01 3.01694172740397e-03 4.75842784758375e-05
2.09095161290323e+01 2.98353271566004e-03 4.71436047474938e-05
2.09859677419355e+01 2.95049366867740e-03 4.67066998503860e-05
2.10624193548387e+01 2.91782048953939e-03 4.62735369733827e-05
2.11388709677419e+01 2.88550912654617e-03 4.58440892851286e-05
2.12153225806452e+01 2.85355557317122e-03 4.54183300441481e-05
2.12917741935484e+01 2.82195586710151e-03 4.49962327110578e-05
2.13682258064516e+01 2.79070608990189e-03 4.45777707846773e-05
2.14446774193548e+01 2.75980236652911e-03 4.41629178597407e-05
2.15211290322581e+01 2.72924086485148e-03 4.37516476288239e-05
2.15975806451613e+01 2.69901779517358e-03 4.33439339329103e-05
2.16740322580645e+01 2.66912940962948e-03 4.29397506160048e-05
2.17504838709677e+01 2.63957200213220e-03 4.25390716254463e-05
2.18269354838710e+01 2.61034190749624e-03 4.21418711141549e-05
2.19033870967742e+01 2.58143550112366e-03 4.17481232905162e-05
2.19798387096774e+01 2.55284919855457e-03 4.13578024709018e-05
2.20562903225806e+01 2.52457945502268e-03 4.09708830810805e-05
2.21327419354839e+01 2.49662276501576e-03 4.05873396576318e-05
2.22091935483871e+01 2.46897566184099e-03 4.02071468932045e-05
2.22856451612903e+01 2.44163471707328e-03 3.98302795050828e-05
2.23620967741935e+01 2.41459654049851e-03 3.94567123253331e-05
2.24385483870968e+01 2.38785777932157e-03 3.90864203927191e-05
2.25150000000000e+01 2.36141511787553e-03 3.87193788170124e-05
2.25914516129032e+01 2.33526527721047e-03 3.83555628260378e-05
2.26679032258065e+01 2.30940501468692e-03 3.79949477666691e-05
2.27443548387097e+01 2.28383112357379e-03 3.76375091058251e-05
2.28208064516129e+01 2.25854043265072e-03 3.72832224710002e-05
2.28972580645161e+01 2.23352980570646e-03 3.69320635313991e-05
2.29737096774194e+01 2.20879614147789e-03 3.65840080789981e-05
2.30501612903226e+01 2.18433637293463e-03 3.62390321112036e-05
2.31266129032258e+01 2.16014746701003e-03 3.58971117081678e-05
2.32030645161290e+01 2.13622642422497e-03 3.55582230749544e-05
2.32795161290323e+01 2.11257027831600e-03 3.52223425421875e-05
2.33559677419355e+01 2.08917609586749e-03 3.48894465667145e-05
2.34324193548387e+01 2.06604097594791e-03 3.45595117679149e-05
2.35088709677419e+01 2.04316204965354e-03 3.42325148201721e-05
2.35853225806452e+01 2.02053648004482e-03 3.39084325257969e-05
2.36617741935484e+01 1.99816146149990e-03 3.35872418894011e-05
2.37382258064516e+01 1.97603421946587e-03 3.32689200069299e-05
2.38146774193548e+01 1.95415201011459e-03 3.29534441034738e-05
2.38911290322581e+01 1.93251212000261e-03 3.26407915336418e-05
2.39675806451613e+01 1.91111186573461e-03 3.23309398146425e-05
2.40440322580645e+01 1.88994859354332e-03 3.20238665276763e-05
2.41204838709677e+01 1.86901967922475e-03 3.17195493844763e-05
