Energy (eV)          EEDF (eV^-(3/2))     First Anisotropy
7.45000000000000e-03 1.39346914284799e+00 1.14637218465366e-03
2.23500000000000e-02 1.36963607014723e+00 1.88312876074060e-03
3.72500000000000e-02 1.34621062423721e+00 2.45996509987715e-03
5.21500000000000e-02 1.32318583331002e+00 2.88269992570473e-03
6.70500000000000e-02 1.30055484479958e+00 3.22267319873544e-03
8.19500000000000e-02 1.27831092334207e+00 3.50728739288329e-03
9.68500000000000e-02 1.25644744877136e+00 3.75093689614384e-03
1.11750000000000e-01 1.23495791414873e+00 3.96244037820034e-03
1.26650000000000e-01 1.21383592382631e+00 4.14772909313864e-03
1.41550000000000e-01 1.19307519154359e+00 4.31105264175989e-03
1.56450000000000e-01 1.17266953855657e+00 4.45559865823245e-03
1.71350000000000e-01 1.15261289179880e+00 4.58384301684747e-03
1.86250000000000e-01 1.13289928207401e+00 4.69776219491462e-03
2.01150000000000e-01 1.11352284227952e+00 4.79896927328898e-03
2.16050000000000e-01 1.09447780566009e+00 4.88880492047737e-03
2.30950000000000e-01 1.07575850409168e+00 4.96840047915934e-03
2.45850000000000e-01 1.05735936639447e+00 5.03872303798410e-03
2.60750000000000e-01 1.03927491667483e+00 5.10060846203035e-03
2.75650000000000e-01 1.02149977269556e+00 5.15478613452562e-03
2.90550000000000e-01 1.00402864427408e+00 5.20189784636234e-03
3.05450000000000e-01 9.86856331707945e-01 5.24251246124779e-03
3.20350000000000e-01 9.69977724227370e-01 5.27713747151552e-03
3.35250000000000e-01 9.53387798474145e-01 5.30622822536764e-03
3.50150000000000e-01 9.37081617006613e-01 5.33019538307234e-03
3.65050000000000e-01 9.21054326830198e-01 5.34941100726566e-03
3.79950000000000e-01 9.05301157953077e-01 5.36421358646999e-03
3.94850000000000e-01 8.89817421966550e-01 5.37491221583575e-03
4.09750000000000e-01 8.74598510649686e-01 5.38179010506647e-03
4.24650000000000e-01 8.59639894597842e-01 5.38510754402906e-03
4.39550000000000e-01 8.44937121874636e-01 5.38510442735261e-03
4.54450000000000e-01 8.30485816686975e-01 5.38200241745261e-03
4.69350000000000e-01 8.16281678082744e-01 5.37600680885283e-03
4.84250000000000e-01 8.02320478670772e-01 5.36730814399999e-03
4.99150000000000e-01 7.88598063362687e-01 5.35608362096811e-03
5.14050000000000e-01 7.75110348136295e-01 5.34249832580943e-03
5.28950000000000e-01 7.61853318820102e-01 5.32670631630072e-03
5.43850000000000e-01 7.48823029898632e-01 5.30885157907010e-03
5.58750000000000e-01 7.36015603338174e-01 5.28906887828977e-03
5.73650000000000e-01 7.23427227432613e-01 5.26748451106073e-03
5.88550000000000e-01 7.11054155669003e-01 5.24421698214150e-03
6.03450000000000e-01 6.98892705612543e-01 5.21937760866053e-03
6.18350000000000e-01 6.86939257810619e-01 5.19307106380021e-03
6.33250000000000e-01 6.75190254715594e-01 5.16539586708175e-03
6.48150000000000e-01 6.63642199626026e-01 5.13644482775716e-03
6.63050000000000e-01 6.52291655645987e-01 5.10630544687786e-03
6.77950000000000e-01 6.41135244662184e-01 5.07506028282642e-03
6.92850000000000e-01 6.30169646338581e-01 5.04278728444363e-03
7.07750000000000e-01 6.19391597128204e-01 5.00956009532771e-03
7.22650000000000e-01 6.08797889301860e-01 4.97544833241436e-03
7.37550000000000e-01 5.98385369993458e-01 4.94051784154854e-03
7.52450000000000e-01 5.88150940261668e-01 4.90483093241852e-03
7.67350000000000e-01 5.78091554167620e-01 4.86844659493096e-03
7.82250000000000e-01 5.68204217868382e-01 4.83142069885828e-03
7.97150000000000e-01 5.58485988725942e-01 4.79380617837240e-03
8.12050000000000e-01 5.48933974431430e-01 4.75565320289221e-03
8.26950000000000e-01 5.39545332144317e-01 4.71700933551296e-03
8.41850000000000e-01 5.30317267646339e-01 4.67791968014363e-03
8.56750000000000e-01 5.21247034509890e-01 4.63842701835581e-03
8.71650000000000e-01 5.12331933280639e-01 4.59857193684134e-03
8.86550000000000e-01 5.03569310674124e-01 4.55839294628192e-03
9.01450000000000e-01 4.94956558786095e-01 4.51792659235096e-03
9.16350000000000e-01 4.86491114316355e-01 4.47720755949579e-03
9.31250000000000e-01 4.78170457805877e-01 4.43626876808386e-03
9.46150000000000e-01 4.69992112886974e-01 4.39514146543895e-03
9.61050000000000e-01 4.61953645546287e-01 4.35385531124548e-03
9.75950000000000e-01 4.54052663400385e-01 4.31243845775139e-03
9.90850000000000e-01 4.46286814983746e-01 4.27091762516094e-03
1.00575000000000e+00 4.38653789048928e-01 4.22931817257519e-03
1.02065000000000e+00 4.31151313878698e-01 4.18766416480302e-03
1.03555000000000e+00 4.23777156609932e-01 4.14597843533902e-03
1.05045000000000e+00 4.16529122569077e-01 4.10428264577812e-03
1.06535000000000e+00 4.09405054618980e-01 4.06259734191514e-03
1.08025000000000e+00 4.02402832516887e-01 4.02094200675450e-03
1.09515000000000e+00 3.95520372283422e-01 3.97933511063797e-03
1.11005000000000e+00 3.88755625582362e-01 3.93779415868256e-03
1.12495000000000e+00 3.82106579111015e-01 3.89633573570279e-03
1.13985000000000e+00 3.75571254001029e-01 3.85497554877954e-03
1.15475000000000e+00 3.69147705229448e-01 3.81372846762487e-03
1.16965000000000e+00 3.62834021039837e-01 3.77260856288054e-03
1.18455000000000e+00 3.56628322373315e-01 3.73162914247736e-03
1.19945000000000e+00 3.50528762309312e-01 3.69080278617303e-03
1.21435000000000e+00 3.44533525515898e-01 3.65014137837806e-03
1.22925000000000e+00 3.38640827709505e-01 3.60965613937167e-03
1.24415000000000e+00 3.32848915123898e-01 3.56935765500084e-03
1.25905000000000e+00 3.27156063988224e-01 3.52925590494973e-03
1.27395000000000e+00 3.21560580013987e-01 3.48936028966223e-03
1.28885000000000e+00 3.16060797890800e-01 3.44967965599229e-03
1.30375000000000e+00 3.10655080790761e-01 3.41022232165320e-03
1.31865000000000e+00 3.05341819881305e-01 3.37099609853165e-03
1.33355000000000e+00 3.00119433846388e-01 3.33200831492837e-03
1.34845000000000e+00 2.94986368415863e-01 3.29326583678273e-03
1.36335000000000e+00 2.89941095902899e-01 3.25477508793517e-03
1.37825000000000e+00 2.84982114749317e-01 3.21654206947852e-03
1.39315000000000e+00 2.80107949078705e-01 3.17857237824480e-03
1.40805000000000e+00 2.75317148257166e-01 3.14087122447234e-03
1.42295000000000e+00 2.70608286461588e-01 3.10344344869474e-03
1.43785000000000e+00 2.65979962255297e-01 3.06629353789068e-03
1.45275000000000e+00 2.61430798170962e-01 3.02942564093189e-03
1.46765000000000e+00 2.56959440300639e-01 2.99284358336333e-03
1.48255000000000e+00 2.52564557892826e-01 2.95655088154855e-03
1.49745000000000e+00 2.48244842956408e-01 2.92055075621077e-03
1.51235000000000e+00 2.43999009871377e-01 2.88484614539873e-03
1.52725000000000e+00 2.39825795006211e-01 2.84943971690483e-03
1.54215000000000e+00 2.35723956341792e-01 2.81433388016091e-03
1.55705000000000e+00 2.31692273101766e-01 2.77953079763644e-03
1.57195000000000e+00 2.27729545389214e-01 2.74503239576196e-03
1.58685000000000e+00 2.23834593829546e-01 2.71084037539958e-03
1.60175000000000e+00 2.20006259219498e-01 2.67695622188134e-03
1.61665000000000e+00 2.16243402182133e-01 2.64338121463492e-03
1.63155000000000e+00 2.12544902827745e-01 2.61011643641462e-03
1.64645000000000e+00 2.08909660420558e-01 2.57716278215599e-03
1.66135000000000e+00 2.05336593051130e-01 2.54452096747042e-03
1.67625000000000e+00 2.01824637314362e-01 2.51219153679514e-03
1.69115000000000e+00 1.98372747993003e-01 2.48017487121414e-03
1.70605000000000e+00 1.94979897746583e-01 2.44847119596389e-03
1.72095000000000e+00 1.91645076805655e-01 2.41708058763740e-03
1.73585000000000e+00 1.88367292671273e-01 2.38600298109978e-03
1.75075000000000e+00 1.85145569819605e-01 2.35523817612713e-03
1.76565000000000e+00 1.81978949411604e-01 2.32478584378059e-03
1.78055000000000e+00 1.78866489007636e-01 2.29464553252675e-03
1.79545000000000e+00 1.75807262287002e-01 2.26481667411471e-03
1.81035000000000e+00 1.72800358772242e-01 2.23529858922007e-03
1.82525000000000e+00 1.69844883558164e-01 2.20609049286535e-03
1.84015000000000e+00 1.66939957045507e-01 2.17719149962592e-03
1.85505000000000e+00 1.64084714679155e-01 2.14860062863016e-03
1.86995000000000e+00 1.61278306690833e-01 2.12031680836231e-03
1.88485000000000e+00 1.58519897846200e-01 2.09233888127592e-03
1.89975000000000e+00 1.55808667196268e-01 2.06466560822545e-03
1.91465000000000e+00 1.53143807833076e-01 2.03729567272297e-03
1.92955000000000e+00 1.50524526649541e-01 2.01022768502746e-03
1.94445000000000e+00 1.47950044103415e-01 1.98346018607306e-03
1.95935000000000e+00 1.45419593985278e-01 1.95699165124231e-03
1.97425000000000e+00 1.42932423190504e-01 1.93082049399087e-03
1.98915000000000e+00 1.40487791495124e-01 1.90494506932960e-03
2.00405000000000e+00 1.38084971335522e-01 1.87936367716881e-03
2.01895000000000e+00 1.35723247591900e-01 1.85407456553086e-03
2.03385000000000e+00 1.33401917375447e-01 1.82907593363567e-03
2.04875000000000e+00 1.31120289819145e-01 1.80436593486415e-03
2.06365000000000e+00 1.28877685872159e-01 1.77994267960438e-03
2.07855000000000e+00 1.26673438097738e-01 1.75580423798473e-03
2.09345000000000e+00 1.24506890474574e-01 1.73194864249845e-03
2.10835000000000e+00 1.22377398201560e-01 1.70837389052367e-03
2.12325000000000e+00 1.20284327505887e-01 1.68507794674294e-03
2.13815000000000e+00 1.18227055454419e-01 1.66205874546590e-03
2.15305000000000e+00 1.16204969768304e-01 1.63931419285893e-03
2.16795000000000e+00 1.14217468640742e-01 1.61684216908503e-03
2.18285000000000e+00 1.12263960557884e-01 1.59464053035752e-03
2.19775000000000e+00 1.10343864122781e-01 1.57270711091062e-03
2.21265000000000e+00 1.08456607882357e-01 1.55103972489009e-03
2.22755000000000e+00 1.06601630157330e-01 1.52963616816681e-03
2.24245000000000e+00 1.04778378875048e-01 1.50849422007616e-03
2.25735000000000e+00 1.02986311405184e-01 1.48761164508616e-03
2.27225000000000e+00 1.01224894398241e-01 1.46698619439678e-03
2.28715000000000e+00 9.94936036268141e-02 1.44661560747279e-03
2.30205000000000e+00 9.77919238295754e-02 1.42649761351313e-03
2.31695000000000e+00 9.61193485579221e-02 1.40662993285863e-03
2.33185000000000e+00 9.44753800252488e-02 1.38701027834063e-03
2.34675000000000e+00 9.28595289587982e-02 1.36763635657252e-03
2.36165000000000e+00 9.12713144540449e-02 1.34850586918634e-03
2.37655000000000e+00 8.97102638315705e-02 1.32961651401646e-03
2.39145000000000e+00 8.81759124963860e-02 1.31096598623240e-03
2.40635000000000e+00 8.66678037996603e-02 1.29255197942232e-03
2.42125000000000e+00 8.51854889028142e-02 1.27437218662923e-03
2.43615000000000e+00 8.37285266439385e-02 1.25642430134182e-03
2.45105000000000e+00 8.22964834064963e-02 1.23870601844103e-03
2.46595000000000e+00 8.08889329902716e-02 1.22121503510444e-03
2.48085000000000e+00 7.95054564845253e-02 1.20394905166991e-03
2.49575000000000e+00 7.81456421433199e-02 1.18690577245985e-03
2.51065000000000e+00 7.68090852629770e-02 1.17008290656774e-03
2.52555000000000e+00 7.54953880616309e-02 1.15347816860791e-03
2.54045000000000e+00 7.42041595608417e-02 1.13708927943046e-03
2.55535000000000e+00 7.29350154692338e-02 1.12091396680221e-03
2.57025000000000e+00 7.16875780681241e-02 1.10494996605488e-03
2.58515000000000e+00 7.04614760991066e-02 1.08919502070207e-03
2.60005000000000e+00 6.92563446535597e-02 1.07364688302578e-03
2.61495000000000e+00 6.80718250640432e-02 1.05830331463391e-03
2.62985000000000e+00 6.69075647975530e-02 1.04316208698949e-03
2.64475000000000e+00 6.57632173506008e-02 1.02822098191296e-03
2.65965000000000e+00 6.46384421460895e-02 1.01347779205835e-03
2.67455000000000e+00 6.35329044319513e-02 9.98930321364352e-04
2.68945000000000e+00 6.24462751815198e-02 9.84576385481158e-04
2.70435000000000e+00 6.13782309956065e-02 9.70413812174086e-04
2.71925000000000e+00 6.03284540062513e-02 9.56440441704766e-04
2.73415000000000e+00 5.92966317821200e-02 9.42654127190678e-04
2.74905000000000e+00 5.82824572355191e-02 9.29052734943946e-04
2.76395000000000e+00 5.72856285310016e-02 9.15634144790106e-04
2.77885000000000e+00 5.63058489955357e-02 9.02396250367617e-04
2.79375000000000e+00 5.53428270302097e-02 8.89336959408808e-04
2.80865000000000e+00 5.43962760234474e-02 8.76454194003025e-04
2.82355000000000e+00 5.34659142657077e-02 8.63745890842572e-04
2.83845000000000e+00 5.25514648656428e-02 8.51210001452115e-04
2.85335000000000e+00 5.16526556676910e-02 8.38844492402233e-04
2.86825000000000e+00 5.07692191710785e-02 8.26647345507658e-04
2.88315000000000e+00 4.99008924502066e-02 8.14616558010809e-04
2.89805000000000e+00 4.90474170764008e-02 8.02750142751198e-04
2.91295000000000e+00 4.82085390409976e-02 7.91046128321252e-04
2.92785000000000e+00 4.73840086797480e-02 7.79502559209008e-04
2.94275000000000e+00 4.65735805985123e-02 7.68117495928354e-04
2.95765000000000e+00 4.57770136002276e-02 7.56889015137109e-04
2.97255000000000e+00 4.49940706131226e-02 7.45815209743494e-04
2.98745000000000e+00 4.42245186201618e-02 7.34894189001588e-04
3.00235000000000e+00 4.34681285896951e-02 7.24124078595969e-04
3.01725000000000e+00 4.27246754072946e-02 7.13503020716095e-04
3.03215000000000e+00 4.19939378087565e-02 7.03029174120928e-04
3.04705000000000e+00 4.12756983142490e-02 6.92700714194001e-04
3.06195000000000e+00 4.05697431635871e-02 6.82515832989384e-04
3.07685000000000e+00 3.98758622526134e-02 6.72472739269055e-04
3.09175000000000e+00 3.91938490706680e-02 6.62569658531835e-04
3.10665000000000e+00 3.85235006391273e-02 6.52804833034374e-04
3.12155000000000e+00 3.78646174509940e-02 6.43176521804414e-04
3.13645000000000e+00 3.72170034115207e-02 6.33683000646772e-04
3.15135000000000e+00 3.65804657798486e-02 6.24322562142243e-04
3.16625000000000e+00 3.59548151116446e-02 6.15093515639749e-04
3.18115000000000e+00 3.53398652027196e-02 6.05994187242123e-04
3.19605000000000e+00 3.47354330336109e-02 5.97022919785633e-04
3.21095000000000e+00 3.41413387151125e-02 5.88178072813690e-04
3.22585000000000e+00 3.35574054347370e-02 5.79458022544890e-04
3.24075000000000e+00 3.29834594040935e-02 5.70861161835673e-04
3.25565000000000e+00 3.24193298071649e-02 5.62385900137881e-04
3.27055000000000e+00 3.18648487494701e-02 5.54030663451335e-04
3.28545000000000e+00 3.13198512080963e-02 5.45793894271788e-04
3.30035000000000e+00 3.07841749825850e-02 5.37674051534445e-04
3.31525000000000e+00 3.02576606466584e-02 5.29669610553190e-04
3.33015000000000e+00 2.97401515007716e-02 5.21779062955796e-04
3.34505000000000e+00 2.92314935254761e-02 5.14000916615291e-04
3.35995000000000e+00 2.87315353355809e-02 5.06333695577637e-04
3.37485000000000e+00 2.82401281350981e-02 4.98775939985954e-04
3.38975000000000e+00 2.77571256729582e-02 4.91326206001468e-04
3.40465000000000e+00 2.72823841994837e-02 4.83983065721294e-04
3.41955000000000e+00 2.68157624236066e-02 4.76745107093298e-04
3.43445000000000e+00 2.63571214708178e-02 4.69610933828115e-04
3.44935000000000e+00 2.59063248418357e-02 4.62579165308527e-04
3.46425000000000e+00 2.54632383719818e-02 4.55648436496374e-04
3.47915000000000e+00 2.50277301912509e-02 4.48817397837032e-04
3.49405000000000e+00 2.45996706850647e-02 4.42084715161734e-04
3.50895000000000e+00 2.41789324556956e-02 4.35449069587794e-04
3.52385000000000e+00 2.37653902843518e-02 4.28909157416787e-04
3.53875000000000e+00 2.33589210939096e-02 4.22463690030956e-04
3.55365000000000e+00 2.29594039122837e-02 4.16111393787912e-04
3.56855000000000e+00 2.25667198364238e-02 4.09851009913659e-04
3.58345000000000e+00 2.21807519969271e-02 4.03681294394150e-04
3.59835000000000e+00 2.18013855232560e-02 3.97601017865447e-04
3.61325000000000e+00 2.14285075095509e-02 3.91608965502590e-04
3.62815000000000e+00 2.10620069810270e-02 3.85703936907293e-04
3.64305000000000e+00 2.07017748609468e-02 3.79884745994460e-04
3.65795000000000e+00 2.03477039381567e-02 3.74150220877750e-04
3.67285000000000e+00 1.99996888351796e-02 3.68499203754239e-04
3.68775000000000e+00 1.96576259768522e-02 3.62930550788195e-04
3.70265000000000e+00 1.93214135594998e-02 3.57443131994090e-04
3.71755000000000e+00 1.89909515206373e-02 3.52035831118978e-04
3.73245000000000e+00 1.86661415091895e-02 3.46707545524242e-04
3.74735000000000e+00 1.83468868562199e-02 3.41457186066779e-04
3.76225000000000e+00 1.80330925461599e-02 3.36283676979760e-04
3.77715000000000e+00 1.77246651885317e-02 3.31185955752977e-04
3.79205000000000e+00 1.74215129901524e-02 3.26162973012857e-04
3.80695000000000e+00 1.71235457278160e-02 3.21213692402179e-04
3.82185000000000e+00 1.68306747214404e-02 3.16337090459597e-04
3.83675000000000e+00 1.65428128076757e-02 3.11532156499019e-04
3.85165000000000e+00 1.62598743139619e-02 3.06797892488857e-04
3.86655000000000e+00 1.59817750330324e-02 3.02133312931224e-04
3.88145000000000e+00 1.57084321978515e-02 2.97537444741117e-04
3.89635000000000e+00 1.54397644569821e-02 2.93009327125687e-04
3.91125000000000e+00 1.51756918503740e-02 2.88548011463561e-04
3.92615000000000e+00 1.49161357855664e-02 2.84152561184295e-04
3.94105000000000e+00 1.46610190142977e-02 2.79822051648043e-04
3.95595000000000e+00 1.44102656095146e-02 2.75555570025385e-04
3.97085000000000e+00 1.41638009427756e-02 2.71352215177457e-04
3.98575000000000e+00 1.39215516620396e-02 2.67211097536358e-04
4.00065000000000e+00 1.36834456698357e-02 2.63131338985867e-04
4.01555000000000e+00 1.34494121018054e-02 2.59112072742522e-04
4.03045000000000e+00 1.32193813056125e-02 2.55152443237106e-04
4.04535000000000e+00 1.29932848202130e-02 2.51251605996541e-04
4.06025000000000e+00 1.27710553554802e-02 2.47408727526248e-04
4.07515000000000e+00 1.25526267721780e-02 2.43622985192969e-04
4.09005000000000e+00 1.23379340622767e-02 2.39893567108083e-04
4.10495000000000e+00 1.21269133296054e-02 2.36219672011488e-04
4.11985000000000e+00 1.19195017708357e-02 2.32600509156004e-04
4.13475000000000e+00 1.17156376567901e-02 2.29035298192355e-04
4.14965000000000e+00 1.15152603140706e-02 2.25523269054765e-04
4.16455000000000e+00 1.13183101070010e-02 2.22063661847167e-04
4.17945000000000e+00 1.11247284198786e-02 2.18655726730027e-04
4.19435000000000e+00 1.09344576395290e-02 2.15298723807841e-04
4.20925000000000e+00 1.07474411381593e-02 2.11991923017322e-04
4.22415000000000e+00 1.05636232565052e-02 2.08734604016233e-04
4.23905000000000e+00 1.03829492872653e-02 2.05526056072962e-04
4.25395000000000e+00 1.02053654588198e-02 2.02365577956789e-04
4.26885000000000e+00 1.00308189192267e-02 1.99252477828892e-04
4.28375000000000e+00 9.85925772049243e-03 1.96186073134112e-04
4.29865000000000e+00 9.69063080311130e-03 1.93165690493460e-04
4.31355000000000e+00 9.52488798086912e-03 1.90190665597388e-04
4.32845000000000e+00 9.36197992590711e-03 1.87260343099847e-04
4.34335000000000e+00 9.20185815404100e-03 1.84374076513127e-04
4.35825000000000e+00 9.04447501033138e-03 1.81531228103501e-04
4.37315000000000e+00 8.88978365490074e-03 1.78731168787662e-04
4.38805000000000e+00 8.73773804899317e-03 1.75973278029972e-04
4.40295000000000e+00 8.58829294127242e-03 1.73256943740551e-04
4.41785000000000e+00 8.44140385435435e-03 1.70581562174165e-04
4.43275000000000e+00 8.29702707156974e-03 1.67946537829957e-04
4.44765000000000e+00 8.15511962395342e-03 1.65351283352027e-04
4.46255000000000e+00 8.01563927745599e-03 1.62795219430819e-04
4.47745000000000e+00 7.87854452037431e-03 1.60277774705389e-04
4.49235000000000e+00 7.74379455099686e-03 1.57798385666505e-04
4.50725000000000e+00 7.61134926546047e-03 1.55356496560607e-04
4.52215000000000e+00 7.48116924581476e-03 1.52951559294606e-04
4.53705000000000e+00 7.35321574829067e-03 1.50583033341561e-04
4.55195000000000e+00 7.22745069176968e-03 1.48250385647207e-04
4.56685000000000e+00 7.10383664645021e-03 1.45953090537340e-04
4.58175000000000e+00 6.98233682270787e-03 1.43690629626066e-04
4.59665000000000e+00 6.86291506014629e-03 1.41462491724914e-04
4.61155000000000e+00 6.74553581683512e-03 1.39268172752816e-04
4.62645000000000e+00 6.63016415873222e-03 1.37107175646937e-04
4.64135000000000e+00 6.51676574928662e-03 1.34979010274383e-04
4.65625000000000e+00 6.40530683921947e-03 1.32883193344762e-04
4.67115000000000e+00 6.29575425647959e-03 1.30819248323614e-04
4.68605000000000e+00 6.18807539637100e-03 1.28786705346683e-04
4.70095000000000e+00 6.08223821184915e-03 1.26785101135064e-04
