Energy (eV)          EEDF (eV^-(3/2))     First Anisotropy
2.03906250000000e-02 5.40650714215693e-02 2.53473829126846e-05
6.11718750000000e-02 5.37744662081405e-02 4.18840502633604e-05
1.01953125000000e-01 5.34854230269207e-02 5.53667587234501e-05
1.42734375000000e-01 5.31979334819290e-02 6.56554964068485e-05
1.83515625000000e-01 5.29119892222332e-02 7.42744454438590e-05
2.24296875000000e-01 5.26275819417755e-02 8.17986249180397e-05
2.65078125000000e-01 5.23447033791403e-02 8.85249937855887e-05
3.05859375000000e-01 5.20633453173166e-02 9.46325157847149e-05
3.46640625000000e-01 5.17834995834601e-02 1.00239646505189e-04
3.87421875000000e-01 5.15051580486557e-02 1.05429942040413e-04
4.28203125000000e-01 5.12283126276824e-02 1.10265132703480e-04
4.68984375000000e-01 5.09529552787774e-02 1.14792462963281e-04
5.09765625000000e-01 5.06790780034036e-02 1.19049113299686e-04
5.50546875000000e-01 5.04066728460164e-02 1.23065013568104e-04
5.91328125000000e-01 5.01357318938332e-02 1.26864712821411e-04
6.32109375000000e-01 4.98662472766035e-02 1.30468667267635e-04
6.72890625000000e-01 4.95982111663799e-02 1.33894154329756e-04
7.13671875000000e-01 4.93316157772912e-02 1.37155938008592e-04
7.54453125000000e-01 4.90664533653161e-02 1.40266763892486e-04
7.95234375000000e-01 4.88027162280579e-02 1.43237734482317e-04
8.36015625000000e-01 4.85403967045213e-02 1.46078598550538e-04
8.76796875000000e-01 4.82794871748895e-02 1.48797977540156e-04
9.17578125000000e-01 4.80199800603031e-02 1.51403545049855e-04
9.58359375000000e-01 4.77618678226398e-02 1.53902170818283e-04
9.99140625000000e-01 4.75051429642952e-02 1.56300037468612e-04
1.03992187500000e+00 4.72497980279657e-02 1.58602736088142e-04
1.08070312500000e+00 4.69958255964312e-02 1.60815345174375e-04
1.12148437500000e+00 4.67432182923400e-02 1.62942496371865e-04
1.16226562500000e+00 4.64919687779942e-02 1.64988429618601e-04
1.20304687500000e+00 4.62420697551371e-02 1.66957039726655e-04
1.24382812500000e+00 4.59935139647407e-02 1.68851915978035e-04
1.28460937500000e+00 4.57462941867949e-02 1.70676375982202e-04
1.32539062500000e+00 4.55004032400980e-02 1.72433494786107e-04
1.36617187500000e+00 4.52558339820481e-02 1.74126130030791e-04
1.40695312500000e+00 4.50125793084352e-02 1.75756943795975e-04
1.44773437500000e+00 4.47706321532355e-02 1.77328421653934e-04
1.48851562500000e+00 4.45299854884055e-02 1.78842889359376e-04
1.52929687500000e+00 4.42906323236783e-02 1.80302527526902e-04
1.57007812500000e+00 4.40525657063604e-02 1.81709384586969e-04
1.61085937500000e+00 4.38157787211295e-02 1.83065388262842e-04
1.65164062500000e+00 4.35802644898342e-02 1.84372355771449e-04
1.69242187500000e+00 4.33460161712936e-02 1.85632002918786e-04
1.73320312500000e+00 4.31130269610990e-02 1.86845952234072e-04
1.77398437500000e+00 4.28812900914160e-02 1.88015740265119e-04
1.81476562500000e+00 4.26507988307879e-02 1.89142824139204e-04
1.85554687500000e+00 4.24215464839404e-02 1.90228587478682e-04
1.89632812500000e+00 4.21935263915870e-02 1.91274345748025e-04
1.93710937500000e+00 4.19667319302354e-02 1.92281351098348e-04
1.97789062500000e+00 4.17411565119954e-02 1.93250796766540e-04
2.01867187500000e+00 4.15167935843871e-02 1.94183821078580e-04
2.05945312500000e+00 4.12936366301513e-02 1.95081511100237e-04
2.10023437500000e+00 4.10716791670592e-02 1.95944905972730e-04
2.14101562500000e+00 4.08509147477250e-02 1.96774999966409e-04
2.18179687500000e+00 4.06313369594181e-02 1.97572745281389e-04
2.22257812500000e+00 4.04129394238770e-02 1.98339054620567e-04
2.26335937500000e+00 4.01957157971240e-02 1.99074803557581e-04
2.30414062500000e+00 3.99796597692811e-02 1.99780832719568e-04
2.34492187500000e+00 3.97647650643861e-02 2.00457949802347e-04
2.38570312500000e+00 3.95510254402111e-02 2.01106931433734e-04
2.42648437500000e+00 3.93384346880807e-02 2.01728524898920e-04
2.46726562500000e+00 3.91269866326918e-02 2.02323449740326e-04
2.50804687500000e+00 3.89166751319340e-02 2.02892399243213e-04
2.54882812500000e+00 3.87074940767115e-02 2.03436041816872e-04
2.58960937500000e+00 3.84994373907656e-02 2.03955022280461e-04
2.63039062500000e+00 3.82924990304979e-02 2.04449963061462e-04
2.67117187500000e+00 3.80866729847952e-02 2.04921465314114e-04
2.71195312500000e+00 3.78819532748543e-02 2.05370109964290e-04
2.75273437500000e+00 3.76783339540089e-02 2.05796458686780e-04
2.79351562500000e+00 3.74758091075567e-02 2.06201054820372e-04
2.83429687500000e+00 3.72743728525873e-02 2.06584424225495e-04
2.87507812500000e+00 3.70740193378117e-02 2.06947076088967e-04
2.91585937500000e+00 3.68747427433921e-02 2.07289503679757e-04
2.95664062500000e+00 3.66765372807730e-02 2.07612185059475e-04
2.99742187500000e+00 3.64793971925128e-02 2.07915583750955e-04
3.03820312500000e+00 3.62833167521169e-02 2.08200149367871e-04
3.07898437500000e+00 3.60882902638712e-02 2.08466318208282e-04
3.11976562500000e+00 3.58943120626764e-02 2.08714513814644e-04
3.16054687500000e+00 3.57013765138839e-02 2.08945147502524e-04
3.20132812500000e+00 3.55094780131318e-02 2.09158618860318e-04
3.24210937500000e+00 3.53186109861824e-02 2.09355316221819e-04
3.28289062500000e+00 3.51287698887598e-02 2.09535617113489e-04
3.32367187500000e+00 3.49399492063893e-02 2.09699888678188e-04
3.36445312500000e+00 3.47521434542370e-02 2.09848488076745e-04
3.40523437500000e+00 3.45653471769508e-02 2.09981762868932e-04
3.44601562500000e+00 3.43795549485012e-02 2.10100051375084e-04
3.48679687500000e+00 3.41947613720245e-02 2.10203683019582e-04
3.52757812500000e+00 3.40109610796656e-02 2.10292978657362e-04
3.56835937500000e+00 3.38281487324222e-02 2.10368250884484e-04
3.60914062500000e+00 3.36463190199895e-02 2.10429804333663e-04
3.64992187500000e+00 3.34654666606064e-02 2.10477935955719e-04
3.69070312500000e+00 3.32855864009015e-02 2.10512935287850e-04
3.73148437500000e+00 3.31066730157411e-02 2.10535084709322e-04
3.77226562500000e+00 3.29287213080768e-02 2.10544659685452e-04
3.81304687500000e+00 3.27517261087952e-02 2.10541929000504e-04
3.85382812500000e+00 3.25756822765672e-02 2.10527154980115e-04
3.89460937500000e+00 3.24005846976988e-02 2.10500593703849e-04
3.93539062500000e+00 3.22264282859828e-02 2.10462495208403e-04
3.97617187500000e+00 3.20532079825509e-02 2.10413103682039e-04
4.01695312500000e+00 3.18809187557264e-02 2.10352657650640e-04
4.05773437500000e+00 3.17095556008788e-02 2.10281390155860e-04
4.09851562500000e+00 3.15391135402776e-02 2.10199528925839e-04
4.13929687500000e+00 3.13695876229485e-02 2.10107296538811e-04
4.18007812500000e+00 3.12009729245289e-02 2.10004910579965e-04
4.22085937500000e+00 3.10332645471252e-02 2.09892583791982e-04
4.26164062500000e+00 3.08664576191705e-02 2.09770524219493e-04
4.30242187500000e+00 3.07005472952831e-02 2.09638935347771e-04
4.34320312500000e+00 3.05355287561256e-02 2.09498016236014e-04
4.38398437500000e+00 3.03713972082652e-02 2.09347961645418e-04
4.42476562500000e+00 3.02081478840341e-02 2.09188962162281e-04
4.46554687500000e+00 3.00457760413913e-02 2.09021204316474e-04
4.50632812500000e+00 2.98842769637848e-02 2.08844870695348e-04
4.54710937500000e+00 2.97236459600145e-02 2.08660140053458e-04
4.58789062500000e+00 2.95638783640957e-02 2.08467187418179e-04
4.62867187500000e+00 2.94049695351244e-02 2.08266184191477e-04
4.66945312500000e+00 2.92469148571414e-02 2.08057298247965e-04
4.71023437500000e+00 2.90897097389991e-02 2.07840694029406e-04
4.75101562500000e+00 2.89333496142275e-02 2.07616532635941e-04
4.79179687500000e+00 2.87778299409021e-02 2.07384971913988e-04
4.83257812500000e+00 2.86231462015116e-02 2.07146166541143e-04
4.87335937500000e+00 2.84692939028266e-02 2.06900268108122e-04
4.91414062500000e+00 2.83162685757696e-02 2.06647425197888e-04
4.95492187500000e+00 2.81640657752846e-02 2.06387783462069e-04
4.99570312500000e+00 2.80126810802083e-02 2.06121485694822e-04
5.03648437500000e+00 2.78621100931415e-02 2.05848671904248e-04
5.07726562500000e+00 2.77123484403217e-02 2.05569479381418e-04
5.11804687500000e+00 2.75633917714955e-02 2.05284042767149e-04
5.15882812500000e+00 2.74152357597928e-02 2.04992494116593e-04
5.19960937500000e+00 2.72678761016008e-02 2.04694962961803e-04
5.24039062500000e+00 2.71213085164391e-02 2.04391576372219e-04
5.28117187500000e+00 2.69755287468350e-02 2.04082459013252e-04
5.32195312500000e+00 2.68305325582007e-02 2.03767733203128e-04
5.36273437500000e+00 2.66863157387093e-02 2.03447518967870e-04
5.40351562500000e+00 2.65428740991729e-02 2.03121934094573e-04
5.44429687500000e+00 2.64002034729212e-02 2.02791094183115e-04
5.48507812500000e+00 2.62582997156800e-02 2.02455112696223e-04
5.52585937500000e+00 2.61171587054509e-02 2.02114101008111e-04
5.56664062500000e+00 2.59767763423918e-02 2.01768168451653e-04
5.60742187500000e+00 2.58371485486977e-02 2.01417422364088e-04
5.64820312500000e+00 2.56982712684820e-02 2.01061968131432e-04
5.68898437500000e+00 2.55601404676591e-02 2.00701909231648e-04
5.72976562500000e+00 2.54227521338269e-02 2.00337347276478e-04
5.77054687500000e+00 2.52861022761505e-02 1.99968382052104e-04
5.81132812500000e+00 2.51501869252460e-02 1.99595111558707e-04
5.85210937500000e+00 2.50150021330654e-02 1.99217632048818e-04
5.89289062500000e+00 2.48805439727818e-02 1.98836038064661e-04
5.93367187500000e+00 2.47468085386756e-02 1.98450422474470e-04
5.97445312500000e+00 2.46137919460205e-02 1.98060876507736e-04
6.01523437500000e+00 2.44814903309713e-02 1.97667489789521e-04
6.05601562500000e+00 2.43498998504512e-02 1.97270350373877e-04
6.09679687500000e+00 2.42190166820403e-02 1.96869544776309e-04
6.13757812500000e+00 2.40888370238647e-02 1.96465158005405e-04
6.17835937500000e+00 2.39593570944860e-02 1.96057273593627e-04
6.21914062500000e+00 2.38305731327911e-02 1.95645973627253e-04
6.25992187500000e+00 2.37024813978837e-02 1.95231338775541e-04
6.30070312500000e+00 2.35750781689748e-02 1.94813448319189e-04
6.34148437500000e+00 2.34483597452753e-02 1.94392380178015e-04
6.38226562500000e+00 2.33223224458881e-02 1.93968210937910e-04
6.42304687500000e+00 2.31969626097013e-02 1.93541015877165e-04
6.46382812500000e+00 2.30722765952818e-02 1.93110868992081e-04
6.50460937500000e+00 2.29482607807697e-02 1.92677843021941e-04
6.54539062500000e+00 2.28249115637728e-02 1.92242009473394e-04
6.58617187500000e+00 2.27022253612622e-02 1.91803438644204e-04
6.62695312500000e+00 2.25801986094682e-02 1.91362199646404e-04
6.66773437500000e+00 2.24588277637767e-02 1.90918360428934e-04
6.70851562500000e+00 2.23381092986261e-02 1.90471987799686e-04
6.74929687500000e+00 2.22180397074052e-02 1.90023147447013e-04
6.79007812500000e+00 2.20986155023512e-02 1.89571903960764e-04
6.83085937500000e+00 2.19798332144484e-02 1.89118320852813e-04
6.87164062500000e+00 2.18616893933272e-02 1.88662460577020e-04
6.91242187500000e+00 2.17441806071644e-02 1.88204384548843e-04
6.95320312500000e+00 2.16273034425829e-02 1.87744153164462e-04
6.99398437500000e+00 2.15110545045530e-02 1.87281825819345e-04
7.03476562500000e+00 2.13954304162936e-02 1.86817460926559e-04
7.07554687500000e+00 2.12804278191743e-02 1.86351115934537e-04
7.11632812500000e+00 2.11660433726173e-02 1.85882847344481e-04
7.15710937500000e+00 2.10522737540010e-02 1.85412710727403e-04
7.19789062500000e+00 2.09391156585633e-02 1.84940760740720e-04
7.23867187500000e+00 2.08265657993053e-02 1.84467051144539e-04
7.27945312500000e+00 2.07146209068962e-02 1.83991634817511e-04
7.32023437500000e+00 2.06032777295782e-02 1.83514563772415e-04
7.36101562500000e+00 2.04925330330720e-02 1.83035889171369e-04
7.40179687500000e+00 2.03823836004827e-02 1.82555661340680e-04
7.44257812500000e+00 2.02728262322068e-02 1.82073929785360e-04
7.48335937500000e+00 2.01638577458389e-02 1.81590743203392e-04
7.52414062500000e+00 2.00554749760793e-02 1.81106149499688e-04
7.56492187500000e+00 1.99476747746421e-02 1.80620195799701e-04
7.60570312500000e+00 1.98404540101639e-02 1.80132928462765e-04
7.64648437500000e+00 1.97338095681124e-02 1.79644393095152e-04
7.68726562500000e+00 1.96277383506966e-02 1.79154634562852e-04
7.72804687500000e+00 1.95222372767761e-02 1.78663697004113e-04
7.76882812500000e+00 1.94173032817722e-02 1.78171623841701e-04
7.80960937500000e+00 1.93129333175785e-02 1.77678457794909e-04
7.85039062500000e+00 1.92091243524724e-02 1.77184240891326e-04
7.89117187500000e+00 1.91058733710273e-02 1.76689014478350e-04
7.93195312500000e+00 1.90031773740246e-02 1.76192819234476e-04
7.97273437500000e+00 1.89010333783671e-02 1.75695695180371e-04
8.01351562500000e+00 1.87994384169918e-02 1.75197681689697e-04
8.05429687500000e+00 1.86983895387840e-02 1.74698817499743e-04
8.09507812500000e+00 1.85978838084916e-02 1.74199140721834e-04
8.13585937500000e+00 1.84979183066397e-02 1.73698688851553e-04
8.17664062500000e+00 1.83984901294461e-02 1.73197498778732e-04
8.21742187500000e+00 1.82995963887364e-02 1.72695606797249e-04
8.25820312500000e+00 1.82012342118606e-02 1.72193048614668e-04
8.29898437500000e+00 1.81034007416095e-02 1.71689859361675e-04
8.33976562500000e+00 1.80060931361317e-02 1.71186073601309e-04
8.38054687500000e+00 1.79093085688508e-02 1.70681725338031e-04
8.42132812500000e+00 1.78130442283839e-02 1.70176848026657e-04
8.46210937500000e+00 1.77172973184593e-02 1.69671474581062e-04
8.50289062500000e+00 1.76220650578357e-02 1.69165637382738e-04
8.54367187500000e+00 1.75273446802211e-02 1.68659368289237e-04
8.58445312500000e+00 1.74331334341927e-02 1.68152698642388e-04
8.62523437500000e+00 1.73394285831169e-02 1.67645659276387e-04
8.66601562500000e+00 1.72462274050697e-02 1.67138280525764e-04
8.70679687500000e+00 1.71535271927578e-02 1.66630592233170e-04
8.74757812500000e+00 1.70613252534398e-02 1.66122623757010e-04
8.78835937500000e+00 1.69696189088481e-02 1.65614403978981e-04
8.82914062500000e+00 1.68784054951110e-02 1.65105961311440e-04
8.86992187500000e+00 1.67876823626755e-02 1.64597323704651e-04
8.91070312500000e+00 1.66974468762300e-02 1.64088518653886e-04
8.95148437500000e+00 1.66076964146283e-02 1.63579573206416e-04
8.99226562500000e+00 1.65184283708128e-02 1.63070513968386e-04
9.03304687500000e+00 1.64296401517392e-02 1.62561367111517e-04
9.07382812500000e+00 1.63413291783012e-02 1.62052158379745e-04
9.11460937500000e+00 1.62534928852553e-02 1.61542913095742e-04
9.15539062500000e+00 1.61661287211466e-02 1.61033656167250e-04
9.19617187500000e+00 1.60792341482342e-02 1.60524412093373e-04
9.23695312500000e+00 1.59928066424183e-02 1.60015204970797e-04
9.27773437500000e+00 1.59068436931660e-02 1.59506058499782e-04
9.31851562500000e+00 1.58213428034389e-02 1.58996995990120e-04
9.35929687500000e+00 1.57363014896205e-02 1.58488040367011e-04
9.40007812500000e+00 1.56517172814438e-02 1.57979214176800e-04
9.44085937500000e+00 1.55675877219200e-02 1.57470539592638e-04
9.48164062500000e+00 1.54839103672666e-02 1.56962038420027e-04
9.52242187500000e+00 1.54006827868368e-02 1.56453732102265e-04
9.56320312500000e+00 1.53179025630489e-02 1.55945641725854e-04
9.60398437500000e+00 1.52355672913158e-02 1.55437788025760e-04
9.64476562500000e+00 1.51536745799752e-02 1.54930191390585e-04
9.68554687500000e+00 1.50722220502203e-02 1.54422871867677e-04
9.72632812500000e+00 1.49912073360308e-02 1.53915849168175e-04
9.76710937500000e+00 1.49106280841039e-02 1.53409142671920e-04
9.80789062500000e+00 1.48304819537859e-02 1.52902771432308e-04
9.84867187500000e+00 1.47507666170044e-02 1.52396754181070e-04
9.88945312500000e+00 1.46714797582008e-02 1.51891109332961e-04
9.93023437500000e+00 1.45926190742627e-02 1.51385854990387e-04
9.97101562500000e+00 1.45141822744572e-02 1.50881008947947e-04
1.00117968750000e+01 1.44361670803644e-02 1.50376588696899e-04
1.00525781250000e+01 1.43585712258109e-02 1.49872611247192e-04
1.00933593750000e+01 1.42813924571840e-02 1.49369093862219e-04
1.01341406250000e+01 1.42046285318456e-02 1.48866052970635e-04
1.01749218750000e+01 1.41282772207234e-02 1.48363504884259e-04
1.02157031250000e+01 1.40523363052291e-02 1.47861466006636e-04
1.02564843750000e+01 1.39768035794497e-02 1.47359951377456e-04
1.02972656250000e+01 1.39016768500598e-02 1.46858976840982e-04
1.03380468750000e+01 1.38269539340591e-02 1.46358557623392e-04
1.03788281250000e+01 1.37526326616318e-02 1.45858708321635e-04
1.04196093750000e+01 1.36787108738945e-02 1.45359444324705e-04
1.04603906250000e+01 1.36051864228722e-02 1.44860779715569e-04
1.05011718750000e+01 1.35320571735379e-02 1.44362728660303e-04
1.05419531250000e+01 1.34593210009512e-02 1.43865305426000e-04
1.05827343750000e+01 1.33869757922893e-02 1.43368523008221e-04
1.06235156250000e+01 1.33150194467644e-02 1.42872395175243e-04
1.06642968750000e+01 1.32434498735214e-02 1.42376935126397e-04
1.07050781250000e+01 1.31722649942905e-02 1.41882155481374e-04
1.07458593750000e+01 1.31014627412946e-02 1.41388069620246e-04
1.07866406250000e+01 1.30310410572249e-02 1.40894689704630e-04
1.08274218750000e+01 1.29609978971332e-02 1.40402027987593e-04
1.08682031250000e+01 1.28913312257726e-02 1.39910096830301e-04
1.09089843750000e+01 1.28220390194822e-02 1.39418907407178e-04
1.09497656250000e+01 1.27531192661089e-02 1.38928471633984e-04
1.09905468750000e+01 1.26845699630520e-02 1.38438800901994e-04
1.10313281250000e+01 1.26163891197265e-02 1.37949906067732e-04
1.10721093750000e+01 1.25485747556169e-02 1.37461798717004e-04
1.11128906250000e+01 1.24811249002522e-02 1.36974489297712e-04
1.11536718750000e+01 1.24140375949639e-02 1.36487988355610e-04
1.11944531250000e+01 1.23473108904115e-02 1.36002306549793e-04
1.12352343750000e+01 1.22809428483334e-02 1.35517453430622e-04
1.12760156250000e+01 1.22149315414724e-02 1.35033439259111e-04
1.13167968750000e+01 1.21492750517561e-02 1.34550273812108e-04
1.13575781250000e+01 1.20839714725859e-02 1.34067966662151e-04
1.13983593750000e+01 1.20190189064579e-02 1.33586527210116e-04
1.14391406250000e+01 1.19544154672106e-02 1.33105964372509e-04
1.14799218750000e+01 1.18901592782450e-02 1.32626287757276e-04
1.15207031250000e+01 1.18262484725002e-02 1.32147505926313e-04
1.15614843750000e+01 1.17626811940574e-02 1.31669627545127e-04
1.16022656250000e+01 1.16994555958766e-02 1.31192661397012e-04
1.16430468750000e+01 1.16365698413955e-02 1.30716615245593e-04
1.16838281250000e+01 1.15740221044589e-02 1.30241497527926e-04
1.17246093750000e+01 1.15118105676541e-02 1.29767316242211e-04
1.17653906250000e+01 1.14499334244012e-02 1.29294078938532e-04
1.18061718750000e+01 1.13883888772950e-02 1.28821793829123e-04
1.18469531250000e+01 1.13271751380800e-02 1.28350468147307e-04
1.18877343750000e+01 1.12662904291436e-02 1.27880109233166e-04
1.19285156250000e+01 1.12057329814062e-02 1.27410724546789e-04
1.19692968750000e+01 1.11455010358090e-02 1.26942320593770e-04
1.20100781250000e+01 1.10855928432475e-02 1.26474904524362e-04
1.20508593750000e+01 1.10260066630185e-02 1.26008483082619e-04
1.20916406250000e+01 1.09667407647668e-02 1.25543062597584e-04
1.21324218750000e+01 1.09077934269389e-02 1.25078650032056e-04
1.21732031250000e+01 1.08491629367579e-02 1.24615251432060e-04
1.22139843750000e+01 1.07908475916140e-02 1.24152872952479e-04
1.22547656250000e+01 1.07328456970968e-02 1.23691520869433e-04
1.22955468750000e+01 1.06751555683804e-02 1.23231200564866e-04
1.23363281250000e+01 1.06177755301605e-02 1.22771918037524e-04
1.23771093750000e+01 1.05607039152052e-02 1.22313678909854e-04
1.24178906250000e+01 1.05039390661684e-02 1.21856488419572e-04
1.24586718750000e+01 1.04474793341473e-02 1.21400352410710e-04
1.24994531250000e+01 1.03913230786571e-02 1.20945275868075e-04
1.25402343750000e+01 1.03354686689271e-02 1.20491263886556e-04
1.25810156250000e+01 1.02799144820636e-02 1.20038321682711e-04
1.26217968750000e+01 1.02246589043409e-02 1.19586453634822e-04
1.26625781250000e+01 1.01697003311418e-02 1.19135664711133e-04
1.27033593750000e+01 1.01150371656039e-02 1.18685959530941e-04
1.27441406250000e+01 1.00606678203105e-02 1.18237342356573e-04
1.27849218750000e+01 1.00065907159435e-02 1.17789818030205e-04
1.28257031250000e+01 9.95280428125846e-03 1.17343390588216e-04
1.28664843750000e+01 9.89930695429291e-03 1.16898064177525e-04
