Energy (eV)          EEDF (eV^-(3/2))     First Anisotropy
2.20512820512820e-02 1.01458960459024e-01 6.08897581824523e-05
6.61538461538461e-02 1.00562179142633e-01 1.00439598513814e-04
1.10256410256410e-01 9.96733243485809e-02 1.32309289098323e-04
1.54358974358974e-01 9.87923260171523e-02 1.56349776846564e-04
1.98461538461538e-01 9.79191147046861e-02 1.76258688917368e-04
2.42564102564103e-01 9.70536215788350e-02 1.93438119371627e-04
2.86666666666667e-01 9.61957784244034e-02 2.08615658732805e-04
3.30769230769231e-01 9.53455176241143e-02 2.22231861880631e-04
3.74871794871795e-01 9.45027721584618e-02 2.34579688816408e-04
4.18974358974359e-01 9.36674756003728e-02 2.45866742670736e-04
4.63076923076923e-01 9.28395621099389e-02 2.56247103329030e-04
5.07179487179487e-01 9.20189664292132e-02 2.65839232749379e-04
5.51282051282051e-01 9.12056238770897e-02 2.74736781489822e-04
5.95384615384615e-01 9.03994703441756e-02 2.83015476703956e-04
6.39487179487179e-01 8.96004422877359e-02 2.90737708402309e-04
6.83589743589744e-01 8.88084767255001e-02 2.97955693808028e-04
7.27692307692308e-01 8.80235112343544e-02 3.04713727602083e-04
7.71794871794872e-01 8.72454839416446e-02 3.11049822938636e-04
8.15897435897436e-01 8.64743335216038e-02 3.16996934016334e-04
8.60000000000000e-01 8.57099991905180e-02 3.22583885126261e-04
9.04102564102564e-01 8.49524207019306e-02 3.27836088131883e-04
9.48205128205128e-01 8.42015383418980e-02 3.32776104875906e-04
9.92307692307692e-01 8.34572929242844e-02 3.37424093563546e-04
1.03641025641026e+00 8.27196257888833e-02 3.41798169214427e-04
1.08051282051282e+00 8.19884787842146e-02 3.45914692929883e-04
1.12461538461538e+00 8.12637942866048e-02 3.49788512826303e-04
1.16871794871795e+00 8.05455151684160e-02 3.53433161676725e-04
1.21282051282051e+00 7.98335848197340e-02 3.56861021211545e-04
1.25692307692308e+00 7.91279471243577e-02 3.60083463976525e-04
1.30102564102564e+00 7.84285464569219e-02 3.63110966428670e-04
1.34512820512820e+00 7.77353276946077e-02 3.65953211902634e-04
1.38923076923077e+00 7.70482361913108e-02 3.68619175758320e-04
1.43333333333333e+00 7.63672177940943e-02 3.71117199126972e-04
1.47743589743590e+00 7.56922188188322e-02 3.73455053031533e-04
1.52153846153846e+00 7.50231860654160e-02 3.75639993324638e-04
1.56564102564103e+00 7.43600667990491e-02 3.77678811903178e-04
1.60974358974359e+00 7.37028087470720e-02 3.79577875695129e-04
1.65384615384615e+00 7.30513601071681e-02 3.81343166747422e-04
1.69794871794872e+00 7.24056695268162e-02 3.82980315005097e-04
1.74205128205128e+00 7.17656861152366e-02 3.84494627232999e-04
1.78615384615385e+00 7.11313594274139e-02 3.85891115614738e-04
1.83025641025641e+00 7.05026394608735e-02 3.87174517970722e-04
1.87435897435897e+00 6.98794766620526e-02 3.88349321027912e-04
1.91846153846154e+00 6.92618219086173e-02 3.89419778912752e-04
1.96256410256410e+00 6.86496265190080e-02 3.90389929667991e-04
2.00666666666667e+00 6.80428422385658e-02 3.91263612730061e-04
2.05076923076923e+00 6.74414212362921e-02 3.92044479946282e-04
2.09487179487179e+00 6.68453161098649e-02 3.92736010233946e-04
2.13897435897436e+00 6.62544798701858e-02 3.93341520727549e-04
2.18307692307692e+00 6.56688659491044e-02 3.93864177247599e-04
2.22717948717949e+00 6.50884281845938e-02 3.94307004032753e-04
2.27128205128205e+00 6.45131208279948e-02 3.94672892067352e-04
2.31538461538462e+00 6.39428985322770e-02 3.94964608973315e-04
2.35948717948718e+00 6.33777163488718e-02 3.95184803847800e-04
2.40358974358974e+00 6.28175297313520e-02 3.95336015841342e-04
2.44769230769231e+00 6.22622945222896e-02 3.95420680118641e-04
2.49179487179487e+00 6.17119669591897e-02 3.95441133252678e-04
2.53589743589744e+00 6.11665036639965e-02 3.95399620262610e-04
2.58000000000000e+00 6.06258616400139e-02 3.95298297252829e-04
2.62410256410256e+00 6.00899982748108e-02 3.95139237634726e-04
2.66820512820513e+00 5.95588713284664e-02 3.94924436118627e-04
2.71230769230769e+00 5.90324389384590e-02 3.94655812329724e-04
2.75641025641026e+00 5.85106596102148e-02 3.94335216048823e-04
2.80051282051282e+00 5.79934922141168e-02 3.93964428543025e-04
2.84461538461538e+00 5.74808959877969e-02 3.93545167271693e-04
2.88871794871795e+00 5.69728305255451e-02 3.93079088641929e-04
2.93282051282051e+00 5.64692557823524e-02 3.92567790498953e-04
2.97692307692308e+00 5.59701320653454e-02 3.92012816179825e-04
3.02102564102564e+00 5.54754200308857e-02 3.91415655043326e-04
3.06512820512821e+00 5.49850806863697e-02 3.90777746155323e-04
3.10923076923077e+00 5.44990753806276e-02 3.90100480238482e-04
3.15333333333333e+00 5.40173658072753e-02 3.89385201723624e-04
3.19743589743590e+00 5.35399139954198e-02 3.88633210787343e-04
3.24153846153846e+00 5.30666823128199e-02 3.87845764879782e-04
3.28564102564103e+00 5.25976334583157e-02 3.87024081712007e-04
3.32974358974359e+00 5.21327304590732e-02 3.86169339131462e-04
3.37384615384615e+00 5.16719366718643e-02 3.85282677877456e-04
3.41794871794872e+00 5.12152157745883e-02 3.84365202818134e-04
3.46205128205128e+00 5.07625317688961e-02 3.83417984051077e-04
3.50615384615385e+00 5.03138489732439e-02 3.82442059372380e-04
3.55025641025641e+00 4.98691320202425e-02 3.81438433893421e-04
3.59435897435897e+00 4.94283458576231e-02 3.80408082337974e-04
3.63846153846154e+00 4.89914557404702e-02 3.79351949953012e-04
3.68256410256410e+00 4.85584272333982e-02 3.78270953309943e-04
3.72666666666667e+00 4.81292262041574e-02 3.77165982387818e-04
3.77076923076923e+00 4.77038188210800e-02 3.76037900029435e-04
3.81487179487179e+00 4.72821715537910e-02 3.74887543891078e-04
3.85897435897436e+00 4.68642511660658e-02 3.73715727121750e-04
3.90307692307692e+00 4.64500247176314e-02 3.72523239182024e-04
3.94717948717949e+00 4.60394595572249e-02 3.71310846703998e-04
3.99128205128205e+00 4.56325233242892e-02 3.70079294008938e-04
4.03538461538461e+00 4.52291839432281e-02 3.68829304800508e-04
4.07948717948718e+00 4.48294096209907e-02 3.67561581490231e-04
4.12358974358974e+00 4.44331688475087e-02 3.66276806793216e-04
4.16769230769231e+00 4.40404303892909e-02 3.64975644182823e-04
4.21179487179487e+00 4.36511632908177e-02 3.63658738272548e-04
4.25589743589744e+00 4.32653368692140e-02 3.62326716295204e-04
4.30000000000000e+00 4.28829207119306e-02 3.60980187387200e-04
4.34410256410256e+00 4.25038846770139e-02 3.59619743989070e-04
4.38820512820513e+00 4.21281988871762e-02 3.58245962189335e-04
4.43230769230769e+00 4.17558337309364e-02 3.56859402005612e-04
4.47641025641026e+00 4.13867598576690e-02 3.55460608691075e-04
4.52051282051282e+00 4.10209481753782e-02 3.54050112001553e-04
4.56461538461538e+00 4.06583698508282e-02 3.52628427436583e-04
4.60871794871795e+00 4.02989963040419e-02 3.51196056500303e-04
4.65282051282051e+00 3.99427992092253e-02 3.49753486906907e-04
4.69692307692308e+00 3.95897504901563e-02 3.48301193745204e-04
4.74102564102564e+00 3.92398223180481e-02 3.46839638744481e-04
4.78512820512820e+00 3.88929871115641e-02 3.45369271383284e-04
4.82923076923077e+00 3.85492175317034e-02 3.43890529087444e-04
4.87333333333333e+00 3.82084864825398e-02 3.42403837548510e-04
4.91743589743590e+00 3.78707671062368e-02 3.40909611087035e-04
4.96153846153846e+00 3.75360327837354e-02 3.39408252780949e-04
5.00564102564103e+00 3.72042571305568e-02 3.37900155472344e-04
5.04974358974359e+00 3.68754139947884e-02 3.36385701044316e-04
5.09384615384615e+00 3.65494774569755e-02 3.34865261382745e-04
5.13794871794872e+00 3.62264218254766e-02 3.33339198508414e-04
5.18205128205128e+00 3.59062216370007e-02 3.31807864666737e-04
5.22615384615385e+00 3.55888516526811e-02 3.30271603239280e-04
5.27025641025641e+00 3.52742868561464e-02 3.28730748039912e-04
5.31435897435897e+00 3.49625024533352e-02 3.27185624187601e-04
5.35846153846154e+00 3.46534738681609e-02 3.25636548204529e-04
5.40256410256410e+00 3.43471767429206e-02 3.24083828075783e-04
5.44666666666667e+00 3.40435869346180e-02 3.22527764079278e-04
5.49076923076923e+00 3.37426805131137e-02 3.20968648104975e-04
5.53487179487179e+00 3.34444337608789e-02 3.19406764450278e-04
5.57897435897436e+00 3.31488231689413e-02 3.17842389891961e-04
5.62307692307692e+00 3.28558254371844e-02 3.16275793858993e-04
5.66717948717949e+00 3.25654174703903e-02 3.14707238644567e-04
5.71128205128205e+00 3.22775763785084e-02 3.13136979433954e-04
5.75538461538461e+00 3.19922794732878e-02 3.11565265039748e-04
5.79948717948718e+00 3.17095042665341e-02 3.09992337253930e-04
5.84358974358974e+00 3.14292284697995e-02 3.08418431553398e-04
5.88769230769231e+00 3.11514299906780e-02 3.06843777143483e-04
5.93179487179487e+00 3.08760869329840e-02 3.05268596970060e-04
5.97589743589744e+00 3.06031775935887e-02 3.03693108394799e-04
6.02000000000000e+00 3.03326804607508e-02 3.02117522574441e-04
6.06410256410256e+00 3.00645742137675e-02 3.00542045109861e-04
6.10820512820513e+00 2.97988377195001e-02 2.98966876074593e-04
6.15230769230769e+00 2.95354500324765e-02 2.97392210014603e-04
6.19641025641026e+00 2.92743903919163e-02 2.95818236570528e-04
6.24051282051282e+00 2.90156382201320e-02 2.94245139884443e-04
6.28461538461538e+00 2.87591731221478e-02 2.92673099198520e-04
6.32871794871795e+00 2.85049748824394e-02 2.91102288871827e-04
6.37282051282051e+00 2.82530234649701e-02 2.89532878370441e-04
6.41692307692308e+00 2.80032990103914e-02 2.87965032842526e-04
6.46102564102564e+00 2.77557818345109e-02 2.86398912552381e-04
6.50512820512821e+00 2.75104524278870e-02 2.84834673433840e-04
6.54923076923077e+00 2.72672914527652e-02 2.83272467097907e-04
6.59333333333333e+00 2.70262797430582e-02 2.81712440919052e-04
6.63743589743590e+00 2.67873983013517e-02 2.80154738152531e-04
6.68153846153846e+00 2.65506282988697e-02 2.78599497914212e-04
6.72564102564102e+00 2.63159510728957e-02 2.77046855698854e-04
6.76974358974359e+00 2.60833481253309e-02 2.75496942849356e-04
6.81384615384615e+00 2.58528011222657e-02 2.73949887056029e-04
6.85794871794872e+00 2.56242918911634e-02 2.72405812353882e-04
6.90205128205128e+00 2.53978024207807e-02 2.70864839097648e-04
6.94615384615385e+00 2.51733148587344e-02 2.69327084442954e-04
6.99025641025641e+00 2.49508115101225e-02 2.67792661841455e-04
7.03435897435897e+00 2.47302748370813e-02 2.66261681504843e-04
7.07846153846154e+00 2.45116874561345e-02 2.64734250396854e-04
7.12256410256410e+00 2.42950321380749e-02 2.63210472204527e-04
7.16666666666667e+00 2.40802918056688e-02 2.61690447785932e-04
7.21076923076923e+00 2.38674495323345e-02 2.60174274690273e-04
7.25487179487179e+00 2.36564885416914e-02 2.58662047589580e-04
7.29897435897436e+00 2.34473922050616e-02 2.57153858266781e-04
7.34307692307692e+00 2.32401440413190e-02 2.55649795668645e-04
7.38717948717949e+00 2.30347277144461e-02 2.54149945984349e-04
7.43128205128205e+00 2.28311270333754e-02 2.52654392612711e-04
7.47538461538462e+00 2.26293259498679e-02 2.51163216569010e-04
7.51948717948718e+00 2.24293085572696e-02 2.49676496036923e-04
7.56358974358974e+00 2.22310590900554e-02 2.48194306760922e-04
7.60769230769231e+00 2.20345619215241e-02 2.46716722029764e-04
7.65179487179487e+00 2.18398015636150e-02 2.45243812642200e-04
7.69589743589744e+00 2.16467626649024e-02 2.43775647286642e-04
7.74000000000000e+00 2.14554300094052e-02 2.42312292115798e-04
7.78410256410256e+00 2.12657885161285e-02 2.40853811113078e-04
7.82820512820513e+00 2.10778232368885e-02 2.39400266073896e-04
7.87230769230769e+00 2.08915193561074e-02 2.37951716570404e-04
7.91641025641026e+00 2.07068621889171e-02 2.36508220306235e-04
7.96051282051282e+00 2.05238371800201e-02 2.35069832712826e-04
8.00461538461538e+00 2.03424299032299e-02 2.33636607291920e-04
8.04871794871795e+00 2.01626260594182e-02 2.32208595595246e-04
8.09282051282051e+00 1.99844114762918e-02 2.30785847188658e-04
8.13692307692308e+00 1.98077721065983e-02 2.29368409984071e-04
8.18102564102564e+00 1.96326940270361e-02 2.27956329856400e-04
8.22512820512820e+00 1.94591634377963e-02 2.26549650963965e-04
8.26923076923077e+00 1.92871666606235e-02 2.25148415727102e-04
8.31333333333333e+00 1.91166901385780e-02 2.23752664857331e-04
8.35743589743590e+00 1.89477204341377e-02 2.22362437406448e-04
8.40153846153846e+00 1.87802442289580e-02 2.20977770730169e-04
8.44564102564103e+00 1.86142483222085e-02 2.19598700791742e-04
8.48974358974359e+00 1.84497196295477e-02 2.18225261805024e-04
8.53384615384615e+00 1.82866451826718e-02 2.16857486527718e-04
8.57794871794872e+00 1.81250121275198e-02 2.15495406238648e-04
8.62205128205128e+00 1.79648077240233e-02 2.14139050701659e-04
8.66615384615385e+00 1.78060193445310e-02 2.12788448450215e-04
8.71025641025641e+00 1.76486344728270e-02 2.11443626448823e-04
8.75435897435897e+00 1.74926407036854e-02 2.10104610368057e-04
8.79846153846154e+00 1.73380257411720e-02 2.08771424561409e-04
8.84256410256410e+00 1.71847773983863e-02 2.07444092029587e-04
8.88666666666667e+00 1.70328835959688e-02 2.06122634687555e-04
8.93076923076923e+00 1.68823323611608e-02 2.04807073043405e-04
8.97487179487179e+00 1.67331118273659e-02 2.03497426456370e-04
9.01897435897436e+00 1.65852102325425e-02 2.02193713113578e-04
9.06307692307692e+00 1.64386159189400e-02 2.00895950048661e-04
9.10717948717949e+00 1.62933173315252e-02 1.99604153176862e-04
9.15128205128205e+00 1.61493030177179e-02 1.98318337259898e-04
9.19538461538462e+00 1.60065616260043e-02 1.97038516151122e-04
9.23948717948718e+00 1.58650819050534e-02 1.95764702496522e-04
9.28358974358974e+00 1.57248527032895e-02 1.94496907971585e-04
9.32769230769231e+00 1.55858629674014e-02 1.93235143257904e-04
9.37179487179487e+00 1.54481017420752e-02 1.91979418008859e-04
9.41589743589743e+00 1.53115581686790e-02 1.90729741079957e-04
9.46000000000000e+00 1.51762214844172e-02 1.89486120245237e-04
9.50410256410256e+00 1.50420810219107e-02 1.88248562419915e-04
9.54820512820513e+00 1.49091262077857e-02 1.87017073637170e-04
9.59230769230769e+00 1.47773465624038e-02 1.85791659014684e-04
9.63641025641026e+00 1.46467316986137e-02 1.84572322971217e-04
9.68051282051282e+00 1.45172713209427e-02 1.83359068957608e-04
9.72461538461538e+00 1.43889552251852e-02 1.82151899666161e-04
9.76871794871795e+00 1.42617732970655e-02 1.80950817007744e-04
9.81282051282051e+00 1.41357155119669e-02 1.79755822079188e-04
9.85692307692308e+00 1.40107719337475e-02 1.78566915367094e-04
9.90102564102564e+00 1.38869327139660e-02 1.77384096492662e-04
9.94512820512820e+00 1.37641880914796e-02 1.76207364408662e-04
9.98923076923077e+00 1.36425283911763e-02 1.75036717590298e-04
1.00333333333333e+01 1.35219440231062e-02 1.73872153106335e-04
1.00774358974359e+01 1.34024254838731e-02 1.72713668131099e-04
1.01215384615385e+01 1.32839633515846e-02 1.71561259005323e-04
1.01656410256410e+01 1.31665482899665e-02 1.70414921360671e-04
1.02097435897436e+01 1.30501710429617e-02 1.69274650654136e-04
1.02538461538462e+01 1.29348224374832e-02 1.68140440501431e-04
1.02979487179487e+01 1.28204933826278e-02 1.67012285165494e-04
1.03420512820513e+01 1.27071748656280e-02 1.65890178343363e-04
1.03861538461538e+01 1.25948579544913e-02 1.64774111974258e-04
1.04302564102564e+01 1.24835337972369e-02 1.63664078648656e-04
1.04743589743590e+01 1.23731936179915e-02 1.62560070433440e-04
1.05184615384615e+01 1.22638287195214e-02 1.61462077717544e-04
1.05625641025641e+01 1.21554304824888e-02 1.60370091544285e-04
1.06066666666667e+01 1.20479903616878e-02 1.59284102107972e-04
1.06507692307692e+01 1.19414998894657e-02 1.58204099098227e-04
1.06948717948718e+01 1.18359506710202e-02 1.57130072131878e-04
1.07389743589744e+01 1.17313343867507e-02 1.56062009276210e-04
1.07830769230769e+01 1.16276427915480e-02 1.54999899251681e-04
1.08271794871795e+01 1.15248677112605e-02 1.53943730355506e-04
1.08712820512821e+01 1.14230010449505e-02 1.52893489405038e-04
1.09153846153846e+01 1.13220347642031e-02 1.51849163870668e-04
1.09594871794872e+01 1.12219609097182e-02 1.50810740833547e-04
1.10035897435897e+01 1.11227715934734e-02 1.49778205961503e-04
1.10476923076923e+01 1.10244589980539e-02 1.48751545574574e-04
1.10917948717949e+01 1.09270153733625e-02 1.47730745635046e-04
1.11358974358974e+01 1.08304330386975e-02 1.46715790755584e-04
1.11800000000000e+01 1.07347043820981e-02 1.45706666199591e-04
1.12241025641026e+01 1.06398218571716e-02 1.44703356588946e-04
1.12682051282051e+01 1.05457779859159e-02 1.43705846198715e-04
1.13123076923077e+01 1.04525653547608e-02 1.42714119326391e-04
1.13564102564103e+01 1.03601766164996e-02 1.41728159022238e-04
1.14005128205128e+01 1.02686044896648e-02 1.40747948979868e-04
1.14446153846154e+01 1.01778417555453e-02 1.39773472610512e-04
1.14887179487179e+01 1.00878812600397e-02 1.38804712133888e-04
1.15328205128205e+01 9.99871591305008e-03 1.37841650409466e-04
1.15769230769231e+01 9.91033868560235e-03 1.36884270039670e-04
1.16210256410256e+01 9.82274261162556e-03 1.35932552488760e-04
1.16651282051282e+01 9.73592078736179e-03 1.34986479856777e-04
1.17092307692308e+01 9.64986636858658e-03 1.34046034010150e-04
1.17533333333333e+01 9.56457257231767e-03 1.33111195728218e-04
1.17974358974359e+01 9.48003267623986e-03 1.32181946421658e-04
1.18415384615385e+01 9.39624001602223e-03 1.31258267020213e-04
1.18856410256410e+01 9.31318798765265e-03 1.30340138225372e-04
1.19297435897436e+01 9.23087004409691e-03 1.29427540826674e-04
1.19738461538462e+01 9.14927969688890e-03 1.28520454608660e-04
1.20179487179487e+01 9.06841051558200e-03 1.27618859975987e-04
1.20620512820513e+01 8.98825612522417e-03 1.26722737156283e-04
1.21061538461538e+01 8.90881020788453e-03 1.25832065416922e-04
1.21502564102564e+01 8.83006650212050e-03 1.24946824639643e-04
1.21943589743590e+01 8.75201880053877e-03 1.24066994547975e-04
1.22384615384615e+01 8.67466095126212e-03 1.23192553948148e-04
1.22825641025641e+01 8.59798685741011e-03 1.22323482254837e-04
1.23266666666667e+01 8.52199047474395e-03 1.21459758502609e-04
1.23707692307692e+01 8.44666581367983e-03 1.20601361569746e-04
1.24148717948718e+01 8.37200693636096e-03 1.19748270458277e-04
1.24589743589744e+01 8.29800795802413e-03 1.18900463322345e-04
1.25030769230769e+01 8.22466304650326e-03 1.18057918911802e-04
1.25471794871795e+01 8.15196642001158e-03 1.17220615862800e-04
1.25912820512821e+01 8.07991234845414e-03 1.16388532001353e-04
1.26353846153846e+01 8.00849515294545e-03 1.15561645742281e-04
1.26794871794872e+01 7.93770920366645e-03 1.14739935401798e-04
1.27235897435897e+01 7.86754892112548e-03 1.13923378522121e-04
1.27676923076923e+01 7.79800877568914e-03 1.13111953227255e-04
1.28117948717949e+01 7.72908328551155e-03 1.12305637556483e-04
1.28558974358974e+01 7.66076701774634e-03 1.11504408809770e-04
1.29000000000000e+01 7.59305458808953e-03 1.10708244861761e-04
1.29441025641026e+01 7.52594065877902e-03 1.09917123309006e-04
1.29882051282051e+01 7.45941994026767e-03 1.09131021662431e-04
1.30323076923077e+01 7.39348718874057e-03 1.08349917587944e-04
1.30764102564103e+01 7.32813720724498e-03 1.07573788068117e-04
1.31205128205128e+01 7.26336484525363e-03 1.06802610646083e-04
1.31646153846154e+01 7.19916499677906e-03 1.06036362813376e-04
1.32087179487179e+01 7.13553260145916e-03 1.05275021408690e-04
1.32528205128205e+01 7.07246264413295e-03 1.04518563823601e-04
1.32969230769231e+01 7.00995015301750e-03 1.03766967409157e-04
1.33410256410256e+01 6.94799020075169e-03 1.03020208892840e-04
1.33851282051282e+01 6.88657790398299e-03 1.02278265547334e-04
1.34292307692308e+01 6.82570842160555e-03 1.01541114614942e-04
1.34733333333333e+01 6.76537695576361e-03 1.00808732742468e-04
1.35174358974359e+01 6.70557875144901e-03 1.00081097114186e-04
1.35615384615385e+01 6.64630909479818e-03 9.93581847154562e-05
1.36056410256410e+01 6.58756331448543e-03 9.86399724984370e-05
1.36497435897436e+01 6.52933677961314e-03 9.79264375890823e-05
1.36938461538462e+01 6.47162490064785e-03 9.72175565631040e-05
1.37379487179487e+01 6.41442312903602e-03 9.65133065190284e-05
1.37820512820513e+01 6.35772695559729e-03 9.58136645493935e-05
1.38261538461538e+01 6.30153191142417e-03 9.51186072211908e-05
1.38702564102564e+01 6.24583356750863e-03 9.44281116162236e-05
1.39143589743590e+01 6.19062753318815e-03 9.37421548183223e-05
