Energy (eV)          EEDF (eV^-(3/2))     First Anisotropy
3.00847457627119e-02 3.40852494512062e-02 1.66490176476009e-05
9.02542372881356e-02 3.38865164442827e-02 2.75045789062723e-05
1.50423728813559e-01 3.36889421440619e-02 3.63418097091304e-05
2.10593220338983e-01 3.34925197940807e-02 4.30754339251759e-05
2.70762711864407e-01 3.32972426793018e-02 4.87078669636611e-05
3.30932203389831e-01 3.31031041214289e-02 5.36175317815146e-05
3.91101694915254e-01 3.29100974828480e-02 5.79999796827906e-05
4.51271186440678e-01 3.27182161633482e-02 6.19731318439854e-05
5.11440677966102e-01 3.25274536022642e-02 6.56150865774308e-05
5.71610169491525e-01 3.23378032762957e-02 6.89809655703061e-05
6.31779661016949e-01 3.21492587009434e-02 7.21115162802270e-05
6.91949152542373e-01 3.19618134288448e-02 7.50379427405041e-05
7.52118644067797e-01 3.17754610508267e-02 7.77848164748358e-05
8.12288135593220e-01 3.15901951945470e-02 8.03719289959547e-05
8.72457627118644e-01 3.14060095253059e-02 8.28155232776592e-05
9.32627118644068e-01 3.12228977448913e-02 8.51291422237040e-05
9.92796610169492e-01 3.10408535922241e-02 8.73242310333843e-05
1.05296610169492e+00 3.08598708416130e-02 8.94105754340252e-05
1.11313559322034e+00 3.06799433057184e-02 9.13966282036832e-05
1.17330508474576e+00 3.05010648321060e-02 9.32897568948811e-05
1.23347457627119e+00 3.03232293042135e-02 9.50964342828831e-05
1.29364406779661e+00 3.01464306411422e-02 9.68223878533403e-05
1.35381355932203e+00 2.99706627974633e-02 9.84727184106597e-05
1.41398305084746e+00 2.97959197617417e-02 1.00051994568919e-04
1.47415254237288e+00 2.96221955601782e-02 1.01564330185548e-04
1.53432203389831e+00 2.94494842524710e-02 1.03013447832111e-04
1.59449152542373e+00 2.92777799329556e-02 1.04402730382968e-04
1.65466101694915e+00 2.91070767303955e-02 1.05735264627395e-04
1.71483050847458e+00 2.89373688077940e-02 1.07013877708608e-04
1.77500000000000e+00 2.87686503621903e-02 1.08241168061248e-04
1.83516949152542e+00 2.86009156235374e-02 1.09419531137855e-04
1.89533898305085e+00 2.84341588573154e-02 1.10551182102843e-04
1.95550847457627e+00 2.82683743614745e-02 1.11638175388500e-04
2.01567796610169e+00 2.81035564672102e-02 1.12682420878240e-04
2.07584745762712e+00 2.79396995387680e-02 1.13685698516748e-04
2.13601694915254e+00 2.77767979732581e-02 1.14649670923057e-04
2.19618644067797e+00 2.76148462004587e-02 1.15575894570256e-04
2.25635593220339e+00 2.74538386819103e-02 1.16465829117945e-04
2.31652542372881e+00 2.72937699129037e-02 1.17320846257281e-04
2.37669491525424e+00 2.71346344200807e-02 1.18142237576507e-04
2.43686440677966e+00 2.69764267619939e-02 1.18931220925396e-04
2.49703389830509e+00 2.68191415289240e-02 1.19688946578518e-04
2.55720338983051e+00 2.66627733426946e-02 1.20416502745546e-04
2.61737288135593e+00 2.65073168558905e-02 1.21114920062675e-04
2.67754237288136e+00 2.63527667534878e-02 1.21785176180880e-04
2.73771186440678e+00 2.61991177508344e-02 1.22428199926108e-04
2.79788135593220e+00 2.60463645940904e-02 1.23044874494145e-04
2.85805084745763e+00 2.58945020600465e-02 1.23636040786597e-04
2.91822033898305e+00 2.57435249559500e-02 1.24202500333358e-04
2.97838983050847e+00 2.55934281193247e-02 1.24745018055771e-04
3.03855932203390e+00 2.54442064173026e-02 1.25264324383709e-04
3.09872881355932e+00 2.52958547479409e-02 1.25761117681755e-04
3.15889830508475e+00 2.51483680385368e-02 1.26236066488088e-04
3.21906779661017e+00 2.50017412459626e-02 1.26689811061989e-04
3.27923728813559e+00 2.48559693564955e-02 1.27122965201830e-04
3.33940677966102e+00 2.47110473856457e-02 1.27536117915219e-04
3.39957627118644e+00 2.45669703775608e-02 1.27929834590096e-04
3.45974576271186e+00 2.44237334061449e-02 1.28304658527118e-04
3.51991525423729e+00 2.42813315735865e-02 1.28661112371164e-04
3.58008474576271e+00 2.41397600106311e-02 1.28999698973446e-04
3.64025423728814e+00 2.39990138764129e-02 1.29320902554320e-04
3.70042372881356e+00 2.38590883582921e-02 1.29625189694019e-04
3.76059322033898e+00 2.37199786716892e-02 1.29913010339153e-04
3.82076271186441e+00 2.35816800595593e-02 1.30184798405307e-04
3.88093220338983e+00 2.34441877933259e-02 1.30440972748762e-04
3.94110169491525e+00 2.33074971716116e-02 1.30681938085150e-04
4.00127118644068e+00 2.31716035204496e-02 1.30908085427196e-04
4.06144067796610e+00 2.30365021931247e-02 1.31119792824796e-04
4.12161016949153e+00 2.29021885700148e-02 1.31317426054907e-04
4.18177966101695e+00 2.27686580581128e-02 1.31501338959404e-04
4.24194915254237e+00 2.26359060918381e-02 1.31671874141755e-04
4.30211864406780e+00 2.25039281319022e-02 1.31829363631419e-04
4.36228813559322e+00 2.23727196654827e-02 1.31974129119221e-04
4.42245762711864e+00 2.22422762060684e-02 1.32106482485285e-04
4.48262711864407e+00 2.21125932933077e-02 1.32226726220672e-04
4.54279661016949e+00 2.19836664928548e-02 1.32335153896694e-04
4.60296610169492e+00 2.18554913959400e-02 1.32432050324729e-04
4.66313559322034e+00 2.17280636200617e-02 1.32517692055405e-04
4.72330508474576e+00 2.16013788079857e-02 1.32592347858775e-04
4.78347457627119e+00 2.14754326278824e-02 1.32656278821934e-04
4.84364406779661e+00 2.13502207731786e-02 1.32709738722603e-04
4.90381355932203e+00 2.12257389624111e-02 1.32752974380021e-04
4.96398305084746e+00 2.11019829388302e-02 1.32786225724418e-04
5.02415254237288e+00 2.09789484710091e-02 1.32809726187464e-04
5.08432203389830e+00 2.08566313519376e-02 1.32823703080264e-04
5.14449152542373e+00 2.07350273991344e-02 1.32828377620255e-04
5.20466101694915e+00 2.06141324545034e-02 1.32823965219024e-04
5.26483050847458e+00 2.04939423841929e-02 1.32810675691141e-04
5.32500000000000e+00 2.03744530784534e-02 1.32788713514376e-04
5.38516949152542e+00 2.02556604512770e-02 1.32758277834700e-04
5.44533898305085e+00 2.01375604409241e-02 1.32719562770703e-04
5.50550847457627e+00 2.00201490091124e-02 1.32672757710136e-04
5.56567796610170e+00 1.99034221411044e-02 1.32618047286549e-04
5.62584745762712e+00 1.97873758455702e-02 1.32555611599041e-04
5.68601694915254e+00 1.96720061544519e-02 1.32485626362340e-04
5.74618644067797e+00 1.95573091228269e-02 1.32408263106737e-04
5.80635593220339e+00 1.94432808285779e-02 1.32323689144854e-04
5.86652542372881e+00 1.93299173728505e-02 1.32232067817145e-04
5.92669491525424e+00 1.92172148793231e-02 1.32133558732342e-04
5.98686440677966e+00 1.91051694942744e-02 1.32028317714342e-04
6.04703389830509e+00 1.89937773864525e-02 1.31916496975595e-04
6.10720338983051e+00 1.88830347469436e-02 1.31798245280723e-04
6.16737288135593e+00 1.87729377888633e-02 1.31673707892969e-04
6.22754237288136e+00 1.86634827477665e-02 1.31543026783089e-04
6.28771186440678e+00 1.85546658809749e-02 1.31406340834714e-04
6.34788135593220e+00 1.84464834676318e-02 1.31263785775765e-04
6.40805084745763e+00 1.83389318085746e-02 1.31115494323012e-04
6.46822033898305e+00 1.82320072262089e-02 1.30961596268808e-04
6.52838983050848e+00 1.81257060643824e-02 1.30802218613747e-04
6.58855932203390e+00 1.80200246881000e-02 1.30637485498774e-04
6.64872881355932e+00 1.79149594838830e-02 1.30467518381753e-04
6.70889830508475e+00 1.78105068591582e-02 1.30292436211747e-04
6.76906779661017e+00 1.77066632422987e-02 1.30112355349899e-04
6.82923728813559e+00 1.76034250825019e-02 1.29927389688918e-04
6.88940677966102e+00 1.75007888496683e-02 1.29737650765911e-04
6.94957627118644e+00 1.73987510341337e-02 1.29543247687284e-04
7.00974576271186e+00 1.72973081469927e-02 1.29344287284090e-04
7.06991525423729e+00 1.71964567195329e-02 1.29140874265737e-04
7.13008474576271e+00 1.70961933032659e-02 1.28933111135924e-04
7.19025423728814e+00 1.69965144698096e-02 1.28721098295723e-04
7.25042372881356e+00 1.68974168107711e-02 1.28504934097408e-04
7.31059322033898e+00 1.67988969376301e-02 1.28284714939616e-04
7.37076271186441e+00 1.67009514814905e-02 1.28060535187781e-04
7.43093220338983e+00 1.66035770933657e-02 1.27832487309732e-04
7.49110169491525e+00 1.65067704436603e-02 1.27600662010216e-04
7.55127118644068e+00 1.64105282221921e-02 1.27365148144344e-04
7.61144067796610e+00 1.63148471380790e-02 1.27126032805747e-04
7.67161016949153e+00 1.62197239196261e-02 1.26883401409837e-04
7.73177966101695e+00 1.61251553140921e-02 1.26637337612741e-04
7.79194915254237e+00 1.60311380879469e-02 1.26387923433247e-04
7.85211864406780e+00 1.59376690263891e-02 1.26135239374111e-04
7.91228813559322e+00 1.58447449333614e-02 1.25879364335067e-04
7.97245762711864e+00 1.57523626314408e-02 1.25620375690858e-04
8.03262711864407e+00 1.56605189617301e-02 1.25358349326499e-04
8.09279661016949e+00 1.55692107837504e-02 1.25093359709498e-04
8.15296610169491e+00 1.54784349752219e-02 1.24825479808690e-04
8.21313559322034e+00 1.53881884322930e-02 1.24554781203063e-04
8.27330508474576e+00 1.52984680690964e-02 1.24281334190173e-04
8.33347457627119e+00 1.52092708177566e-02 1.24005207700155e-04
8.39364406779661e+00 1.51205936282854e-02 1.23726469364145e-04
8.45381355932203e+00 1.50324334684776e-02 1.23445185578771e-04
8.51398305084746e+00 1.49447873237042e-02 1.23161421425923e-04
8.57415254237288e+00 1.48576521971203e-02 1.22875240772221e-04
8.63432203389831e+00 1.47710251092493e-02 1.22586706368201e-04
8.69449152542373e+00 1.46849030979867e-02 1.22295879763931e-04
8.75466101694915e+00 1.45992832184982e-02 1.22002821370649e-04
8.81483050847458e+00 1.45141625431194e-02 1.21707590484898e-04
8.87500000000000e+00 1.44295381612557e-02 1.21410245345670e-04
8.93516949152542e+00 1.43454071791885e-02 1.21110843056061e-04
8.99533898305085e+00 1.42617667202602e-02 1.20809439673332e-04
9.05550847457627e+00 1.41786139244904e-02 1.20506090298874e-04
9.11567796610169e+00 1.40959459485734e-02 1.20200848996388e-04
9.17584745762712e+00 1.40137599657815e-02 1.19893768846833e-04
9.23601694915254e+00 1.39320531658681e-02 1.19584901968461e-04
9.29618644067797e+00 1.38508227549717e-02 1.19274299567845e-04
9.35635593220339e+00 1.37700659554344e-02 1.18962011863951e-04
9.41652542372881e+00 1.36897800059664e-02 1.18648088170248e-04
9.47669491525424e+00 1.36099621612905e-02 1.18332576976784e-04
9.53686440677966e+00 1.35306096921356e-02 1.18015525871196e-04
9.59703389830509e+00 1.34517198851435e-02 1.17696981588199e-04
9.65720338983051e+00 1.33732900427763e-02 1.17376990056207e-04
9.71737288135593e+00 1.32953174831440e-02 1.17055596323686e-04
9.77754237288136e+00 1.32177995401544e-02 1.16732844635329e-04
9.83771186440678e+00 1.31407335631787e-02 1.16408778508285e-04
9.89788135593220e+00 1.30641169170425e-02 1.16083440655830e-04
9.95805084745763e+00 1.29879469819358e-02 1.15756873032774e-04
1.00182203389831e+01 1.29122211533231e-02 1.15429116906618e-04
1.00783898305085e+01 1.28369368417056e-02 1.15100212728883e-04
1.01385593220339e+01 1.27620914729088e-02 1.14770200206367e-04
1.01987288135593e+01 1.26876824876915e-02 1.14439118430334e-04
1.02588983050847e+01 1.26137073417339e-02 1.14107005773415e-04
1.03190677966102e+01 1.25401635055509e-02 1.13773899660686e-04
1.03792372881356e+01 1.24670484651084e-02 1.13439837398491e-04
1.04394067796610e+01 1.23943597196166e-02 1.13104855640688e-04
1.04995762711864e+01 1.23220947835771e-02 1.12768989849286e-04
1.05597457627119e+01 1.22502511859833e-02 1.12432275135928e-04
1.06199152542373e+01 1.21788264702355e-02 1.12094745995471e-04
1.06800847457627e+01 1.21078181940572e-02 1.11756436317335e-04
1.07402542372881e+01 1.20372239294110e-02 1.11417379396091e-04
1.08004237288136e+01 1.19670412624166e-02 1.11077607942157e-04
1.08605932203390e+01 1.18972677932677e-02 1.10737154092628e-04
1.09207627118644e+01 1.18279011361499e-02 1.10396049421338e-04
1.09809322033898e+01 1.17589389191593e-02 1.10054324702796e-04
1.10411016949153e+01 1.16903787848406e-02 1.09712010663588e-04
1.11012711864407e+01 1.16222183882383e-02 1.09369137495948e-04
1.11614406779661e+01 1.15544553986951e-02 1.09025734366274e-04
1.12216101694915e+01 1.14870874991423e-02 1.08681830178101e-04
1.12817796610169e+01 1.14201123860211e-02 1.08337453328689e-04
1.13419491525424e+01 1.13535277692032e-02 1.07992631717855e-04
1.14021186440678e+01 1.12873313719128e-02 1.07647392756657e-04
1.14622881355932e+01 1.12215209306488e-02 1.07301763375588e-04
1.15224576271186e+01 1.11560941951072e-02 1.06955770032916e-04
1.15826271186441e+01 1.10910489281046e-02 1.06609438723004e-04
1.16427966101695e+01 1.10263829055015e-02 1.06262794984143e-04
1.17029661016949e+01 1.09620939161258e-02 1.05915863684043e-04
1.17631355932203e+01 1.08981797622398e-02 1.05568669697254e-04
1.18233050847458e+01 1.08346382578301e-02 1.05221237464667e-04
1.18834745762712e+01 1.07714672301763e-02 1.04873590548444e-04
1.19436440677966e+01 1.07086645192260e-02 1.04525752319998e-04
1.20038135593220e+01 1.06462279775208e-02 1.04177745739011e-04
1.20639830508475e+01 1.05841554701231e-02 1.03829593360399e-04
1.21241525423729e+01 1.05224448745429e-02 1.03481317341053e-04
1.21843220338983e+01 1.04610940806649e-02 1.03132939446296e-04
1.22444915254237e+01 1.04001009906773e-02 1.02784481056476e-04
1.23046610169492e+01 1.03394635189994e-02 1.02435963173474e-04
1.23648305084746e+01 1.02791795922103e-02 1.02087406426845e-04
1.24250000000000e+01 1.02192471489783e-02 1.01738830878836e-04
1.24851694915254e+01 1.01596641404659e-02 1.01390256636476e-04
1.25453389830508e+01 1.01004285288248e-02 1.01041703452155e-04
1.26055084745763e+01 1.00415382885690e-02 1.00693190320034e-04
1.26656779661017e+01 9.98299140602207e-03 1.00344736097727e-04
1.27258474576271e+01 9.92478587924815e-03 9.99963593056194e-05
1.27860169491525e+01 9.86691971798367e-03 9.96480781323726e-05
1.28461864406780e+01 9.80939094356901e-03 9.92999104402267e-05
1.29063559322034e+01 9.75219758888115e-03 9.89518737701819e-05
1.29665254237288e+01 9.69533769826636e-03 9.86039853472876e-05
1.30266949152542e+01 9.63880932747333e-03 9.82562620857500e-05
1.30868644067797e+01 9.58261054358660e-03 9.79087205938824e-05
1.31470338983051e+01 9.52673942496049e-03 9.75613769966739e-05
1.32072033898305e+01 9.47119406157287e-03 9.72142474899388e-05
1.32673728813559e+01 9.41597255369494e-03 9.68673479777111e-05
1.33275423728814e+01 9.36107301309777e-03 9.65206937058021e-05
1.33877118644068e+01 9.30649356256169e-03 9.61742998246413e-05
1.34478813559322e+01 9.25223233581207e-03 9.58281812068184e-05
1.35080508474576e+01 9.19828747745556e-03 9.54823524515656e-05
1.35682203389831e+01 9.14465714291641e-03 9.51368278889374e-05
1.36283898305085e+01 9.09133949837372e-03 9.47916215839825e-05
1.36885593220339e+01 9.03833272069869e-03 9.44467473410704e-05
1.37487288135593e+01 8.98563499739220e-03 9.41022187079561e-05
1.38088983050847e+01 8.93324452652283e-03 9.37580489797784e-05
1.38690677966102e+01 8.88115951666526e-03 9.34142510375179e-05
1.39292372881356e+01 8.82937818720972e-03 9.30708378505279e-05
1.39894067796610e+01 8.77789876718325e-03 9.27278221469223e-05
1.40495762711864e+01 8.72671949631276e-03 9.23852160804851e-05
1.41097457627119e+01 8.67583862458840e-03 9.20430317411429e-05
1.41699152542373e+01 8.62525441220367e-03 9.17012809888978e-05
1.42300847457627e+01 8.57496512949595e-03 9.13599754574652e-05
1.42902542372881e+01 8.52496905688716e-03 9.10191265576325e-05
1.43504237288136e+01 8.47526448482538e-03 9.06787454806902e-05
1.44105932203390e+01 8.42584971372612e-03 9.03388432019615e-05
1.44707627118644e+01 8.37672305391430e-03 8.99994304840709e-05
1.45309322033898e+01 8.32788282556642e-03 8.96605177286793e-05
1.45911016949153e+01 8.27932735898477e-03 8.93221154363118e-05
1.46512711864407e+01 8.23105499354033e-03 8.89842339042097e-05
1.47114406779661e+01 8.18306407862112e-03 8.86468829209843e-05
1.47716101694915e+01 8.13535297323899e-03 8.83100722337411e-05
1.48317796610169e+01 8.08792004597353e-03 8.79738113957210e-05
1.48919491525424e+01 8.04076367491624e-03 8.76381097692750e-05
1.49521186440678e+01 7.99388224761509e-03 8.73029765287998e-05
1.50122881355932e+01 7.94727416101929e-03 8.69684206634856e-05
1.50724576271186e+01 7.90093782142472e-03 8.66344509801705e-05
1.51326271186441e+01 7.85487164441928e-03 8.63010761062151e-05
1.51927966101695e+01 7.80907405482875e-03 8.59683044921853e-05
1.52529661016949e+01 7.76354348666288e-03 8.56361442766150e-05
1.53131355932203e+01 7.71827838335650e-03 8.53046037041870e-05
1.53733050847458e+01 7.67327719682798e-03 8.49736908505084e-05
1.54334745762712e+01 7.62853838831909e-03 8.46434133439458e-05
1.54936440677966e+01 7.58406042804327e-03 8.43137787904563e-05
1.55538135593220e+01 7.53984179513336e-03 8.39847946346888e-05
1.56139830508475e+01 7.49588097758950e-03 8.36564681624171e-05
1.56741525423729e+01 7.45217647222749e-03 8.33288065029406e-05
1.57343220338983e+01 7.40872678462735e-03 8.30018166313820e-05
1.57944915254237e+01 7.36553042908233e-03 8.26755053710573e-05
1.58546610169492e+01 7.32258592854806e-03 8.23498793958116e-05
1.59148305084746e+01 7.27989181459202e-03 8.20249452322371e-05
1.59750000000000e+01 7.23744662734333e-03 8.17007091362584e-05
1.60351694915254e+01 7.19524891570512e-03 8.13771774738743e-05
1.60953389830508e+01 7.15329723651415e-03 8.10543564702154e-05
1.61555084745763e+01 7.11159015528616e-03 8.07322519559210e-05
1.62156779661017e+01 7.07012624590061e-03 8.04108697539358e-05
1.62758474576271e+01 7.02890409055192e-03 8.00902155527623e-05
1.63360169491525e+01 6.98792227970096e-03 7.97702949085148e-05
1.63961864406780e+01 6.94717941202680e-03 7.94511132468731e-05
1.64563559322034e+01 6.90667409437890e-03 7.91326758649986e-05
1.65165254237288e+01 6.86640494172946e-03 7.88149879335105e-05
1.65766949152542e+01 6.82637057712606e-03 7.84980544984214e-05
1.66368644067797e+01 6.78656963164453e-03 7.81818804829929e-05
1.66970338983051e+01 6.74700074434218e-03 7.78664705749715e-05
1.67572033898305e+01 6.70766256244523e-03 7.75518295736597e-05
1.68173728813559e+01 6.66855374059714e-03 7.72379621609017e-05
1.68775423728814e+01 6.62967294152151e-03 7.69248726696076e-05
1.69377118644068e+01 6.59101883573891e-03 7.66125654363328e-05
1.69978813559322e+01 6.55259010152136e-03 7.63010446855305e-05
1.70580508474576e+01 6.51438542484719e-03 7.59903145312659e-05
1.71182203389831e+01 6.47640349935601e-03 7.56803789788187e-05
1.71783898305085e+01 6.43864302630417e-03 7.53712419262983e-05
1.72385593220339e+01 6.40110271452032e-03 7.50629071663316e-05
1.72987288135593e+01 6.36378128036125e-03 7.47553783876279e-05
1.73588983050847e+01 6.32667744766798e-03 7.44486591765304e-05
1.74190677966102e+01 6.28978994772212e-03 7.41427529139688e-05
1.74792372881356e+01 6.25311751941164e-03 7.38376630921153e-05
1.75394067796610e+01 6.21665890855728e-03 7.35333931052013e-05
1.75995762711864e+01 6.18041286850323e-03 7.32299460380920e-05
1.76597457627119e+01 6.14437815986224e-03 7.29273249879869e-05
1.77199152542373e+01 6.10855355047328e-03 7.26255329586339e-05
1.77800847457627e+01 6.07293781535938e-03 7.23245728617812e-05
1.78402542372881e+01 6.03752973668569e-03 7.20244475184862e-05
1.79004237288136e+01 6.00232810371797e-03 7.17251596604879e-05
1.79605932203390e+01 5.96733171278113e-03 7.14267119316309e-05
1.80207627118644e+01 5.93253936721809e-03 7.11291068891598e-05
1.80809322033898e+01 5.89794987734879e-03 7.08323469088063e-05
1.81411016949153e+01 5.86356206061846e-03 7.05364344760101e-05
1.82012711864407e+01 5.82937474098780e-03 7.02413719933682e-05
1.82614406779661e+01 5.79538674946487e-03 6.99471615860195e-05
1.83216101694915e+01 5.76159692387353e-03 6.96538053975061e-05
1.83817796610169e+01 5.72800410881364e-03 6.93613054923640e-05
1.84419491525424e+01 5.69460715562159e-03 6.90696638573358e-05
1.85021186440678e+01 5.66140492233100e-03 6.87788824025542e-05
1.85622881355932e+01 5.62839627363365e-03 6.84889629626627e-05
1.86224576271186e+01 5.59558008084073e-03 6.81999072979823e-05
1.86826271186441e+01 5.56295522184424e-03 6.79117170956981e-05
1.87427966101695e+01 5.53052058107859e-03 6.76243939709425e-05
1.88029661016949e+01 5.49827504948243e-03 6.73379393799326e-05
1.88631355932203e+01 5.46621752463010e-03 6.70523548861242e-05
1.89233050847458e+01 5.43434691018349e-03 6.67676419840752e-05
1.89834745762712e+01 5.40266211636745e-03 6.64838019214396e-05
