Energy (eV)          EEDF (eV^-(3/2))     First Anisotropy
1.38888888888889e-02 1.63128728746484e-01 9.09698112568736e-05
4.16666666666667e-02 1.61882099404120e-01 1.50147803175510e-04
6.94444444444444e-02 1.60644996799697e-01 1.98028847114710e-04
9.72222222222222e-02 1.59417348132222e-01 2.34293099392259e-04
1.25000000000000e-01 1.58199081153409e-01 2.64445922831272e-04
1.52777777777778e-01 1.56990124165664e-01 2.90571162022157e-04
1.80555555555556e-01 1.55790406022624e-01 3.13748357559319e-04
2.08333333333333e-01 1.54599856127807e-01 3.34630090468789e-04
2.36111111111111e-01 1.53418404410969e-01 3.53649607861484e-04
2.63888888888889e-01 1.52245981344154e-01 3.71113430454960e-04
2.91666666666667e-01 1.51082517930514e-01 3.87248690353676e-04
3.19444444444444e-01 1.49927945700611e-01 4.02229738237713e-04
3.47222222222222e-01 1.48782196711681e-01 4.16194192932194e-04
3.75000000000000e-01 1.47645203532947e-01 4.29253163527359e-04
4.02777777777778e-01 1.46516899252606e-01 4.41498050941523e-04
4.30555555555556e-01 1.45397217470185e-01 4.53005239512957e-04
4.58333333333333e-01 1.44286092295157e-01 4.63839430445247e-04
4.86111111111111e-01 1.43183458335407e-01 4.74056070276335e-04
5.13888888888889e-01 1.42089250701157e-01 4.83703159566146e-04
5.41666666666667e-01 1.41003404998468e-01 4.92822627058229e-04
5.69444444444444e-01 1.39925857325536e-01 5.01451389273804e-04
5.97222222222222e-01 1.38856544270723e-01 5.09622181571414e-04
6.25000000000000e-01 1.37795402903230e-01 5.17364216826333e-04
6.52777777777778e-01 1.36742370775068e-01 5.24703714379058e-04
6.80555555555555e-01 1.35697385915477e-01 5.31664330264540e-04
7.08333333333333e-01 1.34660386828768e-01 5.38267509840729e-04
7.36111111111111e-01 1.33631312486180e-01 5.44532778738576e-04
7.63888888888889e-01 1.32610102326866e-01 5.50477985365967e-04
7.91666666666667e-01 1.31596696252768e-01 5.56119505501774e-04
8.19444444444444e-01 1.30591034625111e-01 5.61472414479287e-04
8.47222222222222e-01 1.29593058262073e-01 5.66550634553947e-04
8.75000000000000e-01 1.28602708431669e-01 5.71367060303888e-04
9.02777777777778e-01 1.27619926851970e-01 5.75933666538244e-04
9.30555555555555e-01 1.26644655686436e-01 5.80261602331112e-04
9.58333333333333e-01 1.25676837541536e-01 5.84361272753722e-04
9.86111111111111e-01 1.24716415460275e-01 5.88242409707837e-04
1.01388888888889e+00 1.23763332921970e-01 5.91914134301961e-04
1.04166666666667e+00 1.22817533835999e-01 5.95385011672862e-04
1.06944444444444e+00 1.21878962542380e-01 5.98663098051984e-04
1.09722222222222e+00 1.20947563815032e-01 6.01755988556762e-04
1.12500000000000e+00 1.20023282832570e-01 6.04670852483990e-04
1.15277777777778e+00 1.19106065201289e-01 6.07414464764665e-04
1.18055555555556e+00 1.18195856943159e-01 6.09993239566721e-04
1.20833333333333e+00 1.17292604500172e-01 6.12413260216230e-04
1.23611111111111e+00 1.16396254708436e-01 6.14680301480493e-04
1.26388888888889e+00 1.15506754818005e-01 6.16799849414435e-04
1.29166666666667e+00 1.14624052481992e-01 6.18777125475879e-04
1.31944444444444e+00 1.13748095753593e-01 6.20617102489923e-04
1.34722222222222e+00 1.12878833089458e-01 6.22324524846914e-04
1.37500000000000e+00 1.12016213327020e-01 6.23903921436954e-04
1.40277777777778e+00 1.11160185701299e-01 6.25359617237317e-04
1.43055555555556e+00 1.10310699835256e-01 6.26695748514008e-04
1.45833333333333e+00 1.09467705742634e-01 6.27916276534193e-04
1.48611111111111e+00 1.08631153807485e-01 6.29024996160675e-04
1.51388888888889e+00 1.07800994798922e-01 6.30025543562762e-04
1.54166666666667e+00 1.06977179862247e-01 6.30921408577793e-04
1.56944444444444e+00 1.06159660516139e-01 6.31715941044151e-04
1.59722222222222e+00 1.05348388654860e-01 6.32412361536176e-04
1.62500000000000e+00 1.04543316530011e-01 6.33013766583738e-04
1.65277777777778e+00 1.03744396763264e-01 6.33523133346627e-04
1.68055555555556e+00 1.02951582338352e-01 6.33943327910529e-04
1.70833333333333e+00 1.02164826602917e-01 6.34277112805420e-04
1.73611111111111e+00 1.01384083251833e-01 6.34527150533543e-04
1.76388888888889e+00 1.00609306338522e-01 6.34696006710903e-04
1.79166666666667e+00 9.98404502675029e-02 6.34786157549178e-04
1.81944444444444e+00 9.90774697917585e-02 6.34799992435602e-04
1.84722222222222e+00 9.83203200141471e-02 6.34739820588235e-04
1.87500000000000e+00 9.75689563723550e-02 6.34607873173716e-04
1.90277777777778e+00 9.68233346487766e-02 6.34406305165826e-04
1.93055555555556e+00 9.60834109637164e-02 6.34137200531232e-04
1.95833333333333e+00 9.53491417765555e-02 6.33802576929533e-04
1.98611111111111e+00 9.46204838718670e-02 6.33404387091576e-04
2.01388888888889e+00 9.38973943682792e-02 6.32944520002292e-04
2.04166666666667e+00 9.31798307121025e-02 6.32424805993189e-04
2.06944444444444e+00 9.24677506748580e-02 6.31847017677407e-04
2.09722222222222e+00 9.17611123541415e-02 6.31212874551732e-04
2.12500000000000e+00 9.10598741609774e-02 6.30524043726578e-04
2.15277777777778e+00 9.03639948276275e-02 6.29782140516113e-04
2.18055555555556e+00 8.96734334017210e-02 6.28988732016632e-04
2.20833333333333e+00 8.89881492469432e-02 6.28145340342608e-04
2.23611111111111e+00 8.83081020312868e-02 6.27253443009823e-04
2.26388888888889e+00 8.76332517341031e-02 6.26314473207550e-04
2.29166666666667e+00 8.69635586405682e-02 6.25329823561001e-04
2.31944444444444e+00 8.62989833393702e-02 6.24300846290681e-04
2.34722222222222e+00 8.56394867231816e-02 6.23228856648143e-04
2.37500000000000e+00 8.49850299778802e-02 6.22115132983264e-04
2.40277777777778e+00 8.43355745888034e-02 6.20960916727608e-04
2.43055555555556e+00 8.36910823356172e-02 6.19767415046951e-04
2.45833333333333e+00 8.30515152926621e-02 6.18535803232824e-04
2.48611111111111e+00 8.24168358188857e-02 6.17267224601633e-04
2.51388888888889e+00 8.17870065635177e-02 6.15962790324327e-04
2.54166666666667e+00 8.11619904612126e-02 6.14623582369195e-04
2.56944444444444e+00 8.05417507298868e-02 6.13250653282041e-04
2.59722222222222e+00 7.99262508709078e-02 6.11845028891808e-04
2.62500000000000e+00 7.93154546598037e-02 6.10407708052164e-04
2.65277777777778e+00 7.87093261513238e-02 6.08939662328093e-04
2.68055555555556e+00 7.81078296749106e-02 6.07441838066067e-04
2.70833333333333e+00 7.75109298347975e-02 6.05915158255277e-04
2.73611111111111e+00 7.69185915012937e-02 6.04360522188201e-04
2.76388888888889e+00 7.63307798153941e-02 6.02778805074250e-04
2.79166666666667e+00 7.57474601844784e-02 6.01170860434584e-04
2.81944444444444e+00 7.51685982802898e-02 5.99537519697487e-04
2.84722222222222e+00 7.45941600389178e-02 5.97879594410393e-04
2.87500000000000e+00 7.40241116527187e-02 5.96197875823241e-04
2.90277777777778e+00 7.34584195744421e-02 5.94493134433128e-04
2.93055555555556e+00 7.28970505132053e-02 5.92766121661418e-04
2.95833333333333e+00 7.23399714344102e-02 5.91017571357781e-04
2.98611111111111e+00 7.17871495521367e-02 5.89248199347473e-04
3.01388888888889e+00 7.12385523329134e-02 5.87458702944812e-04
3.04166666666667e+00 7.06941474918839e-02 5.85649762957165e-04
3.06944444444444e+00 7.01539029909177e-02 5.83822043196227e-04
3.09722222222222e+00 6.96177870384428e-02 5.81976192334926e-04
3.12500000000000e+00 6.90857680823673e-02 5.80112843419970e-04
3.15277777777778e+00 6.85578148134648e-02 5.78232613355971e-04
3.18055555555556e+00 6.80338961617737e-02 5.76336104301312e-04
3.20833333333333e+00 6.75139812963821e-02 5.74423904917506e-04
3.23611111111111e+00 6.69980396187441e-02 5.72496589869891e-04
3.26388888888889e+00 6.64860407657802e-02 5.70554719302378e-04
3.29166666666667e+00 6.59779546064406e-02 5.68598840548348e-04
3.31944444444444e+00 6.54737512399414e-02 5.66629487611375e-04
3.34722222222222e+00 6.49734009954878e-02 5.64647182754334e-04
3.37500000000000e+00 6.44768744260337e-02 5.62652435988485e-04
3.40277777777778e+00 6.39841423110724e-02 5.60645744540244e-04
3.43055555555556e+00 6.34951756534003e-02 5.58627594036807e-04
3.45833333333333e+00 6.30099456788063e-02 5.56598459565277e-04
3.48611111111111e+00 6.25284238301648e-02 5.54558805162813e-04
3.51388888888889e+00 6.20505817699960e-02 5.52509083286310e-04
3.54166666666667e+00 6.15763913773712e-02 5.50449736294500e-04
3.56944444444444e+00 6.11058247462654e-02 5.48381195927692e-04
3.59722222222222e+00 6.06388541852023e-02 5.46303884686586e-04
3.62500000000000e+00 6.01754522117243e-02 5.44218215323759e-04
3.65277777777778e+00 5.97155915547009e-02 5.42124590317182e-04
3.68055555555556e+00 5.92592451514074e-02 5.40023402892307e-04
3.70833333333333e+00 5.88063861471471e-02 5.37915037933788e-04
3.73611111111111e+00 5.83569878900047e-02 5.35799871484985e-04
3.76388888888889e+00 5.79110239329674e-02 5.33678270230784e-04
3.79166666666667e+00 5.74684680311272e-02 5.31550592795469e-04
3.81944444444444e+00 5.70292941401424e-02 5.29417189237567e-04
3.84722222222222e+00 5.65934764158287e-02 5.27278402258752e-04
3.87500000000000e+00 5.61609892092352e-02 5.25134566711826e-04
3.90277777777778e+00 5.57318070685598e-02 5.22986009093824e-04
3.93055555555556e+00 5.53059047365029e-02 5.20833048437026e-04
3.95833333333333e+00 5.48832571498425e-02 5.18675997103204e-04
3.98611111111111e+00 5.44638394347558e-02 5.16515160303138e-04
4.01388888888889e+00 5.40476269085789e-02 5.14350835602198e-04
4.04166666666667e+00 5.36345950772705e-02 5.12183314066412e-04
4.06944444444444e+00 5.32247196339748e-02 5.10012879780708e-04
4.09722222222222e+00 5.28179764585757e-02 5.07839810917546e-04
4.12500000000000e+00 5.24143416132970e-02 5.05664379268711e-04
4.15277777777778e+00 5.20137913442928e-02 5.03486849764524e-04
4.18055555555556e+00 5.16163020792439e-02 5.01307481257542e-04
4.20833333333333e+00 5.12218504269023e-02 4.99126527220641e-04
4.23611111111111e+00 5.08304131729031e-02 4.96944235292080e-04
4.26388888888889e+00 5.04419672812275e-02 4.94760846808602e-04
4.29166666666667e+00 5.00564898918957e-02 4.92576597824014e-04
4.31944444444444e+00 4.96739583196259e-02 4.90391718654975e-04
4.34722222222222e+00 4.92943500533645e-02 4.88206434831534e-04
4.37500000000000e+00 4.89176427523416e-02 4.86020966656268e-04
4.40277777777778e+00 4.85438142473923e-02 4.83835528752472e-04
4.43055555555556e+00 4.81728425387685e-02 4.81650330758321e-04
4.45833333333333e+00 4.78047057956646e-02 4.79465577944876e-04
4.48611111111111e+00 4.74393823524567e-02 4.77281470789022e-04
4.51388888888889e+00 4.70768507099191e-02 4.75098204536012e-04
4.54166666666667e+00 4.67170895331211e-02 4.72915970109449e-04
4.56944444444444e+00 4.63600776501753e-02 4.70734953686200e-04
4.59722222222222e+00 4.60057940517552e-02 4.68555337545938e-04
4.62500000000000e+00 4.56542178875472e-02 4.66377299658926e-04
4.65277777777778e+00 4.53053284673496e-02 4.64201013264256e-04
4.68055555555556e+00 4.49591052590750e-02 4.62026647487990e-04
4.70833333333333e+00 4.46155278882673e-02 4.59854367893338e-04
4.73611111111111e+00 4.42745761347148e-02 4.57684336082097e-04
4.76388888888889e+00 4.39362299334611e-02 4.55516709286994e-04
4.79166666666667e+00 4.36004693728849e-02 4.53351641187912e-04
4.81944444444444e+00 4.32672746935307e-02 4.51189281515977e-04
4.84722222222222e+00 4.29366262876223e-02 4.49029776816139e-04
4.87500000000000e+00 4.26085046958629e-02 4.46873270063324e-04
4.90277777777778e+00 4.22828906083484e-02 4.44719900270217e-04
4.93055555555556e+00 4.19597648627407e-02 4.42569803040371e-04
4.95833333333333e+00 4.16391084437828e-02 4.40423111060210e-04
4.98611111111111e+00 4.13209024802412e-02 4.38279953728532e-04
5.01388888888889e+00 4.10051282457455e-02 4.36140456777956e-04
5.04166666666667e+00 4.06917671570308e-02 4.34004743009500e-04
5.06944444444444e+00 4.03808007728466e-02 4.31872931925106e-04
5.09722222222222e+00 4.00722107934716e-02 4.29745140414278e-04
5.12500000000000e+00 3.97659790578216e-02 4.27621482397900e-04
5.15277777777778e+00 3.94620875442067e-02 4.25502068464641e-04
5.18055555555556e+00 3.91605183686589e-02 4.23387006367479e-04
5.20833333333333e+00 3.88612537844497e-02 4.21276401465474e-04
5.23611111111111e+00 3.85642761793248e-02 4.19170356380222e-04
5.26388888888889e+00 3.82695680761988e-02 4.17068970645165e-04
5.29166666666667e+00 3.79771121315452e-02 4.14972341368630e-04
5.31944444444444e+00 3.76868911343779e-02 4.12880562893403e-04
5.34722222222222e+00 3.73988880057714e-02 4.10793727416844e-04
5.37500000000000e+00 3.71130857962420e-02 4.08711924660982e-04
5.40277777777778e+00 3.68294676863741e-02 4.06635241536002e-04
5.43055555555556e+00 3.65480169852860e-02 4.04563762587568e-04
5.45833333333333e+00 3.62687171301558e-02 4.02497570394639e-04
5.48611111111111e+00 3.59915516837135e-02 4.00436745251443e-04
5.51388888888889e+00 3.57165043348161e-02 3.98381364843162e-04
5.54166666666667e+00 3.54435588969694e-02 3.96331504845868e-04
5.56944444444444e+00 3.51726993073770e-02 3.94287238611679e-04
5.59722222222222e+00 3.49039096264712e-02 3.92248637729987e-04
5.62500000000000e+00 3.46371740355357e-02 3.90215771722405e-04
5.65277777777778e+00 3.43724768372222e-02 3.88188707731783e-04
5.68055555555556e+00 3.41098024541415e-02 3.86167510926137e-04
5.70833333333333e+00 3.38491354284002e-02 3.84152244857875e-04
5.73611111111111e+00 3.35904604193230e-02 3.82142971169843e-04
5.76388888888889e+00 3.33337622039260e-02 3.80139749295709e-04
5.79166666666667e+00 3.30790256755586e-02 3.78142637003834e-04
5.81944444444444e+00 3.28262358430157e-02 3.76151690106395e-04
5.84722222222222e+00 3.25753778300809e-02 3.74166962968425e-04
5.87500000000000e+00 3.23264368733653e-02 3.72188508225982e-04
5.90277777777778e+00 3.20793983227321e-02 3.70216376498967e-04
5.93055555555556e+00 3.18342476400007e-02 3.68250616756720e-04
5.95833333333333e+00 3.15909703984964e-02 3.66291276643146e-04
5.98611111111111e+00 3.13495522809789e-02 3.64338402205224e-04
6.01388888888889e+00 3.11099790800294e-02 3.62392037616358e-04
6.04166666666667e+00 3.08722366968018e-02 3.60452225670386e-04
6.06944444444444e+00 3.06363111401935e-02 3.58519007513041e-04
6.09722222222222e+00 3.04021885264033e-02 3.56592423104339e-04
6.12500000000000e+00 3.01698550769635e-02 3.54672510958472e-04
6.15277777777778e+00 2.99392971190863e-02 3.52759307878743e-04
6.18055555555556e+00 2.97105010844713e-02 3.50852849289079e-04
6.20833333333333e+00 2.94834535088699e-02 3.48953169528886e-04
6.23611111111111e+00 2.92581410301982e-02 3.47060301602434e-04
6.26388888888889e+00 2.90345503888515e-02 3.45174276923553e-04
6.29166666666667e+00 2.88126684265547e-02 3.43295125765007e-04
6.31944444444444e+00 2.85924820855887e-02 3.41422877010714e-04
6.34722222222222e+00 2.83739784083628e-02 3.39557558576457e-04
6.37500000000000e+00 2.81571445356214e-02 3.37699197169796e-04
6.40277777777778e+00 2.79419677067245e-02 3.35847818045566e-04
6.43055555555556e+00 2.77284352585486e-02 3.34003445307042e-04
6.45833333333333e+00 2.75165346250673e-02 3.32166102173709e-04
6.48611111111111e+00 2.73062533356298e-02 3.30335810750041e-04
6.51388888888889e+00 2.70975790152146e-02 3.28512591789972e-04
6.54166666666667e+00 2.68904993833696e-02 3.26696465106209e-04
6.56944444444444e+00 2.66850022534905e-02 3.24887449341679e-04
6.59722222222222e+00 2.64810755324094e-02 3.23085562352754e-04
6.62500000000000e+00 2.62787072187578e-02 3.21290820987804e-04
6.65277777777778e+00 2.60778854031915e-02 3.19503240861687e-04
6.68055555555556e+00 2.58785982673772e-02 3.17722836629675e-04
6.70833333333333e+00 2.56808340835900e-02 3.15949622231074e-04
6.73611111111111e+00 2.54845812131404e-02 3.14183610675886e-04
6.76388888888889e+00 2.52898281065771e-02 3.12424813827592e-04
6.79166666666667e+00 2.50965633027093e-02 3.10673242776392e-04
6.81944444444444e+00 2.49047754279331e-02 3.08928907628379e-04
6.84722222222222e+00 2.47144531958370e-02 3.07191817855117e-04
6.87500000000000e+00 2.45255854057063e-02 3.05461982089392e-04
6.90277777777778e+00 2.43381609427001e-02 3.03739407917188e-04
6.93055555555556e+00 2.41521687769176e-02 3.02024102127175e-04
6.95833333333333e+00 2.39675979630110e-02 3.00316070932700e-04
6.98611111111111e+00 2.37844376387487e-02 2.98615319774932e-04
7.01388888888889e+00 2.36026770251735e-02 2.96921853122482e-04
7.04166666666667e+00 2.34223054257009e-02 2.95235674812177e-04
7.06944444444444e+00 2.32433122254898e-02 2.93556787854663e-04
7.09722222222222e+00 2.30656868910660e-02 2.91885194753554e-04
7.12500000000000e+00 2.28894189689531e-02 2.90220897316974e-04
7.15277777777778e+00 2.27144980858106e-02 2.88563896465765e-04
7.18055555555556e+00 2.25409139475710e-02 2.86914192461022e-04
7.20833333333333e+00 2.23686563390714e-02 2.85271785106472e-04
7.23611111111111e+00 2.21977151227365e-02 2.83636673566885e-04
7.26388888888889e+00 2.20280802387019e-02 2.82008856183309e-04
7.29166666666667e+00 2.18597417039804e-02 2.80388330784465e-04
7.31944444444444e+00 2.16926896118748e-02 2.78775094507375e-04
7.34722222222222e+00 2.15269141316187e-02 2.77169144089107e-04
7.37500000000000e+00 2.13624055071228e-02 2.75570475692921e-04
7.40277777777778e+00 2.11991540570792e-02 2.73979084731367e-04
7.43055555555556e+00 2.10371501741650e-02 2.72394966073976e-04
7.45833333333333e+00 2.08763843246900e-02 2.70818114232046e-04
7.48611111111111e+00 2.07168470473909e-02 2.69248523191117e-04
7.51388888888889e+00 2.05585289535234e-02 2.67686186240519e-04
7.54166666666667e+00 2.04014207260914e-02 2.66131096258183e-04
7.56944444444444e+00 2.02455131192997e-02 2.64583245545168e-04
7.59722222222222e+00 2.00907969582113e-02 2.63042626092562e-04
7.62500000000000e+00 1.99372631375981e-02 2.61509229421078e-04
7.65277777777778e+00 1.97849026220179e-02 2.59983046417867e-04
7.68055555555556e+00 1.96337064450776e-02 2.58464067526340e-04
7.70833333333333e+00 1.94836657090979e-02 2.56952282914945e-04
7.73611111111111e+00 1.93347715840081e-02 2.55447682322614e-04
7.76388888888889e+00 1.91870153074115e-02 2.53950254901569e-04
7.79166666666667e+00 1.90403881838734e-02 2.52459989478000e-04
7.81944444444444e+00 1.88948815844099e-02 2.50976874399385e-04
7.84722222222222e+00 1.87504869461621e-02 2.49500897778823e-04
7.87500000000000e+00 1.86071957713419e-02 2.48032047347071e-04
7.90277777777778e+00 1.84649996272853e-02 2.46570310301971e-04
7.93055555555556e+00 1.83238901457705e-02 2.45115673482042e-04
7.95833333333333e+00 1.81838590227005e-02 2.43668123520847e-04
7.98611111111111e+00 1.80448980170874e-02 2.42227646704379e-04
8.01388888888889e+00 1.79069989510970e-02 2.40794228825996e-04
8.04166666666667e+00 1.77701537093901e-02 2.39367855425224e-04
8.06944444444444e+00 1.76343542386450e-02 2.37948511646883e-04
8.09722222222222e+00 1.74995925472484e-02 2.36536182464942e-04
8.12500000000000e+00 1.73658607043271e-02 2.35130852545937e-04
8.15277777777778e+00 1.72331508397825e-02 2.33732506110053e-04
8.18055555555556e+00 1.71014551436590e-02 2.32341127090002e-04
8.20833333333333e+00 1.69707658658426e-02 2.30956699272309e-04
8.23611111111111e+00 1.68410753151285e-02 2.29579206165690e-04
8.26388888888889e+00 1.67123758592474e-02 2.28208630867194e-04
8.29166666666667e+00 1.65846599242556e-02 2.26844956281078e-04
8.31944444444444e+00 1.64579199940897e-02 2.25488164988804e-04
8.34722222222222e+00 1.63321486102735e-02 2.24138239454235e-04
8.37500000000000e+00 1.62073383710278e-02 2.22795161897620e-04
8.40277777777778e+00 1.60834819312889e-02 2.21458914167375e-04
8.43055555555556e+00 1.59605720021240e-02 2.20129477885569e-04
8.45833333333333e+00 1.58386013504452e-02 2.18806834577358e-04
8.48611111111111e+00 1.57175627981527e-02 2.17490965549453e-04
8.51388888888889e+00 1.55974492221459e-02 2.16181851766599e-04
8.54166666666667e+00 1.54782535537590e-02 2.14879474052341e-04
8.56944444444444e+00 1.53599687783447e-02 2.13583812968979e-04
8.59722222222222e+00 1.52425879349974e-02 2.12294849005823e-04
8.62500000000000e+00 1.51261041157342e-02 2.11012562462863e-04
8.65277777777778e+00 1.50105104655001e-02 2.09736933332404e-04
8.68055555555556e+00 1.48958001816260e-02 2.08467941432406e-04
8.70833333333333e+00 1.47819665135585e-02 2.07205566525109e-04
8.73611111111111e+00 1.46690027620716e-02 2.05949788204843e-04
8.76388888888889e+00 1.45569022792657e-02 2.04700585783987e-04
