Energy (eV)          EEDF (eV^-(3/2))     First Anisotropy
9.25000000000000e-03 2.16455432733691e+00 2.27708471819662e-03
2.77500000000000e-02 2.10301211473336e+00 3.71916374778049e-03
4.62500000000000e-02 2.04321965905911e+00 4.80241497485998e-03
6.47500000000000e-02 1.98512721154493e+00 5.56282798775070e-03
8.32500000000000e-02 1.92868643786980e+00 6.14720811698965e-03
1.01750000000000e-01 1.87385037794528e+00 6.61299902591537e-03
1.20250000000000e-01 1.82057340684362e+00 6.99088756991242e-03
1.38750000000000e-01 1.76881119683665e+00 7.29996462613187e-03
1.57250000000000e-01 1.71852068051406e+00 7.55324989354939e-03
1.75750000000000e-01 1.66966001495030e+00 7.76018815857815e-03
1.94250000000000e-01 1.62218854689018e+00 7.92794165435458e-03
2.12750000000000e-01 1.57606677892446e+00 8.06212582663588e-03
2.31250000000000e-01 1.53125633662700e+00 8.16725884504630e-03
2.49750000000000e-01 1.48771993662631e+00 8.24705167479373e-03
2.68250000000000e-01 1.44542135558492e+00 8.30460364424146e-03
2.86750000000000e-01 1.40432540006065e+00 8.34253912369481e-03
3.05250000000000e-01 1.36439787722483e+00 8.36310596477283e-03
3.23750000000000e-01 1.32560556641305e+00 8.36824823495871e-03
3.42250000000000e-01 1.28791619148474e+00 8.35966115589039e-03
3.60750000000000e-01 1.25129839396865e+00 8.33883340277918e-03
3.79250000000000e-01 1.21572170697186e+00 8.30708022576766e-03
3.97750000000000e-01 1.18115652983056e+00 8.26556977437676e-03
4.16250000000000e-01 1.14757410348163e+00 8.21534429992193e-03
4.34750000000000e-01 1.11494648653432e+00 8.15733743736884e-03
4.53250000000000e-01 1.08324653202244e+00 8.09238844380913e-03
4.71750000000000e-01 1.05244786481733e+00 8.02125404422167e-03
4.90250000000000e-01 1.02252485968321e+00 7.94461837416244e-03
5.08750000000000e-01 9.93452619956275e-01 7.86310139271806e-03
5.27250000000000e-01 9.65206956830131e-01 7.77726605381201e-03
5.45750000000000e-01 9.37764369230096e-01 7.68762446064144e-03
5.64250000000000e-01 9.11102024259745e-01 7.59464318041760e-03
5.82750000000000e-01 8.85197738203384e-01 7.49874786038097e-03
6.01250000000000e-01 8.60029958068668e-01 7.40032725824431e-03
6.19750000000000e-01 8.35577743653985e-01 7.29973677863013e-03
6.38250000000000e-01 8.11820750125705e-01 7.19730159016643e-03
6.56750000000000e-01 7.88739211090786e-01 7.09331938455562e-03
6.75250000000000e-01 7.66313922150654e-01 6.98806282830920e-03
6.93750000000000e-01 7.44526224922683e-01 6.88178174931837e-03
7.12250000000000e-01 7.23357991515969e-01 6.77470509355205e-03
7.30750000000000e-01 7.02791609448484e-01 6.66704268158062e-03
7.49250000000000e-01 6.82809966993068e-01 6.55898679004877e-03
7.67750000000000e-01 6.63396438940056e-01 6.45071357945787e-03
7.86250000000000e-01 6.44534872764702e-01 6.34238438650290e-03
8.04750000000000e-01 6.26209575187888e-01 6.23414689661987e-03
8.23250000000000e-01 6.08405299118938e-01 6.12613621023418e-03
8.41750000000000e-01 5.91107230969669e-01 6.01847581438103e-03
8.60250000000000e-01 5.74300978329123e-01 5.91127846983471e-03
8.78750000000000e-01 5.57972557988742e-01 5.80464702258352e-03
8.97250000000000e-01 5.42108384307992e-01 5.69867514738001e-03
9.15750000000000e-01 5.26695257910785e-01 5.59344803015034e-03
9.34250000000000e-01 5.11720354703282e-01 5.48904299523645e-03
9.52750000000000e-01 4.97171215203931e-01 5.38553008274653e-03
9.71250000000000e-01 4.83035734176881e-01 5.28297258068553e-03
9.89750000000000e-01 4.69302150560130e-01 5.18142751601671e-03
1.00825000000000e+00 4.55959037680042e-01 5.08094610835015e-03
1.02675000000000e+00 4.42995293744072e-01 4.98157418955747e-03
1.04525000000000e+00 4.30400132603813e-01 4.88335259226696e-03
1.06375000000000e+00 4.18163074780653e-01 4.78631750988846e-03
1.08225000000000e+00 4.06273938746601e-01 4.69050083055027e-03
1.10075000000000e+00 3.94722832453003e-01 4.59593044709457e-03
1.11925000000000e+00 3.83500145100127e-01 4.50263054507019e-03
1.13775000000000e+00 3.72596539140739e-01 4.41062187047580e-03
1.15625000000000e+00 3.62002942511038e-01 4.31992197884311e-03
1.17475000000000e+00 3.51710541082484e-01 4.23054546710351e-03
1.19325000000000e+00 3.41710771328223e-01 4.14250418955092e-03
1.21175000000000e+00 3.31995313198034e-01 4.05580745909757e-03
1.23025000000000e+00 3.22556083195840e-01 3.97046223491473e-03
1.24875000000000e+00 3.13385227654043e-01 3.88647329745559e-03
1.26725000000000e+00 3.04475116199090e-01 3.80384341177478e-03
1.28575000000000e+00 2.95818335402808e-01 3.72257347998225e-03
1.30425000000000e+00 2.87407682614261e-01 3.64266268359953e-03
1.32275000000000e+00 2.79236159966966e-01 3.56410861652588e-03
1.34125000000000e+00 2.71296968556496e-01 3.48690740926466e-03
1.35975000000000e+00 2.63583502783636e-01 3.41105384500902e-03
1.37825000000000e+00 2.56089344858356e-01 3.33654146814035e-03
1.39675000000000e+00 2.48808259460059e-01 3.26336268564984e-03
1.41525000000000e+00 2.41734188549641e-01 3.19150886195550e-03
1.43375000000000e+00 2.34861246329059e-01 3.12097040755165e-03
1.45225000000000e+00 2.28183714344203e-01 3.05173686189562e-03
1.47075000000000e+00 2.21696036727003e-01 2.98379697090733e-03
1.48925000000000e+00 2.15392815572815e-01 2.91713875943006e-03
1.50775000000000e+00 2.09268806449230e-01 2.85174959897623e-03
1.52625000000000e+00 2.03318914032583e-01 2.78761627105897e-03
1.54475000000000e+00 1.97538187868521e-01 2.72472502638978e-03
1.56325000000000e+00 1.91921818253099e-01 2.66306164020298e-03
1.58175000000000e+00 1.86465132230999e-01 2.60261146394998e-03
1.60025000000000e+00 1.81163589707512e-01 2.54335947358993e-03
1.61875000000000e+00 1.76012779671069e-01 2.48529031468842e-03
1.63725000000000e+00 1.71008416523178e-01 2.42838834452169e-03
1.65575000000000e+00 1.66146336512697e-01 2.37263767137082e-03
1.67425000000000e+00 1.61422494271497e-01 2.31802219117852e-03
1.69275000000000e+00 1.56832959448613e-01 2.26452562172992e-03
1.71125000000000e+00 1.52373913440102e-01 2.21213153450832e-03
1.72975000000000e+00 1.48041646211866e-01 2.16082338436772e-03
1.74825000000000e+00 1.43832553212822e-01 2.11058453715430e-03
1.76675000000000e+00 1.39743132375821e-01 2.06139829540129e-03
1.78525000000000e+00 1.35769981203847e-01 2.01324792221390e-03
1.80375000000000e+00 1.31909793939058e-01 1.96611666345329e-03
1.82225000000000e+00 1.28159358812312e-01 1.91998776832266e-03
1.84075000000000e+00 1.24515555370902e-01 1.87484450845147e-03
1.85925000000000e+00 1.20975351882258e-01 1.83067019556852e-03
1.87775000000000e+00 1.17535802811480e-01 1.78744819784888e-03
1.89625000000000e+00 1.14194046370573e-01 1.74516195501446e-03
1.91475000000000e+00 1.10947302137379e-01 1.70379499226383e-03
1.93325000000000e+00 1.07792868742191e-01 1.66333093310155e-03
1.95175000000000e+00 1.04728121620153e-01 1.62375351113375e-03
1.97025000000000e+00 1.01750510827555e-01 1.58504658089263e-03
1.98875000000000e+00 9.88575589202208e-02 1.54719412774863e-03
2.00725000000000e+00 9.60468588922150e-02 1.51018027696589e-03
2.02575000000000e+00 9.33160721731531e-02 1.47398930195333e-03
2.04425000000000e+00 9.06629266824564e-02 1.43860563176028e-03
2.06275000000000e+00 8.80852149389253e-02 1.40401385786340e-03
2.08125000000000e+00 8.55807922240620e-02 1.37019874028830e-03
2.09975000000000e+00 8.31475747976126e-02 1.33714521310726e-03
2.11825000000000e+00 8.07835381638448e-02 1.30483838935166e-03
2.13675000000000e+00 7.84867153871185e-02 1.27326356537584e-03
2.15525000000000e+00 7.62551954553480e-02 1.24240622470689e-03
2.17375000000000e+00 7.40871216899933e-02 1.21225204141276e-03
2.19225000000000e+00 7.19806902012593e-02 1.18278688301961e-03
2.21075000000000e+00 6.99341483872153e-02 1.15399681300705e-03
2.22925000000000e+00 6.79457934755881e-02 1.12586809290872e-03
2.24775000000000e+00 6.60139711070141e-02 1.09838718404384e-03
2.26625000000000e+00 6.41370739585726e-02 1.07154074890417e-03
2.28475000000000e+00 6.23135404064540e-02 1.04531565221890e-03
2.30325000000000e+00 6.05418532266512e-02 1.01969896171949e-03
2.32175000000000e+00 5.88205383325925e-02 9.94677948624509e-04
2.34025000000000e+00 5.71481635486657e-02 9.70240087863746e-04
2.35875000000000e+00 5.55233374186139e-02 9.46373058059779e-04
2.37725000000000e+00 5.39447080478097e-02 9.23064741283963e-04
2.39575000000000e+00 5.24109619784464e-02 9.00303222603013e-04
2.41425000000000e+00 5.09208230967094e-02 8.78076789431310e-04
2.43275000000000e+00 4.94730515710186e-02 8.56373930703239e-04
2.45125000000000e+00 4.80664428204585e-02 8.35183335879088e-04
2.46975000000000e+00 4.66998265125379e-02 8.14493893797185e-04
2.48825000000000e+00 4.53720655894447e-02 7.94294691384298e-04
2.50675000000000e+00 4.40820553219866e-02 7.74575012235492e-04
2.52525000000000e+00 4.28287223904295e-02 7.55324335074156e-04
2.54375000000000e+00 4.16110239914696e-02 7.36532332102243e-04
2.56225000000000e+00 4.04279469705960e-02 7.18188867249997e-04
2.58075000000000e+00 3.92785069791214e-02 7.00283994334212e-04
2.59925000000000e+00 3.81617476551800e-02 6.82807955133278e-04
2.61775000000000e+00 3.70767398280120e-02 6.65751177386910e-04
2.63625000000000e+00 3.60225807448704e-02 6.49104272727936e-04
2.65475000000000e+00 3.49983933199093e-02 6.32858034553078e-04
2.67325000000000e+00 3.40033254044269e-02 6.17003435839273e-04
2.69175000000000e+00 3.30365490778575e-02 6.01531626911661e-04
2.71025000000000e+00 3.20972599589214e-02 5.86433933169038e-04
2.72875000000000e+00 3.11846765363603e-02 5.71701852772074e-04
2.74725000000000e+00 3.02980395187011e-02 5.57327054299474e-04
2.76575000000000e+00 2.94366112025068e-02 5.43301374376810e-04
2.78425000000000e+00 2.85996748585895e-02 5.29616815282406e-04
2.80275000000000e+00 2.77865341356746e-02 5.16265542534573e-04
2.82125000000000e+00 2.69965124810194e-02 5.03239882464008e-04
2.83975000000000e+00 2.62289525775052e-02 4.90532319775006e-04
2.85825000000000e+00 2.54832157967331e-02 4.78135495098953e-04
2.87675000000000e+00 2.47586816676702e-02 4.66042202543229e-04
2.89525000000000e+00 2.40547473604022e-02 4.54245387238534e-04
2.91375000000000e+00 2.33708271845651e-02 4.42738142887382e-04
2.93225000000000e+00 2.27063521020356e-02 4.31513709316350e-04
2.95075000000000e+00 2.20607692534787e-02 4.20565470034479e-04
2.96925000000000e+00 2.14335414983546e-02 4.09886949800040e-04
2.98775000000000e+00 2.08241469680051e-02 3.99471812197754e-04
3.00625000000000e+00 2.02320786314463e-02 3.89313857228377e-04
3.02475000000000e+00 1.96568438735062e-02 3.79407018912392e-04
3.04325000000000e+00 1.90979640849576e-02 3.69745362909456e-04
3.06175000000000e+00 1.85549742643030e-02 3.60323084155148e-04
3.08025000000000e+00 1.80274226308826e-02 3.51134504516341e-04
3.09875000000000e+00 1.75148702489815e-02 3.42174070466491e-04
3.11725000000000e+00 1.70168906626247e-02 3.33436350782021e-04
3.13575000000000e+00 1.65330695407558e-02 3.24916034260858e-04
3.15425000000000e+00 1.60630043325027e-02 3.16607927464071e-04
3.17275000000000e+00 1.56063039322465e-02 3.08506952481493e-04
3.19125000000000e+00 1.51625883542113e-02 3.00608144722142e-04
3.20975000000000e+00 1.47314884163076e-02 2.92906650730112e-04
3.22825000000000e+00 1.43126454329633e-02 2.85397726026598e-04
3.24675000000000e+00 1.39057109166890e-02 2.78076732978619e-04
3.26525000000000e+00 1.35103462881276e-02 2.70939138694914e-04
3.28375000000000e+00 1.31262225943487e-02 2.63980512949486e-04
3.30225000000000e+00 1.27530202351511e-02 2.57196526133127e-04
3.32075000000000e+00 1.23904286971482e-02 2.50582947233272e-04
3.33925000000000e+00 1.20381462954132e-02 2.44135641842454e-04
3.35775000000000e+00 1.16958799224699e-02 2.37850570195577e-04
3.37625000000000e+00 1.13633448044202e-02 2.31723785236163e-04
3.39475000000000e+00 1.10402642640055e-02 2.25751430711739e-04
3.41325000000000e+00 1.07263694904043e-02 2.19929739298438e-04
3.43175000000000e+00 1.04213993155752e-02 2.14255030754868e-04
3.45025000000000e+00 1.01250999969588e-02 2.08723710105280e-04
3.46875000000000e+00 9.83722500635762e-03 2.03332265852021e-04
3.48725000000000e+00 9.55753482481893e-03 1.98077268217214e-04
3.50575000000000e+00 9.28579674334898e-03 1.92955367413631e-04
3.52425000000000e+00 9.02178466929355e-03 1.87963291944642e-04
3.54275000000000e+00 8.76527893822337e-03 1.83097846933079e-04
3.56125000000000e+00 8.51606613116809e-03 1.78355912478954e-04
3.57975000000000e+00 8.27393889704643e-03 1.73734442045808e-04
3.59825000000000e+00 8.03869578014515e-03 1.69230460875521e-04
3.61675000000000e+00 7.81014105250296e-03 1.64841064431378e-04
3.63525000000000e+00 7.58808455106018e-03 1.60563416869198e-04
3.65375000000000e+00 7.37234151943844e-03 1.56394749536248e-04
3.67225000000000e+00 7.16273245421891e-03 1.52332359497730e-04
3.69075000000000e+00 6.95908295559113e-03 1.48373608090575e-04
3.70925000000000e+00 6.76122358224814e-03 1.44515919504263e-04
3.72775000000000e+00 6.56898971040721e-03 1.40756779388390e-04
3.74625000000000e+00 6.38222139683890e-03 1.37093733486700e-04
3.76475000000000e+00 6.20076324579039e-03 1.33524386297263e-04
3.78325000000000e+00 6.02446427969247e-03 1.30046399758509e-04
3.80175000000000e+00 5.85317781354258e-03 1.26657491960795e-04
3.82025000000000e+00 5.68676133285928e-03 1.23355435883190e-04
3.83875000000000e+00 5.52507637510681e-03 1.20138058155137e-04
3.85725000000000e+00 5.36798841449089e-03 1.17003237842683e-04
3.87575000000000e+00 5.21536675003002e-03 1.13948905258916e-04
3.89425000000000e+00 5.06708439680908e-03 1.10973040798303e-04
3.91275000000000e+00 4.92301798032482e-03 1.08073673794557e-04
3.93125000000000e+00 4.78304763383531e-03 1.05248881401707e-04
3.94975000000000e+00 4.64705689862788e-03 1.02496787498023e-04
3.96825000000000e+00 4.51493262712268e-03 9.98155616124451e-05
3.98675000000000e+00 4.38656488873115e-03 9.72034178731789e-05
4.00525000000000e+00 4.26184687839110e-03 9.46586139780978e-05
4.02375000000000e+00 4.14067482770233e-03 9.21794501866105e-05
4.04225000000000e+00 4.02294791858882e-03 8.97642683326519e-05
4.06075000000000e+00 3.90856819941563e-03 8.74114508584382e-05
4.07925000000000e+00 3.79744050349078e-03 8.51194198686550e-05
4.09775000000000e+00 3.68947236988429e-03 8.28866362047232e-05
4.11625000000000e+00 3.58457396649838e-03 8.07115985388003e-05
4.13475000000000e+00 3.48265801532508e-03 7.85928424871856e-05
4.15325000000000e+00 3.38363971982876e-03 7.65289397427835e-05
4.17175000000000e+00 3.28743669439336e-03 7.45184972262853e-05
4.19025000000000e+00 3.19396889577561e-03 7.25601562557438e-05
4.20875000000000e+00 3.10315855650707e-03 7.06525917342009e-05
4.22725000000000e+00 3.01493012018973e-03 6.87945113550495e-05
4.24575000000000e+00 2.92921017863129e-03 6.69846548247932e-05
4.26425000000000e+00 2.84592741076771e-03 6.52217931028878e-05
4.28275000000000e+00 2.76501252332241e-03 6.35047276583453e-05
4.30125000000000e+00 2.68639819315258e-03 6.18322897427818e-05
4.31975000000000e+00 2.61001901123467e-03 6.02033396796008e-05
4.33825000000000e+00 2.53581142824254e-03 5.86167661689983e-05
4.35675000000000e+00 2.46371370167284e-03 5.70714856084884e-05
4.37525000000000e+00 2.39366584447380e-03 5.55664414286478e-05
4.39375000000000e+00 2.32560957513452e-03 5.41006034437787e-05
4.41225000000000e+00 2.25948826919336e-03 5.26729672171996e-05
4.43075000000000e+00 2.19524691212501e-03 5.12825534408739e-05
4.44925000000000e+00 2.13283205356707e-03 4.99284073290890e-05
4.46775000000000e+00 2.07219176284808e-03 4.86095980259057e-05
4.48625000000000e+00 2.01327558577992e-03 4.73252180260970e-05
4.50475000000000e+00 1.95603450267872e-03 4.60743826093084e-05
4.52325000000000e+00 1.90042088757929e-03 4.48562292871667e-05
4.54175000000000e+00 1.84638846860916e-03 4.36699172630679e-05
4.56025000000000e+00 1.79389228948929e-03 4.25146269043909e-05
4.57875000000000e+00 1.74288867212934e-03 4.13895592268740e-05
4.59725000000000e+00 1.69333518028642e-03 4.02939353909034e-05
4.61575000000000e+00 1.64519058425715e-03 3.92269962094626e-05
4.63425000000000e+00 1.59841482657353e-03 3.81880016675007e-05
4.65275000000000e+00 1.55296898867418e-03 3.71762304524755e-05
4.67125000000000e+00 1.50881525852309e-03 3.61909794958362e-05
4.68975000000000e+00 1.46591689914920e-03 3.52315635252131e-05
4.70825000000000e+00 1.42423821808023e-03 3.42973146270847e-05
4.72675000000000e+00 1.38374453764579e-03 3.33875818196984e-05
4.74525000000000e+00 1.34440216612464e-03 3.25017306360214e-05
4.76375000000000e+00 1.30617836971240e-03 3.16391427165081e-05
4.78225000000000e+00 1.26904134528624e-03 3.07992154114707e-05
4.80075000000000e+00 1.23296019394389e-03 2.99813613928395e-05
4.81925000000000e+00 1.19790489529501e-03 2.91850082751137e-05
4.83775000000000e+00 1.16384628248351e-03 2.84095982452980e-05
4.85625000000000e+00 1.13075601792002e-03 2.76545877016251e-05
4.87475000000000e+00 1.09860656970433e-03 2.69194469008759e-05
4.89325000000000e+00 1.06737118871817e-03 2.62036596141014e-05
4.91175000000000e+00 1.03702388636931e-03 2.55067227905621e-05
4.93025000000000e+00 1.00753941296842e-03 2.48281462297023e-05
4.94875000000000e+00 9.78893236720706e-04 2.41674522609782e-05
4.96725000000000e+00 9.51061523314898e-04 2.35241754313640e-05
4.98575000000000e+00 9.24021116092488e-04 2.28978622003652e-05
5.00425000000000e+00 8.97749516780849e-04 2.22880706423676e-05
5.02275000000000e+00 8.72224866774124e-04 2.16943701561570e-05
5.04125000000000e+00 8.47425928946339e-04 2.11163411814465e-05
5.05975000000000e+00 8.23332069981602e-04 2.05535749222547e-05
5.07825000000000e+00 7.99923243206680e-04 2.00056730769740e-05
5.09675000000000e+00 7.77179971911688e-04 1.94722475749814e-05
5.11525000000000e+00 7.55083333144993e-04 1.89529203196390e-05
5.13375000000000e+00 7.33614941968859e-04 1.84473229375365e-05
5.15225000000000e+00 7.12756936162736e-04 1.79550965338359e-05
5.17075000000000e+00 6.92491961361463e-04 1.74758914535741e-05
5.18925000000000e+00 6.72803156616011e-04 1.70093670487886e-05
5.20775000000000e+00 6.53674140364771e-04 1.65551914513283e-05
5.22625000000000e+00 6.35088996803697e-04 1.61130413512200e-05
5.24475000000000e+00 6.17032262643969e-04 1.56826017804611e-05
5.26325000000000e+00 5.99488914246167e-04 1.52635659021104e-05
5.28175000000000e+00 5.82444355120239e-04 1.48556348045552e-05
5.30025000000000e+00 5.65884403780866e-04 1.44585173008324e-05
5.31875000000000e+00 5.49795281948126e-04 1.40719297328847e-05
5.33725000000000e+00 5.34163603083631e-04 1.36955957806383e-05
5.35575000000000e+00 5.18976361252602e-04 1.33292462757858e-05
5.37425000000000e+00 5.04220920302618e-04 1.29726190201648e-05
5.39275000000000e+00 4.89885003350034e-04 1.26254586086236e-05
5.41125000000000e+00 4.75956682565312e-04 1.22875162562676e-05
5.42975000000000e+00 4.62424369248783e-04 1.19585496299824e-05
5.44825000000000e+00 4.49276804188565e-04 1.16383226841323e-05
5.46675000000000e+00 4.36503048292629e-04 1.13266055003352e-05
5.48525000000000e+00 4.24092473487210e-04 1.10231741312157e-05
5.50375000000000e+00 4.12034753873991e-04 1.07278104480423e-05
5.52225000000000e+00 4.00319857138705e-04 1.04403019921565e-05
5.54075000000000e+00 3.88938036204012e-04 1.01604418301012e-05
5.55925000000000e+00 3.77879821119689e-04 9.88802841236093e-06
5.57775000000000e+00 3.67136011183406e-04 9.62286543562789e-06
5.59625000000000e+00 3.56697667285518e-04 9.36476170850680e-06
5.61475000000000e+00 3.46556104471511e-04 9.11353102057766e-06
5.63325000000000e+00 3.36702884715907e-04 8.86899201473491e-06
5.65175000000000e+00 3.27129809901627e-04 8.63096806272348e-06
5.67025000000000e+00 3.17828914998953e-04 8.39928714379454e-06
5.68875000000000e+00 3.08792461438438e-04 8.17378172640594e-06
5.70725000000000e+00 3.00012930672225e-04 7.95428865289256e-06
5.72575000000000e+00 2.91483017918433e-04 7.74064902703525e-06
5.74425000000000e+00 2.83195626083404e-04 7.53270810445740e-06
5.76275000000000e+00 2.75143859856747e-04 7.33031518578020e-06
5.78125000000000e+00 2.67321019974276e-04 7.13332351247036e-06
5.79975000000000e+00 2.59720597644059e-04 6.94159016531303e-06
5.81825000000000e+00 2.52336269130942e-04 6.75497596544647e-06
5.83675000000000e+00 2.45161890495056e-04 6.57334537789624e-06
