Energy (eV)          EEDF (eV^-(3/2))     First Anisotropy
8.23684210526316e-02 4.09207707738186e-02 3.50031216143248e-05
2.47105263157895e-01 4.01843371437125e-02 5.74732145409089e-05
4.11842105263158e-01 3.94611567951087e-02 7.50100737460091e-05
5.76578947368421e-01 3.87509912143236e-02 8.78203691528524e-05
7.41315789473684e-01 3.80536061801267e-02 9.80883126105482e-05
9.06052631578947e-01 3.73687716856381e-02 1.06654092608586e-04
1.07078947368421e+00 3.66962618651631e-02 1.13959649045631e-04
1.23552631578947e+00 3.60358549193404e-02 1.20276078749142e-04
1.40026315789474e+00 3.53873330310775e-02 1.25785933820266e-04
1.56500000000000e+00 3.47504823153994e-02 1.30620155273151e-04
1.72973684210526e+00 3.41250927308459e-02 1.34877065531274e-04
1.89447368421053e+00 3.35109580161040e-02 1.38633106501734e-04
2.05921052631579e+00 3.29078756189521e-02 1.41949354759380e-04
2.22394736842105e+00 3.23156466388272e-02 1.44875696815331e-04
2.38868421052632e+00 3.17340757512838e-02 1.47453624034174e-04
2.55342105263158e+00 3.11629711470402e-02 1.49718170847653e-04
2.71815789473684e+00 3.06021444687815e-02 1.51699301043219e-04
2.88289473684211e+00 3.00514107470716e-02 1.53422923651952e-04
3.04763157894737e+00 2.95105883453395e-02 1.54911654941750e-04
3.21236842105263e+00 2.89794988937295e-02 1.56185400595391e-04
3.37710526315789e+00 2.84579672324178e-02 1.57261807323868e-04
3.54184210526316e+00 2.79458213538951e-02 1.58156619549884e-04
3.70657894736842e+00 2.74428923448430e-02 1.58883963879437e-04
3.87131578947368e+00 2.69490143346298e-02 1.59456579600033e-04
4.03605263157895e+00 2.64640244362552e-02 1.59886007120418e-04
4.20078947368421e+00 2.59877626941254e-02 1.60182742979230e-04
4.36552631578947e+00 2.55200720313159e-02 1.60356369426967e-04
4.53026315789474e+00 2.50607981967406e-02 1.60415662792734e-04
4.69500000000000e+00 2.46097897173925e-02 1.60368685563571e-04
4.85973684210526e+00 2.41668978451762e-02 1.60222864852310e-04
5.02447368421053e+00 2.37319765089560e-02 1.59985059311431e-04
5.18921052631579e+00 2.33048822655574e-02 1.59661616888845e-04
5.35394736842105e+00 2.28854742549931e-02 1.59258425194514e-04
5.51868421052632e+00 2.24736141513966e-02 1.58780955431235e-04
5.68342105263158e+00 2.20691661182895e-02 1.58234300493006e-04
5.84815789473684e+00 2.16719967637905e-02 1.57623208855462e-04
6.01289473684210e+00 2.12819750959698e-02 1.56952114201712e-04
6.17763157894737e+00 2.08989724816347e-02 1.56225162014426e-04
6.34236842105263e+00 2.05228626018656e-02 1.55446233276231e-04
6.50710526315789e+00 2.01535214110469e-02 1.54618965323902e-04
6.67184210526316e+00 1.97908270959653e-02 1.53746770861485e-04
6.83657894736842e+00 1.94346600351099e-02 1.52832854786290e-04
7.00131578947368e+00 1.90849027608104e-02 1.51880229633801e-04
7.16605263157895e+00 1.87414399188662e-02 1.50891729566354e-04
7.33078947368421e+00 1.84041582310562e-02 1.49870022783242e-04
7.49552631578947e+00 1.80729464577828e-02 1.48817623077251e-04
7.66026315789474e+00 1.77476953609583e-02 1.47736900130984e-04
7.82500000000000e+00 1.74282976692695e-02 1.46630089154867e-04
7.98973684210526e+00 1.71146480414765e-02 1.45499299724598e-04
8.15447368421053e+00 1.68066430321213e-02 1.44346523691380e-04
8.31921052631579e+00 1.65041810570488e-02 1.43173642480428e-04
8.48394736842105e+00 1.62071623610120e-02 1.41982433973797e-04
8.64868421052632e+00 1.59154889836375e-02 1.40774578871731e-04
8.81342105263158e+00 1.56290647275020e-02 1.39551666355783e-04
8.97815789473684e+00 1.53477951264076e-02 1.38315199542405e-04
9.14289473684211e+00 1.50715874139244e-02 1.37066600353276e-04
9.30763157894737e+00 1.48003504937142e-02 1.35807214218894e-04
9.47236842105263e+00 1.45339949085473e-02 1.34538314461370e-04
9.63710526315789e+00 1.42724328111166e-02 1.33261106186526e-04
9.80184210526316e+00 1.40155779350670e-02 1.31976730096884e-04
9.96657894736842e+00 1.37633455662914e-02 1.30686265983195e-04
1.01313157894737e+01 1.35156525150190e-02 1.29390735645108e-04
1.02960526315789e+01 1.32724170908001e-02 1.28091106765062e-04
1.04607894736842e+01 1.30335590692663e-02 1.26788294956397e-04
1.06255263157895e+01 1.27989996744798e-02 1.25483166536639e-04
1.07902631578947e+01 1.25686615458094e-02 1.24176542191695e-04
1.09550000000000e+01 1.23424687128289e-02 1.22869197556769e-04
1.11197368421053e+01 1.21203465764865e-02 1.21561866603686e-04
1.12844736842105e+01 1.19022218762110e-02 1.20255243521137e-04
1.14492105263158e+01 1.16880226737978e-02 1.18949984359157e-04
1.16139473684211e+01 1.14776783236730e-02 1.17646709983643e-04
1.17786842105263e+01 1.12711194499284e-02 1.16346006271102e-04
1.19434210526316e+01 1.10682779287071e-02 1.15048426786685e-04
1.21081578947368e+01 1.08690868587264e-02 1.13754494165602e-04
1.22728947368421e+01 1.06734805460214e-02 1.12464701526352e-04
1.24376315789474e+01 1.04813944756624e-02 1.11179513957919e-04
1.26023684210526e+01 1.02927652969065e-02 1.09899369573999e-04
1.27671052631579e+01 1.01075307975005e-02 1.08624681691804e-04
1.29318421052632e+01 9.92562988342387e-03 1.07355838714358e-04
1.30965789473684e+01 9.74700256296692e-03 1.06093206121755e-04
1.32613157894737e+01 9.57158992131429e-03 1.04837127389361e-04
1.34260526315789e+01 9.39933410659002e-03 1.03587924951692e-04
1.35907894736842e+01 9.23017830545153e-03 1.02345901243627e-04
1.37555263157895e+01 9.06406672953104e-03 1.01111339391215e-04
1.39202631578947e+01 8.90094459316911e-03 9.98845048656590e-05
1.40850000000000e+01 8.74075809554449e-03 9.86656452113608e-05
1.42497368421053e+01 8.58345440635551e-03 9.74549915649875e-05
1.44144736842105e+01 8.42898164383635e-03 9.62527592797405e-05
1.45792105263158e+01 8.27728886208369e-03 9.50591484423433e-05
1.47439473684211e+01 8.12832603093914e-03 9.38743452462863e-05
1.49086842105263e+01 7.98204401965509e-03 9.26985216684355e-05
1.50734210526316e+01 7.83839458363693e-03 9.15318367340686e-05
1.52381578947368e+01 7.69733034461153e-03 9.03744369958895e-05
1.54028947368421e+01 7.55880477881761e-03 8.92264570603423e-05
1.55676315789474e+01 7.42277219794514e-03 8.80880201828897e-05
1.57323684210526e+01 7.28918773768635e-03 8.69592386135443e-05
1.58971052631579e+01 7.15800734023437e-03 8.58402146740149e-05
1.60618421052632e+01 7.02918773988622e-03 8.47310404002050e-05
1.62265789473684e+01 6.90268645118314e-03 8.36317985381040e-05
1.63913157894737e+01 6.77846175169012e-03 8.25425628759743e-05
1.65560526315789e+01 6.65647267136140e-03 8.14633986215702e-05
1.67207894736842e+01 6.53667897598197e-03 8.03943628414649e-05
1.68855263157895e+01 6.41904115686560e-03 7.93355046914974e-05
1.70502631578947e+01 6.30352041560807e-03 7.82868662735307e-05
1.72150000000000e+01 6.19007865139599e-03 7.72484822744299e-05
1.73797368421053e+01 6.07867845042422e-03 7.62203807594884e-05
1.75444736842105e+01 5.96928307091675e-03 7.52025834040237e-05
1.77092105263158e+01 5.86185643358205e-03 7.41951056658137e-05
1.78739473684211e+01 5.75636310779125e-03 7.31979575155722e-05
1.80386842105263e+01 5.65276829998220e-03 7.22111430862158e-05
1.82034210526316e+01 5.55103784390830e-03 7.12346613502001e-05
1.83681578947368e+01 5.45113818707636e-03 7.02685062987505e-05
1.85328947368421e+01 5.35303638191701e-03 6.93126671588132e-05
1.86976315789474e+01 5.25670007273712e-03 6.83671286600547e-05
1.88623684210526e+01 5.16209748717570e-03 6.74318711472608e-05
1.90271052631579e+01 5.06919742413538e-03 6.65068711707521e-05
1.91918421052632e+01 4.97796924356526e-03 6.55921011549630e-05
1.93565789473684e+01 4.88838285778352e-03 6.46875299468711e-05
1.95213157894737e+01 4.80040871965340e-03 6.37931229398398e-05
1.96860526315789e+01 4.71401781469259e-03 6.29088422313649e-05
1.98507894736842e+01 4.62918164969470e-03 6.20346468246864e-05
2.00155263157895e+01 4.54587224509678e-03 6.11704926992514e-05
2.01802631578947e+01 4.46406212443303e-03 6.03163332915423e-05
2.03450000000000e+01 4.38372430533152e-03 5.94721191880543e-05
2.05097368421053e+01 4.30483229180315e-03 5.86377985720472e-05
2.06744736842105e+01 4.22736006392214e-03 5.78133173080213e-05
2.08392105263158e+01 4.15128207078712e-03 5.69986189907158e-05
2.10039473684211e+01 4.07657322094147e-03 5.61936453608094e-05
2.11686842105263e+01 4.00320887414851e-03 5.53983360177757e-05
2.13334210526316e+01 3.93116483430532e-03 5.46126288063099e-05
2.14981578947368e+01 3.86041734007859e-03 5.38364598798618e-05
2.16628947368421e+01 3.79094305841867e-03 5.30697637913391e-05
2.18276315789474e+01 3.72271907554534e-03 5.23124736183590e-05
2.19923684210526e+01 3.65572289067796e-03 5.15645209896074e-05
2.21571052631579e+01 3.58993240765238e-03 5.08258364262946e-05
2.23218421052632e+01 3.52532592767541e-03 5.00963490812275e-05
2.24865789473684e+01 3.46188214303769e-03 4.93759870564969e-05
2.26513157894737e+01 3.39958012892923e-03 4.86646774443740e-05
2.28160526315789e+01 3.33839933766790e-03 4.79623463922324e-05
2.29807894736842e+01 3.27831959081930e-03 4.72689191975356e-05
2.31455263157895e+01 3.21932107361895e-03 4.65843203182895e-05
2.33102631578947e+01 3.16138432763236e-03 4.59084736547768e-05
2.34750000000000e+01 3.10449024437167e-03 4.52413023141262e-05
2.36397368421053e+01 3.04862005972238e-03 4.45827288723336e-05
2.38044736842105e+01 2.99375534678491e-03 4.39326753989288e-05
2.39692105263158e+01 2.93987801074444e-03 4.32910634594442e-05
2.41339473684211e+01 2.88697028219522e-03 4.26578143609240e-05
2.42986842105263e+01 2.83501471130978e-03 4.20328489345455e-05
2.44634210526316e+01 2.78399416272570e-03 4.14160877639679e-05
2.46281578947368e+01 2.73389180904033e-03 4.08074512013753e-05
2.47928947368421e+01 2.68469112609491e-03 4.02068594025142e-05
2.49576315789474e+01 2.63637588670993e-03 3.96142323852956e-05
2.51223684210526e+01 2.58893015612925e-03 3.90294900239318e-05
2.52871052631579e+01 2.54233828616968e-03 3.84525522524821e-05
2.54518421052632e+01 2.49658491008504e-03 3.78833388702153e-05
2.56165789473684e+01 2.45165493803790e-03 3.73217697310040e-05
2.57813157894737e+01 2.40753355140436e-03 3.67677647500282e-05
2.59460526315789e+01 2.36420619858870e-03 3.62212439271775e-05
2.61107894736842e+01 2.32165858953812e-03 3.56821273909242e-05
2.62755263157895e+01 2.27987669169995e-03 3.51503353868254e-05
2.64402631578947e+01 2.23884672489281e-03 3.46257884467663e-05
2.66050000000000e+01 2.19855515678224e-03 3.41084072152248e-05
2.67697368421053e+01 2.15898869887297e-03 3.35981126066277e-05
2.69344736842105e+01 2.12013430152039e-03 3.30948258054909e-05
2.70992105263158e+01 2.08197915021871e-03 3.25984682523334e-05
2.72639473684211e+01 2.04451066093214e-03 3.21089617918607e-05
2.74286842105263e+01 2.00771647596255e-03 3.16262285134085e-05
2.75934210526316e+01 1.97158446027634e-03 3.11501908886956e-05
2.77581578947368e+01 1.93610269696664e-03 3.06807717685851e-05
2.79228947368421e+01 1.90125948384645e-03 3.02178943929943e-05
2.80876315789474e+01 1.86704332907736e-03 2.97614824168485e-05
2.82523684210526e+01 1.83344294787966e-03 2.93114598934869e-05
2.84171052631579e+01 1.80044725843664e-03 2.88677513982057e-05
2.85818421052632e+01 1.76804537825479e-03 2.84302818863469e-05
2.87465789473684e+01 1.73622662091514e-03 2.79989768081556e-05
2.89113157894737e+01 1.70498049209573e-03 2.75737621019769e-05
2.90760526315789e+01 1.67429668655336e-03 2.71545641989789e-05
2.92407894736842e+01 1.64416508429177e-03 2.67413100418145e-05
2.94055263157895e+01 1.61457574764724e-03 2.63339270666224e-05
2.95702631578947e+01 1.58551891769482e-03 2.59323433062237e-05
2.97350000000000e+01 1.55698501104222e-03 2.55364872641020e-05
2.98997368421053e+01 1.52896461695763e-03 2.51462880102494e-05
3.00644736842105e+01 1.50144849388211e-03 2.47616751720341e-05
3.02292105263158e+01 1.47442756675697e-03 2.43825789158166e-05
3.03939473684211e+01 1.44789292375021e-03 2.40089300375642e-05
3.05586842105263e+01 1.42183581332837e-03 2.36406598474069e-05
3.07234210526316e+01 1.39624764162615e-03 2.32777002537644e-05
3.08881578947368e+01 1.37111996927161e-03 2.29199837531497e-05
3.10528947368421e+01 1.34644450893564e-03 2.25674434290444e-05
3.12176315789474e+01 1.32221312227316e-03 2.22200129617078e-05
3.13823684210526e+01 1.29841781755737e-03 2.18776266096641e-05
3.15471052631579e+01 1.27505074680604e-03 2.15402192854991e-05
3.17118421052632e+01 1.25210420320254e-03 2.12077264535308e-05
3.18765789473684e+01 1.22957061877129e-03 2.08800842001723e-05
3.20413157894737e+01 1.20744256159271e-03 2.05572292227237e-05
3.22060526315789e+01 1.18571273363484e-03 2.02390988261135e-05
3.23707894736842e+01 1.16437396806974e-03 1.99256309291469e-05
3.25355263157895e+01 1.14341922718033e-03 1.96167640462846e-05
3.27002631578947e+01 1.12284159983716e-03 1.93124373511286e-05
3.28650000000000e+01 1.10263429922682e-03 1.90125905857944e-05
3.30297368421053e+01 1.08279066079842e-03 1.87171641197722e-05
3.31944736842105e+01 1.06330413981967e-03 1.84260989382611e-05
3.33592105263158e+01 1.04416830945889e-03 1.81393366244172e-05
3.35239473684211e+01 1.02537685848555e-03 1.78568194151890e-05
3.36886842105263e+01 1.00692358919579e-03 1.75784901183973e-05
3.38534210526316e+01 9.88802415532673e-04 1.73042921644760e-05
3.40181578947368e+01 9.71007360860282e-04 1.70341695947436e-05
3.41828947368421e+01 9.53532556206486e-04 1.67680670559304e-05
3.43476315789474e+01 9.36372238117976e-04 1.65059298021757e-05
3.45123684210526e+01 9.19520746964178e-04 1.62477036780453e-05
3.46771052631579e+01 9.02972524917596e-04 1.59933351653225e-05
3.48418421052632e+01 8.86722114126680e-04 1.57427713096418e-05
3.50065789473684e+01 8.70764155055799e-04 1.54959597638334e-05
3.51713157894737e+01 8.55093384531295e-04 1.52528487762847e-05
3.53360526315789e+01 8.39704634187922e-04 1.50133871847839e-05
3.55007894736842e+01 8.24592828585880e-04 1.47775244168610e-05
3.56655263157895e+01 8.09752983711402e-04 1.45452104737040e-05
3.58302631578947e+01 7.95180205202556e-04 1.43163959694023e-05
3.59950000000000e+01 7.80869686739975e-04 1.40910320660661e-05
3.61597368421053e+01 7.66816708581146e-04 1.38690705101269e-05
3.63244736842105e+01 7.53016635844862e-04 1.36504636210205e-05
3.64892105263158e+01 7.39464917138100e-04 1.34351642758363e-05
3.66539473684211e+01 7.26157082938693e-04 1.32231259438576e-05
3.68186842105263e+01 7.13088744125615e-04 1.30143026272354e-05
3.69834210526316e+01 7.00255590637927e-04 1.28086488929179e-05
3.71481578947368e+01 6.87653389911582e-04 1.26061198616683e-05
3.73128947368421e+01 6.75277985622125e-04 1.24066712014052e-05
3.74776315789474e+01 6.63125296178191e-04 1.22102591256567e-05
3.76423684210526e+01 6.51191313508151e-04 1.20168403792293e-05
3.78071052631579e+01 6.39472101638943e-04 1.18263722671734e-05
3.79718421052632e+01 6.27963795401693e-04 1.16388126023473e-05
3.81365789473684e+01 6.16662599247930e-04 1.14541197321772e-05
3.83013157894737e+01 6.05564785876719e-04 1.12722525281930e-05
3.84660526315789e+01 5.94666695123828e-04 1.10931703793490e-05
3.86307894736842e+01 5.83964732638603e-04 1.09168331897992e-05
3.87955263157895e+01 5.73455368811997e-04 1.07432013655904e-05
3.89602631578947e+01 5.63135137527656e-04 1.05722358389636e-05
3.91250000000000e+01 5.53000635021915e-04 1.04038980220206e-05
3.92897368421053e+01 5.43048518839021e-04 1.02381498291392e-05
3.94544736842105e+01 5.33275506625224e-04 1.00749536671041e-05
3.96192105263158e+01 5.23678375147559e-04 9.91427242254861e-06
3.97839473684211e+01 5.14253959155048e-04 9.75606948334430e-06
3.99486842105263e+01 5.04999150337571e-04 9.60030869624854e-06
4.01134210526316e+01 4.95910896370238e-04 9.44695438661617e-06
4.02781578947368e+01 4.86986199814225e-04 9.29597134898872e-06
4.04428947368421e+01 4.78222117218694e-04 9.14732484066992e-06
4.06076315789474e+01 4.69615758061402e-04 9.00098057881370e-06
4.07723684210526e+01 4.61164283882114e-04 8.85690472886422e-06
4.09371052631579e+01 4.52864907281611e-04 8.71506392248712e-06
4.11018421052632e+01 4.44714891004780e-04 8.57542522015932e-06
4.12665789473684e+01 4.36711547097368e-04 8.43795612768147e-06
4.14313157894737e+01 4.28852235940263e-04 8.30262458739700e-06
4.15960526315789e+01 4.21134365456454e-04 8.16939897202821e-06
4.17607894736842e+01 4.13555390180224e-04 8.03824808157388e-06
4.19255263157895e+01 4.06112810491933e-04 7.90914113270069e-06
4.20902631578947e+01 3.98804171738086e-04 7.78204777377974e-06
4.22550000000000e+01 3.91627063423795e-04 7.65693805184596e-06
4.24197368421053e+01 3.84579118468800e-04 7.53378242641737e-06
4.25844736842105e+01 3.77658012358898e-04 7.41255176135384e-06
4.27492105263158e+01 3.70861462445751e-04 7.29321731491508e-06
4.29139473684210e+01 3.64187227144371e-04 7.17575075298631e-06
4.30786842105263e+01 3.57633105195632e-04 7.06012411888139e-06
4.32434210526316e+01 3.51196934985932e-04 6.94630984548500e-06
4.34081578947368e+01 3.44876593773538e-04 6.83428074756702e-06
4.35728947368421e+01 3.38669997047935e-04 6.72401001616432e-06
4.37376315789474e+01 3.32575097784117e-04 6.61547121537896e-06
4.39023684210526e+01 3.26589885824451e-04 6.50863827330681e-06
4.40671052631579e+01 3.20712387173102e-04 6.40348549311326e-06
4.42318421052632e+01 3.14940663346540e-04 6.29998752636858e-06
4.43965789473684e+01 3.09272810773383e-04 6.19811938320602e-06
4.45613157894737e+01 3.03706960114462e-04 6.09785642524113e-06
4.47260526315789e+01 2.98241275697319e-04 5.99917436030273e-06
4.48907894736842e+01 2.92873954860813e-04 5.90204923927273e-06
4.50555263157895e+01 2.87603227409509e-04 5.80645744782490e-06
4.52202631578947e+01 2.82427354993281e-04 5.71237571569941e-06
4.53850000000000e+01 2.77344630535305e-04 5.61978109316058e-06
4.55497368421053e+01 2.72353377702692e-04 5.52865095948291e-06
4.57144736842105e+01 2.67451950308859e-04 5.43896301645497e-06
4.58792105263158e+01 2.62638731814424e-04 5.35069528067362e-06
4.60439473684211e+01 2.57912134761295e-04 5.26382609169099e-06
4.62086842105263e+01 2.53270600250291e-04 5.17833409049904e-06
4.63734210526316e+01 2.48712597457146e-04 5.09419822697479e-06
4.65381578947368e+01 2.44236623087526e-04 5.01139775378734e-06
4.67028947368421e+01 2.39841200920492e-04 4.92991222173827e-06
4.68676315789474e+01 2.35524881283169e-04 4.84972147676908e-06
4.70323684210526e+01 2.31286240610289e-04 4.77080565297168e-06
4.71971052631579e+01 2.27123880946529e-04 4.69314517939766e-06
4.73618421052632e+01 2.23036429486471e-04 4.61672076106389e-06
4.75265789473684e+01 2.19022538147739e-04 4.54151338516592e-06
4.76913157894737e+01 2.15080883091922e-04 4.46750431551197e-06
4.78560526315789e+01 2.11210164321711e-04 4.39467508821302e-06
4.80207894736842e+01 2.07409105219086e-04 4.32300750882748e-06
4.81855263157895e+01 2.03676452156645e-04 4.25248364603146e-06
4.83502631578947e+01 2.00010974059952e-04 4.18308583730696e-06
4.85150000000000e+01 1.96411462002376e-04 4.11479667217407e-06
4.86797368421053e+01 1.92876728828658e-04 4.04759899736801e-06
4.88444736842105e+01 1.89405608733732e-04 3.98147591176890e-06
4.90092105263158e+01 1.85996956907260e-04 3.91641076051594e-06
4.91739473684211e+01 1.82649649134366e-04 3.85238713999449e-06
4.93386842105263e+01 1.79362581425620e-04 3.78938888251222e-06
4.95034210526316e+01 1.76134669672931e-04 3.72740006082998e-06
4.96681578947368e+01 1.72964849265401e-04 3.66640498342778e-06
4.98328947368421e+01 1.69852074764247e-04 3.60638819076524e-06
4.99976315789474e+01 1.66795319532494e-04 3.54733445269390e-06
5.01623684210526e+01 1.63793575421363e-04 3.48922876314222e-06
5.03271052631579e+01 1.60845852419099e-04 3.43205634427119e-06
5.04918421052632e+01 1.57951178325114e-04 3.37580263294739e-06
5.06565789473684e+01 1.55108598446558e-04 3.32045328451144e-06
5.08213157894737e+01 1.52317175260556e-04 3.26599416847845e-06
5.09860526315789e+01 1.49575988127423e-04 3.21241136511037e-06
5.11507894736842e+01 1.46884132965066e-04 3.15969116299479e-06
5.13155263157895e+01 1.44240721972317e-04 3.10782005424992e-06
5.14802631578947e+01 1.41644883320051e-04 3.05678473798443e-06
5.16450000000000e+01 1.39095760864208e-04 3.00657210835744e-06
5.18097368421053e+01 1.36592513878261e-04 2.95716925770569e-06
5.19744736842105e+01 1.34134316756207e-04 2.90856347264728e-06
