Energy (eV)          EEDF (eV^-(3/2))     First Anisotropy
1.42083333333333e-01 3.58339525002921e-02 3.83873338431176e-05
4.26250000000000e-01 3.48174169339489e-02 6.27000850483323e-05
7.10416666666667e-01 3.38297183941763e-02 8.09675624314923e-05
9.94583333333333e-01 3.28700388310327e-02 9.37941090021380e-05
1.27875000000000e+00 3.19375834008431e-02 1.03654079201377e-04
1.56291666666667e+00 3.10315798193991e-02 1.11515565272715e-04
1.84708333333333e+00 3.01512776951626e-02 1.17895682250126e-04
2.13125000000000e+00 2.92959479308701e-02 1.23116110925868e-04
2.41541666666667e+00 2.84648821162666e-02 1.27396218229952e-04
2.69958333333333e+00 2.76573919292081e-02 1.30895128920185e-04
2.98375000000000e+00 2.68728085777258e-02 1.33733505662736e-04
3.26791666666667e+00 2.61104822446930e-02 1.36005949343558e-04
3.55208333333333e+00 2.53697815417765e-02 1.37788573775977e-04
3.83625000000000e+00 2.46500929943791e-02 1.39143893363840e-04
4.12041666666667e+00 2.39508205327484e-02 1.40124119065965e-04
4.40458333333333e+00 2.32713849927313e-02 1.40773461063679e-04
4.68875000000000e+00 2.26112236416900e-02 1.41129787053426e-04
4.97291666666667e+00 2.19697897119234e-02 1.41225848157070e-04
5.25708333333333e+00 2.13465519436569e-02 1.41090204224695e-04
5.54125000000000e+00 2.07409941492306e-02 1.40747936189855e-04
5.82541666666667e+00 2.01526147852263e-02 1.40221204421413e-04
6.10958333333333e+00 1.95809265338515e-02 1.39529691943467e-04
6.39375000000000e+00 1.90254559025805e-02 1.38690961371897e-04
6.67791666666667e+00 1.84857428317365e-02 1.37720746340572e-04
6.96208333333333e+00 1.79613403108991e-02 1.36633191135773e-04
7.24625000000000e+00 1.74518140112600e-02 1.35441050033282e-04
7.53041666666667e+00 1.69567419257048e-02 1.34155855039870e-04
7.81458333333333e+00 1.64757140172259e-02 1.32788057419799e-04
8.09875000000000e+00 1.60083318814075e-02 1.31347148315840e-04
8.38291666666667e+00 1.55542084163042e-02 1.29841762641598e-04
8.66708333333333e+00 1.51129675001351e-02 1.28279768444435e-04
8.95125000000000e+00 1.46842436814839e-02 1.26668344508044e-04
9.23541666666667e+00 1.42676818765004e-02 1.25014048439537e-04
9.51958333333333e+00 1.38629370734028e-02 1.23322876100625e-04
9.80375000000000e+00 1.34696740481516e-02 1.21600313983586e-04
1.00879166666667e+01 1.30875670867098e-02 1.19851385860742e-04
1.03720833333333e+01 1.27162997140989e-02 1.18080694045642e-04
1.06562500000000e+01 1.23555644324435e-02 1.16292455711592e-04
1.09404166666667e+01 1.20050624713141e-02 1.14490536717288e-04
1.12245833333333e+01 1.16645035292109e-02 1.12678480803324e-04
1.15087500000000e+01 1.13336055431961e-02 1.10859535328054e-04
1.17929166666667e+01 1.10120944546394e-02 1.09036676841952e-04
1.20770833333333e+01 1.06997039738091e-02 1.07212632100380e-04
1.23612500000000e+01 1.03961753678737e-02 1.05389897101689e-04
1.26454166666667e+01 1.01012572460782e-02 1.03570756396738e-04
1.29295833333333e+01 9.81470534434041e-03 1.01757298788690e-04
1.32137500000000e+01 9.53628233024702e-03 9.99514316476326e-05
1.34979166666667e+01 9.26575760603990e-03 9.81548957767229e-05
1.37820833333333e+01 9.00290711145585e-03 9.63692773475667e-05
1.40662500000000e+01 8.74751314442020e-03 9.45960188392908e-05
1.43504166666667e+01 8.49936418036064e-03 9.28364306689844e-05
1.46345833333333e+01 8.25825469169869e-03 9.10917003946763e-05
1.49187500000000e+01 8.02398498302595e-03 8.93629011863580e-05
1.52029166666667e+01 7.79636102538833e-03 8.76510010465771e-05
1.54870833333333e+01 7.57519429098732e-03 8.59568699889651e-05
1.57712500000000e+01 7.36030160170613e-03 8.42812866692135e-05
1.60554166666667e+01 7.15150497712108e-03 8.26249457760794e-05
1.63395833333333e+01 6.94863148310358e-03 8.09884636834575e-05
1.66237500000000e+01 6.75151309264350e-03 7.93723836864812e-05
1.69079166666667e+01 6.55998654644833e-03 7.77771819804139e-05
1.71920833333333e+01 6.37389321425554e-03 7.62032721443640e-05
1.74762500000000e+01 6.19307896697714e-03 7.46510093048123e-05
1.77604166666667e+01 6.01739404884212e-03 7.31206950090564e-05
1.80445833333333e+01 5.84669295033569e-03 7.16125808031082e-05
1.83287500000000e+01 5.68083429076127e-03 7.01268715603545e-05
1.86129166666667e+01 5.51968070096911e-03 6.86637294790157e-05
1.88970833333333e+01 5.36309870693443e-03 6.72232769500126e-05
1.91812500000000e+01 5.21095862190176e-03 6.58055992289626e-05
1.94654166666667e+01 5.06313443882219e-03 6.44107477321540e-05
1.97495833333333e+01 4.91950372366918e-03 6.30387423425997e-05
2.00337500000000e+01 4.77994751639419e-03 6.16895735609109e-05
2.03179166666667e+01 4.64435023226802e-03 6.03632052344189e-05
2.06020833333333e+01 4.51259956411138e-03 5.90595764151232e-05
2.08862500000000e+01 4.38458639135076e-03 5.77786030938555e-05
2.11704166666667e+01 4.26020468952602e-03 5.65201804677446e-05
2.14545833333333e+01 4.13935144068414e-03 5.52841844383221e-05
2.17387500000000e+01 4.02192654987981e-03 5.40704730103308e-05
2.20229166666667e+01 3.90783276217276e-03 5.28788881806674e-05
2.23070833333333e+01 3.79697558049780e-03 5.17092571458650e-05
2.25912500000000e+01 3.68926318900615e-03 5.05613934295668e-05
2.28754166666667e+01 3.58460637693243e-03 4.94350984593009e-05
2.31595833333333e+01 3.48291846331254e-03 4.83301625381430e-05
2.34437500000000e+01 3.38411522661008e-03 4.72463657516683e-05
2.37279166666667e+01 3.28811483488398e-03 4.61834792859948e-05
2.40120833333333e+01 3.19483777677973e-03 4.51412662073555e-05
2.42962500000000e+01 3.10420679692930e-03 4.41194821891870e-05
2.45804166666667e+01 3.01614683189769e-03 4.31178766148191e-05
2.48645833333333e+01 2.93058494692180e-03 4.21361932000962e-05
2.51487500000000e+01 2.84745027661323e-03 4.11741705733514e-05
2.54329166666667e+01 2.76667396620537e-03 4.02315431981937e-05
2.57170833333333e+01 2.68818911355869e-03 3.93080418676004e-05
2.60012500000000e+01 2.61193071473366e-03 3.84033941633202e-05
2.62854166666667e+01 2.53783561009961e-03 3.75173252279102e-05
2.65695833333333e+01 2.46584243116593e-03 3.66495581534119e-05
2.68537500000000e+01 2.39589155062730e-03 3.57998143417996e-05
2.71379166666667e+01 2.32792503293175e-03 3.49678141503783e-05
2.74220833333333e+01 2.26188658553465e-03 3.41532771939232e-05
2.77062500000000e+01 2.19772151305037e-03 3.33559226238679e-05
2.79904166666667e+01 2.13537667191055e-03 3.25754696670919e-05
2.82745833333333e+01 2.07480042567149e-03 3.18116378570160e-05
2.85587500000000e+01 2.01594260293616e-03 3.10641472460619e-05
2.88429166666667e+01 1.95875445576417e-03 3.03327188545461e-05
2.91270833333333e+01 1.90318861869427e-03 2.96170748434821e-05
2.94112500000000e+01 1.84919907012797e-03 2.89169386722927e-05
2.96954166666667e+01 1.79674109418054e-03 2.82320354718062e-05
2.99795833333333e+01 1.74577124310899e-03 2.75620921692972e-05
3.02637500000000e+01 1.69624730187341e-03 2.69068376013501e-05
3.05479166666667e+01 1.64812825314431e-03 2.62660028227246e-05
3.08320833333333e+01 1.60137424285220e-03 2.56393211923468e-05
3.11162500000000e+01 1.55594654766600e-03 2.50265284495264e-05
3.14004166666667e+01 1.51180754289559e-03 2.44273629686036e-05
3.16845833333333e+01 1.46892067090284e-03 2.38415658131167e-05
3.19687500000000e+01 1.42725041125778e-03 2.32688807821803e-05
3.22529166666667e+01 1.38676225129669e-03 2.27090546192872e-05
3.25370833333333e+01 1.34742265715640e-03 2.21618370406538e-05
3.28212500000000e+01 1.30919904638830e-03 2.16269807574120e-05
3.31054166666667e+01 1.27205976095222e-03 2.11042416456559e-05
3.33895833333333e+01 1.23597404065571e-03 2.05933787539534e-05
3.36737500000000e+01 1.20091199802390e-03 2.00941543060556e-05
3.39579166666667e+01 1.16684459352772e-03 1.96063338381981e-05
3.42420833333333e+01 1.13374361122795e-03 1.91296861899272e-05
3.45262500000000e+01 1.10158163571562e-03 1.86639834912379e-05
3.48104166666667e+01 1.07033202938966e-03 1.82090012722369e-05
3.50945833333333e+01 1.03996891012234e-03 1.77645184407330e-05
3.53787500000000e+01 1.01046713010002e-03 1.73303172570559e-05
3.56629166666667e+01 9.81802254980577e-04 1.69061834204238e-05
3.59470833333333e+01 9.53950543412254e-04 1.64919060361636e-05
3.62312500000000e+01 9.26888927618389e-04 1.60872775809164e-05
3.65154166666667e+01 9.00594994279151e-04 1.56920939694041e-05
3.67995833333333e+01 8.75046965749686e-04 1.53061545136612e-05
3.70837500000000e+01 8.50223682245386e-04 1.49292618808704e-05
3.73679166666667e+01 8.26104584305249e-04 1.45612221436763e-05
3.76520833333333e+01 8.02669695568114e-04 1.42018447334027e-05
3.79362500000000e+01 7.79899606426759e-04 1.38509423923797e-05
3.82204166666667e+01 7.57775457942008e-04 1.35083312104841e-05
3.85045833333333e+01 7.36278926047639e-04 1.31738305739757e-05
3.87887500000000e+01 7.15392206552372e-04 1.28472631138549e-05
3.90729166666667e+01 6.95098000384723e-04 1.25284547309150e-05
3.93570833333333e+01 6.75379499107889e-04 1.22172345415428e-05
3.96412500000000e+01 6.56220371158672e-04 1.19134348233752e-05
3.99254166666667e+01 6.37604748312956e-04 1.16168910308103e-05
4.02095833333333e+01 6.19517212401811e-04 1.13274417388794e-05
4.04937500000000e+01 6.01942782685457e-04 1.10449285872428e-05
4.07779166666667e+01 5.84866903438400e-04 1.07691962878175e-05
4.10620833333333e+01 5.68275431767004e-04 1.05000925676259e-05
4.13462500000000e+01 5.52154626025011e-04 1.02374681119817e-05
4.16304166666667e+01 5.36491134425697e-04 9.98117656564422e-06
4.19145833333333e+01 5.21271983869477e-04 9.73107447538059e-06
4.21987500000000e+01 5.06484569315171e-04 9.48702123303096e-06
4.24829166666667e+01 4.92116643334205e-04 9.24887907139007e-06
4.27670833333333e+01 4.78156305864431e-04 9.01651300707539e-06
4.30512500000000e+01 4.64591994458368e-04 8.78979078402829e-06
4.33354166666667e+01 4.51412474701520e-04 8.56858286514149e-06
4.36195833333333e+01 4.38606830815545e-04 8.35276237590835e-06
4.39037500000000e+01 4.26164456711195e-04 8.14220504880183e-06
4.41879166666667e+01 4.14075047199261e-04 7.93678921151227e-06
4.44720833333333e+01 4.02328589372619e-04 7.73639573175212e-06
4.47562500000000e+01 3.90915354397529e-04 7.54090796286161e-06
4.50404166666667e+01 3.79825889451645e-04 7.35021172938780e-06
4.53245833333333e+01 3.69051009820311e-04 7.16419527333536e-06
4.56087500000000e+01 3.58581791365359e-04 6.98274920126855e-06
4.58929166666667e+01 3.48409563130014e-04 6.80576646784919e-06
4.61770833333333e+01 3.38525900090217e-04 6.63314232375475e-06
4.64612500000000e+01 3.28922616245032e-04 6.46477426447931e-06
4.67454166666667e+01 3.19591757833303e-04 6.30056201235046e-06
4.70295833333333e+01 3.10525596685648e-04 6.14040746627794e-06
4.73137500000000e+01 3.01716623885237e-04 5.98421465240193e-06
4.75979166666667e+01 2.93157543545574e-04 5.83188970502533e-06
4.78820833333333e+01 2.84841266713362e-04 5.68334081830697e-06
4.81662500000000e+01 2.76760905552600e-04 5.53847819886086e-06
4.84504166666667e+01 2.68909767637070e-04 5.39721404596790e-06
4.87345833333333e+01 2.61281350358400e-04 5.25946250528884e-06
4.90187500000000e+01 2.53869335590305e-04 5.12513962347894e-06
4.93029166666667e+01 2.46667584453211e-04 4.99416332798301e-06
4.95870833333333e+01 2.39670132185614e-04 4.86645338280997e-06
4.98712500000000e+01 2.32871183248870e-04 4.74193134519729e-06
5.01554166666667e+01 2.26265106524880e-04 4.62052054523982e-06
5.04395833333333e+01 2.19846430612355e-04 4.50214604374068e-06
5.07237500000000e+01 2.13609839335789e-04 4.38673459093477e-06
5.10079166666667e+01 2.07550167340398e-04 4.27421460615765e-06
5.12920833333333e+01 2.01662395778052e-04 4.16451613776584e-06
5.15762500000000e+01 1.95941648187090e-04 4.05757082390721e-06
5.18604166666667e+01 1.90383186451645e-04 3.95331187239792e-06
5.21445833333333e+01 1.84982406844947e-04 3.85167402268783e-06
5.24287500000000e+01 1.79734836249375e-04 3.75259350864993e-06
5.27129166666667e+01 1.74636128450026e-04 3.65600803880013e-06
5.29970833333333e+01 1.69682060505769e-04 3.56185676026926e-06
5.32812500000000e+01 1.64868529281454e-04 3.47008022357074e-06
5.35654166666667e+01 1.60191548048074e-04 3.38062036327038e-06
5.38495833333333e+01 1.55647243154411e-04 3.29342046391577e-06
5.41337500000000e+01 1.51231850845633e-04 3.20842512673061e-06
5.44179166666667e+01 1.46941714144688e-04 3.12558025081867e-06
5.47020833333333e+01 1.42773279799634e-04 3.04483300099270e-06
5.49862500000000e+01 1.38723095364983e-04 2.96613177633607e-06
5.52704166666667e+01 1.34787806341066e-04 2.88942619200526e-06
5.55545833333333e+01 1.30964153374194e-04 2.81466704889374e-06
5.58387500000000e+01 1.27248969579068e-04 2.74180630399638e-06
5.61229166666667e+01 1.23639177914773e-04 2.67079705285743e-06
5.64070833333333e+01 1.20131788616818e-04 2.60159350100087e-06
5.66912500000000e+01 1.16723896740715e-04 2.53415093602846e-06
5.69754166666667e+01 1.13412679755020e-04 2.46842571074639e-06
5.72595833333333e+01 1.10195395186052e-04 2.40437521629041e-06
5.75437500000000e+01 1.07069378364366e-04 2.34195785588574e-06
5.78279166666667e+01 1.04032040216906e-04 2.28113302867365e-06
5.81120833333333e+01 1.01080865106758e-04 2.22186110445783e-06
5.83962500000000e+01 9.82134087657915e-05 2.16410339905302e-06
5.86804166666667e+01 9.54272962694269e-05 2.10782215882303e-06
5.89645833333333e+01 9.27202200552932e-05 2.05298053697376e-06
5.92487500000000e+01 9.00899380266382e-05 1.99954257041679e-06
5.95329166666667e+01 8.75342716946275e-05 1.94747316502209e-06
5.98170833333333e+01 8.50511043610692e-05 1.89673807338345e-06
6.01012500000000e+01 8.26383793785035e-05 1.84730387312334e-06
6.03854166666667e+01 8.02940984461672e-05 1.79913795285699e-06
6.06695833333333e+01 7.80163199431986e-05 1.75220849135632e-06
6.09537500000000e+01 7.58031573324671e-05 1.70648443722328e-06
6.12379166666667e+01 7.36527775974919e-05 1.66193549555661e-06
6.15220833333333e+01 7.15633997136617e-05 1.61853210844168e-06
6.18062500000000e+01 6.95332931839351e-05 1.57624543592082e-06
6.20904166666667e+01 6.75607766050527e-05 1.53504734334944e-06
6.23745833333333e+01 6.56442162653406e-05 1.49491038314108e-06
6.26587500000000e+01 6.37820248013898e-05 1.45580777696465e-06
6.29429166666667e+01 6.19726598828676e-05 1.41771340377352e-06
6.32270833333333e+01 6.02146229264202e-05 1.38060178273651e-06
6.35112500000000e+01 5.85064578633390e-05 1.34444805659458e-06
6.37954166666667e+01 5.68467499331612e-05 1.30922798034319e-06
6.40795833333333e+01 5.52341245040556e-05 1.27491790528279e-06
6.43637500000000e+01 5.36672459423091e-05 1.24149476346904e-06
6.46479166666667e+01 5.21448165057176e-05 1.20893605702739e-06
6.49320833333333e+01 5.06655752616353e-05 1.17721984325843e-06
6.52162500000000e+01 4.92282970498725e-05 1.14632472011864e-06
6.55004166666667e+01 4.78317914676212e-05 1.11622981614407e-06
6.57845833333333e+01 4.64749018770808e-05 1.08691477654894e-06
6.60687500000000e+01 4.51565044540501e-05 1.05835974967605e-06
6.63529166666667e+01 4.38755072568171e-05 1.03054537750584e-06
6.66370833333333e+01 4.26308493159420e-05 1.00345278268876e-06
6.69212500000000e+01 4.14214997614655e-05 9.77063555907456e-07
6.72054166666667e+01 4.02464569688164e-05 9.51359746946517e-07
6.74895833333333e+01 3.91047477239497e-05 9.26323852602082e-07
6.77737500000000e+01 3.79954264226756e-05 9.01938804900233e-07
6.80579166666667e+01 3.69175742872153e-05 8.78187962702617e-07
6.83420833333333e+01 3.58702986004530e-05 8.55055100439332e-07
6.86262500000000e+01 3.48527319714288e-05 8.32524397130693e-07
6.89104166666667e+01 3.38640316166977e-05 8.10580428503732e-07
6.91945833333333e+01 3.29033786579740e-05 7.89208156497081e-07
6.94787500000000e+01 3.19699774483202e-05 7.68392919035951e-07
6.97629166666667e+01 3.10630549129508e-05 7.48120422634700e-07
7.00470833333333e+01 3.01818599050176e-05 7.28376732624964e-07
7.03312500000000e+01 2.93256625874831e-05 7.09148263636156e-07
7.06154166666667e+01 2.84937538284490e-05 6.90421772659742e-07
7.08995833333333e+01 2.76854446102711e-05 6.72184349954474e-07
7.11837500000000e+01 2.69000654625139e-05 6.54423410187290e-07
7.14679166666667e+01 2.61369659072960e-05 6.37126685935300e-07
7.17520833333333e+01 2.53955139173172e-05 6.20282219224484e-07
7.20362500000000e+01 2.46750953956753e-05 6.03878353288313e-07
7.23204166666667e+01 2.39751136670903e-05 5.87903726484093e-07
7.26045833333333e+01 2.32949889807942e-05 5.72347264423896e-07
7.28887500000000e+01 2.26341580333380e-05 5.57198172310624e-07
7.31729166666667e+01 2.19920735018997e-05 5.42445929246031e-07
7.34570833333333e+01 2.13682035883230e-05 5.28080280914970e-07
7.37412500000000e+01 2.07620315813614e-05 5.14091232460915e-07
7.40254166666667e+01 2.01730554285901e-05 5.00469043163755e-07
7.43095833333333e+01 1.96007873181854e-05 4.87204219640748e-07
7.45937500000000e+01 1.90447532773491e-05 4.74287509225634e-07
7.48779166666667e+01 1.85044927796289e-05 4.61709894995121e-07
7.51620833333333e+01 1.79795583613162e-05 4.49462589452053e-07
7.54462500000000e+01 1.74695152530595e-05 4.37537028374488e-07
7.57304166666667e+01 1.69739410196658e-05 4.25924866170600e-07
7.60145833333333e+01 1.64924252082494e-05 4.14617970011586e-07
7.62987500000000e+01 1.60245690102927e-05 4.03608414119076e-07
7.65829166666667e+01 1.55699849312418e-05 3.92888475429052e-07
7.68670833333333e+01 1.51282964677776e-05 3.82450628144060e-07
7.71512500000000e+01 1.46991377978082e-05 3.72287538429215e-07
7.74354166666667e+01 1.42821534773938e-05 3.62392060366587e-07
7.77195833333333e+01 1.38769981447298e-05 3.52757230898169e-07
7.80037500000000e+01 1.34833362357623e-05 3.43376264902609e-07
7.82879166666667e+01 1.31008417061816e-05 3.34242551422342e-07
7.85720833333333e+01 1.27291977599065e-05 3.25349648970559e-07
7.88562500000000e+01 1.23680965882046e-05 3.16691280962514e-07
7.91404166666667e+01 1.20172391146819e-05 3.08261332198622e-07
7.94245833333333e+01 1.16763347462393e-05 3.00053844510309e-07
7.97087500000000e+01 1.13451011337558e-05 2.92063012521425e-07
7.99929166666667e+01 1.10232639381713e-05 2.84283180371334e-07
8.02770833333333e+01 1.07105566020555e-05 2.76708837676159e-07
8.05612500000000e+01 1.04067201300722e-05 2.69334615597413e-07
8.08454166666667e+01 1.01115028744108e-05 2.62155283789932e-07
8.11295833333333e+01 9.82466032526026e-06 2.55165746656524e-07
8.14137500000000e+01 9.54595490942077e-06 2.48361039702414e-07
8.16979166666667e+01 9.27515579348263e-06 2.41736326693682e-07
8.19820833333333e+01 9.01203869164177e-06 2.35286896184798e-07
8.22662500000000e+01 8.75638568095730e-06 2.29008158138823e-07
8.25504166666667e+01 8.50798502081105e-06 2.22895641282822e-07
8.28345833333333e+01 8.26663097662839e-06 2.16944989889096e-07
8.31187500000000e+01 8.03212365040665e-06 2.11151960642440e-07
8.34029166666667e+01 7.80426881510806e-06 2.05512420179742e-07
8.36870833333333e+01 7.58287775296966e-06 2.00022342106985e-07
8.39712500000000e+01 7.36776710004036e-06 1.94677804096097e-07
8.42554166666667e+01 7.15875869427215e-06 1.89474985596686e-07
8.45395833333333e+01 6.95567942721137e-06 1.84410165072095e-07
8.48237500000000e+01 6.75836110138680e-06 1.79479717309553e-07
8.51079166666667e+01 6.56664029096589e-06 1.74680111292674e-07
8.53920833333333e+01 6.38035820572000e-06 1.70007907640970e-07
8.56762500000000e+01 6.19936056020120e-06 1.65459756118117e-07
8.59604166666667e+01 6.02349744592430e-06 1.61032393654526e-07
8.62445833333333e+01 5.85262320659012e-06 1.56722641975788e-07
8.65287500000000e+01 5.68659631807659e-06 1.52527405294868e-07
8.68129166666667e+01 5.52527927119333e-06 1.48443668474715e-07
8.70970833333333e+01 5.36853845723102e-06 1.44468494832084e-07
8.73812500000000e+01 5.21624405787308e-06 1.40599024000469e-07
8.76654166666667e+01 5.06826993764818e-06 1.36832470223307e-07
8.79495833333333e+01 4.92449353895112e-06 1.33166120320564e-07
8.82337500000000e+01 4.78479578105508e-06 1.29597331710116e-07
8.85179166666667e+01 4.64906096145987e-06 1.26123530822690e-07
8.88020833333333e+01 4.51717665960045e-06 1.22742211219463e-07
8.90862500000000e+01 4.38903364420750e-06 1.19450931760440e-07
8.93704166666667e+01 4.26452578281566e-06 1.16247315132854e-07
8.96545833333333e+01 4.14354995344053e-06 1.13129046108823e-07
