Energy (eV)          EEDF (eV^-(3/2))     First Anisotropy
4.83928571428571e-03 5.72320810302190e-01 2.85055625324983e-04
1.45178571428571e-02 5.68801391547369e-01 4.70843461731388e-04
2.41964285714286e-02 5.65303615027301e-01 6.21926063020151e-04
3.38750000000000e-02 5.61827347678118e-01 7.36923713106151e-04
4.35535714285714e-02 5.58372457224812e-01 8.33014662226009e-04
5.32321428571429e-02 5.54938812210958e-01 9.16686881589004e-04
6.29107142857143e-02 5.51526281984239e-01 9.91294516615855e-04
7.25892857142857e-02 5.48134736708158e-01 1.05886104278284e-03
8.22678571428571e-02 5.44764047337492e-01 1.12072715864096e-03
9.19464285714286e-02 5.41414085617336e-01 1.17783952302567e-03
1.01625000000000e-01 5.38084724089595e-01 1.23089822571045e-03
1.11303571428571e-01 5.34775836065764e-01 1.28043961062830e-03
1.20982142857143e-01 5.31487295668378e-01 1.32688619954708e-03
1.30660714285714e-01 5.28218977743724e-01 1.37057845837969e-03
1.40339285714286e-01 5.24970757963022e-01 1.41179592258541e-03
1.50017857142857e-01 5.21742512732438e-01 1.45077176352789e-03
1.59696428571429e-01 5.18534119200005e-01 1.48770310834533e-03
1.69375000000000e-01 5.15345455310260e-01 1.52275857577333e-03
1.79053571428571e-01 5.12176399719346e-01 1.55608387534607e-03
1.88732142857143e-01 5.09026831866507e-01 1.58780605557904e-03
1.98410714285714e-01 5.05896631897220e-01 1.61803678129181e-03
2.08089285714286e-01 5.02785680727419e-01 1.64687489612666e-03
2.17767857142857e-01 4.99693859987741e-01 1.67440846475412e-03
2.27446428571429e-01 4.96621052024080e-01 1.70071639365102e-03
2.37125000000000e-01 4.93567139933102e-01 1.72586976296412e-03
2.46803571428571e-01 4.90532007504120e-01 1.74993290940699e-03
2.56482142857143e-01 4.87515539266286e-01 1.77296432211616e-03
2.66160714285714e-01 4.84517620434529e-01 1.79501738953032e-03
2.75839285714286e-01 4.81538136953035e-01 1.81614102404095e-03
2.85517857142857e-01 4.78576975455171e-01 1.83638019803605e-03
2.95196428571429e-01 4.75634023261978e-01 1.85577638444186e-03
3.04875000000000e-01 4.72709168407405e-01 1.87436794823763e-03
3.14553571428571e-01 4.69802299594537e-01 1.89219047634498e-03
3.24232142857143e-01 4.66913306229642e-01 1.90927706380034e-03
3.33910714285714e-01 4.64042078380857e-01 1.92565856282804e-03
3.43589285714286e-01 4.61188506809993e-01 1.94136379838225e-03
3.53267857142857e-01 4.58352482941469e-01 1.95641976406140e-03
3.62946428571429e-01 4.55533898859950e-01 1.97085178121585e-03
3.72625000000000e-01 4.52732647329234e-01 1.98468365223572e-03
3.82303571428571e-01 4.49948621757444e-01 1.99793779036197e-03
3.91982142857143e-01 4.47181716222884e-01 2.01063533599300e-03
4.01660714285714e-01 4.44431825440881e-01 2.02279626081653e-03
4.11339285714286e-01 4.41698844788155e-01 2.03443945942613e-03
4.21017857142857e-01 4.38982670277605e-01 2.04558283768087e-03
4.30696428571429e-01 4.36283198555564e-01 2.05624338052832e-03
4.40375000000000e-01 4.33600326916422e-01 2.06643722449206e-03
4.50053571428571e-01 4.30933953273937e-01 2.07617971785033e-03
4.59732142857143e-01 4.28283976181555e-01 2.08548547598404e-03
4.69410714285714e-01 4.25650294804909e-01 2.09436843198077e-03
4.79089285714286e-01 4.23032808941075e-01 2.10284188134710e-03
4.88767857142857e-01 4.20431418997479e-01 2.11091852826125e-03
4.98446428571429e-01 4.17846025988979e-01 2.11861051744640e-03
5.08125000000000e-01 4.15276531549450e-01 2.12592947347538e-03
5.17803571428571e-01 4.12722837907553e-01 2.13288653201146e-03
5.27482142857143e-01 4.10184847903073e-01 2.13949236925443e-03
5.37160714285714e-01 4.07662464963583e-01 2.14575722932842e-03
5.46839285714286e-01 4.05155593120003e-01 2.15169094833213e-03
5.56517857142857e-01 4.02664136988547e-01 2.15730298144775e-03
5.66196428571429e-01 4.00188001767754e-01 2.16260241865587e-03
5.75875000000000e-01 3.97727093247825e-01 2.16759800841334e-03
5.85553571428571e-01 3.95281317789767e-01 2.17229817525673e-03
5.95232142857143e-01 3.92850582338769e-01 2.17671103682422e-03
6.04910714285714e-01 3.90434794404049e-01 2.18084441993040e-03
6.14589285714286e-01 3.88033862071628e-01 2.18470587445500e-03
6.24267857142857e-01 3.85647693988634e-01 2.18830269071599e-03
6.33946428571429e-01 3.83276199360336e-01 2.19164190720895e-03
6.43625000000000e-01 3.80919287957762e-01 2.19473032611843e-03
6.53303571428571e-01 3.78576870099496e-01 2.19757452386165e-03
6.62982142857143e-01 3.76248856662771e-01 2.20018086158117e-03
6.72660714285714e-01 3.73935159065835e-01 2.20255549519730e-03
6.82339285714286e-01 3.71635689278566e-01 2.20470438386490e-03
6.92017857142857e-01 3.69350359808654e-01 2.20663330193936e-03
7.01696428571429e-01 3.67079083698670e-01 2.20834784250493e-03
7.11375000000000e-01 3.64821774532341e-01 2.20985342824876e-03
7.21053571428571e-01 3.62578346418489e-01 2.21115531807690e-03
7.30732142857143e-01 3.60348714000316e-01 2.21225861392090e-03
7.40410714285714e-01 3.58132792439816e-01 2.21316826735258e-03
7.50089285714286e-01 3.55930497426684e-01 2.21388908494258e-03
7.59767857142857e-01 3.53741745166015e-01 2.21442573699817e-03
7.69446428571429e-01 3.51566452375448e-01 2.21478275876171e-03
7.79125000000000e-01 3.49404536290359e-01 2.21496455846543e-03
7.88803571428571e-01 3.47255914649561e-01 2.21497542163207e-03
7.98482142857143e-01 3.45120505703148e-01 2.21481951567779e-03
8.08160714285714e-01 3.42998228198586e-01 2.21450089445146e-03
8.17839285714286e-01 3.40889001388249e-01 2.21402350173141e-03
8.27517857142857e-01 3.38792745018386e-01 2.21339117791674e-03
8.37196428571429e-01 3.36709379326339e-01 2.21260765989637e-03
8.46875000000000e-01 3.34638825044871e-01 2.21167658728736e-03
8.56553571428571e-01 3.32581003389332e-01 2.21060150530719e-03
8.66232142857143e-01 3.30535836064333e-01 2.20938586799537e-03
8.75910714285714e-01 3.28503245251241e-01 2.20803304143893e-03
8.85589285714286e-01 3.26483153614600e-01 2.20654630610343e-03
8.95267857142857e-01 3.24475484292161e-01 2.20492886215716e-03
9.04946428571429e-01 3.22480160892189e-01 2.20318382857085e-03
9.14625000000000e-01 3.20497107497073e-01 2.20131424812772e-03
9.24303571428571e-01 3.18526248651748e-01 2.19932308937881e-03
9.33982142857143e-01 3.16567509369389e-01 2.19721324896437e-03
9.43660714285714e-01 3.14620815120117e-01 2.19498755397530e-03
9.53339285714286e-01 3.12686091836481e-01 2.19264876352731e-03
9.63017857142857e-01 3.10763265904411e-01 2.19019957313077e-03
9.72696428571429e-01 3.08852264160607e-01 2.18764261334831e-03
9.82375000000000e-01 3.06953013895563e-01 2.18498045393587e-03
9.92053571428571e-01 3.05065442843059e-01 2.18221560519187e-03
1.00173214285714e+00 3.03189479185049e-01 2.17935052019347e-03
1.01141071428571e+00 3.01325051539564e-01 2.17638759447890e-03
1.02108928571429e+00 2.99472088972755e-01 2.17332916922690e-03
1.03076785714286e+00 2.97630520981369e-01 2.17017753547447e-03
1.04044642857143e+00 2.95800277495741e-01 2.16693493137089e-03
1.05012500000000e+00 2.93981288877096e-01 2.16360355017429e-03
1.05980357142857e+00 2.92173485898111e-01 2.16018552684223e-03
1.06948214285714e+00 2.90376799791026e-01 2.15668294931690e-03
1.07916071428571e+00 2.88591162193888e-01 2.15309786981807e-03
1.08883928571429e+00 2.86816505165125e-01 2.14943229102312e-03
1.09851785714286e+00 2.85052761180938e-01 2.14568817231853e-03
1.10819642857143e+00 2.83299863132791e-01 2.14186743096652e-03
1.11787500000000e+00 2.81557744324826e-01 2.13797194780088e-03
1.12755357142857e+00 2.79826338456217e-01 2.13400355456058e-03
1.13723214285714e+00 2.78105579664314e-01 2.12996404415604e-03
1.14691071428571e+00 2.76395402476118e-01 2.12585518095661e-03
1.15658928571429e+00 2.74695741821256e-01 2.12167868777402e-03
1.16626785714286e+00 2.73006533029468e-01 2.11743625148710e-03
1.17594642857143e+00 2.71327711828209e-01 2.11312952395401e-03
1.18562500000000e+00 2.69659214340168e-01 2.10876012714499e-03
1.19530357142857e+00 2.68000977067200e-01 2.10432964120704e-03
1.20498214285714e+00 2.66352936929141e-01 2.09983961385983e-03
1.21466071428571e+00 2.64715031219866e-01 2.09529156982253e-03
1.22433928571429e+00 2.63087197618857e-01 2.09068699857373e-03
1.23401785714286e+00 2.61469374188805e-01 2.08602735945259e-03
1.24369642857143e+00 2.59861499373306e-01 2.08131408238360e-03
1.25337500000000e+00 2.58263511994486e-01 2.07654857253856e-03
1.26305357142857e+00 2.56675351238317e-01 2.07173219910412e-03
1.27273214285714e+00 2.55096956689659e-01 2.06686630392371e-03
1.28241071428571e+00 2.53528268292332e-01 2.06195221017614e-03
1.29208928571429e+00 2.51969226359465e-01 2.05699121087408e-03
1.30176785714286e+00 2.50419771571206e-01 2.05198457352035e-03
1.31144642857143e+00 2.48879844972505e-01 2.04693354069257e-03
1.32112500000000e+00 2.47349387970849e-01 2.04183933430231e-03
1.33080357142857e+00 2.45828342322796e-01 2.03670314503239e-03
1.34048214285714e+00 2.44316650165712e-01 2.03152614031682e-03
1.35016071428571e+00 2.42814253981372e-01 2.02630947235935e-03
1.35983928571429e+00 2.41321096605256e-01 2.02105426733032e-03
1.36951785714286e+00 2.39837121224352e-01 2.01576162963872e-03
1.37919642857143e+00 2.38362271375035e-01 2.01043264240837e-03
1.38887500000000e+00 2.36896490940894e-01 2.00506837139065e-03
1.39855357142857e+00 2.35439724140359e-01 1.99966985503353e-03
1.40823214285714e+00 2.33991915555517e-01 1.99423811187289e-03
1.41791071428571e+00 2.32553010098845e-01 1.98877414796515e-03
1.42758928571429e+00 2.31122953021579e-01 1.98327894673946e-03
1.43726785714286e+00 2.29701689911610e-01 1.97775347293413e-03
1.44694642857143e+00 2.28289166691448e-01 1.97219867298866e-03
1.45662500000000e+00 2.26885329616145e-01 1.96661547865205e-03
1.46630357142857e+00 2.25490125261899e-01 1.96100479764673e-03
1.47598214285714e+00 2.24103500552270e-01 1.95536752053285e-03
1.48566071428571e+00 2.22725402727721e-01 1.94970452761487e-03
1.49533928571429e+00 2.21355779353152e-01 1.94401667940782e-03
1.50501785714286e+00 2.19994578315895e-01 1.93830482027688e-03
1.51469642857143e+00 2.18641747823759e-01 1.93256977876374e-03
1.52437500000000e+00 2.17297236403038e-01 1.92681237092484e-03
1.53405357142857e+00 2.15960992888003e-01 1.92103339155311e-03
1.54373214285714e+00 2.14632966444799e-01 1.91523362056752e-03
1.55341071428571e+00 2.13313106543491e-01 1.90941382944440e-03
1.56308928571429e+00 2.12001362964870e-01 1.90357477225797e-03
1.57276785714286e+00 2.10697685798535e-01 1.89771718905461e-03
1.58244642857143e+00 2.09402025441014e-01 1.89184180612732e-03
1.59212500000000e+00 2.08114332593868e-01 1.88594933911353e-03
1.60180357142857e+00 2.06834558253959e-01 1.88004048473841e-03
1.61148214285714e+00 2.05562653735300e-01 1.87411592677346e-03
1.62116071428571e+00 2.04298570643334e-01 1.86817634203658e-03
1.63083928571429e+00 2.03042260881101e-01 1.86222239196907e-03
1.64051785714286e+00 2.01793676647398e-01 1.85625472577224e-03
1.65019642857143e+00 2.00552770434980e-01 1.85027398063960e-03
1.65987500000000e+00 1.99319495028745e-01 1.84428078463781e-03
1.66955357142857e+00 1.98093803496718e-01 1.83827574893867e-03
1.67923214285714e+00 1.96875649210051e-01 1.83225947338475e-03
1.68891071428571e+00 1.95664985819327e-01 1.82623255209580e-03
1.69858928571429e+00 1.94461767260146e-01 1.82019556554716e-03
1.70826785714286e+00 1.93265947751372e-01 1.81414908349139e-03
1.71794642857143e+00 1.92077481793400e-01 1.80809366515572e-03
1.72762500000000e+00 1.90896324166422e-01 1.80202986192710e-03
1.73730357142857e+00 1.89722429922063e-01 1.79595821004107e-03
1.74698214285714e+00 1.88555754401721e-01 1.78987923578776e-03
1.75666071428571e+00 1.87396253214687e-01 1.78379346075813e-03
1.76633928571429e+00 1.86243882243229e-01 1.77770139439003e-03
1.77601785714286e+00 1.85098597640908e-01 1.77160353669431e-03
1.78569642857143e+00 1.83960355830917e-01 1.76550037842441e-03
1.79537500000000e+00 1.82829113504423e-01 1.75939240358295e-03
1.80505357142857e+00 1.81704827612793e-01 1.75328008253755e-03
1.81473214285714e+00 1.80587455384438e-01 1.74716387689705e-03
1.82441071428571e+00 1.79476954304586e-01 1.74104424442623e-03
1.83408928571429e+00 1.78373282119907e-01 1.73492163202916e-03
1.84376785714286e+00 1.77276396836896e-01 1.72879647829653e-03
1.85344642857143e+00 1.76186256720291e-01 1.72266921365194e-03
1.86312500000000e+00 1.75102820291473e-01 1.71654026269609e-03
1.87280357142857e+00 1.74026046321245e-01 1.71041003772194e-03
1.88248214285714e+00 1.72955893845311e-01 1.70427894328657e-03
1.89216071428571e+00 1.71892322145562e-01 1.69814738082030e-03
1.90183928571429e+00 1.70835290754278e-01 1.69201574201890e-03
1.91151785714286e+00 1.69784759452588e-01 1.68588441122747e-03
1.92119642857143e+00 1.68740688268945e-01 1.67975376556727e-03
1.93087500000000e+00 1.67703037477607e-01 1.67362417713038e-03
1.94055357142857e+00 1.66671767591895e-01 1.66749600686858e-03
1.95023214285714e+00 1.65646839378459e-01 1.66136960888446e-03
1.95991071428571e+00 1.64628213839923e-01 1.65524533475832e-03
1.96958928571429e+00 1.63615852218719e-01 1.64912352732194e-03
1.97926785714286e+00 1.62609715995612e-01 1.64300452289265e-03
1.98894642857143e+00 1.61609766888242e-01 1.63688865138370e-03
1.99862500000000e+00 1.60615966849660e-01 1.63077623836134e-03
2.00830357142857e+00 1.59628278062054e-01 1.62466759928372e-03
2.01798214285714e+00 1.58646662949885e-01 1.61856304353163e-03
2.02766071428571e+00 1.57671084163795e-01 1.61246287847428e-03
2.03733928571429e+00 1.56701504584099e-01 1.60636740360059e-03
2.04701785714286e+00 1.55737887319372e-01 1.60027691261418e-03
2.05669642857143e+00 1.54780195705052e-01 1.59419169352997e-03
2.06637500000000e+00 1.53828393302043e-01 1.58811203060478e-03
2.07605357142857e+00 1.52882443890850e-01 1.58203819890371e-03
2.08573214285714e+00 1.51942311483713e-01 1.57597046808977e-03
2.09541071428571e+00 1.51007960309642e-01 1.56990910624676e-03
2.10508928571429e+00 1.50079354817618e-01 1.56385437434519e-03
2.11476785714286e+00 1.49156459675236e-01 1.55780652820931e-03
2.12444642857143e+00 1.48239239767367e-01 1.55176581860175e-03
2.13412500000000e+00 1.47327660194817e-01 1.54573249303693e-03
2.14380357142857e+00 1.46421686268853e-01 1.53970679065452e-03
2.15348214285714e+00 1.45521283522404e-01 1.53368894578476e-03
2.16316071428571e+00 1.44626417696151e-01 1.52767919154573e-03
2.17283928571429e+00 1.43737054741450e-01 1.52167775462247e-03
2.18251785714286e+00 1.42853160819031e-01 1.51568485711560e-03
2.19219642857143e+00 1.41974702297718e-01 1.50970071661603e-03
2.20187500000000e+00 1.41101645753146e-01 1.50372554790938e-03
2.21155357142857e+00 1.40233957962638e-01 1.49775955813700e-03
2.22123214285714e+00 1.39371605915564e-01 1.49180295015310e-03
2.23091071428571e+00 1.38514556800394e-01 1.48585592591198e-03
2.24058928571429e+00 1.37662778007367e-01 1.47991868154048e-03
2.25026785714286e+00 1.36816237127249e-01 1.47399140907655e-03
2.25994642857143e+00 1.35974901950106e-01 1.46807429653522e-03
2.26962500000000e+00 1.35138740464077e-01 1.46216752951226e-03
2.27930357142857e+00 1.34307720850572e-01 1.45627128661526e-03
2.28898214285714e+00 1.33481811493869e-01 1.45038574262597e-03
2.29866071428571e+00 1.32660980969039e-01 1.44451107169163e-03
2.30833928571429e+00 1.31845198044401e-01 1.43864744267295e-03
2.31801785714286e+00 1.31034431680323e-01 1.43279502078042e-03
2.32769642857143e+00 1.30228651028053e-01 1.42695396763266e-03
2.33737500000000e+00 1.29427825428540e-01 1.42112444276599e-03
2.34705357142857e+00 1.28631924407935e-01 1.41530659931895e-03
2.35673214285714e+00 1.27840917686484e-01 1.40950058701317e-03
2.36641071428571e+00 1.27054775167267e-01 1.40370655516206e-03
2.37608928571429e+00 1.26273466938441e-01 1.39792464827684e-03
2.38576785714286e+00 1.25496963272100e-01 1.39215500760754e-03
2.39544642857143e+00 1.24725234623149e-01 1.38639777119487e-03
2.40512500000000e+00 1.23958251628177e-01 1.38065307529244e-03
2.41480357142857e+00 1.23195985101242e-01 1.37492105028910e-03
2.42448214285714e+00 1.22438406042108e-01 1.36920182351996e-03
2.43416071428571e+00 1.21685485625741e-01 1.36349552210451e-03
2.44383928571429e+00 1.20937195204362e-01 1.35780226879509e-03
2.45351785714286e+00 1.20193506306357e-01 1.35212218342874e-03
2.46319642857143e+00 1.19454390635197e-01 1.34645538297380e-03
2.47287500000000e+00 1.18719820068358e-01 1.34080198287026e-03
2.48255357142857e+00 1.17989766653366e-01 1.33516209317572e-03
2.49223214285714e+00 1.17264202615444e-01 1.32953582121759e-03
2.50191071428571e+00 1.16543100347693e-01 1.32392327427131e-03
2.51158928571429e+00 1.15826432412980e-01 1.31832455563687e-03
2.52126785714286e+00 1.15114171542892e-01 1.31273976600755e-03
2.53094642857143e+00 1.14406290636699e-01 1.30716900351153e-03
2.54062500000000e+00 1.13702762760329e-01 1.30161236497588e-03
2.55030357142857e+00 1.13003561142640e-01 1.29606994228255e-03
2.55998214285714e+00 1.12308659182535e-01 1.29054182487243e-03
2.56966071428571e+00 1.11618030439773e-01 1.28502810227366e-03
2.57933928571429e+00 1.10931648636703e-01 1.27952886039193e-03
2.58901785714286e+00 1.10249487657266e-01 1.27404418280182e-03
2.59869642857143e+00 1.09571521546002e-01 1.26857415078424e-03
2.60837500000000e+00 1.08897724507061e-01 1.26311884451907e-03
2.61805357142857e+00 1.08228070900709e-01 1.25767833963853e-03
2.62773214285714e+00 1.07562535249933e-01 1.25225270959204e-03
2.63741071428571e+00 1.06901092231846e-01 1.24684202803411e-03
2.64708928571429e+00 1.06243716679284e-01 1.24144636531635e-03
2.65676785714286e+00 1.05590383579843e-01 1.23606578970617e-03
2.66644642857143e+00 1.04941068074931e-01 1.23070036741972e-03
2.67612500000000e+00 1.04295745458822e-01 1.22535016374827e-03
2.68580357142857e+00 1.03654391175370e-01 1.22001523979762e-03
2.69548214285714e+00 1.03016980824148e-01 1.21469565472211e-03
2.70516071428571e+00 1.02383490152407e-01 1.20939146798117e-03
2.71483928571429e+00 1.01753895056539e-01 1.20410273602013e-03
2.72451785714286e+00 1.01128171581154e-01 1.19882951342135e-03
2.73419642857143e+00 1.00506295918176e-01 1.19357185293385e-03
2.74387500000000e+00 9.98882444059360e-02 1.18832980653695e-03
2.75355357142857e+00 9.92739935260757e-02 1.18310342235466e-03
2.76323214285714e+00 9.86635199092662e-02 1.17789274676730e-03
2.77291071428571e+00 9.80568003276712e-02 1.17269782654400e-03
2.78258928571429e+00 9.74538116962918e-02 1.16751870570228e-03
2.79226785714286e+00 9.68545310720860e-02 1.16235542659543e-03
2.80194642857143e+00 9.62589356530987e-02 1.15720802993872e-03
2.81162500000000e+00 9.56670027775933e-02 1.15207655581458e-03
2.82130357142857e+00 9.50787099211412e-02 1.14696104075202e-03
2.83098214285714e+00 9.44940347019411e-02 1.14186151972267e-03
2.84066071428571e+00 9.39129548737574e-02 1.13677802815755e-03
2.85033928571429e+00 9.33354483271549e-02 1.13171059897452e-03
2.86001785714286e+00 9.27614930886567e-02 1.12665926360541e-03
2.86969642857143e+00 9.21910673199108e-02 1.12162405202014e-03
2.87937500000000e+00 9.16241493168572e-02 1.11660499367633e-03
2.88905357142857e+00 9.10607175069883e-02 1.11160211475422e-03
2.89873214285714e+00 9.05007504543029e-02 1.10661544004478e-03
2.90841071428571e+00 8.99442268526834e-02 1.10164499485686e-03
2.91808928571429e+00 8.93911255270319e-02 1.09669080220286e-03
2.92776785714286e+00 8.88414254324631e-02 1.09175288376995e-03
2.93744642857143e+00 8.82951056535058e-02 1.08683125994161e-03
2.94712500000000e+00 8.77521454033065e-02 1.08192595069566e-03
2.95680357142857e+00 8.72125240210459e-02 1.07703697298532e-03
2.96648214285714e+00 8.66762209765581e-02 1.07216434252568e-03
2.97616071428571e+00 8.61432158641145e-02 1.06730807559820e-03
2.98583928571429e+00 8.56134884034697e-02 1.06246818638541e-03
2.99551785714286e+00 8.50870184390878e-02 1.05764468788945e-03
3.00519642857143e+00 8.45637859393782e-02 1.05283759195126e-03
3.01487500000000e+00 8.40437709959327e-02 1.04804691010014e-03
3.02455357142857e+00 8.35269538210896e-02 1.04327265107298e-03
3.03423214285714e+00 8.30133147522411e-02 1.03851482250458e-03
3.04391071428571e+00 8.25028342459979e-02 1.03377343263570e-03
3.05358928571429e+00 8.19954928791505e-02 1.02904848778847e-03
