Energy (eV)          EEDF (eV^-(3/2))     First Anisotropy
2.04255319148936e-02 8.56100895662831e-02 4.67629588403318e-05
6.12765957446808e-02 8.49840663110486e-02 7.71961232670704e-05
1.02127659574468e-01 8.43626208462622e-02 1.01847212492850e-04
1.42978723404255e-01 8.37457197000988e-02 1.20538106564737e-04
1.83829787234043e-01 8.31333296388257e-02 1.36096176104274e-04
2.24680851063830e-01 8.25254176755053e-02 1.49591093609096e-04
2.65531914893617e-01 8.19219510642499e-02 1.61576749927946e-04
3.06382978723404e-01 8.13228972985057e-02 1.72387820184590e-04
3.47234042553191e-01 8.07282241094789e-02 1.82246395442098e-04
3.88085106382979e-01 8.01378994659134e-02 1.91309535576210e-04
4.28936170212766e-01 7.95518915673935e-02 1.99693570931822e-04
4.69787234042553e-01 7.89701688478006e-02 2.07487759813286e-04
5.10638297872340e-01 7.83926999718246e-02 2.14762525135115e-04
5.51489361702128e-01 7.78194538332778e-02 2.21574699767767e-04
5.92340425531915e-01 7.72503995534497e-02 2.27971016173122e-04
6.33191489361702e-01 7.66855064803455e-02 2.33990512843511e-04
6.74042553191489e-01 7.61247441842134e-02 2.39666243442915e-04
7.14893617021277e-01 7.55680824587927e-02 2.45026522112611e-04
7.55744680851064e-01 7.50154913186983e-02 2.50095851294620e-04
7.96595744680851e-01 7.44669409978096e-02 2.54895625609340e-04
8.37446808510638e-01 7.39224019476750e-02 2.59444675062320e-04
8.78297872340425e-01 7.33818448365431e-02 2.63759690774589e-04
9.19148936170213e-01 7.28452405458643e-02 2.67855562502319e-04
9.60000000000000e-01 7.23125601706740e-02 2.71745649645988e-04
1.00085106382979e+00 7.17837750173706e-02 2.75442001847246e-04
1.04170212765957e+00 7.12588566000720e-02 2.78955538187652e-04
1.08255319148936e+00 7.07377766475073e-02 2.82296197458683e-04
1.12340425531915e+00 7.02205070906575e-02 2.85473063612414e-04
1.16425531914894e+00 6.97070200614673e-02 2.88494466898647e-04
1.20510638297872e+00 6.91972879047403e-02 2.91368074022276e-04
1.24595744680851e+00 6.86912831627992e-02 2.94100965043205e-04
1.28680851063830e+00 6.81889785749640e-02 2.96699694070492e-04
1.32765957446809e+00 6.76903470878086e-02 2.99170346981663e-04
1.36851063829787e+00 6.71953618380569e-02 3.01518588789847e-04
1.40936170212766e+00 6.67039961663324e-02 3.03749704659600e-04
1.45021276595745e+00 6.62162236043384e-02 3.05868638455166e-04
1.49106382978723e+00 6.57320178741673e-02 3.07880021379886e-04
1.53191489361702e+00 6.52513528966675e-02 3.09788202173878e-04
1.57276595744681e+00 6.47742027769554e-02 3.11597271444814e-04
1.61361702127660e+00 6.43005418157682e-02 3.13311083111087e-04
1.65446808510638e+00 6.38303444985440e-02 3.14933275967453e-04
1.69531914893617e+00 6.33635854945889e-02 3.16467288229300e-04
1.73617021276596e+00 6.29002396640533e-02 3.17916374661666e-04
1.77702127659574e+00 6.24402820480358e-02 3.19283621985100e-04
1.81787234042553e+00 6.19836878676913e-02 3.20571958790312e-04
1.85872340425532e+00 6.15304325304381e-02 3.21784168757128e-04
1.89957446808511e+00 6.10804916185744e-02 3.22922900591376e-04
1.94042553191489e+00 6.06338408977969e-02 3.23990676932028e-04
1.98127659574468e+00 6.01904563085244e-02 3.24989904573915e-04
2.02212765957447e+00 5.97503139649809e-02 3.25922879729892e-04
2.06297872340426e+00 5.93133901604577e-02 3.26791796773848e-04
2.10382978723404e+00 5.88796613572864e-02 3.27598754360903e-04
2.14468085106383e+00 5.84491041941385e-02 3.28345760942408e-04
2.18553191489362e+00 5.80216954783570e-02 3.29034741793288e-04
2.22638297872340e+00 5.75974121849991e-02 3.29667541731763e-04
2.26723404255319e+00 5.71762314613590e-02 3.30245930912049e-04
2.30808510638298e+00 5.67581306198625e-02 3.30771610180970e-04
2.34893617021277e+00 5.63430871371040e-02 3.31246212851992e-04
2.38978723404255e+00 5.59310786579377e-02 3.31671309795805e-04
2.43063829787234e+00 5.55220829872000e-02 3.32048412512514e-04
2.47148936170213e+00 5.51160780954527e-02 3.32378975905158e-04
2.51234042553191e+00 5.47130421125976e-02 3.32664402574828e-04
2.55319148936170e+00 5.43129533269202e-02 3.32906043530352e-04
2.59404255319149e+00 5.39157901886350e-02 3.33105202058280e-04
2.63489361702128e+00 5.35215313024319e-02 3.33263135797612e-04
2.67574468085106e+00 5.31301554325021e-02 3.33381058606070e-04
2.71659574468085e+00 5.27416414967718e-02 3.33460143905680e-04
2.75744680851064e+00 5.23559685659444e-02 3.33501524751596e-04
2.79829787234043e+00 5.19731158665998e-02 3.33506296596077e-04
2.83914893617021e+00 5.15930627757791e-02 3.33475519885790e-04
2.88000000000000e+00 5.12157888200407e-02 3.33410219886235e-04
2.92085106382979e+00 5.08412736782883e-02 3.33311389365419e-04
2.96170212765957e+00 5.04694971754340e-02 3.33179989752919e-04
3.00255319148936e+00 5.01004392864655e-02 3.33016952170650e-04
3.04340425531915e+00 4.97340801315070e-02 3.32823179823377e-04
3.08425531914894e+00 4.93703999748909e-02 3.32599547529087e-04
3.12510638297872e+00 4.90093792276425e-02 3.32346903682331e-04
3.16595744680851e+00 4.86509984428228e-02 3.32066072111314e-04
3.20680851063830e+00 4.82952383146064e-02 3.31757851500496e-04
3.24765957446808e+00 4.79420796805653e-02 3.31423017389078e-04
3.28851063829787e+00 4.75915035162093e-02 3.31062322842779e-04
3.32936170212766e+00 4.72434909383179e-02 3.30676499037201e-04
3.37021276595745e+00 4.68980232006581e-02 3.30266257078630e-04
3.41106382978723e+00 4.65550816930885e-02 3.29832287293310e-04
3.45191489361702e+00 4.62146479435735e-02 3.29375260941718e-04
3.49276595744681e+00 4.58767036131652e-02 3.28895830698818e-04
3.53361702127660e+00 4.55412304989768e-02 3.28394631061831e-04
3.57446808510638e+00 4.52082105302359e-02 3.27872279928844e-04
3.61531914893617e+00 4.48776257674082e-02 3.27329377811016e-04
3.65617021276596e+00 4.45494584039831e-02 3.26766509109011e-04
3.69702127659574e+00 4.42236907627250e-02 3.26184243329584e-04
3.73787234042553e+00 4.39003052948105e-02 3.25583134277613e-04
3.77872340425532e+00 4.35792845814752e-02 3.24963721435852e-04
3.81957446808511e+00 4.32606113296217e-02 3.24326530247769e-04
3.86042553191489e+00 4.29442683742914e-02 3.23672072344529e-04
3.90127659574468e+00 4.26302386751890e-02 3.23000846832939e-04
3.94212765957447e+00 4.23185053158465e-02 3.22313339462113e-04
3.98297872340426e+00 4.20090515050850e-02 3.21610023852448e-04
4.02382978723404e+00 4.17018605729456e-02 3.20891361695459e-04
4.06468085106383e+00 4.13969159729103e-02 3.20157802904941e-04
4.10553191489362e+00 4.10942012786760e-02 3.19409786771876e-04
4.14638297872340e+00 4.07937001833394e-02 3.18647741124891e-04
4.18723404255319e+00 4.04953965006987e-02 3.17872083249607e-04
4.22808510638298e+00 4.01992741621746e-02 3.17083220769433e-04
4.26893617021277e+00 3.99053172160096e-02 3.16281550814270e-04
4.30978723404255e+00 3.96135098284728e-02 3.15467461057025e-04
4.35063829787234e+00 3.93238362802571e-02 3.14641329824962e-04
4.39148936170213e+00 3.90362809683442e-02 3.13803526170719e-04
4.43234042553191e+00 3.87508284031326e-02 3.12954410854640e-04
4.47319148936170e+00 3.84674632076627e-02 3.12094335525126e-04
4.51404255319149e+00 3.81861701186897e-02 3.11223643662641e-04
4.55489361702128e+00 3.79069339833270e-02 3.10342670652270e-04
4.59574468085106e+00 3.76297397607301e-02 3.09451743819755e-04
4.63659574468085e+00 3.73545725194145e-02 3.08551183330096e-04
4.67744680851064e+00 3.70814174365037e-02 3.07641301386170e-04
4.71829787234043e+00 3.68102597986867e-02 3.06722402934806e-04
4.75914893617021e+00 3.65410849996492e-02 3.05794786345549e-04
4.80000000000000e+00 3.62738785393356e-02 3.04858742626658e-04
4.84085106382979e+00 3.60086260248367e-02 3.03914556244761e-04
4.88170212765957e+00 3.57453131673914e-02 3.02962505155012e-04
4.92255319148936e+00 3.54839257838104e-02 3.02002860799977e-04
4.96340425531915e+00 3.52244497940694e-02 3.01035888893850e-04
5.00425531914894e+00 3.49668712205950e-02 3.00061848662438e-04
5.04510638297872e+00 3.47111761890572e-02 2.99080993455711e-04
5.08595744680851e+00 3.44573509260595e-02 2.98093571337758e-04
5.12680851063830e+00 3.42053817584379e-02 2.97099824345718e-04
5.16765957446809e+00 3.39552551139961e-02 2.96099989209956e-04
5.20851063829787e+00 3.37069575188146e-02 2.95094297357122e-04
5.24936170212766e+00 3.34604755984592e-02 2.94082974885502e-04
5.29021276595745e+00 3.32157960758117e-02 2.93066243257223e-04
5.33106382978723e+00 3.29729057703925e-02 2.92044318583589e-04
5.37191489361702e+00 3.27317915990164e-02 2.91017412294641e-04
5.41276595744681e+00 3.24924405732680e-02 2.89985731129441e-04
5.45361702127660e+00 3.22548398005990e-02 2.88949477100986e-04
5.49446808510638e+00 3.20189764822881e-02 2.87908848141008e-04
5.53531914893617e+00 3.17848379127856e-02 2.86864037412271e-04
5.57617021276596e+00 3.15524114802995e-02 2.85815233807559e-04
5.61702127659574e+00 3.13216846648324e-02 2.84762622431351e-04
5.65787234042553e+00 3.10926450375392e-02 2.83706383931259e-04
5.69872340425532e+00 3.08652802612703e-02 2.82646695094771e-04
5.73957446808511e+00 3.06395780882919e-02 2.81583728826405e-04
5.78042553191489e+00 3.04155263612214e-02 2.80517654102170e-04
5.82127659574468e+00 3.01931130111774e-02 2.79448636545828e-04
5.86212765957447e+00 2.99723260571600e-02 2.78376837787256e-04
5.90297872340425e+00 2.97531536065343e-02 2.77302416021196e-04
5.94382978723404e+00 2.95355838528849e-02 2.76225525978090e-04
5.98468085106383e+00 2.93196050768669e-02 2.75146318873779e-04
6.02553191489362e+00 2.91052056444611e-02 2.74064942949905e-04
6.06638297872340e+00 2.88923740063744e-02 2.72981542858720e-04
6.10723404255319e+00 2.86810986984713e-02 2.71896260078326e-04
6.14808510638298e+00 2.84713683400919e-02 2.70809233314214e-04
6.18893617021277e+00 2.82631716334653e-02 2.69720597901970e-04
6.22978723404255e+00 2.80564973641075e-02 2.68630486310101e-04
6.27063829787234e+00 2.78513343988762e-02 2.67539028104886e-04
6.31148936170213e+00 2.76476716866967e-02 2.66446349896037e-04
6.35234042553191e+00 2.74454982569731e-02 2.65352575824030e-04
6.39319148936170e+00 2.72448032190218e-02 2.64257826988249e-04
6.43404255319149e+00 2.70455757624253e-02 2.63162221919972e-04
6.47489361702128e+00 2.68478051551962e-02 2.62065876544381e-04
6.51574468085106e+00 2.66514807444382e-02 2.60968904124473e-04
6.55659574468085e+00 2.64565919548446e-02 2.59871415720083e-04
6.59744680851064e+00 2.62631282881499e-02 2.58773519640633e-04
6.63829787234043e+00 2.60710793234447e-02 2.57675321795772e-04
6.67914893617021e+00 2.58804347157254e-02 2.56576926034971e-04
6.72000000000000e+00 2.56911841953581e-02 2.55478433616420e-04
6.76085106382979e+00 2.55033175683681e-02 2.54379943635739e-04
6.80170212765957e+00 2.53168247147678e-02 2.53281552985656e-04
6.84255319148936e+00 2.51316955891221e-02 2.52183356299347e-04
6.88340425531915e+00 2.49479202191751e-02 2.51085446367006e-04
6.92425531914894e+00 2.47654887053322e-02 2.49987913627883e-04
6.96510638297872e+00 2.45843912209169e-02 2.48890846487820e-04
7.00595744680851e+00 2.44046180108438e-02 2.47794331627001e-04
7.04680851063830e+00 2.42261593911115e-02 2.46698453506999e-04
7.08765957446809e+00 2.40490057490383e-02 2.45603294760568e-04
7.12851063829787e+00 2.38731475417351e-02 2.44508936150478e-04
7.16936170212766e+00 2.36985752965898e-02 2.43415456513334e-04
7.21021276595745e+00 2.35252796100087e-02 2.42322933138908e-04
7.25106382978723e+00 2.33532511469275e-02 2.41231441298783e-04
7.29191489361702e+00 2.31824806410187e-02 2.40141054615065e-04
7.33276595744681e+00 2.30129588932455e-02 2.39051845018790e-04
7.37361702127660e+00 2.28446767723030e-02 2.37963882694215e-04
7.41446808510638e+00 2.26776252134247e-02 2.36877236437817e-04
7.45531914893617e+00 2.25117952179100e-02 2.35791973207696e-04
7.49617021276596e+00 2.23471778533063e-02 2.34708158396075e-04
7.53702127659574e+00 2.21837642522548e-02 2.33625856093716e-04
7.57787234042553e+00 2.20215456120276e-02 2.32545128652662e-04
7.61872340425532e+00 2.18605131946941e-02 2.31466037022857e-04
7.65957446808511e+00 2.17006583257970e-02 2.30388640711108e-04
7.70042553191489e+00 2.15419723947293e-02 2.29312997727105e-04
7.74127659574468e+00 2.13844468536376e-02 2.28239164911499e-04
7.78212765957447e+00 2.12280732169760e-02 2.27167197517958e-04
7.82297872340425e+00 2.10728430616507e-02 2.26097149532253e-04
7.86382978723404e+00 2.09187480257645e-02 2.25029073631547e-04
7.90468085106383e+00 2.07657798089593e-02 2.23963021131381e-04
7.94553191489362e+00 2.06139301713752e-02 2.22899042296847e-04
7.98638297872340e+00 2.04631909332193e-02 2.21837185943093e-04
8.02723404255319e+00 2.03135539748908e-02 2.20777499670758e-04
8.06808510638298e+00 2.01650112359731e-02 2.19720030094684e-04
8.10893617021276e+00 2.00175547148113e-02 2.18664822456105e-04
8.14978723404255e+00 1.98711764686260e-02 2.17611920915011e-04
8.19063829787234e+00 1.97258686123598e-02 2.16561368510674e-04
8.23148936170213e+00 1.95816233189702e-02 2.15513207110868e-04
8.27234042553192e+00 1.94384328184706e-02 2.14467477697200e-04
8.31319148936170e+00 1.92962893975231e-02 2.13424219994464e-04
8.35404255319149e+00 1.91551853995354e-02 2.12383472748246e-04
8.39489361702128e+00 1.90151132235658e-02 2.11345273686120e-04
8.43574468085106e+00 1.88760653245889e-02 2.10309659468096e-04
8.47659574468085e+00 1.87380342125835e-02 2.09276665957730e-04
8.51744680851064e+00 1.86010124521398e-02 2.08246327867822e-04
8.55829787234043e+00 1.84649926625413e-02 2.07218678964916e-04
8.59914893617021e+00 1.83299675168804e-02 2.06193752268095e-04
8.64000000000000e+00 1.81959297416742e-02 2.05171579705003e-04
8.68085106382979e+00 1.80628721169368e-02 2.04152192366875e-04
8.72170212765957e+00 1.79307874751718e-02 2.03135620471345e-04
8.76255319148936e+00 1.77996687015984e-02 2.02121893315348e-04
8.80340425531915e+00 1.76695087333098e-02 2.01111039524302e-04
8.84425531914894e+00 1.75403005589018e-02 2.00103086723297e-04
8.88510638297872e+00 1.74120372185331e-02 1.99098061724873e-04
8.92595744680851e+00 1.72847118031090e-02 1.98095990711673e-04
8.96680851063830e+00 1.71583174539181e-02 1.97096898917179e-04
9.00765957446808e+00 1.70328473626846e-02 1.96100810860252e-04
9.04851063829787e+00 1.69082947706397e-02 1.95107750309665e-04
9.08936170212766e+00 1.67846529687136e-02 1.94117740239466e-04
9.13021276595745e+00 1.66619152967577e-02 1.93130803058318e-04
9.17106382978723e+00 1.65400751431940e-02 1.92146960304300e-04
9.21191489361702e+00 1.64191259450571e-02 1.91166232868102e-04
9.25276595744681e+00 1.62990611871107e-02 1.90188640958431e-04
9.29361702127660e+00 1.61798744020210e-02 1.89214204058781e-04
9.33446808510638e+00 1.60615591696152e-02 1.88242941145729e-04
9.37531914893617e+00 1.59441091165444e-02 1.87274870397097e-04
9.41617021276596e+00 1.58275179163148e-02 1.86310009356080e-04
9.45702127659574e+00 1.57117792885689e-02 1.85348375091030e-04
9.49787234042553e+00 1.55968869987547e-02 1.84389983911973e-04
9.53872340425532e+00 1.54828348581516e-02 1.83434851576328e-04
9.57957446808511e+00 1.53696167230551e-02 1.82482993256099e-04
9.62042553191489e+00 1.52572264949231e-02 1.81534423497033e-04
9.66127659574468e+00 1.51456581196896e-02 1.80589156419946e-04
9.70212765957447e+00 1.50349055874460e-02 1.79647205449608e-04
9.74297872340425e+00 1.49249629324593e-02 1.78708583510719e-04
9.78382978723404e+00 1.48158242323950e-02 1.77773302996043e-04
9.82468085106383e+00 1.47074836084489e-02 1.76841375726910e-04
9.86553191489362e+00 1.45999352246934e-02 1.75912813145016e-04
9.90638297872340e+00 1.44931732877687e-02 1.74987626053168e-04
9.94723404255319e+00 1.43871920468948e-02 1.74065824759227e-04
9.98808510638298e+00 1.42819857932354e-02 1.73147419047718e-04
1.00289361702128e+01 1.41775488600099e-02 1.72232418603488e-04
1.00697872340426e+01 1.40738756208454e-02 1.71320832473333e-04
1.01106382978723e+01 1.39709604912401e-02 1.70412668405194e-04
1.01514893617021e+01 1.38687979285319e-02 1.69507934829696e-04
1.01923404255319e+01 1.37673824285774e-02 1.68606639737897e-04
1.02331914893617e+01 1.36667085284911e-02 1.67708789445969e-04
1.02740425531915e+01 1.35667708063048e-02 1.66814391075519e-04
1.03148936170213e+01 1.34675638777519e-02 1.65923450940825e-04
1.03557446808511e+01 1.33690823998601e-02 1.65035974918994e-04
1.03965957446808e+01 1.32713210668299e-02 1.64151968899576e-04
1.04374468085106e+01 1.31742746126129e-02 1.63271437196480e-04
1.04782978723404e+01 1.30779378105829e-02 1.62394384910571e-04
1.05191489361702e+01 1.29823054704976e-02 1.61520816766425e-04
1.05600000000000e+01 1.28873724409892e-02 1.60650735966825e-04
1.06008510638298e+01 1.27931336092445e-02 1.59784146492025e-04
1.06417021276596e+01 1.26995838980612e-02 1.58921051967914e-04
1.06825531914894e+01 1.26067182682549e-02 1.58061454550586e-04
1.07234042553191e+01 1.25145317183473e-02 1.57205357164176e-04
1.07642553191489e+01 1.24230192817136e-02 1.56352762398711e-04
1.08051063829787e+01 1.23321760289103e-02 1.55503671424708e-04
1.08459574468085e+01 1.22419970673694e-02 1.54658086171267e-04
1.08868085106383e+01 1.21524775386352e-02 1.53816007907717e-04
1.09276595744681e+01 1.20636126214237e-02 1.52977437568774e-04
1.09685106382979e+01 1.19753975280829e-02 1.52142376148873e-04
1.10093617021277e+01 1.18878275067848e-02 1.51310823305236e-04
1.10502127659574e+01 1.18008978412324e-02 1.50482779433863e-04
1.10910638297872e+01 1.17146038480449e-02 1.49658244646635e-04
1.11319148936170e+01 1.16289408788769e-02 1.48837217763231e-04
1.11727659574468e+01 1.15439043201323e-02 1.48019698332107e-04
1.12136170212766e+01 1.14594895904303e-02 1.47205685634421e-04
1.12544680851064e+01 1.13756921426547e-02 1.46395177702724e-04
1.12953191489362e+01 1.12925074636740e-02 1.45588173288453e-04
1.13361702127660e+01 1.12099310718855e-02 1.44784670579884e-04
1.13770212765957e+01 1.11279585199141e-02 1.43984667495610e-04
1.14178723404255e+01 1.10465853914680e-02 1.43188162040145e-04
1.14587234042553e+01 1.09658073032707e-02 1.42395151041038e-04
1.14995744680851e+01 1.08856199047927e-02 1.41605632024930e-04
1.15404255319149e+01 1.08060188759250e-02 1.40819602292383e-04
1.15812765957447e+01 1.07269999288473e-02 1.40037058006071e-04
1.16221276595745e+01 1.06485588077669e-02 1.39257996017479e-04
1.16629787234043e+01 1.05706912866623e-02 1.38482412966032e-04
1.17038297872340e+01 1.04933931710914e-02 1.37710304391213e-04
1.17446808510638e+01 1.04166602979350e-02 1.36941666511268e-04
1.17855319148936e+01 1.03404885332099e-02 1.36176495063498e-04
1.18263829787234e+01 1.02648737744539e-02 1.35414785569419e-04
1.18672340425532e+01 1.01898119479281e-02 1.34656533655691e-04
1.19080851063830e+01 1.01152990103233e-02 1.33901733911562e-04
1.19489361702128e+01 1.00413309485122e-02 1.33150381585682e-04
1.19897872340426e+01 9.96790377747794e-03 1.32402471748521e-04
1.20306382978723e+01 9.89501354196375e-03 1.31657998467244e-04
1.20714893617021e+01 9.82265631623256e-03 1.30916956458122e-04
1.21123404255319e+01 9.75082820205665e-03 1.30179340270968e-04
1.21531914893617e+01 9.67952533031469e-03 1.29445143485347e-04
1.21940425531915e+01 9.60874386075654e-03 1.28714360319862e-04
1.22348936170213e+01 9.53847998005338e-03 1.27986984582345e-04
1.22757446808511e+01 9.46872990390811e-03 1.27263009909576e-04
1.23165957446808e+01 9.39948987456296e-03 1.26542430057262e-04
1.23574468085106e+01 9.33075616230748e-03 1.25825237865552e-04
1.23982978723404e+01 9.26252506525188e-03 1.25111426794858e-04
1.24391489361702e+01 9.19479290747802e-03 1.24400990167151e-04
1.24800000000000e+01 9.12755604049878e-03 1.23693920418666e-04
1.25208510638298e+01 9.06081084303722e-03 1.22990210595791e-04
1.25617021276596e+01 8.99455371923228e-03 1.22289853616227e-04
1.26025531914894e+01 8.92878110005153e-03 1.21592841540836e-04
1.26434042553191e+01 8.86348944307547e-03 1.20899167030737e-04
1.26842553191489e+01 8.79867523075634e-03 1.20208822627344e-04
1.27251063829787e+01 8.73433497178633e-03 1.19521800043271e-04
1.27659574468085e+01 8.67046520088610e-03 1.18838091581630e-04
1.28068085106383e+01 8.60706247711558e-03 1.18157689209157e-04
1.28476595744681e+01 8.54412338568568e-03 1.17480584767748e-04
1.28885106382979e+01 8.48164453580038e-03 1.16806770229994e-04
