Energy (eV)          EEDF (eV^-(3/2))     First Anisotropy
1.11111111111111e-03 6.15324924187137e-01 3.00295801835673e-08
3.33333333333333e-03 6.15324903540941e-01 8.90729711688940e-08
5.55555555555556e-03 6.15324853403361e-01 2.15693021943905e-07
7.77777777777778e-03 6.15324770657150e-01 3.76353462353806e-07
1.00000000000000e-02 6.15324657284975e-01 5.58204922290124e-07
1.22222222222222e-02 6.15324513929633e-01 7.63117528253661e-07
1.44444444444444e-02 6.15324339575014e-01 9.87163012396062e-07
1.66666666666667e-02 6.15324135572618e-01 1.21571694819698e-06
1.88888888888889e-02 6.15323905449810e-01 1.44274493727543e-06
2.11111111111111e-02 6.15323651253643e-01 1.66971521355325e-06
2.33333333333333e-02 6.15323374846738e-01 1.90074503967612e-06
2.55555555555556e-02 6.15323076269637e-01 2.14029785221550e-06
2.77777777777778e-02 6.15322755697838e-01 2.38706744773667e-06
3.00000000000000e-02 6.15322413399135e-01 2.63637890258482e-06
3.22222222222222e-02 6.15322050668667e-01 2.88473420438733e-06
3.44444444444444e-02 6.15321668454763e-01 3.13770487032280e-06
3.66666666666667e-02 6.15321266372617e-01 3.39994111399113e-06
3.88888888888889e-02 6.15320844128748e-01 3.67073851295713e-06
4.11111111111111e-02 6.15320401516391e-01 3.95357490377866e-06
4.33333333333333e-02 6.15319937430006e-01 4.25021370106729e-06
4.55555555555556e-02 6.15319451323659e-01 4.55827826096657e-06
4.77777777777778e-02 6.15318942697863e-01 4.87746659744950e-06
5.00000000000000e-02 6.15318411101820e-01 5.20130017237963e-06
5.22222222222222e-02 6.15317857434877e-01 5.52300004793875e-06
5.44444444444444e-02 6.15317282598097e-01 5.84856497426786e-06
5.66666666666667e-02 6.15316686133144e-01 6.18438728246643e-06
5.88888888888889e-02 6.15316067608313e-01 6.53031120403726e-06
6.11111111111111e-02 6.15315426617941e-01 6.88637195550468e-06
6.33333333333333e-02 6.15314762742840e-01 7.25312650385960e-06
6.55555555555556e-02 6.15314075490692e-01 7.63100089535501e-06
6.77777777777778e-02 6.15313364384038e-01 8.01994246107544e-06
7.00000000000000e-02 6.15312628962132e-01 8.41070094210179e-06
7.22222222222222e-02 6.15311870452306e-01 8.79328743932209e-06
7.44444444444444e-02 6.15311090137280e-01 9.17616621119547e-06
7.66666666666667e-02 6.15310287625621e-01 9.56855717162434e-06
7.88888888888889e-02 6.15309462537231e-01 9.97041326120156e-06
8.11111111111111e-02 6.15308614504147e-01 1.03817723372287e-05
8.33333333333333e-02 6.15307743154348e-01 1.08029170183518e-05
8.55555555555556e-02 6.15306848086824e-01 1.12340308031933e-05
8.77777777777778e-02 6.15305928913399e-01 1.16750013450697e-05
9.00000000000000e-02 6.15304985264829e-01 1.21256988815547e-05
9.22222222222222e-02 6.15304016785733e-01 1.25861517177885e-05
9.44444444444444e-02 6.15303023113230e-01 1.30565117464152e-05
9.66666666666667e-02 6.15302003878398e-01 1.35368530197661e-05
9.88888888888889e-02 6.15300958716969e-01 1.40272036387306e-05
1.01111111111111e-01 6.15299887265503e-01 1.45035170700108e-05
1.03333333333333e-01 6.15298792886969e-01 1.49637554996066e-05
1.05555555555556e-01 6.15297675431639e-01 1.54303897727932e-05
1.07777777777778e-01 6.15296534748539e-01 1.59034395705280e-05
1.10000000000000e-01 6.15295370684810e-01 1.63829291797332e-05
1.12222222222222e-01 6.15294183085826e-01 1.68688824685880e-05
1.14444444444444e-01 6.15292971795293e-01 1.73613229352197e-05
1.16666666666667e-01 6.15291736655338e-01 1.78602737579990e-05
1.18888888888889e-01 6.15290477506593e-01 1.83657578405330e-05
1.21111111111111e-01 6.15289194188266e-01 1.88777978425169e-05
1.23333333333333e-01 6.15287886538204e-01 1.93964162165669e-05
1.25555555555556e-01 6.15286554392955e-01 1.99216352414592e-05
1.27777777777778e-01 6.15285197587821e-01 2.04534770358391e-05
1.30000000000000e-01 6.15283815956904e-01 2.09919635982521e-05
1.32222222222222e-01 6.15282409333147e-01 2.15371168230173e-05
1.34444444444444e-01 6.15280977548377e-01 2.20889585104220e-05
1.36666666666667e-01 6.15279520433339e-01 2.26475103995858e-05
1.38888888888889e-01 6.15278037817724e-01 2.32127941670788e-05
1.41111111111111e-01 6.15276529530202e-01 2.37848314490165e-05
1.43333333333333e-01 6.15274995398447e-01 2.43636438569707e-05
1.45555555555556e-01 6.15273435249158e-01 2.49492529853231e-05
1.47777777777778e-01 6.15271848908082e-01 2.55416804235749e-05
1.50000000000000e-01 6.15270236200033e-01 2.61409477584761e-05
1.52222222222222e-01 6.15268596948909e-01 2.67470765850627e-05
1.54444444444444e-01 6.15266930977708e-01 2.73600885169186e-05
1.56666666666667e-01 6.15265238108542e-01 2.79800051927327e-05
1.58888888888889e-01 6.15263518162649e-01 2.86068482733456e-05
1.61111111111111e-01 6.15261770960406e-01 2.92406394554779e-05
1.63333333333333e-01 6.15259996321338e-01 2.98814004619692e-05
1.65555555555556e-01 6.15258194064132e-01 3.05291530643253e-05
1.67777777777778e-01 6.15256364006636e-01 3.11839190874018e-05
1.70000000000000e-01 6.15254505965877e-01 3.18457201587791e-05
1.72222222222222e-01 6.15252619758090e-01 3.25145770207172e-05
1.74444444444444e-01 6.15250705198805e-01 3.31905082171757e-05
1.76666666666667e-01 6.15248762103035e-01 3.38735258326380e-05
1.78888888888889e-01 6.15246790285847e-01 3.45636294595080e-05
1.81111111111111e-01 6.15244789563218e-01 3.52608005069630e-05
1.83333333333333e-01 6.15242759753231e-01 3.59649932948976e-05
1.85555555555556e-01 6.15240700677888e-01 3.66761249962407e-05
1.87777777777778e-01 6.15238612165369e-01 3.73940423110542e-05
1.90000000000000e-01 6.15236494055489e-01 3.81185282108473e-05
1.92222222222222e-01 6.15234346200982e-01 3.88493852928659e-05
1.94444444444444e-01 6.15232168463496e-01 3.95864696281443e-05
1.96666666666667e-01 6.15229960711195e-01 4.03296806850320e-05
1.98888888888889e-01 6.15227722816026e-01 4.10789652802390e-05
2.01111111111111e-01 6.15225454651035e-01 4.17855100881871e-05
2.03333333333333e-01 6.15223161767120e-01 4.24477569617169e-05
2.05555555555556e-01 6.15220844146090e-01 4.31133042758043e-05
2.07777777777778e-01 6.15218501769495e-01 4.37821346353967e-05
2.10000000000000e-01 6.15216134618761e-01 4.44542298415534e-05
2.12222222222222e-01 6.15213742675181e-01 4.51295722374987e-05
2.14444444444444e-01 6.15211325919900e-01 4.58081446956742e-05
2.16666666666667e-01 6.15208884333907e-01 4.64899305930913e-05
2.18888888888889e-01 6.15206417898024e-01 4.71749137967977e-05
2.21111111111111e-01 6.15203926592896e-01 4.78630786481247e-05
2.23333333333333e-01 6.15201410398983e-01 4.85544099584720e-05
2.25555555555556e-01 6.15198869296552e-01 4.92488929912997e-05
2.27777777777778e-01 6.15196303265669e-01 4.99465134341943e-05
2.30000000000000e-01 6.15193712286192e-01 5.06472574049973e-05
2.32222222222222e-01 6.15191096337763e-01 5.13511114453164e-05
2.34444444444444e-01 6.15188455399805e-01 5.20580624955770e-05
2.36666666666667e-01 6.15185789451510e-01 5.27680978838781e-05
2.38888888888889e-01 6.15183098471840e-01 5.34812053191857e-05
2.41111111111111e-01 6.15180382439516e-01 5.41973728889887e-05
2.43333333333333e-01 6.15177641333019e-01 5.49165890405028e-05
2.45555555555556e-01 6.15174875130578e-01 5.56388425794077e-05
2.47777777777778e-01 6.15172083810171e-01 5.63641226598331e-05
2.50000000000000e-01 6.15169267349518e-01 5.70924187619801e-05
2.52222222222222e-01 6.15166425726081e-01 5.78237207031519e-05
2.54444444444444e-01 6.15163558917053e-01 5.85580186142404e-05
2.56666666666667e-01 6.15160666899363e-01 5.92953029362542e-05
2.58888888888889e-01 6.15157749649665e-01 6.00355644294671e-05
2.61111111111111e-01 6.15154807144341e-01 6.07787941464163e-05
2.63333333333333e-01 6.15151839359495e-01 6.15249834239477e-05
2.65555555555556e-01 6.15148846270949e-01 6.22741238844614e-05
2.67777777777778e-01 6.15145827854245e-01 6.30262074247408e-05
2.70000000000000e-01 6.15142784084639e-01 6.37812261371796e-05
2.72222222222222e-01 6.15139714937108e-01 6.45391720846320e-05
2.74444444444444e-01 6.15136620386366e-01 6.53000368671398e-05
2.76666666666667e-01 6.15133500406914e-01 6.60638102098789e-05
2.78888888888889e-01 6.15130354973188e-01 6.68304780354573e-05
2.81111111111111e-01 6.15127184059789e-01 6.76000205936769e-05
2.83333333333333e-01 6.15123987641801e-01 6.83724095145472e-05
2.85555555555556e-01 6.15120765695288e-01 6.91476044437552e-05
2.87777777777778e-01 6.15117518197924e-01 6.99255419442146e-05
2.90000000000000e-01 6.15114245130494e-01 7.07061380622292e-05
2.92222222222222e-01 6.15110946477243e-01 7.14893164258187e-05
2.94444444444444e-01 6.15107622224741e-01 7.22750192506565e-05
2.96666666666667e-01 6.15104272361222e-01 7.30632036957333e-05
2.98888888888889e-01 6.15100896875810e-01 7.38538434344109e-05
3.01111111111111e-01 6.15097495757747e-01 7.46305324414910e-05
3.03333333333333e-01 6.15094070805270e-01 7.54332724399993e-05
3.05555555555556e-01 6.15090618354738e-01 7.63172819434172e-05
3.07777777777778e-01 6.15087134898764e-01 7.72799067219435e-05
3.10000000000000e-01 6.15083617080552e-01 7.83185651710777e-05
3.12222222222222e-01 6.15080061688501e-01 7.94307453791720e-05
3.14444444444444e-01 6.15076465651029e-01 8.06140030000492e-05
3.16666666666667e-01 6.15072826031595e-01 8.18659591932790e-05
3.18888888888889e-01 6.15069140023909e-01 8.31842986510674e-05
3.21111111111111e-01 6.15065404947329e-01 8.45667676996529e-05
3.23333333333333e-01 6.15061618242431e-01 8.60111724612513e-05
3.25555555555556e-01 6.15057777466745e-01 8.75153770707673e-05
3.27777777777778e-01 6.15053880290658e-01 8.90773019599856e-05
3.30000000000000e-01 6.15049924493458e-01 9.06949222068579e-05
3.32222222222222e-01 6.15045907959540e-01 9.23662659370739e-05
3.34444444444444e-01 6.15041828674745e-01 9.40894127747514e-05
3.36666666666667e-01 6.15037684722834e-01 9.58624923413511e-05
3.38888888888889e-01 6.15033474282096e-01 9.76836828119359e-05
3.41111111111111e-01 6.15029195622074e-01 9.95512095097330e-05
3.43333333333333e-01 6.15024847100421e-01 1.01463343559182e-04
3.45555555555556e-01 6.15020427159862e-01 1.03418400575433e-04
3.47777777777778e-01 6.15015934325266e-01 1.05414739390859e-04
3.50000000000000e-01 6.15011367200831e-01 1.07450760828104e-04
3.52222222222222e-01 6.15006724467362e-01 1.09524906495472e-04
3.54444444444444e-01 6.15002004879653e-01 1.11635657656665e-04
3.56666666666667e-01 6.14997207263961e-01 1.13781534114267e-04
3.58888888888889e-01 6.14992330515568e-01 1.15961093101245e-04
3.61111111111111e-01 6.14987373596430e-01 1.18172928258542e-04
3.63333333333333e-01 6.14982335532914e-01 1.20415668615182e-04
3.65555555555556e-01 6.14977215413607e-01 1.22687977597604e-04
3.67777777777778e-01 6.14972012387211e-01 1.24988552075648e-04
3.70000000000000e-01 6.14966725660502e-01 1.27316121380311e-04
3.72222222222222e-01 6.14961354496375e-01 1.29669446337739e-04
3.74444444444444e-01 6.14955898211952e-01 1.32047318160985e-04
3.76666666666667e-01 6.14950356176778e-01 1.34448556914534e-04
3.78888888888889e-01 6.14944727811116e-01 1.36872009707621e-04
3.81111111111111e-01 6.14939012584353e-01 1.39316548941148e-04
3.83333333333333e-01 6.14933210013489e-01 1.41781070091523e-04
3.85555555555556e-01 6.14927319661776e-01 1.44264489345989e-04
3.87777777777778e-01 6.14921341137459e-01 1.46765737756620e-04
3.90000000000000e-01 6.14915274092920e-01 1.49283761861535e-04
3.92222222222222e-01 6.14909118223402e-01 1.51817536531319e-04
3.94444444444444e-01 6.14902873265136e-01 1.54366070324583e-04
3.96666666666667e-01 6.14896538993660e-01 1.56928403327750e-04
3.98888888888889e-01 6.14890115222176e-01 1.59503606393885e-04
4.01111111111111e-01 6.14883601799985e-01 1.62035032046742e-04
4.03333333333333e-01 6.14877003858610e-01 1.64567403639716e-04
4.05555555555556e-01 6.14870317637475e-01 1.67200040111181e-04
4.07777777777778e-01 6.14863539536938e-01 1.69929611823661e-04
4.10000000000000e-01 6.14856666112956e-01 1.72752878518123e-04
4.12222222222222e-01 6.14849694071912e-01 1.75666687065481e-04
4.14444444444444e-01 6.14842620265618e-01 1.78667969269916e-04
4.16666666666667e-01 6.14835441686468e-01 1.81753739717614e-04
4.18888888888889e-01 6.14828155462750e-01 1.84921093688066e-04
4.21111111111111e-01 6.14820758854106e-01 1.88167205129819e-04
4.23333333333333e-01 6.14813249247134e-01 1.91489324717994e-04
4.25555555555556e-01 6.14805624151131e-01 1.94884777958952e-04
4.27777777777778e-01 6.14797881193965e-01 1.98350963303937e-04
4.30000000000000e-01 6.14790018118080e-01 2.01885350354369e-04
4.32222222222222e-01 6.14782032776626e-01 2.05485478115309e-04
4.34444444444444e-01 6.14773923129708e-01 2.09148953293896e-04
4.36666666666667e-01 6.14765687240749e-01 2.12873448623796e-04
4.38888888888889e-01 6.14757323272977e-01 2.16656701254759e-04
4.41111111111111e-01 6.14748829486005e-01 2.20496511185511e-04
4.43333333333333e-01 6.14740204232526e-01 2.24390739724934e-04
4.45555555555556e-01 6.14731445955112e-01 2.28337308014934e-04
4.47777777777778e-01 6.14722553183107e-01 2.32334195549670e-04
4.50000000000000e-01 6.14713524529612e-01 2.36379438788981e-04
4.52222222222222e-01 6.14704358688575e-01 2.40471129777628e-04
4.54444444444444e-01 6.14695054431955e-01 2.44607414809249e-04
4.56666666666667e-01 6.14685610606983e-01 2.48786493113618e-04
4.58888888888889e-01 6.14676026133504e-01 2.53006615584628e-04
4.61111111111111e-01 6.14666300001397e-01 2.57266083552083e-04
4.63333333333333e-01 6.14656431268078e-01 2.61563247565367e-04
4.65555555555556e-01 6.14646419056074e-01 2.65896506231061e-04
4.67777777777778e-01 6.14636262550678e-01 2.70264305072584e-04
4.70000000000000e-01 6.14625960997662e-01 2.74665135385860e-04
4.72222222222222e-01 6.14615513701078e-01 2.79097533079679e-04
4.74444444444444e-01 6.14604920021111e-01 2.83560077511450e-04
4.76666666666667e-01 6.14594179372019e-01 2.88051390047022e-04
4.78888888888889e-01 6.14583291220146e-01 2.92570132482612e-04
4.81111111111111e-01 6.14572255082027e-01 2.97115005486320e-04
4.83333333333333e-01 6.14561070522564e-01 3.01684746771018e-04
4.85555555555556e-01 6.14549737153315e-01 3.06278129044374e-04
4.87777777777778e-01 6.14538254630864e-01 3.10893956422021e-04
4.90000000000000e-01 6.14526622655409e-01 3.15531064833227e-04
4.92222222222222e-01 6.14514840969132e-01 3.20188328852588e-04
4.94444444444444e-01 6.14502909354312e-01 3.24864664103201e-04
4.96666666666667e-01 6.14490827631549e-01 3.29559025894206e-04
4.98888888888889e-01 6.14478595658008e-01 3.34270408541396e-04
5.01111111111111e-01 6.14466213325747e-01 3.38943411253770e-04
5.03333333333333e-01 6.14453685130074e-01 3.43584315237985e-04
5.05555555555556e-01 6.14441010499716e-01 3.48253466461333e-04
5.07777777777778e-01 6.14428188927145e-01 3.52949180889429e-04
5.10000000000000e-01 6.14415219966523e-01 3.57669817461453e-04
5.12222222222222e-01 6.14402103231664e-01 3.62413777709941e-04
5.14444444444444e-01 6.14388838394055e-01 3.67179504866986e-04
5.16666666666667e-01 6.14375425180923e-01 3.71965482983255e-04
5.18888888888889e-01 6.14361863373363e-01 3.76770236068225e-04
5.21111111111111e-01 6.14348152804510e-01 3.81592327257021e-04
5.23333333333333e-01 6.14334293357767e-01 3.86430357993957e-04
5.25555555555556e-01 6.14320284965074e-01 3.91282967202609e-04
5.27777777777778e-01 6.14306127605231e-01 3.96148830519991e-04
5.30000000000000e-01 6.14291821302264e-01 4.01026659558947e-04
5.32222222222222e-01 6.14277366123828e-01 4.05915201120470e-04
5.34444444444444e-01 6.14262762179665e-01 4.10813236470677e-04
5.36666666666667e-01 6.14248009620097e-01 4.15719580629203e-04
5.38888888888889e-01 6.14233108634557e-01 4.20633081669549e-04
5.41111111111111e-01 6.14218059450168e-01 4.25552620033453e-04
5.43333333333333e-01 6.14202862330352e-01 4.30477107852005e-04
5.45555555555556e-01 6.14187517573481e-01 4.35405488297458e-04
5.47777777777778e-01 6.14172025511563e-01 4.40336734927171e-04
5.50000000000000e-01 6.14156386508966e-01 4.45269851060834e-04
5.52222222222222e-01 6.14140600961169e-01 4.50203869158584e-04
5.54444444444444e-01 6.14124669293560e-01 4.55137850241380e-04
5.56666666666667e-01 6.14108591960250e-01 4.60070883273786e-04
5.58888888888889e-01 6.14092369442931e-01 4.65002084575508e-04
5.61111111111111e-01 6.14076002249763e-01 4.69930597286119e-04
5.63333333333333e-01 6.14059490914287e-01 4.74855590807576e-04
5.65555555555556e-01 6.14042835994367e-01 4.79776260234043e-04
5.67777777777778e-01 6.14026038071171e-01 4.84691825837802e-04
5.70000000000000e-01 6.14009097748162e-01 4.89601532547447e-04
5.72222222222222e-01 6.13992015650133e-01 4.94504649365405e-04
5.74444444444444e-01 6.13974792422265e-01 4.99400468792893e-04
5.76666666666667e-01 6.13957428729210e-01 5.04288306061727e-04
5.78888888888889e-01 6.13939925254223e-01 5.09167498248832e-04
5.81111111111111e-01 6.13922282698325e-01 5.14037403366282e-04
5.83333333333333e-01 6.13904501779513e-01 5.18897399314553e-04
5.85555555555556e-01 6.13886583232007e-01 5.23746882851109e-04
5.87777777777778e-01 6.13868527805551e-01 5.28585267818551e-04
5.90000000000000e-01 6.13850336264790e-01 5.33411985163103e-04
5.92222222222222e-01 6.13832009388575e-01 5.38226487219843e-04
5.94444444444444e-01 6.13813547969055e-01 5.43028250293168e-04
5.96666666666667e-01 6.13794952810803e-01 5.47816774228859e-04
5.98888888888889e-01 6.13776224729954e-01 5.52591580379931e-04
6.01111111111111e-01 6.13757364553502e-01 5.57478091460665e-04
6.03333333333333e-01 6.13738364569810e-01 5.62722508857859e-04
6.05555555555556e-01 6.13719208942666e-01 5.68437966808210e-04
6.07777777777778e-01 6.13699882410686e-01 5.74609830613442e-04
6.10000000000000e-01 6.13680370271325e-01 5.81223817174989e-04
6.12222222222222e-01 6.13660658365337e-01 5.88265986247711e-04
6.14444444444444e-01 6.13640733061670e-01 5.95722732407977e-04
6.16666666666667e-01 6.13620581242751e-01 6.03580777166941e-04
6.18888888888889e-01 6.13600190290186e-01 6.11827161306383e-04
6.21111111111111e-01 6.13579548070833e-01 6.20449237399324e-04
6.23333333333333e-01 6.13558642923250e-01 6.29434662536768e-04
6.25555555555556e-01 6.13537463644516e-01 6.38771391210604e-04
6.27777777777778e-01 6.13515999477393e-01 6.48447668333599e-04
6.30000000000000e-01 6.13494240097843e-01 6.58452022488846e-04
6.32222222222222e-01 6.13472175602877e-01 6.68773259268197e-04
6.34444444444444e-01 6.13449796498727e-01 6.79400454823390e-04
6.36666666666667e-01 6.13427093689337e-01 6.90322949533854e-04
6.38888888888889e-01 6.13404058465167e-01 7.01530341806315e-04
6.41111111111111e-01 6.13380682492288e-01 7.13012482076931e-04
6.43333333333333e-01 6.13356957801780e-01 7.24759466880388e-04
6.45555555555556e-01 6.13332876779406e-01 7.36761633103234e-04
6.47777777777778e-01 6.13308432155570e-01 7.49009552352681e-04
6.50000000000000e-01 6.13283616995536e-01 7.61494025454018e-04
6.52222222222222e-01 6.13258424689917e-01 7.74206077091611e-04
6.54444444444444e-01 6.13232848945417e-01 7.87136950538989e-04
6.56666666666667e-01 6.13206883775820e-01 8.00278102540037e-04
6.58888888888889e-01 6.13180523493223e-01 8.13621198301902e-04
6.61111111111111e-01 6.13153762699499e-01 8.27158106586973e-04
6.63333333333333e-01 6.13126596277999e-01 8.40880894918360e-04
6.65555555555556e-01 6.13099019385472e-01 8.54781824920246e-04
6.67777777777778e-01 6.13071027444197e-01 8.68853347754937e-04
6.70000000000000e-01 6.13042616134335e-01 8.83088099618743e-04
6.72222222222222e-01 6.13013781386486e-01 8.97478897361557e-04
6.74444444444444e-01 6.12984519374441e-01 9.12018734141611e-04
6.76666666666667e-01 6.12954826508145e-01 9.26700775054825e-04
6.78888888888889e-01 6.12924699426846e-01 9.41518352798586e-04
6.81111111111111e-01 6.12894134992451e-01 9.56464963382801e-04
6.83333333333333e-01 6.12863130283063e-01 9.71534261775954e-04
6.85555555555556e-01 6.12831682586722e-01 9.86720057324361e-04
6.87777777777778e-01 6.12799789395344e-01 1.00201630861582e-03
6.90000000000000e-01 6.12767448398884e-01 1.01741712212422e-03
6.92222222222222e-01 6.12734657479439e-01 1.03291675277796e-03
6.94444444444444e-01 6.12701414705460e-01 1.04850959991147e-03
6.96666666666667e-01 6.12667718326218e-01 1.06419020271832e-03
6.98888888888889e-01 6.12633566766397e-01 1.07995323885547e-03
7.01111111111111e-01 6.12598958620710e-01 1.09595508012819e-03
