Energy (eV)          EEDF (eV^-(3/2))     First Anisotropy
4.28000000000000e-02 7.26047088427813e-02 5.42381870055224e-05
1.28400000000000e-01 7.16089647257560e-02 8.92485411973049e-05
2.14000000000000e-01 7.06268768351464e-02 1.16988947436289e-04
2.99600000000000e-01 6.96582578813894e-02 1.37565681143714e-04
3.85200000000000e-01 6.87029231434896e-02 1.54319821159976e-04
4.70800000000000e-01 6.77606904338202e-02 1.68527809630707e-04
5.56400000000000e-01 6.68313800633823e-02 1.80856764893753e-04
6.42000000000000e-01 6.59148148075382e-02 1.91713421826681e-04
7.27600000000000e-01 6.50108198722138e-02 2.01370078451465e-04
8.13200000000000e-01 6.41192228605646e-02 2.10020970218986e-04
8.98800000000000e-01 6.32398537400991e-02 2.17811184590924e-04
9.84400000000000e-01 6.23725448102521e-02 2.24852969016196e-04
1.07000000000000e+00 6.15171306704037e-02 2.31235600171532e-04
1.15560000000000e+00 6.06734481883362e-02 2.37031691634731e-04
1.24120000000000e+00 5.98413364691241e-02 2.42301405106205e-04
1.32680000000000e+00 5.90206368244507e-02 2.47095364351437e-04
1.41240000000000e+00 5.82111927423450e-02 2.51456732682378e-04
1.49800000000000e+00 5.74128498573341e-02 2.55422732173313e-04
1.58360000000000e+00 5.66254559210049e-02 2.59025779171541e-04
1.66920000000000e+00 5.58488607729698e-02 2.62294349309298e-04
1.75480000000000e+00 5.50829163122296e-02 2.65253647559340e-04
1.84040000000000e+00 5.43274764689305e-02 2.67926135017297e-04
1.92600000000000e+00 5.35823971765071e-02 2.70331948557105e-04
2.01160000000000e+00 5.28475363442088e-02 2.72489239139277e-04
2.09720000000000e+00 5.21227538300020e-02 2.74414447483456e-04
2.18280000000000e+00 5.14079114138439e-02 2.76122530902258e-04
2.26840000000000e+00 5.07028727713238e-02 2.77627151616508e-04
2.35400000000000e+00 5.00075034476648e-02 2.78940834372280e-04
2.43960000000000e+00 4.93216708320828e-02 2.80075099356770e-04
2.52520000000000e+00 4.86452441324967e-02 2.81040575062514e-04
2.61080000000000e+00 4.79780943505858e-02 2.81847094741151e-04
2.69640000000000e+00 4.73200942571889e-02 2.82503779324833e-04
2.78200000000000e+00 4.66711183680413e-02 2.83019109110030e-04
2.86760000000000e+00 4.60310429198439e-02 2.83400986048196e-04
2.95320000000000e+00 4.53997458466611e-02 2.83656788136766e-04
3.03880000000000e+00 4.47771067566421e-02 2.83793417128373e-04
3.12440000000000e+00 4.41630069090612e-02 2.83817340558119e-04
3.21000000000000e+00 4.35573291916740e-02 2.83734628914399e-04
3.29560000000000e+00 4.29599580983827e-02 2.83550988639230e-04
3.38120000000000e+00 4.23707797072088e-02 2.83271791530909e-04
3.46680000000000e+00 4.17896816585677e-02 2.82902101029970e-04
3.55240000000000e+00 4.12165531338406e-02 2.82446695794226e-04
3.63800000000000e+00 4.06512848342413e-02 2.81910090906729e-04
3.72360000000000e+00 4.00937689599720e-02 2.81296557009521e-04
3.80920000000000e+00 3.95438991896654e-02 2.80610137613410e-04
3.89480000000000e+00 3.90015706601088e-02 2.79854664798577e-04
3.98040000000000e+00 3.84666799462455e-02 2.79033773491062e-04
4.06600000000000e+00 3.79391250414519e-02 2.78150914475116e-04
4.15160000000000e+00 3.74188053380834e-02 2.77209366280247e-04
4.23720000000000e+00 3.69056216082889e-02 2.76212246063779e-04
4.32280000000000e+00 3.63994759850867e-02 2.75162519594436e-04
4.40840000000000e+00 3.59002719437011e-02 2.74063010429302e-04
4.49400000000000e+00 3.54079142831545e-02 2.72916408365358e-04
4.57960000000000e+00 3.49223091081122e-02 2.71725277237070e-04
4.66520000000000e+00 3.44433638109758e-02 2.70492062123160e-04
4.75080000000000e+00 3.39709870542225e-02 2.69219096018433e-04
4.83640000000000e+00 3.35050887529867e-02 2.67908606020272e-04
4.92200000000000e+00 3.30455800578800e-02 2.66562719073984e-04
5.00760000000000e+00 3.25923733380474e-02 2.65183467316301e-04
5.09320000000000e+00 3.21453821644555e-02 2.63772793052212e-04
5.17880000000000e+00 3.17045212934101e-02 2.62332553396639e-04
5.26440000000000e+00 3.12697066502995e-02 2.60864524609252e-04
5.35000000000000e+00 3.08408553135613e-02 2.59370406147827e-04
5.43560000000000e+00 3.04178854988686e-02 2.57851824462999e-04
5.52120000000000e+00 3.00007165435335e-02 2.56310336555136e-04
5.60680000000000e+00 2.95892688911240e-02 2.54747433312024e-04
5.69240000000000e+00 2.91834640762924e-02 2.53164542644283e-04
5.77800000000000e+00 2.87832247098111e-02 2.51563032433861e-04
5.86360000000000e+00 2.83884744638147e-02 2.49944213309567e-04
5.94920000000000e+00 2.79991380572434e-02 2.48309341262381e-04
6.03480000000000e+00 2.76151412414865e-02 2.46659620112088e-04
6.12040000000000e+00 2.72364107862229e-02 2.44996203835855e-04
6.20600000000000e+00 2.68628744654557e-02 2.43320198768359e-04
6.29160000000000e+00 2.64944610437381e-02 2.41632665682362e-04
6.37720000000000e+00 2.61311002625887e-02 2.39934621757884e-04
6.46280000000000e+00 2.57727228270925e-02 2.38227042447358e-04
6.54840000000000e+00 2.54192603926863e-02 2.36510863243638e-04
6.63400000000000e+00 2.50706455521248e-02 2.34786981357200e-04
6.71960000000000e+00 2.47268118226256e-02 2.33056257308314e-04
6.80520000000000e+00 2.43876936331907e-02 2.31319516439572e-04
6.89080000000000e+00 2.40532263121020e-02 2.29577550353681e-04
6.97640000000000e+00 2.37233460745875e-02 2.27831118281165e-04
7.06200000000000e+00 2.33979900106574e-02 2.26080948382180e-04
7.14760000000000e+00 2.30770960731070e-02 2.24327738986352e-04
7.23320000000000e+00 2.27606030656840e-02 2.22572159774330e-04
7.31880000000000e+00 2.24484506314177e-02 2.20814852904412e-04
7.40440000000000e+00 2.21405792411086e-02 2.19056434087411e-04
7.49000000000000e+00 2.18369301819762e-02 2.17297493612646e-04
7.57560000000000e+00 2.15374455464620e-02 2.15538597327841e-04
7.66120000000000e+00 2.12420682211862e-02 2.13780287575470e-04
7.74680000000000e+00 2.09507418760555e-02 2.12023084087857e-04
7.83240000000000e+00 2.06634109535213e-02 2.10267484843324e-04
7.91800000000000e+00 2.03800206579841e-02 2.08513966885438e-04
8.00360000000000e+00 2.01005169453439e-02 2.06762987107275e-04
8.08920000000000e+00 1.98248465126935e-02 2.05014983002526e-04
8.17480000000000e+00 1.95529567881535e-02 2.03270373385160e-04
8.26040000000000e+00 1.92847959208463e-02 2.01529559079224e-04
8.34600000000000e+00 1.90203127710084e-02 1.99792923580277e-04
8.43160000000000e+00 1.87594569002372e-02 1.98060833689878e-04
8.51720000000000e+00 1.85021785618722e-02 1.96333640124450e-04
8.60280000000000e+00 1.82484286915084e-02 1.94611678099733e-04
8.68840000000000e+00 1.79981588976391e-02 1.92895267892034e-04
8.77400000000000e+00 1.77513214524274e-02 1.91184715377369e-04
8.85960000000000e+00 1.75078692826044e-02 1.89480312549499e-04
8.94520000000000e+00 1.72677559604921e-02 1.87782338017900e-04
9.03080000000000e+00 1.70309356951490e-02 1.86091057486566e-04
9.11640000000000e+00 1.67973633236379e-02 1.84406724214495e-04
9.20200000000000e+00 1.65669943024130e-02 1.82729579458700e-04
9.28760000000000e+00 1.63397846988251e-02 1.81059852900562e-04
9.37320000000000e+00 1.61156911827435e-02 1.79397763056211e-04
9.45880000000000e+00 1.58946710182927e-02 1.77743517671660e-04
9.54440000000000e+00 1.56766820557022e-02 1.76097314103343e-04
9.63000000000000e+00 1.54616827232686e-02 1.74459339684709e-04
9.71560000000000e+00 1.52496320194277e-02 1.72829772079449e-04
9.80120000000000e+00 1.50404895049349e-02 1.71208779621902e-04
9.88680000000000e+00 1.48342152951534e-02 1.69596521645230e-04
9.97240000000000e+00 1.46307700524483e-02 1.67993148797829e-04
1.00580000000000e+01 1.44301149786841e-02 1.66398803348458e-04
1.01436000000000e+01 1.42322118078261e-02 1.64813619480574e-04
1.02292000000000e+01 1.40370227986427e-02 1.63237723576292e-04
1.03148000000000e+01 1.38445107275080e-02 1.61671234490397e-04
1.04004000000000e+01 1.36546388813031e-02 1.60114263814799e-04
1.04860000000000e+01 1.34673710504145e-02 1.58566916133814e-04
1.05716000000000e+01 1.32826715218290e-02 1.57029289270606e-04
1.06572000000000e+01 1.31005050723226e-02 1.55501474525177e-04
1.07428000000000e+01 1.29208369617438e-02 1.53983556904209e-04
1.08284000000000e+01 1.27436329263882e-02 1.52475615343068e-04
1.09140000000000e+01 1.25688591724640e-02 1.50977722920273e-04
1.09996000000000e+01 1.23964823696476e-02 1.49489947064716e-04
1.10852000000000e+01 1.22264696447273e-02 1.48012349755912e-04
1.11708000000000e+01 1.20587885753342e-02 1.46544987717517e-04
1.12564000000000e+01 1.18934071837590e-02 1.45087912604388e-04
1.13420000000000e+01 1.17302939308537e-02 1.43641171183420e-04
1.14276000000000e+01 1.15694177100168e-02 1.42204805508368e-04
1.15132000000000e+01 1.14107478412614e-02 1.40778853088898e-04
1.15988000000000e+01 1.12542540653641e-02 1.39363347054055e-04
1.16844000000000e+01 1.10999065380944e-02 1.37958316310359e-04
1.17700000000000e+01 1.09476758245234e-02 1.36563785694722e-04
1.18556000000000e+01 1.07975328934103e-02 1.35179776122362e-04
1.19412000000000e+01 1.06494491116659e-02 1.33806304729899e-04
1.20268000000000e+01 1.05033962388923e-02 1.32443385013790e-04
1.21124000000000e+01 1.03593464219972e-02 1.31091026964280e-04
1.21980000000000e+01 1.02172721898821e-02 1.29749237195022e-04
1.22836000000000e+01 1.00771464482033e-02 1.28418019068493e-04
1.23692000000000e+01 9.93894247420548e-03 1.27097372817391e-04
1.24548000000000e+01 9.80263391162463e-03 1.25787295662118e-04
1.25404000000000e+01 9.66819476566242e-03 1.24487781924480e-04
1.26260000000000e+01 9.53559939802855e-03 1.23198823137761e-04
1.27116000000000e+01 9.40482252205152e-03 1.21920408153257e-04
1.27972000000000e+01 9.27583919785622e-03 1.20652523243425e-04
1.28828000000000e+01 9.14862482760784e-03 1.19395152201731e-04
1.29684000000000e+01 9.02315515082088e-03 1.18148276439308e-04
1.30540000000000e+01 8.89940623973256e-03 1.16911875078564e-04
1.31396000000000e+01 8.77735449473963e-03 1.15685925043781e-04
1.32252000000000e+01 8.65697663989787e-03 1.14470401148860e-04
1.33108000000000e+01 8.53824971848314e-03 1.13265276182270e-04
1.33964000000000e+01 8.42115108861348e-03 1.12070520989303e-04
1.34820000000000e+01 8.30565841893114e-03 1.10886104551735e-04
1.35676000000000e+01 8.19174968434390e-03 1.09711994064936e-04
1.36532000000000e+01 8.07940316182472e-03 1.08548155012572e-04
1.37388000000000e+01 7.96859742626907e-03 1.07394551238915e-04
1.38244000000000e+01 7.85931134640904e-03 1.06251145018874e-04
1.39100000000000e+01 7.75152408078347e-03 1.05117897125816e-04
1.39956000000000e+01 7.64521507376338e-03 1.03994766897223e-04
1.40812000000000e+01 7.54036405163193e-03 1.02881712298286e-04
1.41668000000000e+01 7.43695101871803e-03 1.01778689983472e-04
1.42524000000000e+01 7.33495625358314e-03 1.00685655356153e-04
1.43380000000000e+01 7.23436030526024e-03 9.96025626263404e-05
1.44236000000000e+01 7.13514398954442e-03 9.85293648665742e-05
1.45092000000000e+01 7.03728838533437e-03 9.74660140660642e-05
1.45948000000000e+01 6.94077483102398e-03 9.64124611830834e-05
1.46804000000000e+01 6.84558492094353e-03 9.53686561957126e-05
1.47660000000000e+01 6.75170050184956e-03 9.43345481509660e-05
1.48516000000000e+01 6.65910366946300e-03 9.33100852123429e-05
1.49372000000000e+01 6.56777676505468e-03 9.22952147058716e-05
1.50228000000000e+01 6.47770237207775e-03 9.12898831646734e-05
1.51084000000000e+01 6.38886331284623e-03 9.02940363720988e-05
1.51940000000000e+01 6.30124264525912e-03 8.93076194034862e-05
1.52796000000000e+01 6.21482365956947e-03 8.83305766665768e-05
1.53652000000000e+01 6.12958987519774e-03 8.73628519406191e-05
1.54508000000000e+01 6.04552503758881e-03 8.64043884142235e-05
1.55364000000000e+01 5.96261311511224e-03 8.54551287219878e-05
1.56220000000000e+01 5.88083829600486e-03 8.45150149799299e-05
1.57076000000000e+01 5.80018498535542e-03 8.35839888197717e-05
1.57932000000000e+01 5.72063780213056e-03 8.26619914221131e-05
1.58788000000000e+01 5.64218157624155e-03 8.17489635485089e-05
1.59644000000000e+01 5.56480134565124e-03 8.08448455724981e-05
1.60500000000000e+01 5.48848235352080e-03 7.99495775096210e-05
1.61356000000000e+01 5.41321004539541e-03 7.90630990464343e-05
1.62212000000000e+01 5.33897006642872e-03 7.81853495685708e-05
1.63068000000000e+01 5.26574825864526e-03 7.73162681878654e-05
1.63924000000000e+01 5.19353065824044e-03 7.64557937685809e-05
1.64780000000000e+01 5.12230349291761e-03 7.56038649527507e-05
1.65636000000000e+01 5.05205317926154e-03 7.47604201846665e-05
1.66492000000000e+01 4.98276632014806e-03 7.39253977345449e-05
1.67348000000000e+01 4.91442970218912e-03 7.30987357213927e-05
1.68204000000000e+01 4.84703029321290e-03 7.22803721350847e-05
1.69060000000000e+01 4.78055523977855e-03 7.14702448576958e-05
1.69916000000000e+01 4.71499186472493e-03 7.06682916840934e-05
1.70772000000000e+01 4.65032766475304e-03 6.98744503418144e-05
1.71628000000000e+01 4.58655030804154e-03 6.90886585102613e-05
1.72484000000000e+01 4.52364763189501e-03 6.83108538392172e-05
1.73340000000000e+01 4.46160764042447e-03 6.75409739667141e-05
1.74196000000000e+01 4.40041850225968e-03 6.67789565362657e-05
1.75052000000000e+01 4.34006854829285e-03 6.60247392134913e-05
1.75908000000000e+01 4.28054626945327e-03 6.52782597021429e-05
1.76764000000000e+01 4.22184031451246e-03 6.45394557595530e-05
1.77620000000000e+01 4.16393948791943e-03 6.38082652115183e-05
1.78476000000000e+01 4.10683274766562e-03 6.30846259666417e-05
1.79332000000000e+01 4.05050920317916e-03 6.23684760301481e-05
1.80188000000000e+01 3.99495811324794e-03 6.16597535171787e-05
1.81044000000000e+01 3.94016888397120e-03 6.09583966655985e-05
1.81900000000000e+01 3.88613106673926e-03 6.02643438483088e-05
1.82756000000000e+01 3.83283435624085e-03 5.95775335850960e-05
1.83612000000000e+01 3.78026858849789e-03 5.88979045540275e-05
1.84468000000000e+01 3.72842373892712e-03 5.82253956023993e-05
1.85324000000000e+01 3.67728992042838e-03 5.75599457572564e-05
1.86180000000000e+01 3.62685738149906e-03 5.69014942355000e-05
1.87036000000000e+01 3.57711650437446e-03 5.62499804535853e-05
1.87892000000000e+01 3.52805780319363e-03 5.56053440368287e-05
1.88748000000000e+01 3.47967192219033e-03 5.49675248283370e-05
1.89604000000000e+01 3.43194963390889e-03 5.43364628975625e-05
1.90460000000000e+01 3.38488183744442e-03 5.37120985485035e-05
1.91316000000000e+01 3.33845955670726e-03 5.30943723275533e-05
1.92172000000000e+01 3.29267393871117e-03 5.24832250310135e-05
1.93028000000000e+01 3.24751625188503e-03 5.18785977122810e-05
1.93884000000000e+01 3.20297788440768e-03 5.12804316887122e-05
1.94740000000000e+01 3.15905034256558e-03 5.06886685481834e-05
1.95596000000000e+01 3.11572524913304e-03 5.01032501553532e-05
1.96452000000000e+01 3.07299434177459e-03 4.95241186576287e-05
1.97308000000000e+01 3.03084947146937e-03 4.89512164908529e-05
1.98164000000000e+01 2.98928260095703e-03 4.83844863847223e-05
1.99020000000000e+01 2.94828580320497e-03 4.78238713679352e-05
1.99876000000000e+01 2.90785125989663e-03 4.72693147730837e-05
2.00732000000000e+01 2.86797125994048e-03 4.67207602412968e-05
2.01588000000000e+01 2.82863819799951e-03 4.61781517266457e-05
2.02444000000000e+01 2.78984457304079e-03 4.56414335003104e-05
2.03300000000000e+01 2.75158298690503e-03 4.51105501545194e-05
2.04156000000000e+01 2.71384614289569e-03 4.45854466062707e-05
2.05012000000000e+01 2.67662684438745e-03 4.40660681008371e-05
2.05868000000000e+01 2.63991799345379e-03 4.35523602150682e-05
2.06724000000000e+01 2.60371258951339e-03 4.30442688604922e-05
2.07580000000000e+01 2.56800372799504e-03 4.25417402862154e-05
2.08436000000000e+01 2.53278459902094e-03 4.20447210816435e-05
2.09292000000000e+01 2.49804848610797e-03 4.15531581790147e-05
2.10148000000000e+01 2.46378876488689e-03 4.10669988557547e-05
2.11004000000000e+01 2.42999890183897e-03 4.05861907366695e-05
2.11860000000000e+01 2.39667245305004e-03 4.01106817959598e-05
2.12716000000000e+01 2.36380306298161e-03 3.96404203590825e-05
2.13572000000000e+01 2.33138446325881e-03 3.91753551044561e-05
2.14428000000000e+01 2.29941047147499e-03 3.87154350650159e-05
2.15284000000000e+01 2.26787499001269e-03 3.82606096296184e-05
2.16140000000000e+01 2.23677200488083e-03 3.78108285443096e-05
2.16996000000000e+01 2.20609558456774e-03 3.73660419134580e-05
2.17852000000000e+01 2.17583987891004e-03 3.69262002007485e-05
2.18708000000000e+01 2.14599911797697e-03 3.64912542300546e-05
2.19564000000000e+01 2.11656761097003e-03 3.60611551861886e-05
2.20420000000000e+01 2.08753974513770e-03 3.56358546155235e-05
2.21276000000000e+01 2.05890998470508e-03 3.52153044265077e-05
2.22132000000000e+01 2.03067286981817e-03 3.47994568900669e-05
2.22988000000000e+01 2.00282301550266e-03 3.43882646398909e-05
2.23844000000000e+01 1.97535511063698e-03 3.39816806726252e-05
2.24700000000000e+01 1.94826391693942e-03 3.35796583479572e-05
2.25556000000000e+01 1.92154426796918e-03 3.31821513886040e-05
2.26412000000000e+01 1.89519106814112e-03 3.27891138802081e-05
2.27268000000000e+01 1.86919929175396e-03 3.24005002711416e-05
2.28124000000000e+01 1.84356398203189e-03 3.20162653722258e-05
2.28980000000000e+01 1.81828025017925e-03 3.16363643563614e-05
2.29836000000000e+01 1.79334327444825e-03 3.12607527580770e-05
2.30692000000000e+01 1.76874829921940e-03 3.08893864730038e-05
2.31548000000000e+01 1.74449063409460e-03 3.05222217572701e-05
2.32404000000000e+01 1.72056565300266e-03 3.01592152268257e-05
2.33260000000000e+01 1.69696879331709e-03 2.98003238566959e-05
2.34116000000000e+01 1.67369555498596e-03 2.94455049801619e-05
2.34972000000000e+01 1.65074149967372e-03 2.90947162878819e-05
2.35828000000000e+01 1.62810224991480e-03 2.87479158269484e-05
2.36684000000000e+01 1.60577348827879e-03 2.84050619998828e-05
2.37540000000000e+01 1.58375095654709e-03 2.80661135635732e-05
2.38396000000000e+01 1.56203045490084e-03 2.77310296281581e-05
2.39252000000000e+01 1.54060784111999e-03 2.73997696558538e-05
2.40108000000000e+01 1.51947902979334e-03 2.70722934597282e-05
2.40964000000000e+01 1.49863999153948e-03 2.67485612024301e-05
2.41820000000000e+01 1.47808675223831e-03 2.64285333948674e-05
2.42676000000000e+01 1.45781539227318e-03 2.61121708948394e-05
2.43532000000000e+01 1.43782204578337e-03 2.57994349056301e-05
2.44388000000000e+01 1.41810289992692e-03 2.54902869745541e-05
2.45244000000000e+01 1.39865419415340e-03 2.51846889914638e-05
2.46100000000000e+01 1.37947221948682e-03 2.48826031872210e-05
2.46956000000000e+01 1.36055331781831e-03 2.45839921321281e-05
2.47812000000000e+01 1.34189388120846e-03 2.42888187343260e-05
2.48668000000000e+01 1.32349035119928e-03 2.39970462381586e-05
2.49524000000000e+01 1.30533921813559e-03 2.37086382225074e-05
2.50380000000000e+01 1.28743702049573e-03 2.34235585990913e-05
2.51236000000000e+01 1.26978034423137e-03 2.31417716107393e-05
2.52092000000000e+01 1.25236582211649e-03 2.28632418296376e-05
2.52948000000000e+01 1.23519013310519e-03 2.25879341555491e-05
2.53804000000000e+01 1.21825000169840e-03 2.23158138140078e-05
2.54660000000000e+01 1.20154219731915e-03 2.20468463544897e-05
2.55516000000000e+01 1.18506353369655e-03 2.17809976485613e-05
2.56372000000000e+01 1.16881086825811e-03 2.15182338880084e-05
2.57228000000000e+01 1.15278110153045e-03 2.12585215829444e-05
2.58084000000000e+01 1.13697117654821e-03 2.10018275598985e-05
2.58940000000000e+01 1.12137807827106e-03 2.07481189598871e-05
2.59796000000000e+01 1.10599883300875e-03 2.04973632364707e-05
2.60652000000000e+01 1.09083050785396e-03 2.02495281537921e-05
2.61508000000000e+01 1.07587021012301e-03 2.00045817846019e-05
2.62364000000000e+01 1.06111508680420e-03 1.97624925082721e-05
2.63220000000000e+01 1.04656232401374e-03 1.95232290087921e-05
2.64076000000000e+01 1.03220914645910e-03 1.92867602727582e-05
2.64932000000000e+01 1.01805281690978e-03 1.90530555873514e-05
2.65788000000000e+01 1.00409063567526e-03 1.88220845383035e-05
2.66644000000000e+01 9.90319940090187e-04 1.85938170078550e-05
2.67500000000000e+01 9.76738104006601e-04 1.83682231727060e-05
2.68356000000000e+01 9.63342537293078e-04 1.81452735019589e-05
2.69212000000000e+01 9.50130685340800e-04 1.79249387550542e-05
2.70068000000000e+01 9.37100028576372e-04 1.77071899797006e-05
