Energy (eV)          EEDF (eV^-(3/2))     First Anisotropy
1.62000000000000e-01 1.07551612290753e-01 1.74938558500592e-04
4.86000000000000e-01 1.00356569051874e-01 2.80152503775353e-04
8.10000000000000e-01 9.36428635271091e-02 3.47427738157597e-04
1.13400000000000e+00 8.73782949377644e-02 3.86505814380620e-04
1.45800000000000e+00 8.15328166894496e-02 4.10198354035610e-04
1.78200000000000e+00 7.60783922603455e-02 4.23808879481991e-04
2.10600000000000e+00 7.09888607303316e-02 4.30288269743828e-04
2.43000000000000e+00 6.62398113060168e-02 4.31522595093875e-04
2.75400000000000e+00 6.18084662398584e-02 4.28817237437507e-04
3.07800000000000e+00 5.76735715818186e-02 4.23122606310580e-04
3.40200000000000e+00 5.38152952395728e-02 4.15154757421686e-04
3.72600000000000e+00 5.02151318583393e-02 4.05466279317756e-04
4.05000000000000e+00 4.68558140641062e-02 3.94490987649703e-04
4.37400000000000e+00 4.37212296445555e-02 3.82573670802299e-04
4.69800000000000e+00 4.07963442704605e-02 3.69990751226370e-04
5.02200000000000e+00 3.80671293869063e-02 3.56965140106948e-04
5.34600000000000e+00 3.55204949284811e-02 3.43677222837971e-04
5.67000000000000e+00 3.31442265357218e-02 3.30273175029085e-04
5.99400000000000e+00 3.09269269716850e-02 3.16871381647266e-04
6.31800000000000e+00 2.88579614576639e-02 3.03567473826114e-04
6.64200000000000e+00 2.69274066658631e-02 2.90438336124026e-04
6.96600000000000e+00 2.51260031243893e-02 2.77545332344556e-04
7.29000000000000e+00 2.34451108062762e-02 2.64936928377274e-04
7.61400000000000e+00 2.18766676895385e-02 2.52650842996726e-04
7.93800000000000e+00 2.04131510894962e-02 2.40715824409517e-04
8.26200000000000e+00 1.90475415779098e-02 2.29153126751967e-04
8.58600000000000e+00 1.77732893158709e-02 2.17977743650966e-04
8.91000000000000e+00 1.65842826389733e-02 2.07199443374412e-04
9.23400000000000e+00 1.54748187440887e-02 1.96823640689094e-04
9.55800000000000e+00 1.44395763371545e-02 1.86852133414449e-04
9.88200000000000e+00 1.34735901107828e-02 1.77283726190326e-04
1.02060000000000e+01 1.25722269292812e-02 1.68114759731517e-04
1.05300000000000e+01 1.17311636068584e-02 1.59339560511997e-04
1.08540000000000e+01 1.09463661724366e-02 1.50950823184933e-04
1.11780000000000e+01 1.02140705216157e-02 1.42939935937484e-04
1.15020000000000e+01 9.53076436299380e-03 1.35297257281961e-04
1.18260000000000e+01 8.89317037225073e-03 1.28012351406973e-04
1.21500000000000e+01 8.29823047319941e-03 1.21074188085766e-04
1.24740000000000e+01 7.74309117041101e-03 1.14471312212202e-04
1.27980000000000e+01 7.22508986306582e-03 1.08191987267749e-04
1.31220000000000e+01 6.74174207438727e-03 1.02224316384503e-04
1.34460000000000e+01 6.29072953540779e-03 9.65563441352984e-05
1.37700000000000e+01 5.86988906591306e-03 9.11761417332183e-05
1.40940000000000e+01 5.47720219923462e-03 8.60718779441366e-05
1.44180000000000e+01 5.11078550112840e-03 8.12318776950020e-05
1.47420000000000e+01 4.76888153630593e-03 7.66446700877064e-05
1.50660000000000e+01 4.44985043929126e-03 7.22990272955337e-05
1.53900000000000e+01 4.15216204917496e-03 6.81839956199146e-05
1.57140000000000e+01 3.87438857054142e-03 6.42889198141788e-05
1.60380000000000e+01 3.61519772536929e-03 6.06034616338432e-05
1.63620000000000e+01 3.37334636305952e-03 5.71176134460548e-05
1.66860000000000e+01 3.14767449794312e-03 5.38217076211167e-05
1.70100000000000e+01 2.93709974567076e-03 5.07064223340435e-05
1.73340000000000e+01 2.74061213179963e-03 4.77627843217058e-05
1.76580000000000e+01 2.55726924767820e-03 4.49821690695490e-05
1.79820000000000e+01 2.38619173039506e-03 4.23562988396045e-05
1.83060000000000e+01 2.22655904511243e-03 3.98772388972867e-05
1.86300000000000e+01 2.07760554955540e-03 3.75373922471852e-05
1.89540000000000e+01 1.93861682178091e-03 3.53294931468007e-05
1.92780000000000e+01 1.80892623361358e-03 3.32465996311401e-05
1.96020000000000e+01 1.68791175331357e-03 3.12820852496045e-05
1.99260000000000e+01 1.57499296214127e-03 2.94296301890755e-05
2.02500000000000e+01 1.46962827050929e-03 2.76832119330359e-05
2.05740000000000e+01 1.37131232036985e-03 2.60370955855113e-05
2.08980000000000e+01 1.27957356137853e-03 2.44858239702041e-05
2.12220000000000e+01 1.19397198920910e-03 2.30242075990915e-05
2.15460000000000e+01 1.11409703517172e-03 2.16473145906800e-05
2.18700000000000e+01 1.03956559701254e-03 2.03504606058074e-05
2.21940000000000e+01 9.70020201449935e-04 1.91291988581397e-05
2.25180000000000e+01 9.05127289634248e-04 1.79793102471322e-05
2.28420000000000e+01 8.44575617307826e-04 1.68967936530514e-05
2.31660000000000e+01 7.88074761991912e-04 1.58778564265366e-05
2.34900000000000e+01 7.35353730040549e-04 1.49189050989881e-05
2.38140000000000e+01 6.86159656880496e-04 1.40165363346980e-05
2.41380000000000e+01 6.40256594203170e-04 1.31675281409826e-05
2.44620000000000e+01 5.97424378291652e-04 1.23688313485518e-05
2.47860000000000e+01 5.57457574054923e-04 1.16175613708802e-05
2.51100000000000e+01 5.20164489704658e-04 1.09109902483643e-05
2.54340000000000e+01 4.85366257348671e-04 1.02465389804920e-05
2.57580000000000e+01 4.52895975091293e-04 9.62177014707885e-06
2.60820000000000e+01 4.22597906525970e-04 9.03438081777099e-06
2.64060000000000e+01 3.94326733780606e-04 8.48219574746025e-06
2.67300000000000e+01 3.67946860533076e-04 7.96316085394852e-06
2.70540000000000e+01 3.43331761653958e-04 7.47533697311528e-06
2.73780000000000e+01 3.20363376357206e-04 7.01689388595192e-06
2.77020000000000e+01 2.98931541948140e-04 6.58610461110277e-06
2.80260000000000e+01 2.78933465452854e-04 6.18133995597963e-06
2.83500000000000e+01 2.60273230594837e-04 5.80106331906825e-06
2.86740000000000e+01 2.42861337754122e-04 5.44382573570848e-06
2.89980000000000e+01 2.26614274702486e-04 5.10826115938906e-06
2.93220000000000e+01 2.11454116055827e-04 4.79308197043915e-06
2.96460000000000e+01 1.97308149522590e-04 4.49707470391084e-06
2.99700000000000e+01 1.84108527155605e-04 4.21909598841944e-06
3.02940000000000e+01 1.71791939934672e-04 3.95806868773212e-06
3.06180000000000e+01 1.60299314119083e-04 3.71297823696346e-06
3.09420000000000e+01 1.49575527913707e-04 3.48286916533954e-06
3.12660000000000e+01 1.39569147089699e-04 3.26684179762737e-06
3.15900000000000e+01 1.30232178291786e-04 3.06404912648552e-06
3.19140000000000e+01 1.21519838848936e-04 2.87369384817128e-06
3.22380000000000e+01 1.13390341984342e-04 2.69502555423592e-06
3.25620000000000e+01 1.05804696394547e-04 2.52733807204819e-06
3.28860000000000e+01 9.87265192364277e-05 2.36996694720433e-06
3.32100000000000e+01 9.21218616250676e-05 2.22228706110799e-06
3.35340000000000e+01 8.59590458055653e-05 2.08371037723332e-06
3.38580000000000e+01 8.02085132178075e-05 1.95368380981659e-06
3.41820000000000e+01 7.48426827254832e-05 1.83168720895517e-06
3.45060000000000e+01 6.98358183293658e-05 1.71723145632511e-06
3.48300000000000e+01 6.51639057303808e-05 1.60985666595952e-06
3.51540000000000e+01 6.08045371504207e-05 1.50913048475818e-06
3.54780000000000e+01 5.67368038584768e-05 1.41464648762270e-06
3.58020000000000e+01 5.29411958866132e-05 1.32602266233195e-06
3.61260000000000e+01 4.93995084547929e-05 1.24289997948704e-06
3.64500000000000e+01 4.60947546557446e-05 1.16494104306477e-06
3.67740000000000e+01 4.30110839810825e-05 1.09182881732202e-06
3.70980000000000e+01 4.01337062979069e-05 1.02326542599112e-06
3.74220000000000e+01 3.74488209112583e-05 9.58971019897240e-07
3.77460000000000e+01 3.49435503721878e-05 8.98682709313832e-07
3.80700000000000e+01 3.26058787139687e-05 8.42153557550074e-07
3.83940000000000e+01 3.04245938202150e-05 7.89151632436036e-07
3.87180000000000e+01 2.83892336484864e-05 7.39459112536250e-07
3.90420000000000e+01 2.64900360514544e-05 6.92871445080922e-07
3.93660000000000e+01 2.47178919549583e-05 6.49196552756059e-07
3.96900000000000e+01 2.30643016683795e-05 6.08254086639568e-07
4.00140000000000e+01 2.15213341177869e-05 5.69874722709783e-07
4.03380000000000e+01 2.00815888063243e-05 5.33899499486388e-07
4.06620000000000e+01 1.87381603193919e-05 5.00179194491090e-07
4.09860000000000e+01 1.74846052043779e-05 4.68573737337100e-07
4.13100000000000e+01 1.63149110660869e-05 4.38951657372607e-07
4.16340000000000e+01 1.52234677296390e-05 4.11189563913999e-07
4.19580000000000e+01 1.42050403325272e-05 3.85171657210044e-07
4.22820000000000e+01 1.32547442167771e-05 3.60789268378538e-07
4.26060000000000e+01 1.23680215007830e-05 3.37940426652368e-07
4.29300000000000e+01 1.15406192184541e-05 3.16529452362710e-07
4.32540000000000e+01 1.07685689208189e-05 2.96466574173287e-07
4.35780000000000e+01 1.00481676422524e-05 2.77667569161506e-07
4.39020000000000e+01 9.37596014003407e-06 2.60053424420062e-07
4.42260000000000e+01 8.74872232205337e-06 2.43550018926302e-07
4.45500000000000e+01 8.16344578317681e-06 2.28087824496667e-07
4.48740000000000e+01 7.61732337610940e-06 2.13601624709792e-07
4.51980000000000e+01 7.10773574754395e-06 2.00030250744698e-07
4.55220000000000e+01 6.63223877502199e-06 1.87316333140052e-07
4.58460000000000e+01 6.18855184425005e-06 1.75406068536815e-07
4.61700000000000e+01 5.77454691064613e-06 1.64249000519956e-07
4.64940000000000e+01 5.38823829265240e-06 1.53797813725386e-07
4.68180000000000e+01 5.02777314786020e-06 1.44008140426024e-07
4.71420000000000e+01 4.69142258626808e-06 1.34838378856055e-07
4.74660000000000e+01 4.37757337804977e-06 1.26249522575120e-07
4.77900000000000e+01 4.08472021606008e-06 1.18205000214543e-07
4.81140000000000e+01 3.81145849596771e-06 1.10670524985783e-07
4.84380000000000e+01 3.55647757938650e-06 1.03613953367326e-07
4.87620000000000e+01 3.31855450769312e-06 9.70051524202182e-08
4.90860000000000e+01 3.09654813638106e-06 9.08158752145303e-08
4.94100000000000e+01 2.88939366181769e-06 8.50196438793653e-08
4.97340000000000e+01 2.69609751415306e-06 7.95916398175726e-08
5.00580000000000e+01 2.51573259188554e-06 7.45086006533359e-08
5.03820000000000e+01 2.34743381522805e-06 6.97487235062241e-08
5.07060000000000e+01 2.19039397694729e-06 6.52915742092909e-08
5.10300000000000e+01 2.04385987077590e-06 6.11180021114343e-08
5.13540000000000e+01 1.90712867882791e-06 5.72100601255483e-08
5.16780000000000e+01 1.77954460069081e-06 5.35509297041021e-08
5.20020000000000e+01 1.66049570802640e-06 5.01248504427195e-08
5.23260000000000e+01 1.54941100959412e-06 4.69170540301833e-08
5.26500000000000e+01 1.44575771261994e-06 4.39137022800935e-08
5.29740000000000e+01 1.34903866737566e-06 4.11018289952511e-08
5.32980000000000e+01 1.25878998271207e-06 3.84692854307488e-08
5.36220000000000e+01 1.17457880110935e-06 3.60046891357878e-08
5.39460000000000e+01 1.09600122257332e-06 3.36973759674656e-08
5.42700000000000e+01 1.02268036741997e-06 3.15373550822218e-08
5.45940000000000e+01 9.54264568656783e-07 2.95152667223386e-08
5.49180000000000e+01 8.90425685291138e-07 2.76223426259181e-08
5.52420000000000e+01 8.30857528475792e-07 2.58503688991301e-08
5.55660000000000e+01 7.75274392942956e-07 2.41916511992794e-08
5.58900000000000e+01 7.23409686683221e-07 2.26389820864233e-08
5.62140000000000e+01 6.75014652296948e-07 2.11856104099021e-08
5.65380000000000e+01 6.29857173885334e-07 1.98252126042686e-08
5.68620000000000e+01 5.87720663758715e-07 1.85518657767364e-08
5.71860000000000e+01 5.48403023622412e-07 1.73600224754485e-08
5.75100000000000e+01 5.11715675257715e-07 1.62444870346182e-08
5.78340000000000e+01 4.77482656048869e-07 1.52003933989408e-08
5.81580000000000e+01 4.45539775017953e-07 1.42231843356410e-08
5.84820000000000e+01 4.15733825319787e-07 1.33085919481274e-08
5.88060000000000e+01 3.87921849419748e-07 1.24526194104939e-08
5.91300000000000e+01 3.61970453430111e-07 1.16515238470640e-08
5.94540000000000e+01 3.37755167316261e-07 1.09018002858213e-08
5.97780000000000e+01 3.15159847904164e-07 1.02001666189462e-08
6.01020000000000e+01 2.94076121825758e-07 9.54354950778420e-09
6.04260000000000e+01 2.74402865730458e-07 8.92907117342890e-09
6.07500000000000e+01 2.56045721269753e-07 8.35403701772762e-09
6.10740000000000e+01 2.38916642528602e-07 7.81592402292207e-09
6.13980000000000e+01 2.22933473733009e-07 7.31236988133265e-09
6.17220000000000e+01 2.08019555208326e-07 6.84116280949692e-09
6.20460000000000e+01 1.94103355698362e-07 6.40023200399259e-09
6.23700000000000e+01 1.81118129281803e-07 5.98763869882170e-09
6.26940000000000e+01 1.69001595240411e-07 5.60156778671844e-09
6.30180000000000e+01 1.57695639343561e-07 5.24031996907558e-09
6.33420000000000e+01 1.47146035116407e-07 4.90230440137523e-09
6.36660000000000e+01 1.37302183754792e-07 4.58603180306528e-09
6.39900000000000e+01 1.28116871439458e-07 4.29010800275285e-09
6.43140000000000e+01 1.19546042885583e-07 4.01322789139698e-09
6.46380000000000e+01 1.11548590041516e-07 3.75416975788304e-09
6.49620000000000e+01 1.04086154923249e-07 3.51178998295616e-09
6.52860000000000e+01 9.71229456389757e-08 3.28501806898809e-09
6.56100000000000e+01 9.06255647213318e-08 3.07285198445635e-09
6.59340000000000e+01 8.45628489439512e-08 2.87435380333265e-09
6.62580000000000e+01 7.89057198540614e-08 2.68864562081378e-09
6.65820000000000e+01 7.36270443042230e-08 2.51490572798852e-09
6.69060000000000e+01 6.87015043142908e-08 2.35236502912188e-09
6.72300000000000e+01 6.41054756394153e-08 2.20030368625957e-09
6.75540000000000e+01 5.98169144616653e-08 2.05804797681247e-09
6.78780000000000e+01 5.58152516618130e-08 1.92496735067937e-09
6.82020000000000e+01 5.20812941641789e-08 1.80047167430870e-09
6.85260000000000e+01 4.85971328813611e-08 1.68400864989012e-09
6.88500000000000e+01 4.53460568173249e-08 1.57506139860750e-09
6.91740000000000e+01 4.23124729168686e-08 1.47314619757993e-09
6.94980000000000e+01 3.94818312770411e-08 1.37781036076917e-09
6.98220000000000e+01 3.68405553618043e-08 1.28863025474242e-09
7.01460000000000e+01 3.43759768852312e-08 1.20520944075279e-09
7.04700000000000e+01 3.20762750509220e-08 1.12717693513666e-09
7.07940000000000e+01 2.99304198562117e-08 1.05418558053087e-09
7.11180000000000e+01 2.79281191892437e-08 9.85910520884888e-10
7.14420000000000e+01 2.60597694651692e-08 9.22047773685575e-10
7.17660000000000e+01 2.43164095647129e-08 8.62312893227476e-10
7.20900000000000e+01 2.26896778541790e-08 8.06439719150198e-10
7.24140000000000e+01 2.11717720807562e-08 7.54179204829275e-10
7.27380000000000e+01 1.97554119507664e-08 7.05298320548658e-10
7.30620000000000e+01 1.84338042113735e-08 6.59579026703362e-10
7.33860000000000e+01 1.72006100682740e-08 6.16817312580961e-10
7.37100000000000e+01 1.60499147830952e-08 5.76822296552128e-10
7.40340000000000e+01 1.49761993046837e-08 5.39415383764119e-10
7.43580000000000e+01 1.39743137982165e-08 5.04429477678220e-10
7.46820000000000e+01 1.30394529451777e-08 4.71708242023886e-10
7.50060000000000e+01 1.21671328957278e-08 4.41105409959291e-10
7.53300000000000e+01 1.13531697629270e-08 4.12484137431378e-10
7.56540000000000e+01 1.05936595556623e-08 3.85716397919147e-10
7.59780000000000e+01 9.88495945403201e-09 3.60682415922455e-10
7.63020000000000e+01 9.22367033737925e-09 3.37270136725914e-10
7.66260000000000e+01 8.60662048117435e-09 3.15374730124248e-10
7.69500000000000e+01 8.03085034455130e-09 2.94898125942355e-10
7.72740000000000e+01 7.49359837553562e-09 2.75748579320918e-10
7.75980000000000e+01 6.99228776588136e-09 2.57840263867309e-10
7.79220000000000e+01 6.52451409198981e-09 2.41092890892312e-10
7.82460000000000e+01 6.08803378263249e-09 2.25431353066325e-10
7.85700000000000e+01 5.68075335816630e-09 2.10785390934674e-10
7.88940000000000e+01 5.30071938962921e-09 1.97089280830957e-10
7.92180000000000e+01 4.94610912955756e-09 1.84281542820298e-10
7.95420000000000e+01 4.61522176958775e-09 1.72304667391542e-10
7.98660000000000e+01 4.30647028291146e-09 1.61104859698959e-10
8.01900000000000e+01 4.01837381245843e-09 1.50631800230474e-10
8.05140000000000e+01 3.74955056829861e-09 1.40838420850983e-10
8.08380000000000e+01 3.49871120019744e-09 1.31680695236377e-10
8.11620000000000e+01 3.26465261353749e-09 1.23117442776635e-10
8.14860000000000e+01 3.04625219894563e-09 1.15110145085168e-10
8.18100000000000e+01 2.84246244794968e-09 1.07622774306664e-10
8.21340000000000e+01 2.65230592883957e-09 1.00621632467194e-10
8.24580000000000e+01 2.47487059863599e-09 9.40752011587005e-11
8.27820000000000e+01 2.30930542868132e-09 8.79540008951369e-11
8.31060000000000e+01 2.15481632287207e-09 8.22304595199057e-11
8.34300000000000e+01 2.01066230895553e-09 7.68787890838846e-11
8.37540000000000e+01 1.87615198462295e-09 7.18748706504443e-11
8.40780000000000e+01 1.75064020135392e-09 6.71961465186297e-11
8.44020000000000e+01 1.63352497010652e-09 6.28215193882224e-11
8.47260000000000e+01 1.52424457401230e-09 5.87312580208776e-11
8.50500000000000e+01 1.42227487422762e-09 5.49069089800573e-11
8.53740000000000e+01 1.32712679601959e-09 5.13312140591943e-11
8.56980000000000e+01 1.23834398302909e-09 4.79880330325398e-11
8.60220000000000e+01 1.15550060846011e-09 4.48622713865516e-11
8.63460000000000e+01 1.07819933269730e-09 4.19398127116048e-11
8.66700000000000e+01 1.00606939755587e-09 3.92074554543322e-11
8.69940000000000e+01 9.38764848023329e-10 3.66528537501062e-11
8.73180000000000e+01 8.75962872964059e-10 3.42644620731637e-11
8.76420000000000e+01 8.17362256828326e-10 3.20314834587081e-11
8.79660000000000e+01 7.62681934939618e-10 2.99438210670841e-11
8.82900000000000e+01 7.11659645431135e-10 2.79920328748725e-11
8.86140000000000e+01 6.64050671365732e-10 2.61672892915594e-11
8.89380000000000e+01 6.19626667006160e-10 2.44613335133662e-11
8.92620000000000e+01 5.78174562606090e-10 2.28664444379172e-11
8.95860000000000e+01 5.39495542468995e-10 2.13754019747528e-11
8.99100000000000e+01 5.03404091373371e-10 1.99814545972940e-11
9.02340000000000e+01 4.69727104790700e-10 1.86782889917853e-11
9.05580000000000e+01 4.38303058628508e-10 1.74600016680264e-11
9.08820000000000e+01 4.08981234516379e-10 1.63210724053991e-11
9.12060000000000e+01 3.81620996919191e-10 1.52563394158240e-11
9.15300000000000e+01 3.56091118610393e-10 1.42609761128989e-11
9.18540000000000e+01 3.32269151270132e-10 1.33304693835907e-11
9.21780000000000e+01 3.10040838189417e-10 1.24605992655266e-11
9.25020000000000e+01 2.89299566263519e-10 1.16474199391631e-11
9.28260000000000e+01 2.69945854646179e-10 1.08872419499556e-11
9.31500000000000e+01 2.51886877612112e-10 1.01766155811158e-11
9.34740000000000e+01 2.35036019339285e-10 9.51231530265601e-12
9.37980000000000e+01 2.19312458475608e-10 8.89132522720734e-12
9.41220000000000e+01 2.04640780497493e-10 8.31082550757567e-12
9.44460000000000e+01 1.90950616001055e-10 7.76817961519109e-12
9.47700000000000e+01 1.78176303191089e-10 7.26092244252669e-12
9.50940000000000e+01 1.66256572949036e-10 6.78674917623289e-12
9.54180000000000e+01 1.55134254969438e-10 6.34350489116701e-12
9.57420000000000e+01 1.44756003555419e-10 5.92917481870964e-12
9.60660000000000e+01 1.35072041758055e-10 5.54187524576649e-12
9.63900000000000e+01 1.26035922632423e-10 5.17984500366697e-12
9.67140000000000e+01 1.17604306465286e-10 4.84143750880199e-12
9.70380000000000e+01 1.09736752905897e-10 4.52511331930676e-12
9.73620000000000e+01 1.02395527002954e-10 4.22943317439774e-12
9.76860000000000e+01 9.55454182173930e-11 3.95305148512881e-12
9.80100000000000e+01 8.91535715429561e-11 3.69471024734845e-12
9.83340000000000e+01 8.31893299245414e-11 3.45323334952653e-12
9.86580000000000e+01 7.76240872185335e-11 3.22752124988526e-12
9.89820000000000e+01 7.24311509898692e-11 3.01654599891966e-12
9.93060000000000e+01 6.75856144877751e-11 2.81934658493884e-12
9.96300000000000e+01 6.30642371861389e-11 2.63502458170455e-12
9.99540000000000e+01 5.88453333155529e-11 2.46274007859618e-12
1.00278000000000e+02 5.49086678523975e-11 2.30170787499628e-12
1.00602000000000e+02 5.12353594661015e-11 2.15119392177454e-12
1.00926000000000e+02 4.78077899590860e-11 2.01051199385544e-12
1.01250000000000e+02 4.46095197650419e-11 1.87902057889029e-12
1.01574000000000e+02 4.16252091002475e-11 1.75611996802377e-12
1.01898000000000e+02 3.88405443897452e-11 1.64124953565124e-12
1.02222000000000e+02 3.62421696154987e-11 1.53388519591129e-12
