Energy (eV)          EEDF (eV^-(3/2))     First Anisotropy
2.99122807017544e-03 1.14602886307843e+00 5.62862797151586e-04
8.97368421052632e-03 1.13910831728796e+00 9.29765819046683e-04
1.49561403508772e-02 1.13222956270834e+00 1.22824256498830e-03
2.09385964912281e-02 1.12539234701603e+00 1.45551361950014e-03
2.69210526315789e-02 1.11859641932579e+00 1.64548808728375e-03
3.29035087719298e-02 1.11184153034390e+00 1.81097088229500e-03
3.88859649122807e-02 1.10512743224211e+00 1.95858087695085e-03
4.48684210526316e-02 1.09845387867944e+00 2.09231048365698e-03
5.08508771929825e-02 1.09182062483453e+00 2.21480457540490e-03
5.68333333333333e-02 1.08522742733528e+00 2.32793041034473e-03
6.28157894736842e-02 1.07867404430541e+00 2.43306869263249e-03
6.87982456140351e-02 1.07216023531501e+00 2.53127704344522e-03
7.47807017543860e-02 1.06568576137858e+00 2.62338850777776e-03
8.07631578947368e-02 1.05925038497156e+00 2.71007425714714e-03
8.67456140350877e-02 1.05285386998701e+00 2.79188527389636e-03
9.27280701754386e-02 1.04649598175944e+00 2.86928107318533e-03
9.87105263157895e-02 1.04017648703210e+00 2.94265009479768e-03
1.04692982456140e-01 1.03389515397438e+00 3.01232456099252e-03
1.10675438596491e-01 1.02765175206930e+00 3.07859150473843e-03
1.16657894736842e-01 1.02144605232075e+00 3.14170116099059e-03
1.22640350877193e-01 1.01527782705494e+00 3.20187344885670e-03
1.28622807017544e-01 1.00914684997311e+00 3.25930300857953e-03
1.34605263157895e-01 1.00305289614291e+00 3.31416322076047e-03
1.40587719298246e-01 9.96995741990555e-01 3.36660942604291e-03
1.46570175438596e-01 9.90975165292638e-01 3.41678154209822e-03
1.52552631578947e-01 9.84990945128875e-01 3.46480618598753e-03
1.58535087719298e-01 9.79042861992868e-01 3.51079845255510e-03
1.64517543859649e-01 9.73130697662736e-01 3.55486339744257e-03
1.70500000000000e-01 9.67254235234440e-01 3.59709725558943e-03
1.76482456140351e-01 9.61413259113693e-01 3.63758849073585e-03
1.82464912280702e-01 9.55607555008193e-01 3.67641868301393e-03
1.88447368421053e-01 9.49836909919851e-01 3.71366328825191e-03
1.94429824561404e-01 9.44101112136842e-01 3.74939229548628e-03
2.00412280701754e-01 9.38399951197950e-01 3.78367077798591e-03
2.06394736842105e-01 9.32733217969814e-01 3.81655939283859e-03
2.12377192982456e-01 9.27100704552885e-01 3.84811481794149e-03
2.18359649122807e-01 9.21502204303028e-01 3.87839011314568e-03
2.24342105263158e-01 9.15937511823972e-01 3.90743505478013e-03
2.30324561403509e-01 9.10406422959892e-01 3.93529642698306e-03
2.36307017543860e-01 9.04908734787821e-01 3.96201828376337e-03
2.42289473684211e-01 8.99444245588114e-01 3.98764216675422e-03
2.48271929824561e-01 8.94012754904216e-01 4.01220731792535e-03
2.54254385964912e-01 8.88614063467177e-01 4.03575087067056e-03
2.60236842105263e-01 8.83247973211367e-01 4.05830800214104e-03
2.66219298245614e-01 8.77914287267189e-01 4.07991208514371e-03
2.72201754385965e-01 8.72612809953972e-01 4.10059482153527e-03
2.78184210526316e-01 8.67343346772720e-01 4.12038636629571e-03
2.84166666666667e-01 8.62105704380932e-01 4.13931542642739e-03
2.90149122807018e-01 8.56899690640287e-01 4.15740936729887e-03
2.96131578947368e-01 8.51725114554120e-01 4.17469431005911e-03
3.02114035087719e-01 8.46581786279140e-01 4.19119520350238e-03
3.08096491228070e-01 8.41469517118426e-01 4.20693590302388e-03
3.14078947368421e-01 8.36388119514616e-01 4.22193923968133e-03
3.20061403508772e-01 8.31337407042960e-01 4.23622708665776e-03
3.26043859649123e-01 8.26317194389424e-01 4.24982040817766e-03
3.32026315789474e-01 8.21327297389573e-01 4.26273931940440e-03
3.38008771929825e-01 8.16367532975597e-01 4.27500314215152e-03
3.43991228070175e-01 8.11437719185192e-01 4.28663044106495e-03
3.49973684210526e-01 8.06537675154824e-01 4.29763906904706e-03
3.55956140350877e-01 8.01667221113204e-01 4.30804620639637e-03
3.61938596491228e-01 7.96826178374636e-01 4.31786839991715e-03
3.67921052631579e-01 7.92014369319675e-01 4.32712158824156e-03
3.73903508771930e-01 7.87231617427368e-01 4.33582113886102e-03
3.79885964912281e-01 7.82477747229605e-01 4.34398188300165e-03
3.85868421052632e-01 7.77752584317882e-01 4.35161813431456e-03
3.91850877192982e-01 7.73055955336868e-01 4.35874371718304e-03
3.97833333333333e-01 7.68387687978115e-01 4.36537199050082e-03
4.03815789473684e-01 7.63747610973700e-01 4.37151587246217e-03
4.09798245614035e-01 7.59135554078948e-01 4.37718785377774e-03
4.15780701754386e-01 7.54551348099498e-01 4.38240002235021e-03
4.21763157894737e-01 7.49994824851445e-01 4.38716408675907e-03
4.27745614035088e-01 7.45465817166501e-01 4.39149138573230e-03
4.33728070175439e-01 7.40964158885842e-01 4.39539290696525e-03
4.39710526315789e-01 7.36489684854049e-01 4.39887930238442e-03
4.45692982456140e-01 7.32042230913042e-01 4.40196090484597e-03
4.51675438596491e-01 7.27621633886483e-01 4.40464773474209e-03
4.57657894736842e-01 7.23227731602746e-01 4.40694951748412e-03
4.63640350877193e-01 7.18860362859738e-01 4.40887570028888e-03
4.69622807017544e-01 7.14519367428823e-01 4.41043545652654e-03
4.75605263157895e-01 7.10204586048928e-01 4.41163769892053e-03
4.81587719298246e-01 7.05915860420721e-01 4.41249108979251e-03
4.87570175438596e-01 7.01653033200806e-01 4.41300405289468e-03
4.93552631578947e-01 6.97415947987557e-01 4.41318477624248e-03
4.99535087719298e-01 6.93204449340757e-01 4.41304122514126e-03
5.05517543859649e-01 6.89018382750287e-01 4.41258115478844e-03
5.11500000000000e-01 6.84857594639075e-01 4.41181211166434e-03
5.17482456140351e-01 6.80721932357447e-01 4.41074144321600e-03
5.23464912280702e-01 6.76611244177543e-01 4.40937630499217e-03
5.29447368421053e-01 6.72525379287753e-01 4.40772366744875e-03
5.35429824561404e-01 6.68464187787178e-01 4.40579032434500e-03
5.41412280701754e-01 6.64427520672868e-01 4.40358289312979e-03
5.47394736842105e-01 6.60415229856326e-01 4.40110782472159e-03
5.53377192982456e-01 6.56427168135914e-01 4.39837141303514e-03
5.59359649122807e-01 6.52463189198899e-01 4.39537979445364e-03
5.65342105263158e-01 6.48523147616087e-01 4.39213895493633e-03
5.71324561403509e-01 6.44606898836502e-01 4.38865473492766e-03
5.77307017543860e-01 6.40714299182071e-01 4.38493283582428e-03
5.83289473684211e-01 6.36845205835891e-01 4.38097881912066e-03
5.89271929824561e-01 6.32999476856534e-01 4.37679811429894e-03
5.95254385964912e-01 6.29176971153135e-01 4.37239602655519e-03
6.01236842105263e-01 6.25377548486832e-01 4.36777773530462e-03
6.07219298245614e-01 6.21601069465624e-01 4.36294829979178e-03
6.13201754385965e-01 6.17847395539268e-01 4.35791266272580e-03
6.19184210526316e-01 6.14116388994189e-01 4.35267565541285e-03
6.25166666666667e-01 6.10407912942645e-01 4.34724199615479e-03
6.31149122807018e-01 6.06721831335184e-01 4.34161629678729e-03
6.37131578947368e-01 6.03058008938033e-01 4.33580306911190e-03
6.43114035087719e-01 5.99416311334060e-01 4.32980672282993e-03
6.49096491228070e-01 5.95796604917831e-01 4.32363157008841e-03
6.55078947368421e-01 5.92198756890731e-01 4.31728182823405e-03
6.61061403508772e-01 5.88622635256075e-01 4.31076162398893e-03
6.67043859649123e-01 5.85068108809081e-01 4.30407499140850e-03
6.73026315789474e-01 5.81535047147746e-01 4.29722587741965e-03
6.79008771929825e-01 5.78023320652248e-01 4.29021814728858e-03
6.84991228070175e-01 5.74532800485502e-01 4.28305558223125e-03
6.90973684210526e-01 5.71063358588428e-01 4.27574188317953e-03
6.96956140350877e-01 5.67614867675267e-01 4.26828067290737e-03
7.02938596491228e-01 5.64187201228904e-01 4.26067549950201e-03
7.08921052631579e-01 5.60780233491542e-01 4.25292983407305e-03
7.14903508771930e-01 5.57393839474243e-01 4.24504707552929e-03
7.20885964912281e-01 5.54027894938083e-01 4.23703055530751e-03
7.26868421052632e-01 5.50682276394380e-01 4.22888353481301e-03
7.32850877192982e-01 5.47356861100161e-01 4.22060920860065e-03
7.38833333333333e-01 5.44051527053671e-01 4.21221070604362e-03
7.44815789473684e-01 5.40766152989887e-01 4.20369109427191e-03
7.50798245614035e-01 5.37500618371838e-01 4.19505337575649e-03
7.56780701754386e-01 5.34254803398983e-01 4.18630049248849e-03
7.62763157894737e-01 5.31028588989915e-01 4.17743533012795e-03
7.68745614035088e-01 5.27821856782330e-01 4.16846071537432e-03
7.74728070175439e-01 5.24634489128675e-01 4.15937941869636e-03
7.80710526315790e-01 5.21466369091842e-01 4.15019415566156e-03
7.86692982456140e-01 5.18317380440873e-01 4.14090758946010e-03
7.92675438596491e-01 5.15187407642852e-01 4.13152232844732e-03
7.98657894736842e-01 5.12076335870286e-01 4.12204092984201e-03
8.04640350877193e-01 5.08984050985185e-01 4.11246590340782e-03
8.10622807017544e-01 5.05910439538810e-01 4.10279970882039e-03
8.16605263157895e-01 5.02855388767502e-01 4.09304475803935e-03
8.22587719298246e-01 4.99818786588550e-01 4.08320341638419e-03
8.28570175438596e-01 4.96800521596084e-01 4.07327800472877e-03
8.34552631578947e-01 4.93800483053481e-01 4.06327079705164e-03
8.40535087719298e-01 4.90818560899879e-01 4.05318402374499e-03
8.46517543859649e-01 4.87854645735491e-01 4.04301987490996e-03
8.52500000000000e-01 4.84908628821164e-01 4.03278049776109e-03
8.58482456140351e-01 4.81980402074387e-01 4.02246799871346e-03
8.64464912280702e-01 4.79069858065330e-01 4.01208444426078e-03
8.70447368421053e-01 4.76176890012906e-01 4.00163186183290e-03
8.76429824561404e-01 4.73301391780846e-01 3.99111224169121e-03
8.82412280701754e-01 4.70443257870659e-01 3.98052753453232e-03
8.88394736842105e-01 4.67602383427278e-01 3.96987965442436e-03
8.94377192982456e-01 4.64778664225627e-01 3.95917048173945e-03
9.00359649122807e-01 4.61971996670017e-01 3.94840186063568e-03
9.06342105263158e-01 4.59182277790343e-01 3.93757560087680e-03
9.12324561403509e-01 4.56409405238310e-01 3.92669347854186e-03
9.18307017543860e-01 4.53653277283676e-01 3.91575723771123e-03
9.24289473684211e-01 4.50913792807636e-01 3.90476858813544e-03
9.30271929824561e-01 4.48190851307820e-01 3.89372920790152e-03
9.36254385964912e-01 4.45484352885841e-01 3.88264074609907e-03
9.42236842105263e-01 4.42794198246567e-01 3.87150482038655e-03
9.48219298245614e-01 4.40120288694481e-01 3.86032301861995e-03
9.54201754385965e-01 4.37462526130066e-01 3.84909689944472e-03
9.60184210526316e-01 4.34820813046196e-01 3.83782799380782e-03
9.66166666666667e-01 4.32195052521923e-01 3.82651780270469e-03
9.72149122807018e-01 4.29585148226898e-01 3.81516779961375e-03
9.78131578947368e-01 4.26991004409808e-01 3.80377943293335e-03
9.84114035087719e-01 4.24412525897552e-01 3.79235412363967e-03
9.90096491228070e-01 4.21849618091750e-01 3.78089326675529e-03
9.96078947368421e-01 4.19302186965280e-01 3.76939823184774e-03
1.00206140350877e+00 4.16770139058822e-01 3.75787036264572e-03
1.00804385964912e+00 4.14253381479853e-01 3.74631098361875e-03
1.01402631578947e+00 4.11751821882316e-01 3.73472138304282e-03
1.02000877192982e+00 4.09265368513826e-01 3.72310283763901e-03
1.02599122807018e+00 4.06793930128373e-01 3.71145660552009e-03
1.03197368421053e+00 4.04337416054835e-01 3.69978389613635e-03
1.03795614035088e+00 4.01895736192663e-01 3.68808592236215e-03
1.04393859649123e+00 3.99468800939254e-01 3.67636386701525e-03
1.04992105263158e+00 3.97056521278605e-01 3.66461889088082e-03
1.05590350877193e+00 3.94658808687350e-01 3.65285214230401e-03
1.06188596491228e+00 3.92275575199197e-01 3.64106472415454e-03
1.06786842105263e+00 3.89906733400737e-01 3.62925774356024e-03
1.07385087719298e+00 3.87552196362965e-01 3.61743228775234e-03
1.07983333333333e+00 3.85211877703597e-01 3.60558940019362e-03
1.08581578947368e+00 3.82885691582955e-01 3.59373012909830e-03
1.09179824561404e+00 3.80573552637663e-01 3.58185549615136e-03
1.09778070175439e+00 3.78275376061345e-01 3.56996650397732e-03
1.10376315789474e+00 3.75991077518789e-01 3.55806414504959e-03
1.10974561403509e+00 3.73720573204571e-01 3.54614937082768e-03
1.11572807017544e+00 3.71463779839142e-01 3.53422313811939e-03
1.12171052631579e+00 3.69220614606185e-01 3.52228637916920e-03
1.12769298245614e+00 3.66990995228639e-01 3.51034000877239e-03
1.13367543859649e+00 3.64774839887645e-01 3.49838493276538e-03
1.13965789473684e+00 3.62572067277794e-01 3.48642201850481e-03
1.14564035087719e+00 3.60382596603330e-01 3.47445213918713e-03
1.15162280701754e+00 3.58206347518965e-01 3.46247615224616e-03
1.15760526315789e+00 3.56043240183357e-01 3.45049487800194e-03
1.16358771929825e+00 3.53893195255379e-01 3.43850914292047e-03
1.16957017543860e+00 3.51756133836760e-01 3.42651975163718e-03
1.17555263157895e+00 3.49631977541484e-01 3.41452749359545e-03
1.18153508771930e+00 3.47520648421537e-01 3.40253315094730e-03
1.18751754385965e+00 3.45422069017321e-01 3.39053747094840e-03
1.19350000000000e+00 3.43336162354087e-01 3.37854120733791e-03
1.19948245614035e+00 3.41262851887649e-01 3.36654509356354e-03
1.20546491228070e+00 3.39202061569888e-01 3.35454984911575e-03
1.21144736842105e+00 3.37153715778506e-01 3.34255618707022e-03
1.21742982456140e+00 3.35117739364607e-01 3.33056478765643e-03
1.22341228070175e+00 3.33094057649264e-01 3.31857633785682e-03
1.22939473684211e+00 3.31082596372113e-01 3.30659150576383e-03
1.23537719298246e+00 3.29083281753223e-01 3.29461094663429e-03
1.24135964912281e+00 3.27096040426597e-01 3.28263531008779e-03
1.24734210526316e+00 3.25120799485120e-01 3.27066521479862e-03
1.25332456140351e+00 3.23157486477223e-01 3.25870128640338e-03
1.25930701754386e+00 3.21206029358208e-01 3.24674413895111e-03
1.26528947368421e+00 3.19266356533787e-01 3.23479435657018e-03
1.27127192982456e+00 3.17338396856839e-01 3.22285253049052e-03
1.27725438596491e+00 3.15422079580152e-01 3.21091923503316e-03
1.28323684210526e+00 3.13517334413103e-01 3.19899503326598e-03
1.28921929824561e+00 3.11624091460528e-01 3.18708048372793e-03
1.29520175438596e+00 3.09742281263873e-01 3.17517611672178e-03
1.30118421052632e+00 3.07871834798070e-01 3.16328246977298e-03
1.30716666666667e+00 3.06012683426721e-01 3.15140006462269e-03
1.31314912280702e+00 3.04164758955718e-01 3.13952941263680e-03
1.31913157894737e+00 3.02327993575274e-01 3.12767102123150e-03
1.32511403508772e+00 3.00502319898866e-01 3.11582537115723e-03
1.33109649122807e+00 2.98687670960198e-01 3.10399295047114e-03
1.33707894736842e+00 2.96883980170694e-01 3.09217423787911e-03
1.34306140350877e+00 2.95091181357256e-01 3.08036968627169e-03
1.34904385964912e+00 2.93309208759291e-01 3.06857975591442e-03
1.35502631578947e+00 2.91537996987432e-01 3.05680489288220e-03
1.36100877192982e+00 2.89777481072763e-01 3.04504553412303e-03
1.36699122807018e+00 2.88027596413419e-01 3.03330211346754e-03
1.37297368421053e+00 2.86288278810308e-01 3.02157504033108e-03
1.37895614035088e+00 2.84559464464272e-01 3.00986473152787e-03
1.38493859649123e+00 2.82841089936865e-01 2.99817159059512e-03
1.39092105263158e+00 2.81133092196991e-01 2.98649601263896e-03
1.39690350877193e+00 2.79435408570200e-01 2.97483839008336e-03
1.40288596491228e+00 2.77747976772537e-01 2.96319909224889e-03
1.40886842105263e+00 2.76070734907775e-01 2.95157849585651e-03
1.41485087719298e+00 2.74403621430175e-01 2.93997697004510e-03
1.42083333333333e+00 2.72746575177325e-01 2.92839486156370e-03
1.42681578947368e+00 2.71099535367436e-01 2.91683252458116e-03
1.43279824561404e+00 2.69462441563140e-01 2.90529030128721e-03
1.43878070175439e+00 2.67835233714399e-01 2.89376852643660e-03
1.44476315789474e+00 2.66217852111698e-01 2.88226753273047e-03
1.45074561403509e+00 2.64610237417160e-01 2.87078763165693e-03
1.45672807017544e+00 2.63012330661954e-01 2.85932914208456e-03
1.46271052631579e+00 2.61424073211863e-01 2.84789237165227e-03
1.46869298245614e+00 2.59845406807978e-01 2.83647762112025e-03
1.47467543859649e+00 2.58276273522210e-01 2.82508518952569e-03
1.48065789473684e+00 2.56716615786803e-01 2.81371535579920e-03
1.48664035087719e+00 2.55166376391807e-01 2.80236840619646e-03
1.49262280701754e+00 2.53625498452352e-01 2.79104462080586e-03
1.49860526315789e+00 2.52093925437303e-01 2.77974426021289e-03
1.50458771929825e+00 2.50571601166782e-01 2.76846759231580e-03
1.51057017543860e+00 2.49058469780342e-01 2.75721487485195e-03
1.51655263157895e+00 2.47554475774469e-01 2.74598635948265e-03
1.52253508771930e+00 2.46059563961433e-01 2.73478229662286e-03
1.52851754385965e+00 2.44573679496483e-01 2.72360291818232e-03
1.53450000000000e+00 2.43096767875455e-01 2.71244846330196e-03
1.54048245614035e+00 2.41628774904481e-01 2.70131916158236e-03
1.54646491228070e+00 2.40169646735584e-01 2.69021523699800e-03
1.55244736842105e+00 2.38719329827538e-01 2.67913691252834e-03
1.55842982456140e+00 2.37277770971669e-01 2.66808439358709e-03
1.56441228070175e+00 2.35844917289552e-01 2.65705789272830e-03
1.57039473684211e+00 2.34420716204166e-01 2.64605761354093e-03
1.57637719298246e+00 2.33005115473702e-01 2.63508375440509e-03
1.58235964912281e+00 2.31598063154302e-01 2.62413651292980e-03
1.58834210526316e+00 2.30199507624569e-01 2.61321607004350e-03
1.59432456140351e+00 2.28809397583330e-01 2.60232261371625e-03
1.60030701754386e+00 2.27427682022165e-01 2.59145632727144e-03
1.60628947368421e+00 2.26054310249218e-01 2.58061737783401e-03
1.61227192982456e+00 2.24689231887014e-01 2.56980593952679e-03
1.61825438596491e+00 2.23332396845718e-01 2.55902217833769e-03
1.62423684210526e+00 2.21983755354369e-01 2.54826625564636e-03
1.63021929824561e+00 2.20643257926342e-01 2.53753833239104e-03
1.63620175438597e+00 2.19310855381977e-01 2.52683855411463e-03
1.64218421052632e+00 2.17986498846461e-01 2.51616707324457e-03
1.64816666666667e+00 2.16670139724350e-01 2.50552403455552e-03
1.65414912280702e+00 2.15361729729256e-01 2.49490957855414e-03
1.66013157894737e+00 2.14061220850944e-01 2.48432384547559e-03
1.66611403508772e+00 2.12768565376837e-01 2.47376696091878e-03
1.67209649122807e+00 2.11483715889971e-01 2.46323905724971e-03
1.67807894736842e+00 2.10206625244700e-01 2.45274026304590e-03
1.68406140350877e+00 2.08937246587607e-01 2.44227069266375e-03
1.69004385964912e+00 2.07675533355493e-01 2.43183046717151e-03
1.69602631578947e+00 2.06421439251730e-01 2.42141970068024e-03
1.70200877192982e+00 2.05174918273721e-01 2.41103850352548e-03
1.70799122807018e+00 2.03935924682361e-01 2.40068698602192e-03
1.71397368421053e+00 2.02704413021919e-01 2.39036524495377e-03
1.71995614035088e+00 2.01480338118103e-01 2.38007338368987e-03
1.72593859649123e+00 2.00263655055493e-01 2.36981149904882e-03
1.73192105263158e+00 1.99054319203676e-01 2.35957968435285e-03
1.73790350877193e+00 1.97852286188119e-01 2.34937803303124e-03
1.74388596491228e+00 1.96657511909088e-01 2.33920662563746e-03
1.74986842105263e+00 1.95469952539769e-01 2.32906554918215e-03
1.75585087719298e+00 1.94289564504741e-01 2.31895488759076e-03
1.76183333333333e+00 1.93116304498372e-01 2.30887471227192e-03
1.76781578947368e+00 1.91950129482979e-01 2.29882510102911e-03
1.77379824561404e+00 1.90790996667856e-01 2.28880612570136e-03
1.77978070175439e+00 1.89638863533481e-01 2.27881785503750e-03
1.78576315789474e+00 1.88493687804449e-01 2.26886035808232e-03
1.79174561403509e+00 1.87355427466981e-01 2.25893369196150e-03
1.79772807017544e+00 1.86224040767147e-01 2.24903792006185e-03
1.80371052631579e+00 1.85099486190848e-01 2.23917310014997e-03
1.80969298245614e+00 1.83981722486859e-01 2.22933928713234e-03
1.81567543859649e+00 1.82870708641004e-01 2.21953653630788e-03
1.82165789473684e+00 1.81766403892820e-01 2.20976489162328e-03
1.82764035087719e+00 1.80668767733845e-01 2.20002440315317e-03
1.83362280701754e+00 1.79577759888492e-01 2.19031511846582e-03
1.83960526315789e+00 1.78493340330274e-01 2.18063707408893e-03
1.84558771929825e+00 1.77415469280111e-01 2.17099031261215e-03
1.85157017543860e+00 1.76344107187706e-01 2.16137487150210e-03
1.85755263157895e+00 1.75279214752912e-01 2.15179078570091e-03
1.86353508771930e+00 1.74220752901706e-01 2.14223809068476e-03
1.86951754385965e+00 1.73168682801632e-01 2.13271681140818e-03
1.87550000000000e+00 1.72122965860173e-01 2.12322697875161e-03
1.88148245614035e+00 1.71083563706957e-01 2.11376861876542e-03
1.88746491228070e+00 1.70050438214111e-01 2.10434175516585e-03
