Energy (eV)          EEDF (eV^-(3/2))     First Anisotropy
2.54237288135593e-02 4.39755621798132e-02 2.14911217655804e-05
7.62711864406780e-02 4.37187766825949e-02 3.55036949250132e-05
1.27118644067797e-01 4.34634906274403e-02 4.69106288694836e-05
1.77966101694915e-01 4.32096952575903e-02 5.56020135204826e-05
2.28813559322034e-01 4.29573818687678e-02 6.28718328975021e-05
2.79661016949153e-01 4.27065418086274e-02 6.92085866630177e-05
3.30508474576271e-01 4.24571664727921e-02 7.48647116807897e-05
3.81355932203390e-01 4.22092473091325e-02 7.99924339298808e-05
4.32203389830508e-01 4.19627758139562e-02 8.46925728005013e-05
4.83050847457627e-01 4.17177435339443e-02 8.90362871490073e-05
5.33898305084746e-01 4.14741420656637e-02 9.30761802852525e-05
5.84745762711864e-01 4.12319630537139e-02 9.68525358144885e-05
6.35593220338983e-01 4.09911981919937e-02 1.00397075190425e-04
6.86440677966102e-01 4.07518392232901e-02 1.03735349342675e-04
7.37288135593220e-01 4.05138779378243e-02 1.06888328241047e-04
7.88135593220339e-01 4.02773061744626e-02 1.09873496199095e-04
8.38983050847458e-01 4.00421158190932e-02 1.12705629427061e-04
8.89830508474576e-01 3.98082988052974e-02 1.15397361975314e-04
9.40677966101695e-01 3.95758471140230e-02 1.17959607191373e-04
9.91525423728814e-01 3.93447527725173e-02 1.20401877011936e-04
1.04237288135593e+00 3.91150078555010e-02 1.22732528571678e-04
1.09322033898305e+00 3.88866044822234e-02 1.24958956817997e-04
1.14406779661017e+00 3.86595348190592e-02 1.27087747184799e-04
1.19491525423729e+00 3.84337910781530e-02 1.29124798382814e-04
1.24576271186441e+00 3.82093655189736e-02 1.31075422554778e-04
1.29661016949153e+00 3.79862504424175e-02 1.32944426208541e-04
1.34745762711864e+00 3.77644381962337e-02 1.34736176982532e-04
1.39830508474576e+00 3.75439211728632e-02 1.36454660285650e-04
1.44915254237288e+00 3.73246918107171e-02 1.38103526794218e-04
1.50000000000000e+00 3.71067425892248e-02 1.39686131713338e-04
1.55084745762712e+00 3.68900660333093e-02 1.41205568081001e-04
1.60169491525424e+00 3.66746547115414e-02 1.42664696187162e-04
1.65254237288136e+00 3.64605012372076e-02 1.44066168845896e-04
1.70338983050847e+00 3.62475982640616e-02 1.45412452443441e-04
1.75423728813559e+00 3.60359384900977e-02 1.46705845155979e-04
1.80508474576271e+00 3.58255146559427e-02 1.47948493698866e-04
1.85593220338983e+00 3.56163195457594e-02 1.49142407974859e-04
1.90677966101695e+00 3.54083459835401e-02 1.50289473221644e-04
1.95762711864407e+00 3.52015868363439e-02 1.51391460684509e-04
2.00847457627119e+00 3.49960350128718e-02 1.52450038046238e-04
2.05932203389831e+00 3.47916834632415e-02 1.53466777767306e-04
2.11016949152542e+00 3.45885251797128e-02 1.54443165427989e-04
2.16101694915254e+00 3.43865531934892e-02 1.55380606321743e-04
2.21186440677966e+00 3.41857605774583e-02 1.56280431327388e-04
2.26271186440678e+00 3.39861404449622e-02 1.57143902921583e-04
2.31355932203390e+00 3.37876859504240e-02 1.57972220576941e-04
2.36440677966102e+00 3.35903902864867e-02 1.58766525000659e-04
2.41525423728814e+00 3.33942466864238e-02 1.59527901939452e-04
2.46610169491525e+00 3.31992484230235e-02 1.60257386315701e-04
2.51694915254237e+00 3.30053888091341e-02 1.60955965969222e-04
2.56779661016949e+00 3.28126611950835e-02 1.61624584468887e-04
2.61864406779661e+00 3.26210589708178e-02 1.62264143650710e-04
2.66949152542373e+00 3.24305755648801e-02 1.62875506578176e-04
2.72033898305085e+00 3.22412044448887e-02 1.63459500235855e-04
2.77118644067797e+00 3.20529391151929e-02 1.64016917439528e-04
2.82203389830508e+00 3.18657731187836e-02 1.64548518566733e-04
2.87288135593220e+00 3.16797000363532e-02 1.65055033749518e-04
2.92372881355932e+00 3.14947134867163e-02 1.65537164878477e-04
2.97457627118644e+00 3.13108071246679e-02 1.65995586923345e-04
3.02542372881356e+00 3.11279746427000e-02 1.66430949131577e-04
3.07627118644068e+00 3.09462097701321e-02 1.66843876834886e-04
3.12711864406780e+00 3.07655062729033e-02 1.67234972452667e-04
3.17796610169492e+00 3.05858579539243e-02 1.67604817079854e-04
3.22881355932203e+00 3.04072586511437e-02 1.67953971329314e-04
3.27966101694915e+00 3.02297022390686e-02 1.68282976096166e-04
3.33050847457627e+00 3.00531826279759e-02 1.68592353800502e-04
3.38135593220339e+00 2.98776937642244e-02 1.68882609529538e-04
3.43220338983051e+00 2.97032296284697e-02 1.69154231630205e-04
3.48305084745763e+00 2.95297842370445e-02 1.69407692245196e-04
3.53389830508475e+00 2.93573516412221e-02 1.69643448316031e-04
3.58474576271186e+00 2.91859259274928e-02 1.69861942506261e-04
3.63559322033898e+00 2.90155012159103e-02 1.70063603617333e-04
3.68644067796610e+00 2.88460716613492e-02 1.70248846962524e-04
3.73728813559322e+00 2.86776314528147e-02 1.70418075193257e-04
3.78813559322034e+00 2.85101748136882e-02 1.70571679060073e-04
3.83898305084746e+00 2.83436960001898e-02 1.70710037701409e-04
3.88983050847458e+00 2.81781893025285e-02 1.70833518900615e-04
3.94067796610170e+00 2.80136490442524e-02 1.70942479778934e-04
3.99152542372881e+00 2.78500695824680e-02 1.71037267433910e-04
4.04237288135593e+00 2.76874453064059e-02 1.71118219135481e-04
4.09322033898305e+00 2.75257706384755e-02 1.71185662497327e-04
4.14406779661017e+00 2.73650400336534e-02 1.71239916168713e-04
4.19491525423729e+00 2.72052479792968e-02 1.71281289973422e-04
4.24576271186441e+00 2.70463889953281e-02 1.71310085543493e-04
4.29661016949153e+00 2.68884576329131e-02 1.71326596430682e-04
4.34745762711864e+00 2.67314484754144e-02 1.71331108199914e-04
4.39830508474576e+00 2.65753561378244e-02 1.71323898924276e-04
4.44915254237288e+00 2.64201752669302e-02 1.71305239640701e-04
4.50000000000000e+00 2.62659005400736e-02 1.71275394414202e-04
4.55084745762712e+00 2.61125266660305e-02 1.71234620387535e-04
4.60169491525424e+00 2.59600483844737e-02 1.71183168215709e-04
4.65254237288136e+00 2.58084604661192e-02 1.71121282465820e-04
4.70338983050847e+00 2.56577577115617e-02 1.71049201645719e-04
4.75423728813559e+00 2.55079349520866e-02 1.70967158220795e-04
4.80508474576271e+00 2.53589870491603e-02 1.70875378999568e-04
4.85593220338983e+00 2.52109088945603e-02 1.70774085488108e-04
4.90677966101695e+00 2.50636954092785e-02 1.70663493891886e-04
4.95762711864407e+00 2.49173415442734e-02 1.70543815107819e-04
5.00847457627119e+00 2.47718422799851e-02 1.70415255152893e-04
5.05932203389831e+00 2.46271926261655e-02 1.70278015147503e-04
5.11016949152542e+00 2.44833876219876e-02 1.70132291714290e-04
5.16101694915254e+00 2.43404223350247e-02 1.69978276954201e-04
5.21186440677966e+00 2.41982918619363e-02 1.69816158414580e-04
5.26271186440678e+00 2.40569913280147e-02 1.69646119394779e-04
5.31355932203390e+00 2.39165158872819e-02 1.69468339226706e-04
5.36440677966102e+00 2.37768607215239e-02 1.69282993236479e-04
5.41525423728814e+00 2.36380210409291e-02 1.69090252699465e-04
5.46610169491525e+00 2.34999920836552e-02 1.68890285118800e-04
5.51694915254237e+00 2.33627691159145e-02 1.68683254480805e-04
5.56779661016949e+00 2.32263474310609e-02 1.68469321205973e-04
5.61864406779661e+00 2.30907223501827e-02 1.68248642094167e-04
5.66949152542373e+00 2.29558892216899e-02 1.68021370579980e-04
5.72033898305085e+00 2.28218434213888e-02 1.67787656966793e-04
5.77118644067797e+00 2.26885803516166e-02 1.67547648369747e-04
5.82203389830508e+00 2.25560954417942e-02 1.67301488653643e-04
5.87288135593220e+00 2.24243841480309e-02 1.67049318668352e-04
5.92372881355932e+00 2.22934419531905e-02 1.66791276464540e-04
5.97457627118644e+00 2.21632643660694e-02 1.66527497230646e-04
6.02542372881356e+00 2.20338469219126e-02 1.66258113225470e-04
6.07627118644068e+00 2.19051851820355e-02 1.65983254063225e-04
6.12711864406780e+00 2.17772747336728e-02 1.65703046645118e-04
6.17796610169492e+00 2.16501111900324e-02 1.65417615427177e-04
6.22881355932203e+00 2.15236901895237e-02 1.65127082351220e-04
6.27966101694915e+00 2.13980073962324e-02 1.64831566772089e-04
6.33050847457627e+00 2.12730584995632e-02 1.64531185657955e-04
6.38135593220339e+00 2.11488392142861e-02 1.64226053773563e-04
6.43220338983051e+00 2.10253452798025e-02 1.63916283608532e-04
6.48305084745763e+00 2.09025724605889e-02 1.63601985302281e-04
6.53389830508475e+00 2.07805165458545e-02 1.63283266831301e-04
6.58474576271187e+00 2.06591733495806e-02 1.62960234180333e-04
6.63559322033898e+00 2.05385387098216e-02 1.62632991268963e-04
6.68644067796610e+00 2.04186084891206e-02 1.62301639875163e-04
6.73728813559322e+00 2.02993785741802e-02 1.61966279810860e-04
6.78813559322034e+00 2.01808448758965e-02 1.61627009082457e-04
6.83898305084746e+00 2.00630033286924e-02 1.61283923816448e-04
6.88983050847458e+00 1.99458498909068e-02 1.60937118182193e-04
6.94067796610170e+00 1.98293805444788e-02 1.60586684557078e-04
6.99152542372881e+00 1.97135912949755e-02 1.60232713677470e-04
7.04237288135593e+00 1.95984781709567e-02 1.59875294563910e-04
7.09322033898305e+00 1.94840372243392e-02 1.59514514443691e-04
7.14406779661017e+00 1.93702645300934e-02 1.59150458961290e-04
7.19491525423729e+00 1.92571561861094e-02 1.58783212101915e-04
7.24576271186441e+00 1.91447083132181e-02 1.58412856390064e-04
7.29661016949153e+00 1.90329170545898e-02 1.58039472814241e-04
7.34745762711864e+00 1.89217785760725e-02 1.57663140749437e-04
7.39830508474576e+00 1.88112890659029e-02 1.57283938102939e-04
7.44915254237288e+00 1.87014447347232e-02 1.56901941447444e-04
7.50000000000000e+00 1.85922418150066e-02 1.56517225946339e-04
7.55084745762712e+00 1.84836765613743e-02 1.56129865276896e-04
7.60169491525424e+00 1.83757452503180e-02 1.55739931768433e-04
7.65254237288136e+00 1.82684441802122e-02 1.55347496528430e-04
7.70338983050847e+00 1.81617696707646e-02 1.54952629368611e-04
7.75423728813559e+00 1.80557180633147e-02 1.54555398729096e-04
7.80508474576271e+00 1.79502857205655e-02 1.54155871809585e-04
7.85593220338983e+00 1.78454690265927e-02 1.53754114689039e-04
7.90677966101695e+00 1.77412643863188e-02 1.53350192252779e-04
7.95762711864407e+00 1.76376682257933e-02 1.52944168117803e-04
8.00847457627119e+00 1.75346769919348e-02 1.52536104804214e-04
8.05932203389831e+00 1.74322871524095e-02 1.52126063661910e-04
8.11016949152542e+00 1.73304951956355e-02 1.51714105032717e-04
8.16101694915254e+00 1.72292976302835e-02 1.51300288178558e-04
8.21186440677966e+00 1.71286909855379e-02 1.50884671207953e-04
8.26271186440678e+00 1.70286718108500e-02 1.50467311193827e-04
8.31355932203390e+00 1.69292366759395e-02 1.50048264280979e-04
8.36440677966102e+00 1.68303821703163e-02 1.49627585615607e-04
8.41525423728814e+00 1.67321049035255e-02 1.49205329273246e-04
8.46610169491525e+00 1.66344015049102e-02 1.48781548371117e-04
8.51694915254237e+00 1.65372686236094e-02 1.48356295170670e-04
8.56779661016949e+00 1.64407029281002e-02 1.47929621008535e-04
8.61864406779661e+00 1.63447011064279e-02 1.47501576225962e-04
8.66949152542373e+00 1.62492598659775e-02 1.47072210276162e-04
8.72033898305085e+00 1.61543759334689e-02 1.46641571822165e-04
8.77118644067797e+00 1.60600460545177e-02 1.46209708669308e-04
8.82203389830508e+00 1.59662669938520e-02 1.45776667696253e-04
8.87288135593220e+00 1.58730355350916e-02 1.45342494957577e-04
8.92372881355932e+00 1.57803484807414e-02 1.44907235777376e-04
8.97457627118644e+00 1.56882026517690e-02 1.44470934683211e-04
9.02542372881356e+00 1.55965948878102e-02 1.44033635338819e-04
9.07627118644068e+00 1.55055220469543e-02 1.43595380681063e-04
9.12711864406780e+00 1.54149810056378e-02 1.43156212854035e-04
9.17796610169492e+00 1.53249686586341e-02 1.42716173338854e-04
9.22881355932203e+00 1.52354819186523e-02 1.42275302889283e-04
9.27966101694915e+00 1.51465177165277e-02 1.41833641466123e-04
9.33050847457627e+00 1.50580730010173e-02 1.41391228330583e-04
9.38135593220339e+00 1.49701447387889e-02 1.40948102129430e-04
9.43220338983051e+00 1.48827299140346e-02 1.40504300832180e-04
9.48305084745763e+00 1.47958255286511e-02 1.40059861667179e-04
9.53389830508475e+00 1.47094286020419e-02 1.39614821211114e-04
9.58474576271187e+00 1.46235361711044e-02 1.39169215470638e-04
9.63559322033898e+00 1.45381452898587e-02 1.38723079821194e-04
9.68644067796610e+00 1.44532530296175e-02 1.38276448944695e-04
9.73728813559322e+00 1.43688564787951e-02 1.37829356915450e-04
9.78813559322034e+00 1.42849527428925e-02 1.37381837278475e-04
9.83898305084746e+00 1.42015389441411e-02 1.36933922989889e-04
9.88983050847458e+00 1.41186122216625e-02 1.36485646356246e-04
9.94067796610170e+00 1.40361697312835e-02 1.36037039117027e-04
9.99152542372881e+00 1.39542086455210e-02 1.35588132686858e-04
1.00423728813559e+01 1.38727261528320e-02 1.35138957395565e-04
1.00932203389831e+01 1.37917194594707e-02 1.34689543495440e-04
1.01440677966102e+01 1.37111857863096e-02 1.34239920622296e-04
1.01949152542373e+01 1.36311223720435e-02 1.33790117834743e-04
1.02457627118644e+01 1.35515264699165e-02 1.33340163697710e-04
1.02966101694915e+01 1.34723953507676e-02 1.32890086250694e-04
1.03474576271186e+01 1.33937262998349e-02 1.32439913369861e-04
1.03983050847458e+01 1.33155166189784e-02 1.31989671479968e-04
1.04491525423729e+01 1.32377636265595e-02 1.31539387479531e-04
1.05000000000000e+01 1.31604646551036e-02 1.31089087488385e-04
1.05508474576271e+01 1.30836170541894e-02 1.30638797142265e-04
1.06016949152542e+01 1.30072181874125e-02 1.30188541638454e-04
1.06525423728814e+01 1.29312654352057e-02 1.29738345705635e-04
1.07033898305085e+01 1.28557561918726e-02 1.29288233944499e-04
1.07542372881356e+01 1.27806878676462e-02 1.28838229612293e-04
1.08050847457627e+01 1.27060578885737e-02 1.28388356438354e-04
1.08559322033898e+01 1.26318636943459e-02 1.27938637442052e-04
1.09067796610169e+01 1.25581027409744e-02 1.27489095210263e-04
1.09576271186441e+01 1.24847724979714e-02 1.27039751939700e-04
1.10084745762712e+01 1.24118704509642e-02 1.26590629408312e-04
1.10593220338983e+01 1.23393940989385e-02 1.26141749295803e-04
1.11101694915254e+01 1.22673409561473e-02 1.25693132036340e-04
1.11610169491525e+01 1.21957085520011e-02 1.25244798531683e-04
1.12118644067797e+01 1.21244944290491e-02 1.24796769034775e-04
1.12627118644068e+01 1.20536961454634e-02 1.24349063411478e-04
1.13135593220339e+01 1.19833112724159e-02 1.23901701448535e-04
1.13644067796610e+01 1.19133373958921e-02 1.23454701750212e-04
1.14152542372881e+01 1.18437721165835e-02 1.23008083385043e-04
1.14661016949153e+01 1.17746130479682e-02 1.22561864811848e-04
1.15169491525424e+01 1.17058578186700e-02 1.22116064131589e-04
1.15677966101695e+01 1.16375040699635e-02 1.21670699124617e-04
1.16186440677966e+01 1.15695494580794e-02 1.21225787224276e-04
1.16694915254237e+01 1.15019916517648e-02 1.20781345807323e-04
1.17203389830508e+01 1.14348283339653e-02 1.20337391151245e-04
1.17711864406780e+01 1.13680572017246e-02 1.19893939989574e-04
1.18220338983051e+01 1.13016759643956e-02 1.19451008497079e-04
1.18728813559322e+01 1.12356823458328e-02 1.19008612527322e-04
1.19237288135593e+01 1.11700740820682e-02 1.18566767647414e-04
1.19745762711864e+01 1.11048489234550e-02 1.18125489112955e-04
1.20254237288136e+01 1.10400046323938e-02 1.17684792142042e-04
1.20762711864407e+01 1.09755389848965e-02 1.17244690929520e-04
1.21271186440678e+01 1.09114497704905e-02 1.16805200116683e-04
1.21779661016949e+01 1.08477347905508e-02 1.16366333831944e-04
1.22288135593220e+01 1.07843918603390e-02 1.15928105915047e-04
1.22796610169492e+01 1.07214188068373e-02 1.15490529949510e-04
1.23305084745763e+01 1.06588134707423e-02 1.15053619238897e-04
1.23813559322034e+01 1.05965737043447e-02 1.14617387065353e-04
1.24322033898305e+01 1.05346973729848e-02 1.14181845757496e-04
1.24830508474576e+01 1.04731823549606e-02 1.13747008079864e-04
1.25338983050847e+01 1.04120265399713e-02 1.13312886325378e-04
1.25847457627119e+01 1.03512278310161e-02 1.12879492527306e-04
1.26355932203390e+01 1.02907841423724e-02 1.12446838489562e-04
1.26864406779661e+01 1.02306934014530e-02 1.12014935764209e-04
1.27372881355932e+01 1.01709535468269e-02 1.11583795895512e-04
1.27881355932203e+01 1.01115625295749e-02 1.11153429538205e-04
1.28389830508475e+01 1.00525183132011e-02 1.10723847771687e-04
1.28898305084746e+01 9.99381887218037e-03 1.10295061241114e-04
1.29406779661017e+01 9.93546219372638e-03 1.09867080357871e-04
1.29915254237288e+01 9.87744627590431e-03 1.09439915534560e-04
1.30423728813559e+01 9.81976912892110e-03 1.09013576335829e-04
1.30932203389831e+01 9.76242877504077e-03 1.08588072743416e-04
1.31440677966102e+01 9.70542324719740e-03 1.08163414329070e-04
1.31949152542373e+01 9.64875059068066e-03 1.07739610447596e-04
1.32457627118644e+01 9.59240886133418e-03 1.07316670263855e-04
1.32966101694915e+01 9.53639612720514e-03 1.06894602732094e-04
1.33474576271186e+01 9.48071046677983e-03 1.06473416818121e-04
1.33983050847458e+01 9.42534997018665e-03 1.06053120695302e-04
1.34491525423729e+01 9.37031273911566e-03 1.05633722941896e-04
1.35000000000000e+01 9.31559688552113e-03 1.05215231758036e-04
1.35508474576271e+01 9.26120053319417e-03 1.04797655148290e-04
1.36016949152542e+01 9.20712181607806e-03 1.04381000946973e-04
1.36525423728814e+01 9.15335887980769e-03 1.03965276798575e-04
1.37033898305085e+01 9.09990988005917e-03 1.03550490367826e-04
1.37542372881356e+01 9.04677298367240e-03 1.03136648578277e-04
1.38050847457627e+01 8.99394636857424e-03 1.02723758746020e-04
1.38559322033898e+01 8.94142822256419e-03 1.02311827837989e-04
1.39067796610169e+01 8.88921674478273e-03 1.01900862644759e-04
1.39576271186441e+01 8.83731014413489e-03 1.01490869804300e-04
1.40084745762712e+01 8.78570664072784e-03 1.01081855783426e-04
1.40593220338983e+01 8.73440446432615e-03 1.00673827076477e-04
1.41101694915254e+01 8.68340185540010e-03 1.00266789484045e-04
1.41610169491525e+01 8.63269706505211e-03 9.98607491868055e-05
1.42118644067797e+01 8.58228835387965e-03 9.94557120427080e-05
1.42627118644068e+01 8.53217399334698e-03 9.90516837506365e-05
1.43135593220339e+01 8.48235226430907e-03 9.86486700418051e-05
1.43644067796610e+01 8.43282145801162e-03 9.82466759847460e-05
1.44152542372881e+01 8.38357987601978e-03 9.78457070198188e-05
1.44661016949153e+01 8.33462582913136e-03 9.74457682818287e-05
1.45169491525424e+01 8.28595763868604e-03 9.70468647578514e-05
1.45677966101695e+01 8.23757363515442e-03 9.66490013084983e-05
1.46186440677966e+01 8.18947215942041e-03 9.62521826509223e-05
1.46694915254237e+01 8.14165156139822e-03 9.58564135400294e-05
1.47203389830508e+01 8.09411020096693e-03 9.54616981096415e-05
1.47711864406780e+01 8.04684644790264e-03 9.50680408528999e-05
1.48220338983051e+01 7.99985868085946e-03 9.46754459801934e-05
1.48728813559322e+01 7.95314528859392e-03 9.42839175686406e-05
1.49237288135593e+01 7.90670466864251e-03 9.38934595820844e-05
1.49745762711864e+01 7.86053522852120e-03 9.35040758549600e-05
1.50254237288136e+01 7.81463538442889e-03 9.31157702639748e-05
1.50762711864407e+01 7.76900356212136e-03 9.27285461033493e-05
1.51271186440678e+01 7.72363819684662e-03 9.23424070142622e-05
1.51779661016949e+01 7.67853773238884e-03 9.19573563760626e-05
1.52288135593220e+01 7.63370062221427e-03 9.15733974478699e-05
1.52796610169492e+01 7.58912532823081e-03 9.11905333874231e-05
1.53305084745763e+01 7.54481032191087e-03 9.08087672357773e-05
1.53813559322034e+01 7.50075408307494e-03 9.04281020798944e-05
1.54322033898305e+01 7.45695510070961e-03 9.00485404601881e-05
1.54830508474576e+01 7.41341187290565e-03 8.96700852519008e-05
1.55338983050847e+01 7.37012290596066e-03 8.92927390875793e-05
1.55847457627119e+01 7.32708671545210e-03 8.89165044913710e-05
1.56355932203390e+01 7.28430182507316e-03 8.85413838967685e-05
1.56864406779661e+01 7.24176676768439e-03 8.81673796320851e-05
1.57372881355932e+01 7.19948008417188e-03 8.77944940745042e-05
1.57881355932203e+01 7.15744032421332e-03 8.74227290880964e-05
1.58389830508475e+01 7.11564604621868e-03 8.70520868598402e-05
1.58898305084746e+01 7.07409581648753e-03 8.66825693516296e-05
1.59406779661017e+01 7.03278821021433e-03 8.63141784276826e-05
1.59915254237288e+01 6.99172181039536e-03 8.59469160031061e-05
1.60423728813559e+01 6.95089520856078e-03 8.55807835018604e-05
