Energy (eV)          EEDF (eV^-(3/2))     First Anisotropy
5.04838709677419e-02 4.10673718573232e-02 2.75975935938053e-05
1.51451612903226e-01 4.06128089391013e-02 4.54721307208913e-05
2.52419354838710e-01 4.01632774469936e-02 5.97657704752780e-05
3.53387096774194e-01 3.97187216896688e-02 7.04662730496083e-05
4.54354838709677e-01 3.92790865920918e-02 7.92604294761944e-05
5.55322580645161e-01 3.88443176888798e-02 8.67900216360288e-05
6.56290322580645e-01 3.84143611175217e-02 9.33891642548107e-05
7.57258064516129e-01 3.79891636116977e-02 9.92607974601828e-05
8.58225806451613e-01 3.75686724952023e-02 1.04540287654653e-04
9.59193548387097e-01 3.71528356737831e-02 1.09323851243222e-04
1.06016129032258e+00 3.67416016299828e-02 1.13683110925469e-04
1.16112903225806e+00 3.63349194181593e-02 1.17673293566036e-04
1.26209677419355e+00 3.59327386552346e-02 1.21338184029596e-04
1.36306451612903e+00 3.55350095128627e-02 1.24713285495880e-04
1.46403225806452e+00 3.51416827205770e-02 1.27827927406334e-04
1.56500000000000e+00 3.47527095499220e-02 1.30706721902322e-04
1.66596774193548e+00 3.43680418118038e-02 1.33370599508948e-04
1.76693548387097e+00 3.39876318505440e-02 1.35837566127437e-04
1.86790322580645e+00 3.36114325379857e-02 1.38123267934399e-04
1.96887096774194e+00 3.32393972657284e-02 1.40241420351846e-04
2.06983870967742e+00 3.28714799452120e-02 1.42204140578067e-04
2.17080645161290e+00 3.25076349959585e-02 1.44022208657443e-04
2.27177419354839e+00 3.21478173420093e-02 1.45705274260075e-04
2.37274193548387e+00 3.17919824063609e-02 1.47262023889914e-04
2.47370967741935e+00 3.14400861039948e-02 1.48700316172433e-04
2.57467741935484e+00 3.10920848408054e-02 1.50027293657319e-04
2.67564516129032e+00 3.07479355036932e-02 1.51249475522443e-04
2.77661290322581e+00 3.04075954567603e-02 1.52372834296226e-04
2.87758064516129e+00 3.00710225360492e-02 1.53402861125873e-04
2.97854838709677e+00 2.97381750431837e-02 1.54344620464898e-04
3.07951612903226e+00 2.94090117436397e-02 1.55202797316271e-04
3.18048387096774e+00 2.90834918581216e-02 1.55981737809244e-04
3.28145161290323e+00 2.87615750587013e-02 1.56685483574157e-04
3.38241935483871e+00 2.84432214638408e-02 1.57317802158211e-04
3.48338709677419e+00 2.81283916325342e-02 1.57882212976647e-04
3.58435483870968e+00 2.78170465621940e-02 1.58382010557996e-04
3.68532258064516e+00 2.75091476809897e-02 1.58820285010063e-04
3.78629032258065e+00 2.72046568440273e-02 1.59199939525493e-04
3.88725806451613e+00 2.69035363286337e-02 1.59523706425560e-04
3.98822580645161e+00 2.66057488289304e-02 1.59794160932454e-04
4.08919354838710e+00 2.63112574534974e-02 1.60013733928171e-04
4.19016129032258e+00 2.60200257184732e-02 1.60184723397162e-04
4.29112903225806e+00 2.57320175438233e-02 1.60309304202688e-04
4.39209677419355e+00 2.54471972488754e-02 1.60389537364690e-04
4.49306451612903e+00 2.51655295472702e-02 1.60427377994474e-04
4.59403225806452e+00 2.48869795445052e-02 1.60424682901121e-04
4.69500000000000e+00 2.46115127316609e-02 1.60383217511879e-04
4.79596774193548e+00 2.43390949817862e-02 1.60304661723137e-04
4.89693548387097e+00 2.40696925456719e-02 1.60190615582202e-04
4.99790322580645e+00 2.38032720476716e-02 1.60042604471079e-04
5.09887096774194e+00 2.35398004810497e-02 1.59862083547985e-04
5.19983870967742e+00 2.32792452054614e-02 1.59650442194968e-04
5.30080645161290e+00 2.30215739413137e-02 1.59409008120129e-04
5.40177419354839e+00 2.27667547663066e-02 1.59139050745788e-04
5.50274193548387e+00 2.25147561114812e-02 1.58841784710113e-04
5.60370967741935e+00 2.22655467568632e-02 1.58518372751847e-04
5.70467741935484e+00 2.20190958289452e-02 1.58169928718192e-04
5.80564516129032e+00 2.17753727954908e-02 1.57797520365189e-04
5.90661290322581e+00 2.15343474622149e-02 1.57402171604822e-04
6.00758064516129e+00 2.12959899690465e-02 1.56984864935392e-04
6.10854838709677e+00 2.10602707860425e-02 1.56546543385920e-04
6.20951612903226e+00 2.08271607109003e-02 1.56088112636111e-04
6.31048387096774e+00 2.05966308641521e-02 1.55610443005902e-04
6.41145161290323e+00 2.03686526859868e-02 1.55114370994381e-04
6.51241935483871e+00 2.01431979327158e-02 1.54600701030342e-04
6.61338709677419e+00 1.99202386729356e-02 1.54070206822657e-04
6.71435483870968e+00 1.96997472850904e-02 1.53523632906995e-04
6.81532258064516e+00 1.94816964530127e-02 1.52961696107225e-04
6.91629032258064e+00 1.92660591628888e-02 1.52385086617136e-04
7.01725806451613e+00 1.90528086999143e-02 1.51794469301325e-04
7.11822580645161e+00 1.88419186446880e-02 1.51190484655815e-04
7.21919354838710e+00 1.86333628708376e-02 1.50573749970147e-04
7.32016129032258e+00 1.84271155408714e-02 1.49944860431616e-04
7.42112903225806e+00 1.82231511032850e-02 1.49304389901693e-04
7.52209677419355e+00 1.80214442893970e-02 1.48652891908699e-04
7.62306451612903e+00 1.78219701099569e-02 1.47990900344744e-04
7.72403225806452e+00 1.76247038528426e-02 1.47318930360845e-04
7.82500000000000e+00 1.74296210791951e-02 1.46637479221664e-04
7.92596774193548e+00 1.72366976206615e-02 1.45947026872222e-04
8.02693548387097e+00 1.70459095764018e-02 1.45248036668901e-04
8.12790322580645e+00 1.68572333101279e-02 1.44540956069148e-04
8.22887096774194e+00 1.66706454469496e-02 1.43826217115991e-04
8.32983870967742e+00 1.64861228711639e-02 1.43104237110475e-04
8.43080645161290e+00 1.63036427226968e-02 1.42375419257196e-04
8.53177419354839e+00 1.61231823945057e-02 1.41640153059808e-04
8.63274193548387e+00 1.59447195297797e-02 1.40898814911471e-04
8.73370967741936e+00 1.57682320189679e-02 1.40151768457531e-04
8.83467741935484e+00 1.55936979976508e-02 1.39399365136132e-04
8.93564516129032e+00 1.54210958432137e-02 1.38641944699293e-04
9.03661290322581e+00 1.52504041723761e-02 1.37879835508933e-04
9.13758064516129e+00 1.50816018385434e-02 1.37113355016269e-04
9.23854838709677e+00 1.49146679290066e-02 1.36342810035885e-04
9.33951612903226e+00 1.47495817628980e-02 1.35568497187091e-04
9.44048387096774e+00 1.45863228880759e-02 1.34790703320912e-04
9.54145161290323e+00 1.44248710787770e-02 1.34009705743191e-04
9.64241935483871e+00 1.42652063331119e-02 1.33225772609342e-04
9.74338709677419e+00 1.41073088704249e-02 1.32439163132922e-04
9.84435483870968e+00 1.39511591293335e-02 1.31650127950841e-04
9.94532258064516e+00 1.37967377648089e-02 1.30858909477779e-04
1.00462903225806e+01 1.36440256459469e-02 1.30065742106552e-04
1.01472580645161e+01 1.34930038534493e-02 1.29270852288167e-04
1.02482258064516e+01 1.33436536783087e-02 1.28474459402890e-04
1.03491935483871e+01 1.31959566164308e-02 1.27676775147454e-04
1.04501612903226e+01 1.30498943714069e-02 1.26878004325748e-04
1.05511290322581e+01 1.29054488465292e-02 1.26078344971241e-04
1.06520967741935e+01 1.27626021481620e-02 1.25277988217381e-04
1.07530645161290e+01 1.26213365793244e-02 1.24477119710954e-04
1.08540322580645e+01 1.24816346376509e-02 1.23675918044371e-04
1.09550000000000e+01 1.23434790170850e-02 1.22874556102918e-04
1.10559677419355e+01 1.22068526005925e-02 1.22073201003775e-04
1.11569354838710e+01 1.20717384630904e-02 1.21272014220013e-04
1.12579032258065e+01 1.19381198643911e-02 1.20471151808577e-04
1.13588709677419e+01 1.18059802519982e-02 1.19670764266997e-04
1.14598387096774e+01 1.16753032554125e-02 1.18870997775561e-04
1.15608064516129e+01 1.15460726842326e-02 1.18071992766815e-04
1.16617741935484e+01 1.14182725295074e-02 1.17273885111137e-04
1.17627419354839e+01 1.12918869572802e-02 1.16476806039578e-04
1.18637096774194e+01 1.11669003110209e-02 1.15680881997939e-04
1.19646774193548e+01 1.10432971063987e-02 1.14886235780288e-04
1.20656451612903e+01 1.09210620294760e-02 1.14092985195164e-04
1.21666129032258e+01 1.08001799378494e-02 1.13301244147861e-04
1.22675806451613e+01 1.06806358547296e-02 1.12511122557997e-04
1.23685483870968e+01 1.05624149710593e-02 1.11722726432179e-04
1.24695161290323e+01 1.04455026397737e-02 1.10936158023460e-04
1.25704838709677e+01 1.03298843778234e-02 1.10151515685056e-04
1.26714516129032e+01 1.02155458615080e-02 1.09368894875288e-04
1.27724193548387e+01 1.01024729247996e-02 1.08588386943560e-04
1.28733870967742e+01 9.99065156024403e-03 1.07810080091507e-04
1.29743548387097e+01 9.88006791368745e-03 1.07034059285401e-04
1.30753225806452e+01 9.77070828603819e-03 1.06260406309686e-04
1.31762903225806e+01 9.66255912815014e-03 1.05489199898854e-04
1.32772580645161e+01 9.55560704250530e-03 1.04720515594020e-04
1.33782258064516e+01 9.44983877903969e-03 1.03954426638107e-04
1.34791935483871e+01 9.34524123358360e-03 1.03191002871591e-04
1.35801612903226e+01 9.24180144857076e-03 1.02430311588446e-04
1.36811290322581e+01 9.13950660832717e-03 1.01672417447777e-04
1.37820967741935e+01 9.03834404053749e-03 1.00917382335311e-04
1.38830645161290e+01 8.93830121238940e-03 1.00165266186540e-04
1.39840322580645e+01 8.83936572909499e-03 9.94161259578592e-05
1.40850000000000e+01 8.74152533447725e-03 9.86700164143320e-05
1.41859677419355e+01 8.64476790662614e-03 9.79269900425870e-05
1.42869354838710e+01 8.54908145917567e-03 9.71870970822422e-05
1.43879032258065e+01 8.45445413708571e-03 9.64503856228558e-05
1.44888709677419e+01 8.36087421786151e-03 9.57169014718010e-05
1.45898387096774e+01 8.26833010808984e-03 9.49866888910427e-05
1.46908064516129e+01 8.17681034206647e-03 9.42597896614678e-05
1.47917741935484e+01 8.08630358224636e-03 9.35362437882792e-05
1.48927419354839e+01 7.99679861534799e-03 9.28160894161505e-05
1.49937096774194e+01 7.90828435341493e-03 9.20993627029042e-05
1.50946774193548e+01 7.82074983060820e-03 9.13860984995649e-05
1.51956451612903e+01 7.73418420190442e-03 9.06763294782455e-05
1.52966129032258e+01 7.64857674346044e-03 8.99700867832104e-05
1.53975806451613e+01 7.56391684901102e-03 8.92673999489909e-05
1.54985483870968e+01 7.48019403079179e-03 8.85682969182526e-05
1.55995161290323e+01 7.39739791603878e-03 8.78728041146242e-05
1.57004838709677e+01 7.31551824786937e-03 8.71809463240001e-05
1.58014516129032e+01 7.23454488239037e-03 8.64927473053724e-05
1.59024193548387e+01 7.15446778749150e-03 8.58082289974743e-05
1.60033870967742e+01 7.07527704311325e-03 8.51274121041577e-05
1.61043548387097e+01 6.99696283800601e-03 8.44503160160383e-05
1.62053225806452e+01 6.91951547049470e-03 8.37769588230330e-05
1.63062903225806e+01 6.84292534532799e-03 8.31073573766107e-05
1.64072580645161e+01 6.76718297440742e-03 8.24415271785399e-05
1.65082258064516e+01 6.69227897417708e-03 8.17794829309121e-05
1.66091935483871e+01 6.61820406450390e-03 8.11212378142293e-05
1.67101612903226e+01 6.54494906886785e-03 8.04668040142693e-05
1.68111290322581e+01 6.47250491144115e-03 7.98161926480185e-05
1.69120967741935e+01 6.40086261771993e-03 7.91694136583730e-05
1.70130645161290e+01 6.33001331209815e-03 7.85264763235721e-05
1.71140322580645e+01 6.25994821680712e-03 7.78873885837579e-05
1.72150000000000e+01 6.19065865205590e-03 7.72521575292208e-05
1.73159677419355e+01 6.12213603332123e-03 7.66207893297098e-05
1.74169354838710e+01 6.05437187189337e-03 7.59932892404998e-05
1.75179032258065e+01 5.98735777223997e-03 7.53696616503017e-05
1.76188709677419e+01 5.92108543252586e-03 7.47499099832763e-05
1.77198387096774e+01 5.85554664241725e-03 7.41340371587958e-05
1.78208064516129e+01 5.79073328209873e-03 7.35220449782503e-05
1.79217741935484e+01 5.72663732235913e-03 7.29139345657811e-05
1.80227419354839e+01 5.66325082214307e-03 7.23097063018779e-05
1.81237096774194e+01 5.60056592899864e-03 7.17093597307843e-05
1.82246774193548e+01 5.53857487703328e-03 7.11128939872388e-05
1.83256451612903e+01 5.47726998598249e-03 7.05203072240710e-05
1.84266129032258e+01 5.41664366126138e-03 6.99315970212192e-05
1.85275806451613e+01 5.35668839168866e-03 6.93467603227400e-05
1.86285483870968e+01 5.29739674987075e-03 6.87657934387746e-05
1.87295161290323e+01 5.23876138998694e-03 6.81886920828433e-05
1.88304838709677e+01 5.18077504815438e-03 6.76154512860701e-05
1.89314516129032e+01 5.12343054057383e-03 6.70460657830046e-05
1.90324193548387e+01 5.06672076266712e-03 6.64805294900889e-05
1.91333870967742e+01 5.01063868909086e-03 6.59188358757312e-05
1.92343548387097e+01 4.95517737167587e-03 6.53609779013696e-05
1.93353225806452e+01 4.90032993973868e-03 6.48069480218196e-05
1.94362903225806e+01 4.84608959807563e-03 6.42567382177101e-05
1.95372580645161e+01 4.79244962725831e-03 6.37103399159835e-05
1.96382258064516e+01 4.73940338195014e-03 6.31677443392774e-05
1.97391935483871e+01 4.68694429010695e-03 6.26289420305674e-05
1.98401612903226e+01 4.63506585296088e-03 6.20939231881353e-05
1.99411290322581e+01 4.58376164315270e-03 6.15626776107285e-05
2.00420967741935e+01 4.53302530498230e-03 6.10351946226876e-05
2.01430645161290e+01 4.48285055283781e-03 6.05114633988696e-05
2.02440322580645e+01 4.43323117043889e-03 5.99914725204722e-05
2.03450000000000e+01 4.38416101080157e-03 5.94752102866685e-05
2.04459677419355e+01 4.33563399449817e-03 5.89626646626974e-05
2.05469354838710e+01 4.28764410986818e-03 5.84538232782648e-05
2.06479032258065e+01 4.24018541132372e-03 5.79486734531001e-05
2.07488709677419e+01 4.19325201954860e-03 5.74472021277629e-05
2.08498387096774e+01 4.14683812006975e-03 5.69493961582581e-05
2.09508064516129e+01 4.10093796255620e-03 5.64552419109017e-05
2.10517741935484e+01 4.05554586076419e-03 5.59647255449118e-05
2.11527419354839e+01 4.01065619095732e-03 5.54778329641721e-05
2.12537096774194e+01 3.96626339207239e-03 5.49945497520534e-05
2.13546774193548e+01 3.92236196438489e-03 5.45148614457817e-05
2.14556451612903e+01 3.87894646884525e-03 5.40387531576578e-05
2.15566129032258e+01 3.83601152701163e-03 5.35662098381794e-05
2.16575806451613e+01 3.79355181957611e-03 5.30972162305066e-05
2.17585483870968e+01 3.75156208650133e-03 5.26317568676844e-05
2.18595161290323e+01 3.71003712558480e-03 5.21698160929033e-05
2.19604838709677e+01 3.66897179258703e-03 5.17113779993796e-05
2.20614516129032e+01 3.62836100001589e-03 5.12564266793938e-05
2.21624193548387e+01 3.58819971651218e-03 5.08049458785865e-05
2.22633870967742e+01 3.54848296676977e-03 5.03569192349402e-05
2.23643548387097e+01 3.50920583019557e-03 4.99123302364847e-05
2.24653225806452e+01 3.47036344101315e-03 4.94711622181024e-05
2.25662903225806e+01 3.43195098695697e-03 4.90333983793042e-05
2.26672580645161e+01 3.39396370936896e-03 4.85990217287131e-05
2.27682258064516e+01 3.35639690209059e-03 4.81680153103826e-05
2.28691935483871e+01 3.31924591089370e-03 4.77403618881689e-05
2.29701612903226e+01 3.28250613339158e-03 4.73160441628006e-05
2.30711290322581e+01 3.24617301781954e-03 4.68950447327408e-05
2.31720967741935e+01 3.21024206311089e-03 4.64773460419665e-05
2.32730645161290e+01 3.17470881786044e-03 4.60629305909863e-05
2.33740322580645e+01 3.13956887978566e-03 4.56517806414946e-05
2.34750000000000e+01 3.10481789563221e-03 4.52438784188332e-05
2.35759677419355e+01 3.07045156003442e-03 4.48392060750449e-05
2.36769354838710e+01 3.03646561557344e-03 4.44377456852249e-05
2.37779032258065e+01 3.00285585166676e-03 4.40394792617012e-05
2.38788709677419e+01 2.96961810462126e-03 4.36443887058835e-05
2.39798387096774e+01 2.93674825668725e-03 4.32524560001817e-05
2.40808064516129e+01 2.90424223555974e-03 4.28636629381915e-05
2.41817741935484e+01 2.87209601427890e-03 4.24779913088398e-05
2.42827419354839e+01 2.84030561019200e-03 4.20954228621871e-05
2.43837096774194e+01 2.80886708499152e-03 4.17159392640972e-05
2.44846774193548e+01 2.77777654382944e-03 4.13395222753656e-05
2.45856451612903e+01 2.74703013484504e-03 4.09661534991217e-05
2.46866129032258e+01 2.71662404906267e-03 4.05958145526656e-05
2.47875806451613e+01 2.68655451942078e-03 4.02284870352334e-05
2.48885483870968e+01 2.65681782079718e-03 3.98641525241596e-05
2.49895161290323e+01 2.62741026906258e-03 3.95027925862250e-05
2.50904838709677e+01 2.59832822110226e-03 3.91443887359172e-05
2.51914516129032e+01 2.56956807400688e-03 3.87889225984501e-05
2.52924193548387e+01 2.54112626463551e-03 3.84363756788675e-05
2.53933870967742e+01 2.51299926951140e-03 3.80867295185258e-05
2.54943548387097e+01 2.48518360393649e-03 3.77399656652396e-05
2.55953225806452e+01 2.45767582200238e-03 3.73960656694335e-05
2.56962903225806e+01 2.43047251572695e-03 3.70550110941496e-05
2.57972580645161e+01 2.40357031506248e-03 3.67167834765406e-05
2.58982258064516e+01 2.37696588715610e-03 3.63813644763774e-05
2.59991935483871e+01 2.35065593594516e-03 3.60487356649427e-05
2.61001612903226e+01 2.32463720205267e-03 3.57188786675068e-05
2.62011290322581e+01 2.29890646197907e-03 3.53917751357587e-05
2.63020967741935e+01 2.27346052810164e-03 3.50674067115914e-05
2.64030645161290e+01 2.24829624798117e-03 3.47457551658211e-05
2.65040322580645e+01 2.22341050397902e-03 3.44268022004075e-05
2.66050000000000e+01 2.19880021315247e-03 3.41105295815856e-05
2.67059677419355e+01 2.17446232649797e-03 3.37969191138530e-05
2.68069354838710e+01 2.15039382894295e-03 3.34859526361837e-05
2.69079032258065e+01 2.12659173860791e-03 3.31776120300634e-05
2.70088709677419e+01 2.10305310679627e-03 3.28718791861125e-05
2.71098387096774e+01 2.07977501736023e-03 3.25687361305232e-05
2.72108064516129e+01 2.05675458634624e-03 3.22681648441369e-05
2.73117741935484e+01 2.03398896189160e-03 3.19701473837843e-05
2.74127419354839e+01 2.01147532353322e-03 3.16746658582508e-05
2.75137096774194e+01 1.98921088219142e-03 3.13817023968640e-05
2.76146774193548e+01 1.96719287957499e-03 3.10912392676937e-05
2.77156451612903e+01 1.94541858784578e-03 3.08032587079774e-05
2.78166129032258e+01 1.92388530951624e-03 3.05177430375391e-05
2.79175806451613e+01 1.90259037680176e-03 3.02346746361413e-05
2.80185483870968e+01 1.88153115159931e-03 2.99540359398375e-05
2.81195161290323e+01 1.86070502485571e-03 2.96758094474299e-05
2.82204838709677e+01 1.84010941654511e-03 2.93999776915458e-05
2.83214516129032e+01 1.81974177512427e-03 2.91265233464168e-05
2.84224193548387e+01 1.79959957722217e-03 2.88554290726848e-05
2.85233870967742e+01 1.77968032753989e-03 2.85866776208717e-05
2.86243548387097e+01 1.75998155825857e-03 2.83202518104326e-05
2.87253225806452e+01 1.74050082901269e-03 2.80561345262291e-05
2.88262903225806e+01 1.72123572631253e-03 2.77943087242322e-05
2.89272580645161e+01 1.70218386351662e-03 2.75347574048494e-05
2.90282258064516e+01 1.68334288033291e-03 2.72774637112828e-05
2.91291935483871e+01 1.66471044253142e-03 2.70224107874641e-05
2.92301612903226e+01 1.64628424184703e-03 2.67695818724347e-05
2.93311290322581e+01 1.62806199543794e-03 2.65189602810140e-05
2.94320967741935e+01 1.61004144585493e-03 2.62705293787100e-05
2.95330645161290e+01 1.59222036057302e-03 2.60242726737222e-05
2.96340322580645e+01 1.57459653171961e-03 2.57801736837113e-05
2.97350000000000e+01 1.55716777597921e-03 2.55382160241031e-05
2.98359677419355e+01 1.53993193408561e-03 2.52983833898583e-05
2.99369354838710e+01 1.52288687078853e-03 2.50606595521603e-05
3.00379032258065e+01 1.50603047435810e-03 2.48250283630005e-05
3.01388709677419e+01 1.48936065655104e-03 2.45914737320575e-05
3.02398387096774e+01 1.47287535218153e-03 2.43599797106877e-05
3.03408064516129e+01 1.45657251886947e-03 2.41305303699133e-05
3.04417741935484e+01 1.44045013694872e-03 2.39031098810325e-05
3.05427419354839e+01 1.42450620900229e-03 2.36777024987838e-05
3.06437096774194e+01 1.40873875982652e-03 2.34542925395819e-05
3.07446774193548e+01 1.39314583602800e-03 2.32328644601289e-05
3.08456451612903e+01 1.37772550578540e-03 2.30134027429509e-05
3.09466129032258e+01 1.36247585876004e-03 2.27958919718399e-05
3.10475806451613e+01 1.34739500565971e-03 2.25803168159889e-05
3.11485483870968e+01 1.33248107820141e-03 2.23666620269097e-05
3.12495161290323e+01 1.31773222868577e-03 2.21549124421221e-05
3.13504838709677e+01 1.30314662995963e-03 2.19450529651056e-05
3.14514516129032e+01 1.28872247504634e-03 2.17370686370907e-05
3.15524193548387e+01 1.27445797692542e-03 2.15309445321913e-05
3.16533870967742e+01 1.26035136844679e-03 2.13266658263240e-05
3.17543548387097e+01 1.24640090193127e-03 2.11242177825442e-05
3.18553225806452e+01 1.23260484913219e-03 2.09235857481125e-05
