Energy (eV)          EEDF (eV^-(3/2))     First Anisotropy
1.46153846153846e-02 1.21712059054406e-01 6.32117494047451e-05
4.38461538461538e-02 1.20906759881811e-01 1.04386177635214e-04
7.30769230769231e-02 1.20106788912137e-01 1.37816453270935e-04
1.02307692307692e-01 1.19312110894111e-01 1.63222755312683e-04
1.31538461538462e-01 1.18522690806033e-01 1.84419431754114e-04
1.60769230769231e-01 1.17738493861096e-01 2.02848084284562e-04
1.90000000000000e-01 1.16959485500197e-01 2.19254471450459e-04
2.19230769230769e-01 1.16185631389527e-01 2.34088773685024e-04
2.48461538461538e-01 1.15416897430545e-01 2.47649453009422e-04
2.77692307692308e-01 1.14653249745827e-01 2.60147382440826e-04
3.06923076923077e-01 1.13894654682177e-01 2.71738606272621e-04
3.36153846153846e-01 1.13141078806870e-01 2.82542744670713e-04
3.65384615384615e-01 1.12392488913321e-01 2.92654089103396e-04
3.94615384615385e-01 1.11648852012026e-01 3.02148666335410e-04
4.23846153846154e-01 1.10910135331738e-01 3.11088935311391e-04
4.53076923076923e-01 1.10176306318109e-01 3.19527025351786e-04
4.82307692307692e-01 1.09447332630677e-01 3.27507034954723e-04
5.11538461538461e-01 1.08723182146131e-01 3.35066706911647e-04
5.40769230769231e-01 1.08003822952027e-01 3.42238675406504e-04
5.70000000000000e-01 1.07289223347089e-01 3.49051411551033e-04
5.99230769230769e-01 1.06579351838609e-01 3.55529952850475e-04
6.28461538461538e-01 1.05874177144726e-01 3.61696474827722e-04
6.57692307692308e-01 1.05173668189262e-01 3.67570744542002e-04
6.86923076923077e-01 1.04477794101656e-01 3.73170484070040e-04
7.16153846153846e-01 1.03786524214637e-01 3.78511665445036e-04
7.45384615384615e-01 1.03099828065856e-01 3.83608752756391e-04
7.74615384615385e-01 1.02417675393476e-01 3.88474902289261e-04
8.03846153846154e-01 1.01740036135880e-01 3.93122128652294e-04
8.33076923076923e-01 1.01066880430363e-01 3.97561444837219e-04
8.62307692307692e-01 1.00398178611033e-01 4.01802980044837e-04
8.91538461538462e-01 9.97339012098722e-02 4.05856080440658e-04
9.20769230769231e-01 9.90740189530112e-02 4.09729395397976e-04
9.50000000000000e-01 9.84185027602760e-02 4.13430951247461e-04
9.79230769230769e-01 9.77673237432372e-02 4.16968215078929e-04
1.00846153846154e+00 9.71204532059668e-02 4.20348150272989e-04
1.03769230769231e+00 9.64778626435295e-02 4.23577266249648e-04
1.06692307692308e+00 9.58395237352843e-02 4.26661659886919e-04
1.09615384615385e+00 9.52054083504972e-02 4.29607052477732e-04
1.12538461538462e+00 9.45754885445566e-02 4.32418823927690e-04
1.15461538461538e+00 9.39497365577419e-02 4.35102041670066e-04
1.18384615384615e+00 9.33281248139857e-02 4.37661486743778e-04
1.21307692307692e+00 9.27106259196901e-02 4.40101677067922e-04
1.24230769230769e+00 9.20972126625037e-02 4.42426888277956e-04
1.27153846153846e+00 9.14878580101214e-02 4.44641172419580e-04
1.30076923076923e+00 9.08825351090942e-02 4.46748374776202e-04
1.33000000000000e+00 9.02812172836453e-02 4.48752148233898e-04
1.35923076923077e+00 8.96838780389038e-02 4.50655969493203e-04
1.38846153846154e+00 8.90904910463697e-02 4.52463149859899e-04
1.41769230769231e+00 8.85010301562674e-02 4.54176844892301e-04
1.44692307692308e+00 8.79154693918384e-02 4.55800067237217e-04
1.47615384615385e+00 8.73337829481962e-02 4.57335695189435e-04
1.50538461538462e+00 8.67559451911896e-02 4.58786481295217e-04
1.53461538461538e+00 8.61819306562728e-02 4.60155060236395e-04
1.56384615384615e+00 8.56117140473758e-02 4.61443956062386e-04
1.59307692307692e+00 8.50452702358057e-02 4.62655588843367e-04
1.62230769230769e+00 8.44825742591312e-02 4.63792280801355e-04
1.65153846153846e+00 8.39236013200823e-02 4.64856261961746e-04
1.68076923076923e+00 8.33683267854577e-02 4.65849675377194e-04
1.71000000000000e+00 8.28167261850392e-02 4.66774581298370e-04
1.73923076923077e+00 8.22687752136653e-02 4.67632963657710e-04
1.76846153846154e+00 8.17244497206164e-02 4.68426732882724e-04
1.79769230769231e+00 8.11837257181851e-02 4.69157728406841e-04
1.82692307692308e+00 8.06465793773762e-02 4.69827724309229e-04
1.85615384615385e+00 8.01129870268569e-02 4.70438431979338e-04
1.88538461538462e+00 7.95829251519136e-02 4.70991503242667e-04
1.91461538461538e+00 7.90563703934155e-02 4.71488533281355e-04
1.94384615384615e+00 7.85332995467808e-02 4.71931063361911e-04
1.97307692307692e+00 7.80136895609636e-02 4.72320583390976e-04
2.00230769230769e+00 7.74975175374336e-02 4.72658534312630e-04
2.03153846153846e+00 7.69847607291660e-02 4.72946310354131e-04
2.06076923076923e+00 7.64753965396401e-02 4.73185261135963e-04
2.09000000000000e+00 7.59694025218430e-02 4.73376693104708e-04
2.11923076923077e+00 7.54667563796491e-02 4.73521873062099e-04
2.14846153846154e+00 7.49674359596717e-02 4.73622028807885e-04
2.17769230769231e+00 7.44714192575143e-02 4.73678349673338e-04
2.20692307692308e+00 7.39786844143704e-02 4.73691989780111e-04
2.23615384615385e+00 7.34892097160604e-02 4.73664068947955e-04
2.26538461538462e+00 7.30029735920750e-02 4.73595674090115e-04
2.29461538461538e+00 7.25199546146240e-02 4.73487860534019e-04
2.32384615384615e+00 7.20401314976898e-02 4.73341653269264e-04
2.35307692307692e+00 7.15634830960949e-02 4.73158048131279e-04
2.38230769230769e+00 7.10899884045670e-02 4.72938012925108e-04
2.41153846153846e+00 7.06196265568137e-02 4.72682488489442e-04
2.44076923076923e+00 7.01523768246025e-02 4.72392389707555e-04
2.47000000000000e+00 6.96882186168479e-02 4.72068606002935e-04
2.49923076923077e+00 6.92271314805435e-02 4.71712003655596e-04
2.52846153846154e+00 6.87690950942972e-02 4.71323425730584e-04
2.55769230769231e+00 6.83140892730438e-02 4.70903691956661e-04
2.58692307692308e+00 6.78620939652710e-02 4.70453600944651e-04
2.61615384615385e+00 6.74130892521355e-02 4.69973930458850e-04
2.64538461538462e+00 6.69670553465856e-02 4.69465438133492e-04
2.67461538461538e+00 6.65239725924891e-02 4.68928862156956e-04
2.70384615384615e+00 6.60838214637647e-02 4.68364921923464e-04
2.73307692307692e+00 6.56465825635263e-02 4.67774318656932e-04
2.76230769230769e+00 6.52122366232257e-02 4.67157736008371e-04
2.79153846153846e+00 6.47807645018035e-02 4.66515840625673e-04
2.82076923076923e+00 6.43521471848455e-02 4.65849282699380e-04
2.85000000000000e+00 6.39263657837451e-02 4.65158696088129e-04
2.87923076923077e+00 6.35034015363345e-02 4.64444700017600e-04
2.90846153846154e+00 6.30832358016338e-02 4.63707898757550e-04
2.93769230769231e+00 6.26658500634866e-02 4.62948881271650e-04
2.96692307692308e+00 6.22512259282475e-02 4.62168222880197e-04
2.99615384615385e+00 6.18393451239709e-02 4.61366485274280e-04
3.02538461538462e+00 6.14301894996066e-02 4.60544216922584e-04
3.05461538461538e+00 6.10237410241989e-02 4.59701953462557e-04
3.08384615384615e+00 6.06199817860913e-02 4.58840218075117e-04
3.11307692307692e+00 6.02188939921399e-02 4.57959521845757e-04
3.14230769230769e+00 5.98204599669279e-02 4.57060364112739e-04
3.17153846153846e+00 5.94246621519862e-02 4.56143232800887e-04
3.20076923076923e+00 5.90314831050204e-02 4.55208604743314e-04
3.23000000000000e+00 5.86409054991413e-02 4.54256945648973e-04
3.25923076923077e+00 5.82529121232876e-02 4.53288711433762e-04
3.28846153846154e+00 5.78674858778851e-02 4.52304347816702e-04
3.31769230769231e+00 5.74846097777010e-02 4.51304289898950e-04
3.34692307692308e+00 5.71042669498837e-02 4.50288963483672e-04
3.37615384615385e+00 5.67264406332198e-02 4.49258784981337e-04
3.40538461538462e+00 5.63511141773950e-02 4.48214161658837e-04
3.43461538461538e+00 5.59782710422607e-02 4.47155491880374e-04
3.46384615384615e+00 5.56078947971037e-02 4.46083165339028e-04
3.49307692307692e+00 5.52399691199246e-02 4.44997563281272e-04
3.52230769230769e+00 5.48744777967172e-02 4.43899058724482e-04
3.55153846153846e+00 5.45114047207541e-02 4.42788016666230e-04
3.58076923076923e+00 5.41507338918768e-02 4.41664794287131e-04
3.61000000000000e+00 5.37924494157908e-02 4.40529740849939e-04
3.63923076923077e+00 5.34365355043383e-02 4.39383198785356e-04
3.66846153846154e+00 5.30829764718624e-02 4.38225503275848e-04
3.69769230769231e+00 5.27317567374762e-02 4.37056981827412e-04
3.72692307692308e+00 5.23828608233828e-02 4.35877955354928e-04
3.75615384615385e+00 5.20362733541927e-02 4.34688738043030e-04
3.78538461538462e+00 5.16919790562466e-02 4.33489637507757e-04
3.81461538461538e+00 5.13499627569422e-02 4.32280954953615e-04
3.84384615384615e+00 5.10102093840649e-02 4.31062985325019e-04
3.87307692307692e+00 5.06727039651250e-02 4.29836017453655e-04
3.90230769230769e+00 5.03374316266972e-02 4.28600334202044e-04
3.93153846153846e+00 5.00043775937651e-02 4.27356212601952e-04
3.96076923076923e+00 4.96735271890701e-02 4.26103923988981e-04
3.99000000000000e+00 4.93448658324646e-02 4.24843733874061e-04
4.01923076923077e+00 4.90183790410775e-02 4.23575902852231e-04
4.04846153846154e+00 4.86940524262359e-02 4.22300686202520e-04
4.07769230769231e+00 4.83718716952873e-02 4.21018333478745e-04
4.10692307692308e+00 4.80518226501453e-02 4.19729089422518e-04
4.13615384615385e+00 4.77338911866642e-02 4.18433193809264e-04
4.16538461538462e+00 4.74180632940174e-02 4.17130881558178e-04
4.19461538461538e+00 4.71043250540797e-02 4.15822382839303e-04
4.22384615384615e+00 4.67926626408138e-02 4.14507923177023e-04
4.25307692307692e+00 4.64830623196618e-02 4.13187723551200e-04
4.28230769230769e+00 4.61755104469395e-02 4.11862000495877e-04
4.31153846153846e+00 4.58699934692352e-02 4.10530966194838e-04
4.34076923076923e+00 4.55664979228123e-02 4.09194828574749e-04
4.37000000000000e+00 4.52650104330160e-02 4.07853791168595e-04
4.39923076923077e+00 4.49655177143610e-02 4.06508053889296e-04
4.42846153846154e+00 4.46680065679020e-02 4.05157812657016e-04
4.45769230769231e+00 4.43724638827088e-02 4.03803259019301e-04
4.48692307692308e+00 4.40788766345992e-02 4.02444580930909e-04
4.51615384615385e+00 4.37872318855641e-02 4.01081962599305e-04
4.54538461538462e+00 4.34975167831982e-02 3.99715584562154e-04
4.57461538461538e+00 4.32097185601327e-02 3.98345623763020e-04
4.60384615384615e+00 4.29238245334732e-02 3.96972253624670e-04
4.63307692307692e+00 4.26398221042409e-02 3.95595644120909e-04
4.66230769230769e+00 4.23576987568172e-02 3.94215961846890e-04
4.69153846153846e+00 4.20774420583924e-02 3.92833370087234e-04
4.72076923076923e+00 4.17990396584174e-02 3.91448028882708e-04
4.75000000000000e+00 4.15224792880596e-02 3.90060094895239e-04
4.77923076923077e+00 4.12477487602339e-02 3.88669722074376e-04
4.80846153846154e+00 4.09748359673400e-02 3.87277061315700e-04
4.83769230769231e+00 4.07037288824654e-02 3.85882260113201e-04
4.86692307692308e+00 4.04344155582726e-02 3.84485463232709e-04
4.89615384615385e+00 4.01668841264728e-02 3.83086812563609e-04
4.92538461538462e+00 3.99011227973030e-02 3.81686447175039e-04
4.95461538461538e+00 3.96371198590062e-02 3.80284503371126e-04
4.98384615384615e+00 3.93748636773149e-02 3.78881114744282e-04
5.01307692307692e+00 3.91143426949396e-02 3.77476412227678e-04
5.04230769230769e+00 3.88555454310584e-02 3.76070524146864e-04
5.07153846153846e+00 3.85984604808115e-02 3.74663576269586e-04
5.10076923076923e+00 3.83430765147988e-02 3.73255691854770e-04
5.13000000000000e+00 3.80893822785799e-02 3.71846991523929e-04
5.15923076923077e+00 3.78373665926645e-02 3.70437593840147e-04
5.18846153846154e+00 3.75870183505538e-02 3.69027614997672e-04
5.21769230769231e+00 3.73383265197253e-02 3.67617168506547e-04
5.24692307692308e+00 3.70912801406527e-02 3.66206365778505e-04
5.27615384615385e+00 3.68458683263225e-02 3.64795315988061e-04
5.30538461538462e+00 3.66020802617543e-02 3.63384126114468e-04
5.33461538461538e+00 3.63599052035242e-02 3.61972900982680e-04
5.36384615384615e+00 3.61193324792913e-02 3.60561743303206e-04
5.39307692307692e+00 3.58803514873275e-02 3.59150753711355e-04
5.42230769230769e+00 3.56429516960505e-02 3.57740030805789e-04
5.45153846153846e+00 3.54071226435591e-02 3.56329671185990e-04
5.48076923076923e+00 3.51728539371730e-02 3.54919769489016e-04
5.51000000000000e+00 3.49401352529738e-02 3.53510418269211e-04
5.53923076923077e+00 3.47089563357657e-02 3.52101708504594e-04
5.56846153846154e+00 3.44793069973713e-02 3.50693729316152e-04
5.59769230769231e+00 3.42511771174420e-02 3.49286567682843e-04
5.62692307692308e+00 3.40245566425898e-02 3.47880308954574e-04
5.65615384615385e+00 3.37994355859442e-02 3.46475036723806e-04
5.68538461538462e+00 3.35758040267122e-02 3.45070832857342e-04
5.71461538461538e+00 3.33536521097408e-02 3.43667777527496e-04
5.74384615384615e+00 3.31329700450828e-02 3.42265949242394e-04
5.77307692307692e+00 3.29137481075658e-02 3.40865424875813e-04
5.80230769230769e+00 3.26959766363631e-02 3.39466279696638e-04
5.83153846153846e+00 3.24796460345684e-02 3.38068587397438e-04
5.86076923076923e+00 3.22647467687723e-02 3.36672420122579e-04
5.89000000000000e+00 3.20512693686428e-02 3.35277848357120e-04
5.91923076923077e+00 3.18392044268635e-02 3.33884941371862e-04
5.94846153846154e+00 3.16285425976451e-02 3.32493766970139e-04
5.97769230769231e+00 3.14192745973938e-02 3.31104391230935e-04
6.00692307692308e+00 3.12113912039401e-02 3.29716878960124e-04
6.03615384615385e+00 3.10048832561323e-02 3.28331293572714e-04
6.06538461538462e+00 3.07997416534330e-02 3.26947697117407e-04
6.09461538461538e+00 3.05959573555174e-02 3.25566150300635e-04
6.12384615384615e+00 3.03935213818756e-02 3.24186712509956e-04
6.15307692307692e+00 3.01924248114166e-02 3.22809441837131e-04
6.18230769230769e+00 2.99926587820750e-02 3.21434395100951e-04
6.21153846153846e+00 2.97942144904210e-02 3.20061627869376e-04
6.24076923076923e+00 2.95970831912717e-02 3.18691194481359e-04
6.27000000000000e+00 2.94012561973062e-02 3.17323147944975e-04
6.29923076923077e+00 2.92067248789894e-02 3.15957540330024e-04
6.32846153846154e+00 2.90134806632661e-02 3.14594422540081e-04
6.35769230769231e+00 2.88215150341142e-02 3.13233844081187e-04
6.38692307692308e+00 2.86308195318571e-02 3.11875853460233e-04
6.41615384615385e+00 2.84413857527913e-02 3.10520498077624e-04
6.44538461538462e+00 2.82532053488155e-02 3.09167824246408e-04
6.47461538461538e+00 2.80662700270632e-02 3.07817877211098e-04
6.50384615384615e+00 2.78805715495369e-02 3.06470701165975e-04
6.53307692307692e+00 2.76961017327453e-02 3.05126339273171e-04
6.56230769230769e+00 2.75128524473425e-02 3.03784833680560e-04
6.59153846153846e+00 2.73308156177700e-02 3.02446225539136e-04
6.62076923076923e+00 2.71499832219006e-02 3.01110555020134e-04
6.65000000000000e+00 2.69703472906849e-02 2.99777861222052e-04
6.67923076923077e+00 2.67918999080654e-02 2.98448182518225e-04
6.70846153846154e+00 2.66146332098274e-02 2.97121556351605e-04
6.73769230769231e+00 2.64385393840570e-02 2.95798019026621e-04
6.76692307692308e+00 2.62636106705276e-02 2.94477606062066e-04
6.79615384615385e+00 2.60898393603574e-02 2.93160352093476e-04
6.82538461538461e+00 2.59172177956699e-02 2.91846290888240e-04
6.85461538461538e+00 2.57457383692564e-02 2.90535455360485e-04
6.88384615384615e+00 2.55753935242407e-02 2.89227877585533e-04
6.91307692307692e+00 2.54061757537460e-02 2.87923588814222e-04
6.94230769230769e+00 2.52380776005645e-02 2.86622619487112e-04
6.97153846153846e+00 2.50710916568283e-02 2.85324999248263e-04
7.00076923076923e+00 2.49052105636832e-02 2.84030756958722e-04
7.03000000000000e+00 2.47404270109643e-02 2.82739920611992e-04
7.05923076923077e+00 2.45767337371042e-02 2.81452517642514e-04
7.08846153846154e+00 2.44141235281182e-02 2.80168574740986e-04
7.11769230769231e+00 2.42525892179849e-02 2.78888117667122e-04
7.14692307692308e+00 2.40921236880966e-02 2.77611171562958e-04
7.17615384615385e+00 2.39327198669453e-02 2.76337760864320e-04
7.20538461538461e+00 2.37743707298111e-02 2.75067909312834e-04
7.23461538461538e+00 2.36170692984525e-02 2.73801639967812e-04
7.26384615384615e+00 2.34608086407993e-02 2.72538975217810e-04
7.29307692307692e+00 2.33055818706467e-02 2.71279936792040e-04
7.32230769230769e+00 2.31513821473518e-02 2.70024545771685e-04
7.35153846153846e+00 2.29982026755327e-02 2.68772822600915e-04
7.38076923076923e+00 2.28460367047685e-02 2.67524787097758e-04
7.41000000000000e+00 2.26948775293018e-02 2.66280458377236e-04
7.43923076923077e+00 2.25447184879440e-02 2.65039855125770e-04
7.46846153846154e+00 2.23955529631769e-02 2.63802995435013e-04
7.49769230769231e+00 2.22473743814689e-02 2.62569896633401e-04
7.52692307692308e+00 2.21001762127820e-02 2.61340575564917e-04
7.55615384615385e+00 2.19539519702836e-02 2.60115048508878e-04
7.58538461538462e+00 2.18086952100605e-02 2.58893331189583e-04
7.61461538461538e+00 2.16643995308355e-02 2.57675438785806e-04
7.64384615384615e+00 2.15210585736849e-02 2.56461385940159e-04
7.67307692307692e+00 2.13786660217583e-02 2.55251186768231e-04
7.70230769230769e+00 2.12372156000004e-02 2.54044854867691e-04
7.73153846153846e+00 2.10967010748742e-02 2.52842403327158e-04
7.76076923076923e+00 2.09571162540867e-02 2.51643844734941e-04
7.79000000000000e+00 2.08184549863154e-02 2.50449191109317e-04
7.81923076923077e+00 2.06807111611129e-02 2.49258454143108e-04
7.84846153846154e+00 2.05438787081093e-02 2.48071645054115e-04
7.87769230769231e+00 2.04079515972756e-02 2.46888774433495e-04
7.90692307692308e+00 2.02729238384801e-02 2.45709852494275e-04
7.93615384615385e+00 2.01387894812244e-02 2.44534888998744e-04
7.96538461538462e+00 2.00055426143809e-02 2.43363893266237e-04
7.99461538461538e+00 1.98731773659330e-02 2.42196874180837e-04
8.02384615384615e+00 1.97416879027153e-02 2.41033840198886e-04
8.05307692307692e+00 1.96110684301575e-02 2.39874799356381e-04
8.08230769230769e+00 1.94813131920286e-02 2.38719759276373e-04
8.11153846153846e+00 1.93524164701834e-02 2.37568727176109e-04
8.14076923076923e+00 1.92243725843101e-02 2.36421709874131e-04
8.17000000000000e+00 1.90971758916805e-02 2.35278713727057e-04
8.19923076923077e+00 1.89708207870541e-02 2.34139744847931e-04
8.22846153846154e+00 1.88453017019694e-02 2.33004808971578e-04
8.25769230769231e+00 1.87206131049631e-02 2.31873911318037e-04
8.28692307692308e+00 1.85967495011699e-02 2.30747056814508e-04
8.31615384615385e+00 1.84737054320815e-02 2.29624250029640e-04
8.34538461538462e+00 1.83514754753048e-02 2.28505495179829e-04
8.37461538461539e+00 1.82300542443240e-02 2.27390796135489e-04
8.40384615384615e+00 1.81094363882627e-02 2.26280156427148e-04
8.43307692307692e+00 1.79896165916481e-02 2.25173579251435e-04
8.46230769230769e+00 1.78705895741768e-02 2.24071067477094e-04
8.49153846153846e+00 1.77523500904824e-02 2.22972623650797e-04
8.52076923076923e+00 1.76348929299039e-02 2.21878250002873e-04
8.55000000000000e+00 1.75182129162562e-02 2.20787948390109e-04
8.57923076923077e+00 1.74023049077365e-02 2.19701720490923e-04
8.60846153846154e+00 1.72871637962924e-02 2.18619567684040e-04
8.63769230769231e+00 1.71727845078043e-02 2.17541490925553e-04
8.66692307692308e+00 1.70591620017251e-02 2.16467490947345e-04
8.69615384615385e+00 1.69462912708581e-02 2.15397568197639e-04
8.72538461538461e+00 1.68341673411362e-02 2.14331722846137e-04
8.75461538461538e+00 1.67227852714030e-02 2.13269954789118e-04
8.78384615384615e+00 1.66121401531949e-02 2.12212263654397e-04
8.81307692307692e+00 1.65022271105249e-02 2.11158648806220e-04
8.84230769230769e+00 1.63930412996673e-02 2.10109109350146e-04
8.87153846153846e+00 1.62845779089449e-02 2.09063644137782e-04
8.90076923076923e+00 1.61768321585165e-02 2.08022251771483e-04
8.93000000000000e+00 1.60697993001662e-02 2.06984930552504e-04
8.95923076923077e+00 1.59634746172125e-02 2.05951678655747e-04
8.98846153846154e+00 1.58578534239445e-02 2.04922494020421e-04
9.01769230769231e+00 1.57529310657730e-02 2.03897374239222e-04
9.04692307692308e+00 1.56487029189053e-02 2.02876316736006e-04
9.07615384615385e+00 1.55451643901422e-02 2.01859318712031e-04
9.10538461538462e+00 1.54423109166746e-02 2.00846377150137e-04
9.13461538461539e+00 1.53401379658831e-02 1.99837488818880e-04
9.16384615384615e+00 1.52386410351380e-02 1.98832650276609e-04
9.19307692307692e+00 1.51378156516010e-02 1.97831857875439e-04
9.22230769230769e+00 1.50376573720279e-02 1.96835107765255e-04
