Energy (eV)          EEDF (eV^-(3/2))     First Anisotropy
3.99180327868852e-03 6.71383107689138e-01 3.20058624759726e-04
1.19754098360656e-02 6.67594794358613e-01 5.28794396738341e-04
1.99590163934426e-02 6.63827856782802e-01 6.98828288590023e-04
2.79426229508197e-02 6.60082174335472e-01 8.28467871471754e-04
3.59262295081967e-02 6.56357627100397e-01 9.36973275216442e-04
4.39098360655738e-02 6.52654095808237e-01 1.03161344469628e-03
5.18934426229508e-02 6.48971461884097e-01 1.11614366848016e-03
5.98770491803279e-02 6.45309607406280e-01 1.19282789175610e-03
6.78606557377049e-02 6.41668415125953e-01 1.26316513690035e-03
7.58442622950820e-02 6.38047768461515e-01 1.32821315272971e-03
8.38278688524590e-02 6.34447551478011e-01 1.38875366411220e-03
9.18114754098361e-02 6.30867648904343e-01 1.44538516177753e-03
9.97950819672131e-02 6.27307946111396e-01 1.49857880961919e-03
1.07778688524590e-01 6.23768329130699e-01 1.54871402342229e-03
1.15762295081967e-01 6.20248684604653e-01 1.59610211146525e-03
1.23745901639344e-01 6.16748899868078e-01 1.64100257282213e-03
1.31729508196721e-01 6.13268862832740e-01 1.68363465697408e-03
1.39713114754098e-01 6.09808462097016e-01 1.72418578180125e-03
1.47696721311475e-01 6.06367586837798e-01 1.76281780132590e-03
1.55680327868852e-01 6.02946126882058e-01 1.79967174337353e-03
1.63663934426230e-01 5.99543972700510e-01 1.83487148953913e-03
1.71647540983607e-01 5.96161015337939e-01 1.86852663000073e-03
1.79631147540984e-01 5.92797146495133e-01 1.90073473796531e-03
1.87614754098361e-01 5.89452258445265e-01 1.93158319378257e-03
1.95598360655738e-01 5.86126244105864e-01 1.96115066255428e-03
2.03581967213115e-01 5.82818996964212e-01 1.98950830553355e-03
2.11565573770492e-01 5.79530411141261e-01 2.01672077945166e-03
2.19549180327869e-01 5.76260381324358e-01 2.04284707222482e-03
2.27532786885246e-01 5.73008802810530e-01 2.06794119237127e-03
2.35516393442623e-01 5.69775571501771e-01 2.09205277289477e-03
2.43500000000000e-01 5.66560583859161e-01 2.11522756441508e-03
2.51483606557377e-01 5.63363736955024e-01 2.13750786611717e-03
2.59467213114754e-01 5.60184928416636e-01 2.15893289539636e-03
2.67450819672131e-01 5.57024056473652e-01 2.17953910631751e-03
2.75434426229508e-01 5.53881019906268e-01 2.19936046905781e-03
2.83418032786885e-01 5.50755718077626e-01 2.21842870354467e-03
2.91401639344262e-01 5.47648050929675e-01 2.23677350289745e-03
2.99385245901639e-01 5.44557918947030e-01 2.25442271206738e-03
3.07368852459016e-01 5.41485223196944e-01 2.27140249382247e-03
3.15352459016393e-01 5.38429865284571e-01 2.28773747484712e-03
3.23336065573771e-01 5.35391747389869e-01 2.30345087481447e-03
3.31319672131148e-01 5.32370772225840e-01 2.31856462226357e-03
3.39303278688525e-01 5.29366843072698e-01 2.33309945750317e-03
3.47286885245902e-01 5.26379863738755e-01 2.34707502723384e-03
3.55270491803279e-01 5.23409738583892e-01 2.36050996112636e-03
3.63254098360656e-01 5.20456372515917e-01 2.37342195685135e-03
3.71237704918033e-01 5.17519670962659e-01 2.38582784159926e-03
3.79221311475410e-01 5.14599539901610e-01 2.39774363500736e-03
3.87204918032787e-01 5.11695885825252e-01 2.40918460539957e-03
3.95188524590164e-01 5.08808615768757e-01 2.42016532036518e-03
4.03172131147541e-01 5.05937637277239e-01 2.43069969348125e-03
4.11155737704918e-01 5.03082858431686e-01 2.44080102643848e-03
4.19139344262295e-01 5.00244187817958e-01 2.45048204955108e-03
4.27122950819672e-01 4.97421534544603e-01 2.45975495156676e-03
4.35106557377049e-01 4.94614808239552e-01 2.46863142092888e-03
4.43090163934426e-01 4.91823919027626e-01 2.47712267035626e-03
4.51073770491803e-01 4.89048777553462e-01 2.48523946582102e-03
4.59057377049180e-01 4.86289294953541e-01 2.49299215245853e-03
4.67040983606557e-01 4.83545382877785e-01 2.50039067804329e-03
4.75024590163934e-01 4.80816953462925e-01 2.50744461520382e-03
4.83008196721312e-01 4.78103919352879e-01 2.51416318156525e-03
4.90991803278689e-01 4.75406193673350e-01 2.52055526012064e-03
4.98975409836066e-01 4.72723690045787e-01 2.52662941173934e-03
5.06959016393443e-01 4.70056322584330e-01 2.53239389902581e-03
5.14942622950820e-01 4.67404005877152e-01 2.53785669671982e-03
5.22926229508197e-01 4.64766655004696e-01 2.54302550701611e-03
5.30909836065574e-01 4.62144185516484e-01 2.54790777309695e-03
5.38893442622951e-01 4.59536513448404e-01 2.55251069139252e-03
5.46877049180328e-01 4.56943555300494e-01 2.55684122345305e-03
5.54860655737705e-01 4.54365228053348e-01 2.56090610669733e-03
5.62844262295082e-01 4.51801449146810e-01 2.56471186594996e-03
5.70827868852459e-01 4.49252136491167e-01 2.56826481858228e-03
5.78811475409836e-01 4.46717208464288e-01 2.57157109020766e-03
5.86795081967213e-01 4.44196583895826e-01 2.57463661888747e-03
5.94778688524590e-01 4.41690182082024e-01 2.57746716412254e-03
6.02762295081967e-01 4.39197922766102e-01 2.58006831460976e-03
6.10745901639344e-01 4.36719726152355e-01 2.58244549522586e-03
6.18729508196721e-01 4.34255512887280e-01 2.58460397395080e-03
6.26713114754098e-01 4.31805204073012e-01 2.58654886809111e-03
6.34696721311475e-01 4.29368721249151e-01 2.58828515144629e-03
6.42680327868853e-01 4.26945986401875e-01 2.58981765600410e-03
6.50663934426230e-01 4.24536921961256e-01 2.59115108328347e-03
6.58647540983607e-01 4.22141450787659e-01 2.59229000559438e-03
6.66631147540984e-01 4.19759496183966e-01 2.59323887176787e-03
6.74614754098361e-01 4.17390981878717e-01 2.59400201193323e-03
6.82598360655738e-01 4.15035832037788e-01 2.59458364176818e-03
6.90581967213115e-01 4.12693971248121e-01 2.59498786682170e-03
6.98565573770492e-01 4.10365324528878e-01 2.59521868635040e-03
7.06549180327869e-01 4.08049817315732e-01 2.59527999810931e-03
7.14532786885246e-01 4.05747375468378e-01 2.59517559834023e-03
7.22516393442623e-01 4.03457925268008e-01 2.59490919053979e-03
7.30500000000000e-01 4.01181393405456e-01 2.59448438524326e-03
7.38483606557377e-01 3.98917706991411e-01 2.59390470392838e-03
7.46467213114754e-01 3.96666793541755e-01 2.59317358212937e-03
7.54450819672131e-01 3.94428580987342e-01 2.59229437216228e-03
7.62434426229508e-01 3.92202997659812e-01 2.59127034678271e-03
7.70418032786885e-01 3.89989972298134e-01 2.59010469843764e-03
7.78401639344262e-01 3.87789434046188e-01 2.58880054670560e-03
7.86385245901639e-01 3.85601312442018e-01 2.58736093744138e-03
7.94368852459016e-01 3.83425537426802e-01 2.58578884578761e-03
8.02352459016394e-01 3.81262039331578e-01 2.58408717848158e-03
8.10336065573771e-01 3.79110748885849e-01 2.58225877584122e-03
8.18319672131148e-01 3.76971597204721e-01 2.58030641389336e-03
8.26303278688525e-01 3.74844515797154e-01 2.57823280619537e-03
8.34286885245902e-01 3.72729436553493e-01 2.57604060653370e-03
8.42270491803279e-01 3.70626291750936e-01 2.57373240766288e-03
8.50254098360656e-01 3.68535014051258e-01 2.57131074750793e-03
8.58237704918033e-01 3.66455536491293e-01 2.56877810786579e-03
8.66221311475410e-01 3.64387792490538e-01 2.56613691664822e-03
8.74204918032787e-01 3.62331715839435e-01 2.56338954950746e-03
8.82188524590164e-01 3.60287240706677e-01 2.56053833120089e-03
8.90172131147541e-01 3.58254301627829e-01 2.55758553710154e-03
8.98155737704918e-01 3.56232833512354e-01 2.55453339445946e-03
9.06139344262295e-01 3.54222771632552e-01 2.55138408447621e-03
9.14122950819672e-01 3.52224051628174e-01 2.54813974079457e-03
9.22106557377049e-01 3.50236609504268e-01 2.54480245480781e-03
9.30090163934426e-01 3.48260381622689e-01 2.54137427414865e-03
9.38073770491803e-01 3.46295304708596e-01 2.53785720442509e-03
9.46057377049180e-01 3.44341315840022e-01 2.53425321040528e-03
9.54040983606557e-01 3.42398352454132e-01 2.53056421698312e-03
9.62024590163934e-01 3.40466352337080e-01 2.52679211028616e-03
9.70008196721312e-01 3.38545253630026e-01 2.52293873857401e-03
9.77991803278689e-01 3.36634994819270e-01 2.51900591388807e-03
9.85975409836066e-01 3.34735514740160e-01 2.51499541043793e-03
9.93959016393443e-01 3.32846752575053e-01 2.51090896923262e-03
1.00194262295082e+00 3.30968647845697e-01 2.50674829887769e-03
1.00992622950820e+00 3.29101140411504e-01 2.50251506562703e-03
1.01790983606557e+00 3.27244170494844e-01 2.49821091386334e-03
1.02589344262295e+00 3.25397678619243e-01 2.49383745806660e-03
1.03387704918033e+00 3.23561605661928e-01 2.48939626391963e-03
1.04186065573771e+00 3.21735892851055e-01 2.48488888439014e-03
1.04984426229508e+00 3.19920481711675e-01 2.48031684289547e-03
1.05782786885246e+00 3.18115314116191e-01 2.47568161668320e-03
1.06581147540984e+00 3.16320332281640e-01 2.47098467186983e-03
1.07379508196721e+00 3.14535478717715e-01 2.46622744701703e-03
1.08177868852459e+00 3.12760696275243e-01 2.46141133693658e-03
1.08976229508197e+00 3.10995928143522e-01 2.45653772672942e-03
1.09774590163934e+00 3.09241117800291e-01 2.45160797045504e-03
1.10572950819672e+00 3.07496209073837e-01 2.44662339661390e-03
1.11371311475410e+00 3.05761146078274e-01 2.44158531465303e-03
1.12169672131148e+00 3.04035873258668e-01 2.43649499398668e-03
1.12968032786885e+00 3.02320335388488e-01 2.43135369627944e-03
1.13766393442623e+00 3.00614477522856e-01 2.42616266017379e-03
1.14564754098361e+00 2.98918245041947e-01 2.42092308623759e-03
1.15363114754098e+00 2.97231583648521e-01 2.41563616835571e-03
1.16161475409836e+00 2.95554439322851e-01 2.41030307884434e-03
1.16959836065574e+00 2.93886758364483e-01 2.40492495376432e-03
1.17758196721311e+00 2.92228487389842e-01 2.39950292345378e-03
1.18556557377049e+00 2.90579573288763e-01 2.39403809801942e-03
1.19354918032787e+00 2.88939963264687e-01 2.38853155300604e-03
1.20153278688525e+00 2.87309604832340e-01 2.38298435910192e-03
1.20951639344262e+00 2.85688445775794e-01 2.37739756799618e-03
1.21750000000000e+00 2.84076434187171e-01 2.37177219839550e-03
1.22548360655738e+00 2.82473518464394e-01 2.36610926493268e-03
1.23346721311475e+00 2.80879647270700e-01 2.36040976437655e-03
1.24145081967213e+00 2.79294769571941e-01 2.35467466199108e-03
1.24943442622951e+00 2.77718834634379e-01 2.34890491967542e-03
1.25741803278689e+00 2.76151791985606e-01 2.34310148251044e-03
1.26540163934426e+00 2.74593591450497e-01 2.33726526545738e-03
1.27338524590164e+00 2.73044183149052e-01 2.33139718075510e-03
1.28136885245902e+00 2.71503517458653e-01 2.32549812479064e-03
1.28935245901639e+00 2.69971545048741e-01 2.31956896513083e-03
1.29733606557377e+00 2.68448216878692e-01 2.31361056720133e-03
1.30531967213115e+00 2.66933484161366e-01 2.30762378147264e-03
1.31330327868852e+00 2.65427298396551e-01 2.30160943081544e-03
1.32128688524590e+00 2.63929611368886e-01 2.29556833648545e-03
1.32927049180328e+00 2.62440375112632e-01 2.28950130561642e-03
1.33725409836066e+00 2.60959541943949e-01 2.28340911888970e-03
1.34523770491803e+00 2.59487064458856e-01 2.27729255584813e-03
1.35322131147541e+00 2.58022895499179e-01 2.27115237869718e-03
1.36120491803279e+00 2.56566988194213e-01 2.26498933626657e-03
1.36918852459016e+00 2.55119295916643e-01 2.25880416869711e-03
1.37717213114754e+00 2.53679772312822e-01 2.25259759149421e-03
1.38515573770492e+00 2.52248371300811e-01 2.24637031966404e-03
1.39313934426230e+00 2.50825047038318e-01 2.24012305605442e-03
1.40112295081967e+00 2.49409753951929e-01 2.23385647985339e-03
1.40910655737705e+00 2.48002446735207e-01 2.22757127011452e-03
1.41709016393443e+00 2.46603080317657e-01 2.22126809438355e-03
1.42507377049180e+00 2.45211609892970e-01 2.21494759746872e-03
1.43305737704918e+00 2.43827990917160e-01 2.20861042437429e-03
1.44104098360656e+00 2.42452179078534e-01 2.20225720920474e-03
1.44902459016393e+00 2.41084130324972e-01 2.19588856419968e-03
1.45700819672131e+00 2.39723800862116e-01 2.18950510209447e-03
1.46499180327869e+00 2.38371147124293e-01 2.18310742529374e-03
1.47297540983607e+00 2.37026125800879e-01 2.17669611516402e-03
1.48095901639344e+00 2.35688693834533e-01 2.17027175383963e-03
1.48894262295082e+00 2.34358808393035e-01 2.16383491365459e-03
1.49692622950820e+00 2.33036426894780e-01 2.15738614669117e-03
1.50490983606557e+00 2.31721507007043e-01 2.15092600604773e-03
1.51289344262295e+00 2.30414006618706e-01 2.14445503551724e-03
1.52087704918033e+00 2.29113883864911e-01 2.13797375938785e-03
1.52886065573771e+00 2.27821097125358e-01 2.13148270318825e-03
1.53684426229508e+00 2.26535604997887e-01 2.12498238360707e-03
1.54482786885246e+00 2.25257366322322e-01 2.11847329853838e-03
1.55281147540984e+00 2.23986340178804e-01 2.11195594731937e-03
1.56079508196721e+00 2.22722485862189e-01 2.10543082088430e-03
1.56877868852459e+00 2.21465762905125e-01 2.09889839204863e-03
1.57676229508197e+00 2.20216131076408e-01 2.09235913525409e-03
1.58474590163934e+00 2.18973550356172e-01 2.08581351382078e-03
1.59272950819672e+00 2.17737980965839e-01 2.07926198300120e-03
1.60071311475410e+00 2.16509383336005e-01 2.07270499357987e-03
1.60869672131148e+00 2.15287718128200e-01 2.06614297931283e-03
1.61668032786885e+00 2.14072946233304e-01 2.05957637581192e-03
1.62466393442623e+00 2.12865028748065e-01 2.05300561133531e-03
1.63264754098361e+00 2.11663926996170e-01 2.04643109770270e-03
1.64063114754098e+00 2.10469602526690e-01 2.03985324872755e-03
1.64861475409836e+00 2.09282017091311e-01 2.03327247122543e-03
1.65659836065574e+00 2.08101132664729e-01 2.02668915613684e-03
1.66458196721311e+00 2.06926911443135e-01 2.02010369651991e-03
1.67256557377049e+00 2.05759315822122e-01 2.01351647877031e-03
1.68054918032787e+00 2.04598308416437e-01 2.00692787394727e-03
1.68853278688525e+00 2.03443852058501e-01 2.00033825533844e-03
1.69651639344262e+00 2.02295909776974e-01 1.99374798988606e-03
1.70450000000000e+00 2.01154444815880e-01 1.98715742971049e-03
1.71248360655738e+00 2.00019420633167e-01 1.98056692925980e-03
1.72046721311475e+00 1.98890800879897e-01 1.97397683693556e-03
1.72845081967213e+00 1.97768549418782e-01 1.96738748681040e-03
1.73643442622951e+00 1.96652630322770e-01 1.96079921537416e-03
1.74441803278689e+00 1.95543007854847e-01 1.95421235335089e-03
1.75240163934426e+00 1.94439646485999e-01 1.94762721760846e-03
1.76038524590164e+00 1.93342510893825e-01 1.94104412751229e-03
1.76836885245902e+00 1.92251565942930e-01 1.93446339692691e-03
1.77635245901639e+00 1.91166776702337e-01 1.92788532631353e-03
1.78433606557377e+00 1.90088108444122e-01 1.92131021870205e-03
1.79231967213115e+00 1.89015526624377e-01 1.91473837187239e-03
1.80030327868852e+00 1.87948996900098e-01 1.90817007063584e-03
1.80828688524590e+00 1.86888485127832e-01 1.90160560243432e-03
1.81627049180328e+00 1.85833957345204e-01 1.89504524969801e-03
1.82425409836066e+00 1.84785379787279e-01 1.88848928230491e-03
1.83223770491803e+00 1.83742718885247e-01 1.88193797281836e-03
1.84022131147541e+00 1.82705941248467e-01 1.87539158659186e-03
1.84820491803279e+00 1.81675013685823e-01 1.86885038411243e-03
1.85618852459016e+00 1.80649903182496e-01 1.86231462375196e-03
1.86417213114754e+00 1.79630576915461e-01 1.85578455200956e-03
1.87215573770492e+00 1.78617002252218e-01 1.84926041811981e-03
1.88013934426230e+00 1.77609146733731e-01 1.84274246688770e-03
1.88812295081967e+00 1.76606978089463e-01 1.83623093161668e-03
1.89610655737705e+00 1.75610464236127e-01 1.82972604838166e-03
1.90409016393443e+00 1.74619573261116e-01 1.82322804902787e-03
1.91207377049180e+00 1.73634273437076e-01 1.81673715425582e-03
1.92005737704918e+00 1.72654533220698e-01 1.81025358756801e-03
1.92804098360656e+00 1.71680321236597e-01 1.80377756842719e-03
1.93602459016393e+00 1.70711606291465e-01 1.79730930549426e-03
1.94400819672131e+00 1.69748357372878e-01 1.79084901025740e-03
1.95199180327869e+00 1.68790543633633e-01 1.78439689034583e-03
1.95997540983607e+00 1.67838134405477e-01 1.77795314291692e-03
1.96795901639344e+00 1.66891099197939e-01 1.77151796797617e-03
1.97594262295082e+00 1.65949407683102e-01 1.76509156184083e-03
1.98392622950820e+00 1.65013029708932e-01 1.75867411067490e-03
1.99190983606557e+00 1.64081935298126e-01 1.75226580350784e-03
1.99989344262295e+00 1.63156094633313e-01 1.74586682584189e-03
2.00787704918033e+00 1.62235478069985e-01 1.73947735333306e-03
2.01586065573771e+00 1.61320056135376e-01 1.73309756451625e-03
2.02384426229508e+00 1.60409799514061e-01 1.72672763455255e-03
2.03182786885246e+00 1.59504679060520e-01 1.72036772905286e-03
2.03981147540984e+00 1.58604665798028e-01 1.71401801651632e-03
2.04779508196721e+00 1.57709730904657e-01 1.70767866221456e-03
2.05577868852459e+00 1.56819845725475e-01 1.70134982215395e-03
2.06376229508197e+00 1.55934981771453e-01 1.69503165523511e-03
2.07174590163934e+00 1.55055110705851e-01 1.68872431533198e-03
2.07972950819672e+00 1.54180204360192e-01 1.68242795315587e-03
2.08771311475410e+00 1.53310234716661e-01 1.67614271843754e-03
2.09569672131148e+00 1.52445173919687e-01 1.66986875211154e-03
2.10368032786885e+00 1.51584994274888e-01 1.66360619799218e-03
2.11166393442623e+00 1.50729668236100e-01 1.65735519702670e-03
2.11964754098361e+00 1.49879168416623e-01 1.65111588162310e-03
2.12763114754098e+00 1.49033467588194e-01 1.64488838706652e-03
2.13561475409836e+00 1.48192538668357e-01 1.63867284590041e-03
2.14359836065574e+00 1.47356354731395e-01 1.63246938237726e-03
2.15158196721312e+00 1.46524889007316e-01 1.62627812362156e-03
2.15956557377049e+00 1.45698114869567e-01 1.62009919413566e-03
2.16754918032787e+00 1.44876005845653e-01 1.61393271037043e-03
2.17553278688525e+00 1.44058535616141e-01 1.60777879164147e-03
2.18351639344262e+00 1.43245678002707e-01 1.60163755475634e-03
2.19150000000000e+00 1.42437406978448e-01 1.59550910870265e-03
2.19948360655738e+00 1.41633696666909e-01 1.58939356532348e-03
2.20746721311475e+00 1.40834521330446e-01 1.58329103406242e-03
2.21545081967213e+00 1.40039855380249e-01 1.57720161676692e-03
2.22343442622951e+00 1.39249673375387e-01 1.57112541812904e-03
2.23141803278689e+00 1.38463950011477e-01 1.56506254054443e-03
2.23940163934426e+00 1.37682660130428e-01 1.55901307902929e-03
2.24738524590164e+00 1.36905778719503e-01 1.55297713143226e-03
2.25536885245902e+00 1.36133280900285e-01 1.54695479340357e-03
2.26335245901639e+00 1.35365141938153e-01 1.54094615342329e-03
2.27133606557377e+00 1.34601337241356e-01 1.53495130279005e-03
2.27931967213115e+00 1.33841842350274e-01 1.52897033069796e-03
2.28730327868852e+00 1.33086632946626e-01 1.52300331937390e-03
2.29528688524590e+00 1.32335684852564e-01 1.51705035384764e-03
2.30327049180328e+00 1.31588974020215e-01 1.51111151713399e-03
2.31125409836066e+00 1.30846476540628e-01 1.50518688547653e-03
2.31923770491803e+00 1.30108168642895e-01 1.49927653790486e-03
2.32722131147541e+00 1.29374026683952e-01 1.49338054999298e-03
2.33520491803279e+00 1.28644027160361e-01 1.48749899532201e-03
2.34318852459016e+00 1.27918146695151e-01 1.48163194718785e-03
2.35117213114754e+00 1.27196362046341e-01 1.47577947243922e-03
2.35915573770492e+00 1.26478650106079e-01 1.46994164066720e-03
2.36713934426230e+00 1.25764987890913e-01 1.46411851967120e-03
2.37512295081967e+00 1.25055352550079e-01 1.45831017098177e-03
2.38310655737705e+00 1.24349721364653e-01 1.45251665885145e-03
2.39109016393443e+00 1.23648071738079e-01 1.44673804581909e-03
2.39907377049180e+00 1.22950381204221e-01 1.44097438832741e-03
2.40705737704918e+00 1.22256627426541e-01 1.43522574551988e-03
2.41504098360656e+00 1.21566788188863e-01 1.42949217490080e-03
2.42302459016393e+00 1.20880841403207e-01 1.42377372804570e-03
2.43100819672131e+00 1.20198765108986e-01 1.41807045920852e-03
2.43899180327869e+00 1.19520537463998e-01 1.41238242107569e-03
2.44697540983607e+00 1.18846136752056e-01 1.40670966056695e-03
2.45495901639344e+00 1.18175541382194e-01 1.40105222725765e-03
2.46294262295082e+00 1.17508729879891e-01 1.39541016922347e-03
2.47092622950820e+00 1.16845680894494e-01 1.38978352893082e-03
2.47890983606557e+00 1.16186373198436e-01 1.38417235147877e-03
2.48689344262295e+00 1.15530785678689e-01 1.37857668053107e-03
2.49487704918033e+00 1.14878897343980e-01 1.37299655429491e-03
2.50286065573771e+00 1.14230687324027e-01 1.36743201358644e-03
2.51084426229508e+00 1.13586134861206e-01 1.36188309784839e-03
2.51882786885246e+00 1.12945219317578e-01 1.35634984121504e-03
