Energy (eV)          EEDF (eV^-(3/2))     First Anisotropy
1.87500000000000e-01 6.57041991103217e-02 9.79970216176541e-05
5.62500000000000e-01 6.20351527210044e-02 1.57833348056524e-04
9.37500000000000e-01 5.85709928014908e-02 1.98054447588070e-04
1.31250000000000e+00 5.53002781049130e-02 2.22942050785859e-04
1.68750000000000e+00 5.22122062852055e-02 2.39411894440441e-04
2.06250000000000e+00 4.92965782196791e-02 2.50286664756385e-04
2.43750000000000e+00 4.65437643238901e-02 2.57124236914034e-04
2.81250000000000e+00 4.39446727475505e-02 2.60917314297519e-04
3.18750000000000e+00 4.14907193464387e-02 2.62353850695090e-04
3.56250000000000e+00 3.91737993311351e-02 2.61937264099844e-04
3.93750000000000e+00 3.69862604989460e-02 2.60050040991459e-04
4.31250000000000e+00 3.49208779606074e-02 2.56990754251985e-04
4.68750000000000e+00 3.29708302782972e-02 2.52997187195780e-04
5.06250000000000e+00 3.11296769361457e-02 2.48261591089820e-04
5.43750000000000e+00 2.93913370688355e-02 2.42941200940646e-04
5.81250000000000e+00 2.77500693780365e-02 2.37165745145262e-04
6.18750000000000e+00 2.62004531703446e-02 2.31042968331920e-04
6.56250000000000e+00 2.47373704540984e-02 2.24662794368651e-04
6.93750000000000e+00 2.33559890359427e-02 2.18100530527217e-04
7.31250000000000e+00 2.20517465613125e-02 2.11419377969696e-04
7.68750000000000e+00 2.08203354461255e-02 2.04672429064168e-04
8.06250000000000e+00 1.96576886499185e-02 1.97904277565055e-04
8.43750000000000e+00 1.85599662434374e-02 1.91152331657755e-04
8.81250000000000e+00 1.75235427263197e-02 1.84447895431910e-04
9.18750000000000e+00 1.65449950529802e-02 1.77817067409642e-04
9.56250000000000e+00 1.56210913271548e-02 1.71281492779119e-04
9.93750000000000e+00 1.47487801277618e-02 1.64858997363330e-04
1.03125000000000e+01 1.39251804308273e-02 1.58564125046906e-04
1.06875000000000e+01 1.31475720941893e-02 1.52408595700247e-04
1.10625000000000e+01 1.24133868735542e-02 1.46401697114472e-04
1.14375000000000e+01 1.17201999402331e-02 1.40550621773121e-04
1.18125000000000e+01 1.10657218725440e-02 1.34860757213909e-04
1.21875000000000e+01 1.04477910944294e-02 1.29335937118326e-04
1.25625000000000e+01 9.86436673631515e-03 1.23978658995062e-04
1.29375000000000e+01 9.31352189463308e-03 1.18790273312728e-04
1.33125000000000e+01 8.79343726774420e-03 1.13771148127493e-04
1.36875000000000e+01 8.30239514724401e-03 1.08920812597100e-04
1.40625000000000e+01 7.83877374480476e-03 1.04238082240198e-04
1.44375000000000e+01 7.40104183581742e-03 9.97211683636170e-05
1.48125000000000e+01 6.98775370214286e-03 9.53677737201696e-05
1.51875000000000e+01 6.59754435726929e-03 9.11751761607902e-05
1.55625000000000e+01 6.22912503810599e-03 8.71403017954335e-05
1.59375000000000e+01 5.88127894852366e-03 8.32597889678501e-05
1.63125000000000e+01 5.55285724058362e-03 7.95300441728583e-05
1.66875000000000e+01 5.24277522018268e-03 7.59472908951709e-05
1.70625000000000e+01 4.95000876458201e-03 7.25076122215654e-05
1.74375000000000e+01 4.67359093998787e-03 6.92069879694320e-05
1.78125000000000e+01 4.41260880801312e-03 6.60413269814415e-05
1.81875000000000e+01 4.16620041047184e-03 6.30064951557810e-05
1.85625000000000e+01 3.93355192254880e-03 6.00983397120451e-05
1.89375000000000e+01 3.71389496494120e-03 5.73127101327742e-05
1.93125000000000e+01 3.50650406609562e-03 5.46454761684196e-05
1.96875000000000e+01 3.31069426615832e-03 5.20925432480203e-05
2.00625000000000e+01 3.12581885472558e-03 4.96498655981354e-05
2.04375000000000e+01 2.95126723492223e-03 4.73134573377773e-05
2.08125000000000e+01 2.78646290675413e-03 4.50794017865606e-05
2.11875000000000e+01 2.63086156307403e-03 4.29438591964377e-05
2.15625000000000e+01 2.48394929187229e-03 4.09030730937290e-05
2.19375000000000e+01 2.34524087895507e-03 3.89533753972969e-05
2.23125000000000e+01 2.21427820540418e-03 3.70911904602478e-05
2.26875000000000e+01 2.09062873452578e-03 3.53130381662210e-05
2.30625000000000e+01 1.97388408329072e-03 3.36155361968387e-05
2.34375000000000e+01 1.86365867354838e-03 3.19954015740358e-05
2.38125000000000e+01 1.75958845855923e-03 3.04494515695652e-05
2.41875000000000e+01 1.66132972064021e-03 2.89746040638168e-05
2.45625000000000e+01 1.56855793595192e-03 2.75678774270279e-05
2.49375000000000e+01 1.48096670267815e-03 2.62263899879047e-05
2.53125000000000e+01 1.39826672905796e-03 2.49473591474795e-05
2.56875000000000e+01 1.32018487792790e-03 2.37281001896005e-05
2.60625000000000e+01 1.24646326461886e-03 2.25660248337225e-05
2.64375000000000e+01 1.17685840522796e-03 2.14586395705369e-05
2.68125000000000e+01 1.11114041245266e-03 2.04035438163976e-05
2.71875000000000e+01 1.04909223633095e-03 1.93984279184062e-05
2.75625000000000e+01 9.90508947380009e-04 1.84410710383491e-05
2.79375000000000e+01 9.35197059765819e-04 1.75293389404030e-05
2.83125000000000e+01 8.82973892268229e-04 1.66611817045897e-05
2.86875000000000e+01 8.33666964930937e-04 1.58346313853351e-05
2.90625000000000e+01 7.87113429403678e-04 1.50477996321400e-05
2.94375000000000e+01 7.43159531095182e-04 1.42988752872638e-05
2.98125000000000e+01 7.01660101360520e-04 1.35861219734471e-05
3.01875000000000e+01 6.62478078045667e-04 1.29078756830152e-05
3.05625000000000e+01 6.25484052805763e-04 1.22625423782027e-05
3.09375000000000e+01 5.90555843701977e-04 1.16485956111975e-05
3.13125000000000e+01 5.57578091665361e-04 1.10645741712038e-05
3.16875000000000e+01 5.26441879494936e-04 1.05090797647557e-05
3.20625000000000e+01 4.97044372131627e-04 9.98077473455939e-06
3.24375000000000e+01 4.69288477019998e-04 9.47837982129377e-06
3.28125000000000e+01 4.43082523436011e-04 9.00067197204491e-06
3.31875000000000e+01 4.18339959721741e-04 8.54648219838038e-06
3.35625000000000e+01 3.94979067427069e-04 8.11469348647377e-06
3.39375000000000e+01 3.72922691414241e-04 7.70423876116375e-06
3.43125000000000e+01 3.52097985033903e-04 7.31409890536825e-06
3.46875000000000e+01 3.32436169530982e-04 6.94330083586203e-06
3.50625000000000e+01 3.13872306885797e-04 6.59091563606699e-06
3.54375000000000e+01 2.96345085340151e-04 6.25605674618718e-06
3.58125000000000e+01 2.79796616900054e-04 5.93787821074377e-06
3.61875000000000e+01 2.64172246146269e-04 5.63557298332478e-06
3.65625000000000e+01 2.49420369721245e-04 5.34837128815468e-06
3.69375000000000e+01 2.35492265896234e-04 5.07553903790877e-06
3.73125000000000e+01 2.22341933655706e-04 4.81637630704254e-06
3.76875000000000e+01 2.09925940767589e-04 4.57021585977421e-06
3.80625000000000e+01 1.98203280337562e-04 4.33642173174702e-06
3.84375000000000e+01 1.87135235373614e-04 4.11438786430475e-06
3.88125000000000e+01 1.76685250913586e-04 3.90353679023758e-06
3.91875000000000e+01 1.66818813293344e-04 3.70331836979163e-06
3.95625000000000e+01 1.57503336156847e-04 3.51320857568737e-06
3.99375000000000e+01 1.48708052831633e-04 3.33270832585295e-06
4.03125000000000e+01 1.40403914714249e-04 3.16134236255073e-06
4.06875000000000e+01 1.32563495330044e-04 2.99865817655588e-06
4.10625000000000e+01 1.25160899750434e-04 2.84422497503494e-06
4.14375000000000e+01 1.18171679068482e-04 2.69763269176707e-06
4.18125000000000e+01 1.11572749650323e-04 2.55849103835274e-06
4.21875000000000e+01 1.05342316895740e-04 2.42642859506135e-06
4.25625000000000e+01 9.94598032560926e-05 2.30109193998012e-06
4.29375000000000e+01 9.39057802718664e-05 2.18214481514231e-06
4.33125000000000e+01 8.86619044053646e-05 2.06926732833104e-06
4.36875000000000e+01 8.37108564566296e-05 1.96215518927663e-06
4.40625000000000e+01 7.90362843624916e-05 1.86051897898901e-06
4.44375000000000e+01 7.46227491898265e-05 1.76408345099284e-06
4.48125000000000e+01 7.04556741446518e-05 1.67258686326031e-06
4.51875000000000e+01 6.65212964286515e-05 1.58578033966541e-06
4.55625000000000e+01 6.28066217841224e-05 1.50342725981350e-06
4.59375000000000e+01 5.92993815772176e-05 1.42530267613052e-06
4.63125000000000e+01 5.59879922777411e-05 1.35119275712758e-06
4.66875000000000e+01 5.28615172016686e-05 1.28089425578815e-06
4.70625000000000e+01 4.99096303900369e-05 1.21421400205715e-06
4.74375000000000e+01 4.71225825049053e-05 1.15096841844288e-06
4.78125000000000e+01 4.44911686297496e-05 1.09098305777484e-06
4.81875000000000e+01 4.20066978679439e-05 1.03409216219174e-06
4.85625000000000e+01 3.96609646389198e-05 9.80138242465766e-07
4.89375000000000e+01 3.74462215772031e-05 9.28971676799844e-07
4.93125000000000e+01 3.53551539448179e-05 8.80450328265177e-07
4.96875000000000e+01 3.33808554725519e-05 8.34439180076374e-07
5.00625000000000e+01 3.15168055502902e-05 7.90809987930925e-07
5.04375000000000e+01 2.97568476910836e-05 7.49440948668450e-07
5.08125000000000e+01 2.80951691978248e-05 7.10216384533358e-07
5.11875000000000e+01 2.65262819653750e-05 6.73026442352064e-07
5.15625000000000e+01 2.50450043547365e-05 6.37766806962553e-07
5.19375000000000e+01 2.36464440794050e-05 6.04338428260191e-07
5.23125000000000e+01 2.23259820473811e-05 5.72647261248957e-07
5.26875000000000e+01 2.10792571054737e-05 5.42604018511820e-07
5.30625000000000e+01 1.99021516355104e-05 5.14123934537790e-07
5.34375000000000e+01 1.87907779548832e-05 4.87126541366286e-07
5.38125000000000e+01 1.77414654765125e-05 4.61535455031716e-07
5.41875000000000e+01 1.67507485858235e-05 4.37278172312740e-07
5.45625000000000e+01 1.58153551946953e-05 4.14285877311646e-07
5.49375000000000e+01 1.49321959345782e-05 3.92493257409263e-07
5.53125000000000e+01 1.40983539530887e-05 3.71838328160304e-07
5.56875000000000e+01 1.33110752803811e-05 3.52262266712788e-07
5.60625000000000e+01 1.25677597334798e-05 3.33709253353157e-07
5.64375000000000e+01 1.18659523285299e-05 3.16126320796092e-07
5.68125000000000e+01 1.12033351726052e-05 2.99463210854740e-07
5.71875000000000e+01 1.05777198082913e-05 2.83672238143122e-07
5.75625000000000e+01 9.98703998576357e-06 2.68708160477925e-07
5.79375000000000e+01 9.42934483848386e-06 2.54528055661734e-07
5.83125000000000e+01 8.90279243998083e-06 2.41091204343990e-07
5.86875000000000e+01 8.40564372043095e-06 2.28358978669630e-07
5.90625000000000e+01 7.93625672294932e-06 2.16294736438502e-07
5.94375000000000e+01 7.49308118062006e-06 2.04863720511220e-07
5.98125000000000e+01 7.07465339635549e-06 1.94032963209164e-07
6.01875000000000e+01 6.67959140867370e-06 1.83771195467935e-07
6.05625000000000e+01 6.30659042742813e-06 1.74048760514599e-07
6.09375000000000e+01 5.95441852441473e-06 1.64837531849696e-07
6.13125000000000e+01 5.62191256462363e-06 1.56110835325119e-07
6.16875000000000e+01 5.30797436469745e-06 1.47843375118686e-07
6.20625000000000e+01 5.01156706590856e-06 1.40011163415551e-07
6.24375000000000e+01 4.73171170967607e-06 1.32591453615439e-07
6.28125000000000e+01 4.46748400431247e-06 1.25562676893249e-07
6.31875000000000e+01 4.21801127232117e-06 1.18904381948653e-07
6.35625000000000e+01 3.98246956816279e-06 1.12597177788114e-07
6.39375000000000e+01 3.76008095697074e-06 1.06622679390163e-07
6.43125000000000e+01 3.55011094522846e-06 1.00963456111840e-07
6.46875000000000e+01 3.35186605492255e-06 9.56029827010200e-08
6.50625000000000e+01 3.16469153315969e-06 9.05255927857785e-08
6.54375000000000e+01 2.98796918968293e-06 8.57164347181238e-08
6.58125000000000e+01 2.82111535514509e-06 8.11614296553382e-08
6.61875000000000e+01 2.66357895339608e-06 7.68472317677637e-08
6.65625000000000e+01 2.51483968141731e-06 7.27611904672499e-08
6.69375000000000e+01 2.37440629089198e-06 6.88913145555934e-08
6.73125000000000e+01 2.24181496573573e-06 6.52262381971701e-08
6.76875000000000e+01 2.11662779022907e-06 6.17551886246284e-08
6.80625000000000e+01 1.99843130269214e-06 5.84679554909337e-08
6.84375000000000e+01 1.88683512992504e-06 5.53548617852912e-08
6.88125000000000e+01 1.78147069790353e-06 5.24067362345008e-08
6.91875000000000e+01 1.68199001447200e-06 4.96148871151418e-08
6.95625000000000e+01 1.58806452001307e-06 4.69710774056382e-08
6.99375000000000e+01 1.49938400229803e-06 4.44675012107485e-08
7.03125000000000e+01 1.41565557193404e-06 4.20967613943409e-08
7.06875000000000e+01 1.33660269502431e-06 3.98518483594752e-08
7.10625000000000e+01 1.26196427984638e-06 3.77261199178276e-08
7.14375000000000e+01 1.19149381453195e-06 3.57132821933646e-08
7.18125000000000e+01 1.12495855290033e-06 3.38073715078937e-08
7.21875000000000e+01 1.06213874575651e-06 3.20027371987243e-08
7.25625000000000e+01 1.00282691511494e-06 3.02940253211450e-08
7.29375000000000e+01 9.46827168952084e-07 2.86761631907748e-08
7.33125000000000e+01 8.93954554224411e-07 2.71443447230863e-08
7.36875000000000e+01 8.44034446015150e-07 2.56940165295340e-08
7.40625000000000e+01 7.96901970792206e-07 2.43208647317430e-08
7.44375000000000e+01 7.52401461872449e-07 2.30208024571447e-08
7.48125000000000e+01 7.10385945293907e-07 2.17899579812854e-08
7.51875000000000e+01 6.70716654397820e-07 2.06246634837699e-08
7.55625000000000e+01 6.33262571517352e-07 1.95214443864691e-08
7.59375000000000e+01 5.97899995259269e-07 1.84770092441971e-08
7.63125000000000e+01 5.64512131949422e-07 1.74882401595603e-08
7.66875000000000e+01 5.32988709892687e-07 1.65521836951126e-08
7.70625000000000e+01 5.03225615173357e-07 1.56660422573054e-08
7.74375000000000e+01 4.75124547793124e-07 1.48271659280068e-08
7.78125000000000e+01 4.48592697010970e-07 1.40330447205963e-08
7.81875000000000e+01 4.23542434812686e-07 1.32813012388001e-08
7.85625000000000e+01 3.99891026497632e-07 1.25696837175427e-08
7.89375000000000e+01 3.77560357426883e-07 1.18960594261413e-08
7.93125000000000e+01 3.56476675030265e-07 1.12584084151668e-08
7.96875000000000e+01 3.36570345220214e-07 1.06548175892489e-08
8.00625000000000e+01 3.17775622407936e-07 1.00834750890018e-08
8.04375000000000e+01 3.00030432362306e-07 9.54266496610488e-09
8.08125000000000e+01 2.83276167194327e-07 9.03076213638792e-09
8.11875000000000e+01 2.67457491790057e-07 8.54622759654201e-09
8.15625000000000e+01 2.52522161052667e-07 8.08760389081391e-09
8.19375000000000e+01 2.38420847350068e-07 7.65351081473760e-09
8.23125000000000e+01 2.25106977598171e-07 7.24264134361964e-09
8.26875000000000e+01 2.12536579441735e-07 6.85375777412487e-09
8.30625000000000e+01 2.00668136024762e-07 6.48568806790573e-09
8.34375000000000e+01 1.89462448870790e-07 6.13732238678569e-09
8.38125000000000e+01 1.78882508420208e-07 5.80760980954638e-09
8.41875000000000e+01 1.68893371797006e-07 5.49555522087868e-09
8.45625000000000e+01 1.59462047401273e-07 5.20021636354404e-09
8.49375000000000e+01 1.50557385946253e-07 4.92070104525290e-09
8.53125000000000e+01 1.42149977580107e-07 4.65616449220444e-09
8.56875000000000e+01 1.34212054752588e-07 4.40580684164693e-09
8.60625000000000e+01 1.26717400505819e-07 4.16887076621269e-09
8.64375000000000e+01 1.19641261886295e-07 3.94463922315489e-09
8.68125000000000e+01 1.12960268192115e-07 3.73243332196874e-09
8.71875000000000e+01 1.06652353785449e-07 3.53161030421672e-09
8.75625000000000e+01 1.00696685215293e-07 3.34156162969664e-09
8.79375000000000e+01 9.50735924098396e-08 3.16171116339518e-09
8.83125000000000e+01 8.97645037111864e-08 2.99151345795678e-09
8.86875000000000e+01 8.47518845378316e-08 2.83045212667165e-09
8.90625000000000e+01 8.00191794723733e-08 2.67803830224477e-09
8.94375000000000e+01 7.55507575831389e-08 2.53380917685441e-09
8.98125000000000e+01 7.13318607991585e-08 2.39732661924150e-09
9.01875000000000e+01 6.73485551679776e-08 2.26817586479249e-09
9.05625000000000e+01 6.35876848353243e-08 2.14596427478812e-09
9.09375000000000e+01 6.00368285946401e-08 2.03032016118965e-09
9.13125000000000e+01 5.66842588629656e-08 1.92089167352301e-09
9.16875000000000e+01 5.35189029476908e-08 1.81734574460027e-09
9.20625000000000e+01 5.05303064762431e-08 1.71936709198767e-09
9.24375000000000e+01 4.77085988679299e-08 1.62665727229081e-09
9.28125000000000e+01 4.50444607338996e-08 1.53893378548000e-09
9.31875000000000e+01 4.25290930975492e-08 1.45592922662413e-09
9.35625000000000e+01 4.01541883337233e-08 1.37739048253816e-09
9.39375000000000e+01 3.79119027307224e-08 1.30307797098052e-09
9.43125000000000e+01 3.57948305845005e-08 1.23276492015939e-09
9.46875000000000e+01 3.37959797394923e-08 1.16623668642455e-09
9.50625000000000e+01 3.19087484952853e-08 1.10329010813234e-09
9.54375000000000e+01 3.01269038028683e-08 1.04373289377667e-09
9.58125000000000e+01 2.84445606784418e-08 9.87383042578844e-10
9.61875000000000e+01 2.68561627668000e-08 9.34068295823636e-10
9.65625000000000e+01 2.53564639900906e-08 8.83625617318840e-10
9.69375000000000e+01 2.39405112213419e-08 8.35900701440617e-10
9.73125000000000e+01 2.26036279255335e-08 7.90747507307520e-10
9.76875000000000e+01 2.13413987141801e-08 7.48027817702743e-10
9.80625000000000e+01 2.01496547624160e-08 7.07610821436416e-10
9.84375000000000e+01 1.90244600404184e-08 6.69372717908609e-10
9.88125000000000e+01 1.79620983136923e-08 6.33196342698826e-10
9.91875000000000e+01 1.69590608692857e-08 5.98970813069423e-10
9.95625000000000e+01 1.60120349273947e-08 5.66591192329001e-10
9.99375000000000e+01 1.51178927000870e-08 5.35958172057203e-10
1.00312500000000e+02 1.42736810610075e-08 5.06977771244948e-10
1.00687500000000e+02 1.34766117919459e-08 4.79561051453904e-10
1.01062500000000e+02 1.27240523740549e-08 4.53623847146263e-10
1.01437500000000e+02 1.20135172933044e-08 4.29086510380584e-10
1.01812500000000e+02 1.13426598314551e-08 4.05873669111877e-10
1.02187500000000e+02 1.07092643154399e-08 3.83913998374293e-10
1.02562500000000e+02 1.01112387995543e-08 3.63140003662815e-10
1.02937500000000e+02 9.54660815628701e-09 3.43487815866487e-10
1.03312500000000e+02 9.01350755297197e-09 3.24896997139850e-10
1.03687500000000e+02 8.51017629271598e-09 3.07310357131660e-10
1.04062500000000e+02 8.03495199926087e-09 2.90673779020676e-10
1.04437500000000e+02 7.58626512657378e-09 2.74936054837367e-10
1.04812500000000e+02 7.16263377503234e-09 2.60048729577944e-10
1.05187500000000e+02 6.76265879708378e-09 2.45965953643232e-10
1.05562500000000e+02 6.38501917621330e-09 2.32644343159630e-10
1.05937500000000e+02 6.02846766395962e-09 2.20042847762836e-10
1.06312500000000e+02 5.69182666056768e-09 2.08122625447224e-10
1.06687500000000e+02 5.37398432567358e-09 1.96846924104778e-10
1.07062500000000e+02 5.07389090617616e-09 1.86180969397413e-10
1.07437500000000e+02 4.79055526916712e-09 1.76091858625413e-10
1.07812500000000e+02 4.52304162846897e-09 1.66548460272549e-10
1.08187500000000e+02 4.27046645396912e-09 1.57521318925425e-10
1.08562500000000e+02 4.03199555354274e-09 1.48982565280605e-10
1.08937500000000e+02 3.80684131792643e-09 1.40905830968311e-10
1.09312500000000e+02 3.59426011944342e-09 1.33266167935830e-10
1.09687500000000e+02 3.39354985598879e-09 1.26039972147454e-10
1.10062500000000e+02 3.20404763216326e-09 1.19204911370651e-10
1.10437500000000e+02 3.02512756989680e-09 1.12739856830422e-10
1.10812500000000e+02 2.85619874133114e-09 1.06624818525375e-10
1.11187500000000e+02 2.69670321713404e-09 1.00840884010038e-10
1.11562500000000e+02 2.54611422379937e-09 9.53701604582874e-11
1.11937500000000e+02 2.40393440384702e-09 9.01957198326674e-11
1.12312500000000e+02 2.26969417317654e-09 8.53015469936461e-11
1.12687500000000e+02 2.14295017014922e-09 8.06724905917182e-11
1.13062500000000e+02 2.02328379127640e-09 7.62942165936129e-11
1.13437500000000e+02 1.91029980867765e-09 7.21531643017843e-11
1.13812500000000e+02 1.80362506474275e-09 6.82365047338594e-11
1.14187500000000e+02 1.70290723968619e-09 6.45321012358265e-11
1.14562500000000e+02 1.60781368792368e-09 6.10284722094709e-11
1.14937500000000e+02 1.51803033942771e-09 5.77147558409239e-11
1.15312500000000e+02 1.43326066243343e-09 5.45806767232321e-11
1.15687500000000e+02 1.35322468406892e-09 5.16165142715627e-11
1.16062500000000e+02 1.27765806567547e-09 4.88130728350624e-11
1.16437500000000e+02 1.20631122976356e-09 4.61616534145125e-11
1.16812500000000e+02 1.13894853572136e-09 4.36540268997694e-11
1.17187500000000e+02 1.07534750155322e-09 4.12824087455709e-11
1.17562500000000e+02 1.01529806907768e-09 3.90394350086337e-11
1.17937500000000e+02 9.58601910158300e-10 3.69181396730855e-11
1.18312500000000e+02 9.05071771675784e-10 3.49119331951699e-11
