Energy (eV)          EEDF (eV^-(3/2))     First Anisotropy
1.87500000000000e-01 4.31470402868172e-02 5.62173827051867e-05
5.62500000000000e-01 4.13228798098664e-02 9.11750491084835e-05
9.37500000000000e-01 3.95758407628806e-02 1.16053081444588e-04
1.31250000000000e+00 3.79026626240826e-02 1.32513128886158e-04
1.68750000000000e+00 3.63002227192725e-02 1.44346906206420e-04
2.06250000000000e+00 3.47655303939398e-02 1.53071489411493e-04
2.43750000000000e+00 3.32957214317658e-02 1.59512401231136e-04
2.81250000000000e+00 3.18880527090993e-02 1.64190935200675e-04
3.18750000000000e+00 3.05398970754294e-02 1.67466737595353e-04
3.56250000000000e+00 2.92487384502999e-02 1.69602888371296e-04
3.93750000000000e+00 2.80121671275155e-02 1.70799943879911e-04
4.31250000000000e+00 2.68278752778759e-02 1.71215522743355e-04
4.68750000000000e+00 2.56936526420440e-02 1.70976400538687e-04
5.06250000000000e+00 2.46073824055098e-02 1.70186399994523e-04
5.43750000000000e+00 2.35670372479521e-02 1.68931769533292e-04
5.81250000000000e+00 2.25706755596239e-02 1.67284984134191e-04
6.18750000000000e+00 2.16164378177013e-02 1.65307513276390e-04
6.56250000000000e+00 2.07025431158309e-02 1.63051888663674e-04
6.93750000000000e+00 1.98272858404019e-02 1.60563282954249e-04
7.31250000000000e+00 1.89890324873368e-02 1.57880738119809e-04
7.68750000000000e+00 1.81862186134611e-02 1.55038137064839e-04
8.06250000000000e+00 1.74173459167632e-02 1.52064983359810e-04
8.43750000000000e+00 1.66809794400934e-02 1.48987035020164e-04
8.81250000000000e+00 1.59757448930846e-02 1.45826825513262e-04
9.18750000000000e+00 1.53003260872966e-02 1.42604096395070e-04
9.56250000000000e+00 1.46534624797960e-02 1.39336159811701e-04
9.93750000000000e+00 1.40339468205890e-02 1.36038204692692e-04
1.03125000000000e+01 1.34406228995142e-02 1.32723557260527e-04
1.06875000000000e+01 1.28723833883935e-02 1.29403904120026e-04
1.10625000000000e+01 1.23281677744099e-02 1.26089484427244e-04
1.14375000000000e+01 1.18069603808598e-02 1.22789256302977e-04
1.18125000000000e+01 1.13077884715814e-02 1.19511041634694e-04
1.21875000000000e+01 1.08297204355248e-02 1.16261652620905e-04
1.25625000000000e+01 1.03718640480742e-02 1.13047002794980e-04
1.29375000000000e+01 9.93336480587744e-03 1.09872204779078e-04
1.33125000000000e+01 9.51340433207528e-03 1.06741656632157e-04
1.36875000000000e+01 9.11119884895380e-03 1.03659118346004e-04
1.40625000000000e+01 8.72599771516997e-03 1.00627779792893e-04
1.44375000000000e+01 8.35708202481990e-03 9.76503212248289e-05
1.48125000000000e+01 8.00376326573534e-03 9.47289672575424e-05
1.51875000000000e+01 7.66538203450443e-03 9.18655351350059e-05
1.55625000000000e+01 7.34130680581854e-03 8.90614779562868e-05
1.59375000000000e+01 7.03093275384831e-03 8.63179234515856e-05
1.63125000000000e+01 6.73368062344933e-03 8.36357088146809e-05
1.66875000000000e+01 6.44899564909069e-03 8.10154120319459e-05
1.70625000000000e+01 6.17634651948883e-03 7.84573800913288e-05
1.74375000000000e+01 5.91522438601437e-03 7.59617544064232e-05
1.78125000000000e+01 5.66514191302124e-03 7.35284937495134e-05
1.81875000000000e+01 5.42563236832586e-03 7.11573949521442e-05
1.85625000000000e+01 5.19624875213869e-03 6.88481116013239e-05
1.89375000000000e+01 4.97656296282278e-03 6.66001709331676e-05
1.93125000000000e+01 4.76616499792203e-03 6.44129891029982e-05
1.96875000000000e+01 4.56466218896829e-03 6.22858849910722e-05
2.00625000000000e+01 4.37167846863903e-03 6.02180926857841e-05
2.04375000000000e+01 4.18685366889805e-03 5.82087727710456e-05
2.08125000000000e+01 4.00984284880913e-03 5.62570225312271e-05
2.11875000000000e+01 3.84031565076826e-03 5.43618851753232e-05
2.15625000000000e+01 3.67795568395297e-03 5.25223581716671e-05
2.19375000000000e+01 3.52245993383792e-03 5.07374007753610e-05
2.23125000000000e+01 3.37353819667506e-03 4.90059408224697e-05
2.26875000000000e+01 3.23091253788247e-03 4.73268808578103e-05
2.30625000000000e+01 3.09431677333150e-03 4.56991036567306e-05
2.34375000000000e+01 2.96349597256383e-03 4.41214771955388e-05
2.38125000000000e+01 2.83820598301141e-03 4.25928591200994e-05
2.41875000000000e+01 2.71821297433137e-03 4.11121007575189e-05
2.45625000000000e+01 2.60329300200538e-03 3.96780507117036e-05
2.49375000000000e+01 2.49323158938907e-03 3.82895580798661e-05
2.53125000000000e+01 2.38782332743146e-03 3.69454753237060e-05
2.56875000000000e+01 2.28687149131741e-03 3.56446608259684e-05
2.60625000000000e+01 2.19018767331749e-03 3.43859811603705e-05
2.64375000000000e+01 2.09759143116016e-03 3.31683131004093e-05
2.68125000000000e+01 2.00890995127007e-03 3.19905453903358e-05
2.71875000000000e+01 1.92397772624375e-03 3.08515802995575e-05
2.75625000000000e+01 1.84263624596105e-03 2.97503349798895e-05
2.79375000000000e+01 1.76473370175559e-03 2.86857426434106e-05
2.83125000000000e+01 1.69012470309227e-03 2.76567535771524e-05
2.86875000000000e+01 1.61867000622305e-03 2.66623360094765e-05
2.90625000000000e+01 1.55023625431447e-03 2.57014768417255e-05
2.94375000000000e+01 1.48469572856211e-03 2.47731822575895e-05
2.98125000000000e+01 1.42192610982727e-03 2.38764782215754e-05
3.01875000000000e+01 1.36181025035119e-03 2.30104108770093e-05
3.05625000000000e+01 1.30423595512066e-03 2.21740468531263e-05
3.09375000000000e+01 1.24909577247699e-03 2.13664734899954e-05
3.13125000000000e+01 1.19628679357758e-03 2.05867989892988e-05
3.16875000000000e+01 1.14571046033581e-03 1.98341524983053e-05
3.20625000000000e+01 1.09727238148080e-03 1.91076841337673e-05
3.24375000000000e+01 1.05088215639372e-03 1.84065649518995e-05
3.28125000000000e+01 1.00645320639198e-03 1.77299868700832e-05
3.31875000000000e+01 9.63902613146275e-04 1.70771625454625e-05
3.35625000000000e+01 9.23150963929028e-04 1.64473252151595e-05
3.39375000000000e+01 8.84122203405386e-04 1.58397285024380e-05
3.43125000000000e+01 8.46743491690152e-04 1.52536461927728e-05
3.46875000000000e+01 8.10945068405759e-04 1.46883719834462e-05
3.50625000000000e+01 7.76660122487564e-04 1.41432192099771e-05
3.54375000000000e+01 7.43824667493487e-04 1.36175205524073e-05
3.58125000000000e+01 7.12377422185284e-04 1.31106277242021e-05
3.61875000000000e+01 6.82259696158561e-04 1.26219111462799e-05
3.65625000000000e+01 6.53415280308119e-04 1.21507596084670e-05
3.69375000000000e+01 6.25790341924157e-04 1.16965799204628e-05
3.73125000000000e+01 5.99333324223590e-04 1.12587965542174e-05
3.76875000000000e+01 5.73994850128947e-04 1.08368512794469e-05
3.80625000000000e+01 5.49727630115288e-04 1.04302027938531e-05
3.84375000000000e+01 5.26486373953150e-04 1.00383263494689e-05
3.88125000000000e+01 5.04227706182796e-04 9.66071337641275e-06
3.91875000000000e+01 4.82910085162030e-04 9.29687110521469e-06
3.95625000000000e+01 4.62493725536488e-04 8.94632218876052e-06
3.99375000000000e+01 4.42940523987713e-04 8.60860432479614e-06
4.03125000000000e+01 4.24213988120431e-04 8.28326987983796e-06
4.06875000000000e+01 4.06279168356321e-04 7.96988551524700e-06
4.10625000000000e+01 3.89102592707159e-04 7.66803181614225e-06
4.14375000000000e+01 3.72652204305611e-04 7.37730292375526e-06
4.18125000000000e+01 3.56897301577080e-04 7.09730617175858e-06
4.21875000000000e+01 3.41808480940960e-04 6.82766172703869e-06
4.25625000000000e+01 3.27357581934349e-04 6.56800223532583e-06
4.29375000000000e+01 3.13517634655805e-04 6.31797247204101e-06
4.33125000000000e+01 3.00262809431075e-04 6.07722899867188e-06
4.36875000000000e+01 2.87568368606830e-04 5.84543982494561e-06
4.40625000000000e+01 2.75410620382464e-04 5.62228407702561e-06
4.44375000000000e+01 2.63766874593772e-04 5.40745167192335e-06
4.48125000000000e+01 2.52615400366008e-04 5.20064299828214e-06
4.51875000000000e+01 2.41935385557263e-04 5.00156860365930e-06
4.55625000000000e+01 2.31706897916497e-04 4.80994888840576e-06
4.59375000000000e+01 2.21910847883716e-04 4.62551380621647e-06
4.63125000000000e+01 2.12528952962879e-04 4.44800257140205e-06
4.66875000000000e+01 2.03543703601035e-04 4.27716337291173e-06
4.70625000000000e+01 1.94938330510019e-04 4.11275309511846e-06
4.74375000000000e+01 1.86696773369709e-04 3.95453704536039e-06
4.78125000000000e+01 1.78803650854437e-04 3.80228868821752e-06
4.81875000000000e+01 1.71244231926628e-04 3.65578938648880e-06
4.85625000000000e+01 1.64004408344064e-04 3.51482814882257e-06
4.89375000000000e+01 1.57070668329496e-04 3.37920138394245e-06
4.93125000000000e+01 1.50430071353429e-04 3.24871266140075e-06
4.96875000000000e+01 1.44070223983050e-04 3.12317247878336e-06
5.00625000000000e+01 1.37979256752197e-04 3.00239803528213e-06
5.04375000000000e+01 1.32145802009225e-04 2.88621301154416e-06
5.08125000000000e+01 1.26558972701403e-04 2.77444735570180e-06
5.11875000000000e+01 1.21208342056272e-04 2.66693707548200e-06
5.15625000000000e+01 1.16083924122018e-04 2.56352403628944e-06
5.19375000000000e+01 1.11176155130563e-04 2.46405576515443e-06
5.23125000000000e+01 1.06475875648578e-04 2.36838526043325e-06
5.26875000000000e+01 1.01974313483116e-04 2.27637080714642e-06
5.30625000000000e+01 9.76630673099478e-05 2.18787579783833e-06
5.34375000000000e+01 9.35340909940684e-05 2.10276855884028e-06
5.38125000000000e+01 8.95796785730848e-05 2.02092218181775e-06
5.41875000000000e+01 8.57924498754799e-05 1.94221436048217e-06
5.45625000000000e+01 8.21653367469017e-05 1.86652723234707e-06
5.49375000000000e+01 7.86915698587747e-05 1.79374722540842e-06
5.53125000000000e+01 7.53646660746135e-05 1.72376490962932e-06
5.56875000000000e+01 7.21784163504607e-05 1.65647485310958e-06
5.60625000000000e+01 6.91268741468668e-05 1.59177548282152e-06
5.64375000000000e+01 6.62043443307864e-05 1.52956894979420e-06
5.68125000000000e+01 6.34053725466768e-05 1.46976099862949e-06
5.71875000000000e+01 6.07247350369631e-05 1.41226084123455e-06
5.75625000000000e+01 5.81574288928713e-05 1.35698103465677e-06
5.79375000000000e+01 5.56986627174345e-05 1.30383736290874e-06
5.83125000000000e+01 5.33438476832459e-05 1.25274872267248e-06
5.86875000000000e+01 5.10885889682703e-05 1.20363701277377e-06
5.90625000000000e+01 4.89286775537309e-05 1.15642702731956e-06
5.94375000000000e+01 4.68600823687619e-05 1.11104635239293e-06
5.98125000000000e+01 4.48789427671689e-05 1.06742526620230e-06
6.01875000000000e+01 4.29815613222542e-05 1.02549664258356e-06
6.05625000000000e+01 4.11643969262611e-05 9.85195857755701e-07
6.09375000000000e+01 3.94240581815586e-05 9.46460700232687e-07
6.13125000000000e+01 3.77572970712311e-05 9.09231283796415e-07
6.16875000000000e+01 3.61610028972629e-05 8.73449963437690e-07
6.20625000000000e+01 3.46321964750009e-05 8.39061254174275e-07
6.24375000000000e+01 3.31680245730643e-05 8.06011752657159e-07
6.28125000000000e+01 3.17657545883211e-05 7.74250061478367e-07
6.31875000000000e+01 3.04227694459954e-05 7.43726716095731e-07
6.35625000000000e+01 2.91365627153863e-05 7.14394114292129e-07
6.39375000000000e+01 2.79047339320841e-05 6.86206448088818e-07
6.43125000000000e+01 2.67249841179519e-05 6.59119638034552e-07
6.46875000000000e+01 2.55951114905125e-05 6.33091269794218e-07
6.50625000000000e+01 2.45130073537335e-05 6.08080532962779e-07
6.54375000000000e+01 2.34766521625400e-05 5.84048162032317e-07
6.58125000000000e+01 2.24841117537114e-05 5.60956379441925e-07
6.61875000000000e+01 2.15335337361274e-05 5.38768840642172e-07
6.65625000000000e+01 2.06231440336261e-05 5.17450581107772e-07
6.69375000000000e+01 1.97512435740228e-05 4.96967965233969e-07
6.73125000000000e+01 1.89162051181089e-05 4.77288637054028e-07
6.76875000000000e+01 1.81164702227148e-05 4.58381472717004e-07
6.80625000000000e+01 1.73505463321664e-05 4.40216534666777e-07
6.84375000000000e+01 1.66170039927094e-05 4.22765027465066e-07
6.88125000000000e+01 1.59144741847010e-05 4.05999255202852e-07
6.91875000000000e+01 1.52416457675905e-05 3.89892580446322e-07
6.95625000000000e+01 1.45972630329209e-05 3.74419384665077e-07
6.99375000000000e+01 1.39801233607835e-05 3.59555030091930e-07
7.03125000000000e+01 1.33890749753529e-05 3.45275822965223e-07
7.06875000000000e+01 1.28230147953125e-05 3.31558978106055e-07
7.10625000000000e+01 1.22808863751597e-05 3.18382584784356e-07
7.14375000000000e+01 1.17616779335477e-05 3.05725573829186e-07
7.18125000000000e+01 1.12644204649849e-05 2.93567685939999e-07
7.21875000000000e+01 1.07881859313672e-05 2.81889441157054e-07
7.25625000000000e+01 1.03320855299682e-05 2.70672109450467e-07
7.29375000000000e+01 9.89526803465561e-06 2.59897682388695e-07
7.33125000000000e+01 9.47691820723614e-06 2.49548845848527e-07
7.36875000000000e+01 9.07625527596633e-06 2.39608953729882e-07
7.40625000000000e+01 8.69253147838781e-06 2.30062002639938e-07
7.44375000000000e+01 8.32503066576851e-06 2.20892607512251e-07
7.48125000000000e+01 7.97306696654496e-06 2.12085978127666e-07
7.51875000000000e+01 7.63598350627122e-06 2.03627896504949e-07
7.55625000000000e+01 7.31315118168553e-06 1.95504695130114e-07
7.59375000000000e+01 7.00396748660667e-06 1.87703235994444e-07
7.63125000000000e+01 6.70785538746884e-06 1.80210890412260e-07
7.66875000000000e+01 6.42426224639634e-06 1.73015519590421e-07
7.70625000000000e+01 6.15265878980834e-06 1.66105455922510e-07
7.74375000000000e+01 5.89253812062863e-06 1.59469484981589e-07
7.78125000000000e+01 5.64341477225707e-06 1.53096828186269e-07
7.81875000000000e+01 5.40482380253683e-06 1.46977126115730e-07
7.85625000000000e+01 5.17631992602687e-06 1.41100422450154e-07
7.89375000000000e+01 4.95747668295987e-06 1.35457148513849e-07
7.93125000000000e+01 4.74788564333479e-06 1.30038108399120e-07
7.96875000000000e+01 4.54715564465865e-06 1.24834464649702e-07
8.00625000000000e+01 4.35491206191485e-06 1.19837724483342e-07
8.04375000000000e+01 4.17079610839562e-06 1.15039726533757e-07
8.08125000000000e+01 3.99446416609369e-06 1.10432628092967e-07
8.11875000000000e+01 3.82558714440352e-06 1.06008892835616e-07
8.15625000000000e+01 3.66384986593524e-06 1.01761279007558e-07
8.19375000000000e+01 3.50895047829494e-06 9.76828280616142e-08
8.23125000000000e+01 3.36059989073359e-06 9.37668537239993e-08
8.26875000000000e+01 3.21852123461327e-06 9.00069314755087e-08
8.30625000000000e+01 3.08244934668353e-06 8.63968884321274e-08
8.34375000000000e+01 2.95213027420384e-06 8.29307936102557e-08
8.38125000000000e+01 2.82732080098820e-06 7.96029485622835e-08
8.41875000000000e+01 2.70778799348764e-06 7.64078783687545e-08
8.45625000000000e+01 2.59330876606331e-06 7.33403229738553e-08
8.49375000000000e+01 2.48366946463880e-06 7.03952288514360e-08
8.53125000000000e+01 2.37866546795476e-06 6.75677409892336e-08
8.56875000000000e+01 2.27810080568160e-06 6.48531951794156e-08
8.60625000000000e+01 2.18178779267748e-06 6.22471106039891e-08
8.64375000000000e+01 2.08954667870908e-06 5.97451827040353e-08
8.68125000000000e+01 2.00120531298141e-06 5.73432763221251e-08
8.71875000000000e+01 1.91659882285051e-06 5.50374191076702e-08
8.75625000000000e+01 1.83556930611951e-06 5.28237951753244e-08
8.79375000000000e+01 1.75796553634367e-06 5.06987390069211e-08
8.83125000000000e+01 1.68364268059454e-06 4.86587295877716e-08
8.86875000000000e+01 1.61246202915630e-06 4.67003847684903e-08
8.90625000000000e+01 1.54429073665008e-06 4.48204558438362e-08
8.94375000000000e+01 1.47900157410285e-06 4.30158223403717e-08
8.98125000000000e+01 1.41647269149835e-06 4.12834870050387e-08
9.01875000000000e+01 1.35658739036680e-06 3.96205709870494e-08
9.05625000000000e+01 1.29923390598904e-06 3.80243092057644e-08
9.09375000000000e+01 1.24430519880856e-06 3.64920458975008e-08
9.13125000000000e+01 1.19169875466217e-06 3.50212303344799e-08
9.16875000000000e+01 1.14131639345650e-06 3.36094127093699e-08
9.20625000000000e+01 1.09306408593322e-06 3.22542401791240e-08
9.24375000000000e+01 1.04685177818096e-06 3.09534530620515e-08
9.28125000000000e+01 1.00259322356658e-06 2.97048811822772e-08
9.31875000000000e+01 9.60205821771900e-07 2.85064403559703e-08
9.35625000000000e+01 9.19610464635684e-07 2.73561290139304e-08
9.39375000000000e+01 8.80731388513027e-07 2.62520249553170e-08
9.43125000000000e+01 8.43496032876685e-07 2.51922822275117e-08
9.46875000000000e+01 8.07834904896412e-07 2.41751281272818e-08
9.50625000000000e+01 7.73681449743584e-07 2.31988603186002e-08
9.54375000000000e+01 7.40971926379054e-07 2.22618440626485e-08
9.58125000000000e+01 7.09645288592418e-07 2.13625095556992e-08
9.61875000000000e+01 6.79643071070677e-07 2.04993493707366e-08
9.65625000000000e+01 6.50909280283661e-07 1.96709159988262e-08
9.69375000000000e+01 6.23390289982570e-07 1.88758194863991e-08
9.73125000000000e+01 5.97034741116606e-07 1.81127251647609e-08
9.76875000000000e+01 5.71793445980911e-07 1.73803514682706e-08
9.80625000000000e+01 5.47619296416905e-07 1.66774678377732e-08
9.84375000000000e+01 5.24467175893719e-07 1.60028927059990e-08
9.88125000000000e+01 5.02293875306622e-07 1.53554915617640e-08
9.91875000000000e+01 4.81058012335307e-07 1.47341750899289e-08
9.95625000000000e+01 4.60719954211526e-07 1.41378973841896e-08
9.99375000000000e+01 4.41241743751934e-07 1.35656542298795e-08
1.00312500000000e+02 4.22587028518108e-07 1.30164814540776e-08
1.00687500000000e+02 4.04720992971512e-07 1.24894533404138e-08
1.01062500000000e+02 3.87610293496805e-07 1.19836811060641e-08
1.01437500000000e+02 3.71222996172217e-07 1.14983114385260e-08
1.01812500000000e+02 3.55528517170852e-07 1.10325250898525e-08
1.02187500000000e+02 3.40497565681694e-07 1.05855355261161e-08
1.02562500000000e+02 3.26102089243784e-07 1.01565876299548e-08
1.02937500000000e+02 3.12315221391547e-07 9.74495645413890e-09
1.03312500000000e+02 2.99111231513554e-07 9.34994602417334e-09
1.03687500000000e+02 2.86465476831147e-07 8.97088818802686e-09
1.04062500000000e+02 2.74354356407302e-07 8.60714151115365e-09
1.04437500000000e+02 2.62755267099887e-07 8.25809021504244e-09
1.04812500000000e+02 2.51646561377130e-07 7.92314315759623e-09
1.05187500000000e+02 2.41007506916542e-07 7.60173285371116e-09
1.05562500000000e+02 2.30818247911913e-07 7.29331453448571e-09
1.05937500000000e+02 2.21059768016166e-07 6.99736524355171e-09
1.06312500000000e+02 2.11713854850898e-07 6.71338296907694e-09
1.06687500000000e+02 2.02763066016377e-07 6.44088581004504e-09
1.07062500000000e+02 1.94190696538571e-07 6.17941117547225e-09
1.07437500000000e+02 1.85980747692430e-07 5.92851501527191e-09
1.07812500000000e+02 1.78117897143261e-07 5.68777108152816e-09
1.08187500000000e+02 1.70587470350452e-07 5.45677021898751e-09
1.08562500000000e+02 1.63375413180187e-07 5.23511968362326e-09
1.08937500000000e+02 1.56468265676032e-07 5.02244248817246e-09
1.09312500000000e+02 1.49853136938444e-07 4.81837677358715e-09
1.09687500000000e+02 1.43517681066314e-07 4.62257520538291e-09
1.10062500000000e+02 1.37450074115652e-07 4.43470439390728e-09
1.10437500000000e+02 1.31638992032409e-07 4.25444433758844e-09
1.10812500000000e+02 1.26073589518242e-07 4.08148788826118e-09
1.11187500000000e+02 1.20743479789795e-07 3.91554023770194e-09
1.11562500000000e+02 1.15638715193709e-07 3.75631842453882e-09
1.11937500000000e+02 1.10749768641189e-07 3.60355086073489e-09
1.12312500000000e+02 1.06067515827468e-07 3.45697687687392e-09
1.12687500000000e+02 1.01583218203005e-07 3.31634628550842e-09
1.13062500000000e+02 9.72885066646108e-08 3.18141896185804e-09
1.13437500000000e+02 9.31753659360835e-08 3.05196444117428e-09
1.13812500000000e+02 8.92361196091939e-08 2.92776153211465e-09
1.14187500000000e+02 8.54634158171042e-08 2.80859794549443e-09
1.14562500000000e+02 8.18502135134834e-08 2.69426993780910e-09
1.14937500000000e+02 7.83897693317100e-08 2.58458196894446e-09
1.15312500000000e+02 7.50756249996395e-08 2.47934637351380e-09
1.15687500000000e+02 7.19015952864464e-08 2.37838304528387e-09
1.16062500000000e+02 6.88617564590471e-08 2.28151913417212e-09
1.16437500000000e+02 6.59504352265601e-08 2.18858875531806e-09
1.16812500000000e+02 6.31621981521683e-08 2.09943270975132e-09
1.17187500000000e+02 6.04918415126260e-08 2.01389821619715e-09
1.17562500000000e+02 5.79343815864812e-08 1.93183865357879e-09
1.17937500000000e+02 5.54850453528921e-08 1.85311331379265e-09
1.18312500000000e+02 5.31392615836754e-08 1.77758716434971e-09
