Energy (eV)          EEDF (eV^-(3/2))     First Anisotropy
1.38888888888889e-03 6.14903296677254e-01 3.38419759771618e-08
4.16666666666667e-03 6.14903270476946e-01 1.04951186693403e-07
6.94444444444444e-03 6.14903202744035e-01 2.62787417246146e-07
9.72222222222222e-03 6.14903088105674e-01 4.67170448460826e-07
1.25000000000000e-02 6.14902928471792e-01 7.04922408365551e-07
1.52777777777778e-02 6.14902722769894e-01 9.66341175491281e-07
1.80555555555556e-02 6.14902475014774e-01 1.23292721368205e-06
2.08333333333333e-02 6.14902190059470e-01 1.49981579507920e-06
2.36111111111111e-02 6.14901871154135e-01 1.77218132808804e-06
2.63888888888889e-02 6.14901519173778e-01 2.05507108163177e-06
2.91666666666667e-02 6.14901134535316e-01 2.34657396139173e-06
3.19444444444444e-02 6.14900718324814e-01 2.63909829831945e-06
3.47222222222222e-02 6.14900273067081e-01 2.93655330673219e-06
3.75000000000000e-02 6.14899798029285e-01 3.24789095879362e-06
4.02777777777778e-02 6.14899292681074e-01 3.57489324916707e-06
4.30555555555556e-02 6.14898755783617e-01 3.92057070020217e-06
4.58333333333333e-02 6.14898186015399e-01 4.28437725440007e-06
4.86111111111111e-02 6.14897582425446e-01 4.66493018402688e-06
5.13888888888889e-02 6.14896944162778e-01 5.04710616821082e-06
5.41666666666667e-02 6.14896274322213e-01 5.43015611869813e-06
5.69444444444444e-02 6.14895572010170e-01 5.82882231586249e-06
5.97222222222222e-02 6.14894836392178e-01 6.24297884695537e-06
6.25000000000000e-02 6.14894066660546e-01 6.67295754167260e-06
6.52777777777778e-02 6.14893261949076e-01 7.11946034268704e-06
6.80555555555556e-02 6.14892421332677e-01 7.58281475371312e-06
7.08333333333333e-02 6.14891543919627e-01 8.04546307677503e-06
7.36111111111111e-02 6.14890632836559e-01 8.50164447533867e-06
7.63888888888889e-02 6.14889688324437e-01 8.96796295853821e-06
7.91666666666667e-02 6.14888709643307e-01 9.44880589585812e-06
8.19444444444444e-02 6.14887696071988e-01 9.94430194804258e-06
8.47222222222222e-02 6.14886646878692e-01 1.04547966867805e-05
8.75000000000000e-02 6.14885561303969e-01 1.09804268688526e-05
9.02777777777778e-02 6.14884438620600e-01 1.15210488199226e-05
9.30555555555556e-02 6.14883278128586e-01 1.20766853721595e-05
9.58333333333333e-02 6.14882079123235e-01 1.26475068100732e-05
9.86111111111111e-02 6.14880840896131e-01 1.32336299295894e-05
1.01388888888889e-01 6.14879562744016e-01 1.38082371846141e-05
1.04166666666667e-01 6.14878249203779e-01 1.43702488410910e-05
1.06944444444444e-01 6.14876899627857e-01 1.49440900356603e-05
1.09722222222222e-01 6.14875513739223e-01 1.55278042518485e-05
1.12500000000000e-01 6.14874091255101e-01 1.61214411588718e-05
1.15277777777778e-01 6.14872631887412e-01 1.67250492435109e-05
1.18055555555556e-01 6.14871135343160e-01 1.73386759808322e-05
1.20833333333333e-01 6.14869601324784e-01 1.79623679919812e-05
1.23611111111111e-01 6.14868029530446e-01 1.85961711693462e-05
1.26388888888889e-01 6.14866419654307e-01 1.92401307859176e-05
1.29166666666667e-01 6.14864771386750e-01 1.98942916044526e-05
1.31944444444444e-01 6.14863084414594e-01 2.05586979641760e-05
1.34722222222222e-01 6.14861358421267e-01 2.12333938474062e-05
1.37500000000000e-01 6.14859593086974e-01 2.19184229540092e-05
1.40277777777778e-01 6.14857788088834e-01 2.26138287558279e-05
1.43055555555556e-01 6.14855943101013e-01 2.33196545480691e-05
1.45833333333333e-01 6.14854057794829e-01 2.40359434890218e-05
1.48611111111111e-01 6.14852131838857e-01 2.47627386432030e-05
1.51388888888889e-01 6.14850164899019e-01 2.55000830180220e-05
1.54166666666667e-01 6.14848156638658e-01 2.62480195878824e-05
1.56944444444444e-01 6.14846106718616e-01 2.70065913153910e-05
1.59722222222222e-01 6.14844014797293e-01 2.77758411787274e-05
1.62500000000000e-01 6.14841880530704e-01 2.85558121994871e-05
1.65277777777778e-01 6.14839703572529e-01 2.93465474398413e-05
1.68055555555556e-01 6.14837483574162e-01 3.01480900207883e-05
1.70833333333333e-01 6.14835220184750e-01 3.09604827752680e-05
1.73611111111111e-01 6.14832913051280e-01 3.17837664498150e-05
1.76388888888889e-01 6.14830561818883e-01 3.26179726280569e-05
1.79166666666667e-01 6.14828166131933e-01 3.34631098892970e-05
1.81944444444444e-01 6.14825725636307e-01 3.43191296632285e-05
1.84722222222222e-01 6.14823239985291e-01 3.51859079432673e-05
1.87500000000000e-01 6.14820708844182e-01 3.60632444951359e-05
1.90277777777778e-01 6.14818131895966e-01 3.69508228107481e-05
1.93055555555556e-01 6.14815508851210e-01 3.78482596069712e-05
1.95833333333333e-01 6.14812839446264e-01 3.87552630873176e-05
1.98611111111111e-01 6.14810123430887e-01 3.96716854666533e-05
2.01388888888889e-01 6.14807360559677e-01 4.05392645334545e-05
2.04166666666667e-01 6.14804559110273e-01 4.13567261430957e-05
2.06944444444444e-01 6.14801718898337e-01 4.21804204347619e-05
2.09722222222222e-01 6.14798839894088e-01 4.30091823944194e-05
2.12500000000000e-01 6.14795922067179e-01 4.38429782205188e-05
2.15277777777778e-01 6.14792965386676e-01 4.46817753623275e-05
2.18055555555556e-01 6.14789969821042e-01 4.55255424715860e-05
2.20833333333333e-01 6.14786935338110e-01 4.63742493430656e-05
2.23611111111111e-01 6.14783861905070e-01 4.72278668783280e-05
2.26388888888889e-01 6.14780749488455e-01 4.80863670531360e-05
2.29166666666667e-01 6.14777598054124e-01 4.89497228757583e-05
2.31944444444444e-01 6.14774407567250e-01 4.98179083547353e-05
2.34722222222222e-01 6.14771177992305e-01 5.06908984634463e-05
2.37500000000000e-01 6.14767909293054e-01 5.15686691161212e-05
2.40277777777778e-01 6.14764601432541e-01 5.24511971399317e-05
2.43055555555556e-01 6.14761254373078e-01 5.33384602368189e-05
2.45833333333333e-01 6.14757868076242e-01 5.42304369532253e-05
2.48611111111111e-01 6.14754442502861e-01 5.51271066659852e-05
2.51388888888889e-01 6.14750977613012e-01 5.60284495599080e-05
2.54166666666667e-01 6.14747473366010e-01 5.69344465859603e-05
2.56944444444444e-01 6.14743929720404e-01 5.78450794561407e-05
2.59722222222222e-01 6.14740346633973e-01 5.87603306119730e-05
2.62500000000000e-01 6.14736724063717e-01 5.96801831966322e-05
2.65277777777778e-01 6.14733061965858e-01 6.06046210481662e-05
2.68055555555556e-01 6.14729360295831e-01 6.15336286687705e-05
2.70833333333333e-01 6.14725619008284e-01 6.24671910887583e-05
2.73611111111111e-01 6.14721838057087e-01 6.34052932652412e-05
2.76388888888889e-01 6.14718017395402e-01 6.43479177731851e-05
2.79166666666667e-01 6.14714156975967e-01 6.52950403114809e-05
2.81944444444444e-01 6.14710256751693e-01 6.62466185344201e-05
2.84722222222222e-01 6.14706316677257e-01 6.72025859810364e-05
2.87500000000000e-01 6.14702336710373e-01 6.81628515853846e-05
2.90277777777778e-01 6.14698316813384e-01 6.91272867870449e-05
2.93055555555556e-01 6.14694256955964e-01 7.00957429514799e-05
2.95833333333333e-01 6.14690157114561e-01 7.10681041446086e-05
2.98611111111111e-01 6.14686017268923e-01 7.20443040890012e-05
3.01388888888889e-01 6.14681837399670e-01 7.30110638813236e-05
3.04166666666667e-01 6.14677619484161e-01 7.40301739858355e-05
3.06944444444444e-01 6.14673356421730e-01 7.51743408813170e-05
3.09722222222222e-01 6.14669041489086e-01 7.64384711649989e-05
3.12500000000000e-01 6.14664668323255e-01 7.78176448089669e-05
3.15277777777778e-01 6.14660230905590e-01 7.93071065827287e-05
3.18055555555556e-01 6.14655723546536e-01 8.09022598433350e-05
3.20833333333333e-01 6.14651140871127e-01 8.25986605862557e-05
3.23611111111111e-01 6.14646477805172e-01 8.43920117505157e-05
3.26388888888889e-01 6.14641729562090e-01 8.62781577896743e-05
3.29166666666667e-01 6.14636891630363e-01 8.82530794708284e-05
3.31944444444444e-01 6.14631959761570e-01 9.03128888813418e-05
3.34722222222222e-01 6.14626929958981e-01 9.24538246442852e-05
3.37500000000000e-01 6.14621798466672e-01 9.46722473382864e-05
3.40277777777778e-01 6.14616561759146e-01 9.69646351080545e-05
3.43055555555556e-01 6.14611216531417e-01 9.93275794483131e-05
3.45833333333333e-01 6.14605759689553e-01 1.01757781147504e-04
3.48611111111111e-01 6.14600188341646e-01 1.04252046410237e-04
3.51388888888889e-01 6.14594499789179e-01 1.06807283112139e-04
3.54166666666667e-01 6.14588691518798e-01 1.09420497230771e-04
3.56944444444444e-01 6.14582761194429e-01 1.12088789403269e-04
3.59722222222222e-01 6.14576706649761e-01 1.14809351593718e-04
3.62500000000000e-01 6.14570525881056e-01 1.17579463924266e-04
3.65277777777778e-01 6.14564217040277e-01 1.20396491612644e-04
3.68055555555556e-01 6.14557778428516e-01 1.23257882020977e-04
3.70833333333333e-01 6.14551208489708e-01 1.26161161761426e-04
3.73611111111111e-01 6.14544505804633e-01 1.29103933678611e-04
3.76388888888889e-01 6.14537669085196e-01 1.32083873104305e-04
3.79166666666667e-01 6.14530697169046e-01 1.35098723040122e-04
3.81944444444444e-01 6.14523589014594e-01 1.38146286109592e-04
3.84722222222222e-01 6.14516343696673e-01 1.41224419451698e-04
3.87500000000000e-01 6.14508960402270e-01 1.44331032393304e-04
3.90277777777778e-01 6.14501438426605e-01 1.47464078058068e-04
3.93055555555556e-01 6.14493777169871e-01 1.50621560485202e-04
3.95833333333333e-01 6.14485976132693e-01 1.53801558985069e-04
3.98611111111111e-01 6.14478034910507e-01 1.57002234618157e-04
4.01388888888889e-01 6.14469953188544e-01 1.60157857165125e-04
4.04166666666667e-01 6.14461738383640e-01 1.63334631288507e-04
4.06944444444444e-01 6.14453383468964e-01 1.66663093662383e-04
4.09722222222222e-01 6.14444881541144e-01 1.70139460852017e-04
4.12500000000000e-01 6.14436226070069e-01 1.73757550447883e-04
4.15277777777778e-01 6.14427410883448e-01 1.77511387383682e-04
4.18055555555556e-01 6.14418430151979e-01 1.81395197420793e-04
4.20833333333333e-01 6.14409278375097e-01 1.85403400869543e-04
4.23611111111111e-01 6.14399950367300e-01 1.89530606526076e-04
4.26388888888889e-01 6.14390441244994e-01 1.93771605843916e-04
4.29166666666667e-01 6.14380746413864e-01 1.98121367299508e-04
4.31944444444444e-01 6.14370861556730e-01 2.02575030936599e-04
4.34722222222222e-01 6.14360782621881e-01 2.07127903099352e-04
4.37500000000000e-01 6.14350505811856e-01 2.11775451345681e-04
4.40277777777778e-01 6.14340027572662e-01 2.16513299548649e-04
4.43055555555556e-01 6.14329344583408e-01 2.21337223128515e-04
4.45833333333333e-01 6.14318453746331e-01 2.26243144455723e-04
4.48611111111111e-01 6.14307352177216e-01 2.31227128420891e-04
4.51388888888889e-01 6.14296037196172e-01 2.36285378128361e-04
4.54166666666667e-01 6.14284506318765e-01 2.41414230744528e-04
4.56944444444444e-01 6.14272757247490e-01 2.46610153478256e-04
4.59722222222222e-01 6.14260787863565e-01 2.51869739686053e-04
4.62500000000000e-01 6.14248596219033e-01 2.57189705110478e-04
4.65277777777778e-01 6.14236180529171e-01 2.62566884242663e-04
4.68055555555556e-01 6.14223539165178e-01 2.67998226804256e-04
4.70833333333333e-01 6.14210670647146e-01 2.73480794287749e-04
4.73611111111111e-01 6.14197573637287e-01 2.79011756474177e-04
4.76388888888889e-01 6.14184246933444e-01 2.84588387583960e-04
4.79166666666667e-01 6.14170689462887e-01 2.90208061886090e-04
4.81944444444444e-01 6.14156900276414e-01 2.95868247388467e-04
4.84722222222222e-01 6.14142878542929e-01 3.01566501114539e-04
4.87500000000000e-01 6.14128623544156e-01 3.07300466018951e-04
4.90277777777778e-01 6.14114134669656e-01 3.13067865798156e-04
4.93055555555556e-01 6.14099411412161e-01 3.18866508383093e-04
4.95833333333333e-01 6.14084453362371e-01 3.24694298272915e-04
4.98611111111111e-01 6.14069260203266e-01 3.30549239027091e-04
5.01388888888889e-01 6.14053831704813e-01 3.36365801423206e-04
5.04166666666667e-01 6.14038174482116e-01 3.42155910101392e-04
5.06944444444444e-01 6.14022287201758e-01 3.47991734810644e-04
5.09722222222222e-01 6.14006168932333e-01 3.53867357463651e-04
5.12500000000000e-01 6.13989818890321e-01 3.59779645779339e-04
5.15277777777778e-01 6.13973236433984e-01 3.65725569182435e-04
5.18055555555556e-01 6.13956421057460e-01 3.71702196133088e-04
5.20833333333333e-01 6.13939372385068e-01 3.77706691512025e-04
5.23611111111111e-01 6.13922090165797e-01 3.83736314112397e-04
5.26388888888889e-01 6.13904574267983e-01 3.89788414196971e-04
5.29166666666667e-01 6.13886824674171e-01 3.95860431106786e-04
5.31944444444444e-01 6.13868841476144e-01 4.01949890945168e-04
5.34722222222222e-01 6.13850624870118e-01 4.08054404330491e-04
5.37500000000000e-01 6.13832175152107e-01 4.14171664207105e-04
5.40277777777778e-01 6.13813492713434e-01 4.20299443701075e-04
5.43055555555556e-01 6.13794578036402e-01 4.26435594056799e-04
5.45833333333333e-01 6.13775431690101e-01 4.32578042615097e-04
5.48611111111111e-01 6.13756054326363e-01 4.38724790837523e-04
5.51388888888889e-01 6.13736446675854e-01 4.44873912395461e-04
5.54166666666667e-01 6.13716609544287e-01 4.51023551308899e-04
5.56944444444444e-01 6.13696543808775e-01 4.57171920127014e-04
5.59722222222222e-01 6.13676250414299e-01 4.63317298155072e-04
5.62500000000000e-01 6.13655730370296e-01 4.69458029743527e-04
5.65277777777778e-01 6.13634984747362e-01 4.75592522608597e-04
5.68055555555556e-01 6.13614014674069e-01 4.81719246195041e-04
5.70833333333333e-01 6.13592821333883e-01 4.87836730060470e-04
5.73611111111111e-01 6.13571405962195e-01 4.93943562194180e-04
5.76388888888889e-01 6.13549769843455e-01 5.00038387048727e-04
5.79166666666667e-01 6.13527914308442e-01 5.06119903120318e-04
5.81944444444444e-01 6.13505840731675e-01 5.12186859142463e-04
5.84722222222222e-01 6.13483550529076e-01 5.18238051748661e-04
5.87500000000000e-01 6.13461045155640e-01 5.24272324538865e-04
5.90277777777778e-01 6.13438326103228e-01 5.30288564570425e-04
5.93055555555556e-01 6.13415394898586e-01 5.36285705541362e-04
5.95833333333333e-01 6.13392253100876e-01 5.42262737323389e-04
5.98611111111111e-01 6.13368902298890e-01 5.48218706145627e-04
6.01388888888889e-01 6.13345344108639e-01 5.54345680933739e-04
6.04166666666667e-01 6.13321563692633e-01 5.61021498940266e-04
6.06944444444445e-01 6.13297530538590e-01 5.68419893704558e-04
6.09722222222222e-01 6.13273215294357e-01 5.76515448282955e-04
6.12500000000000e-01 6.13248589951924e-01 5.85280867711841e-04
6.15277777777778e-01 6.13223627800890e-01 5.94689673142531e-04
6.18055555555556e-01 6.13198303383496e-01 6.04716177981670e-04
6.20833333333333e-01 6.13172592451160e-01 6.15335464767223e-04
6.23611111111111e-01 6.13146471922478e-01 6.26523362767939e-04
6.26388888888889e-01 6.13119919842617e-01 6.38256426241709e-04
6.29166666666667e-01 6.13092915344081e-01 6.50511913330329e-04
6.31944444444444e-01 6.13065438608773e-01 6.63267765580541e-04
6.34722222222222e-01 6.13037470831336e-01 6.76502588040498e-04
6.37500000000000e-01 6.13008994183712e-01 6.90195629958214e-04
6.40277777777778e-01 6.12979991780886e-01 7.04326766018872e-04
6.43055555555556e-01 6.12950447647777e-01 7.18876478109968e-04
6.45833333333333e-01 6.12920346687227e-01 7.33825837633433e-04
6.48611111111111e-01 6.12889674649071e-01 7.49156488300461e-04
6.51388888888889e-01 6.12858418100231e-01 7.64850629429433e-04
6.54166666666667e-01 6.12826564395810e-01 7.80890999753787e-04
6.56944444444444e-01 6.12794101651155e-01 7.97260861638277e-04
6.59722222222222e-01 6.12761018714854e-01 8.13943985768012e-04
6.62500000000000e-01 6.12727305142631e-01 8.30924636292497e-04
6.65277777777778e-01 6.12692951172122e-01 8.48187556354743e-04
6.68055555555556e-01 6.12657947698485e-01 8.65717954051367e-04
6.70833333333333e-01 6.12622286250841e-01 8.83501488773495e-04
6.73611111111111e-01 6.12585958969490e-01 9.01524257850308e-04
6.76388888888889e-01 6.12548958583913e-01 9.19772783325192e-04
6.79166666666667e-01 6.12511278391524e-01 9.38233998805602e-04
6.81944444444444e-01 6.12472912237171e-01 9.56895235670133e-04
6.84722222222222e-01 6.12433854493441e-01 9.75744210349305e-04
6.87500000000000e-01 6.12394100041593e-01 9.94769011976780e-04
6.90277777777778e-01 6.12353644253249e-01 1.01395809199156e-03
6.93055555555556e-01 6.12312482972507e-01 1.03330025821518e-03
6.95833333333333e-01 6.12270612498419e-01 1.05278466757225e-03
6.98611111111111e-01 6.12228029568079e-01 1.07240081930051e-03
7.01388888888889e-01 6.12184731339937e-01 1.09200702579694e-03
7.04166666666667e-01 6.12140726735814e-01 1.11186310291198e-03
7.06944444444444e-01 6.12095992180135e-01 1.13274423579140e-03
7.09722222222222e-01 6.12050474065656e-01 1.15500328655690e-03
7.12500000000000e-01 6.12004121123816e-01 1.17858865037006e-03
7.15277777777778e-01 6.11956884356535e-01 1.20344999919836e-03
7.18055555555556e-01 6.11908716969883e-01 1.22953825183654e-03
7.20833333333333e-01 6.11859574309581e-01 1.25680554462521e-03
7.23611111111111e-01 6.11809413798278e-01 1.28520520290493e-03
7.26388888888889e-01 6.11758194874549e-01 1.31469171318851e-03
7.29166666666667e-01 6.11705878933575e-01 1.34522069597473e-03
7.31944444444445e-01 6.11652429269448e-01 1.37674887914314e-03
7.34722222222222e-01 6.11597811019065e-01 1.40923407194660e-03
7.37500000000000e-01 6.11541991107571e-01 1.44263513960774e-03
7.40277777777778e-01 6.11484938195293e-01 1.47691197842309e-03
7.43055555555556e-01 6.11426622626153e-01 1.51202549140931e-03
7.45833333333333e-01 6.11367016377490e-01 1.54793756450577e-03
7.48611111111111e-01 6.11306093011281e-01 1.58461104325804e-03
7.51388888888889e-01 6.11243827626707e-01 1.62200971000949e-03
7.54166666666667e-01 6.11180196814033e-01 1.66009826160976e-03
7.56944444444444e-01 6.11115178609769e-01 1.69884228758125e-03
7.59722222222222e-01 6.11048752453077e-01 1.73820824875104e-03
7.62500000000000e-01 6.10980899143395e-01 1.77816345635999e-03
7.65277777777778e-01 6.10911600799236e-01 1.81867605159975e-03
7.68055555555556e-01 6.10840840818142e-01 1.85971498557881e-03
7.70833333333333e-01 6.10768603837760e-01 1.90124999972068e-03
7.73611111111111e-01 6.10694875698006e-01 1.94325160650255e-03
7.76388888888889e-01 6.10619643404307e-01 1.98569107033004e-03
7.79166666666667e-01 6.10542895091891e-01 2.02854038840581e-03
7.81944444444444e-01 6.10464619991132e-01 2.07177227090199e-03
7.84722222222222e-01 6.10384808393989e-01 2.11536012238442e-03
7.87500000000000e-01 6.10303451621365e-01 2.15927802482641e-03
7.90277777777778e-01 6.10220541991415e-01 2.20350071969960e-03
7.93055555555556e-01 6.10136072788818e-01 2.24800359813989e-03
7.95833333333333e-01 6.10050038234298e-01 2.29276269361019e-03
7.98611111111111e-01 6.09962433454916e-01 2.33775466689893e-03
8.01388888888889e-01 6.09873254455244e-01 2.38290101968078e-03
8.04166666666667e-01 6.09782502301321e-01 2.42796060401720e-03
8.06944444444444e-01 6.09690191164622e-01 2.47264783493350e-03
8.09722222222222e-01 6.09596343516376e-01 2.51685232337127e-03
8.12500000000000e-01 6.09500981638374e-01 2.56057614909429e-03
8.15277777777778e-01 6.09404127623017e-01 2.60382143474089e-03
8.18055555555556e-01 6.09305803373308e-01 2.64659034707474e-03
8.20833333333333e-01 6.09206030602782e-01 2.68888509807567e-03
8.23611111111111e-01 6.09104830835394e-01 2.73070794588494e-03
8.26388888888889e-01 6.09002225405360e-01 2.77206119561961e-03
8.29166666666667e-01 6.08898235456968e-01 2.81294720007969e-03
8.31944444444444e-01 6.08792881944347e-01 2.85336836036937e-03
8.34722222222222e-01 6.08686185631209e-01 2.89332712643704e-03
8.37500000000000e-01 6.08578167090570e-01 2.93282599751223e-03
8.40277777777778e-01 6.08468846704440e-01 2.97186752247427e-03
8.43055555555556e-01 6.08358244663497e-01 3.01045430016381e-03
8.45833333333333e-01 6.08246380966744e-01 3.04858897963055e-03
8.48611111111111e-01 6.08133275421151e-01 3.08627426028013e-03
8.51388888888889e-01 6.08018947641284e-01 3.12351289198710e-03
8.54166666666667e-01 6.07903417048925e-01 3.16030767516289e-03
8.56944444444445e-01 6.07786702872686e-01 3.19666146074496e-03
8.59722222222222e-01 6.07668824147613e-01 3.23257715016534e-03
8.62500000000000e-01 6.07549799714791e-01 3.26805769523467e-03
8.65277777777778e-01 6.07429648220946e-01 3.30310609803181e-03
8.68055555555556e-01 6.07308388118042e-01 3.33772541071756e-03
8.70833333333333e-01 6.07186037662887e-01 3.37191873528327e-03
8.73611111111111e-01 6.07062614916738e-01 3.40568922323024e-03
8.76388888888889e-01 6.06938137744915e-01 3.43904007493579e-03
