Energy (eV)          EEDF (eV^-(3/2))     First Anisotropy
1.48529411764706e-02 2.25483839247405e-01 1.44603592114675e-04
4.45588235294118e-02 2.23198154862092e-01 2.38372752681121e-04
7.42647058823529e-02 2.20935640006080e-01 3.13597716272408e-04
1.03970588235294e-01 2.18696059807045e-01 3.70092882243536e-04
1.33676470588235e-01 2.16479181790318e-01 4.16672572268083e-04
1.63382352941176e-01 2.14284775810229e-01 4.56685635082571e-04
1.93088235294118e-01 2.12112614088012e-01 4.91873137209309e-04
2.22794117647059e-01 2.09962471135871e-01 5.23291208269107e-04
2.52500000000000e-01 2.07834123744817e-01 5.51643405974506e-04
2.82205882352941e-01 2.05727350986677e-01 5.77429177343118e-04
3.11911764705882e-01 2.03641934155952e-01 6.01019847437497e-04
3.41617647058824e-01 2.01577656779424e-01 6.22701390536138e-04
3.71323529411765e-01 1.99534304569997e-01 6.42700264689890e-04
4.01029411764706e-01 1.97511665407904e-01 6.61199885882532e-04
4.30735294117647e-01 1.95509529334620e-01 6.78351607941866e-04
4.60441176470588e-01 1.93527688514014e-01 6.94282304724102e-04
4.90147058823529e-01 1.91565937212926e-01 7.09099761438856e-04
5.19852941176471e-01 1.89624071792176e-01 7.22896612025754e-04
5.49558823529412e-01 1.87701890672286e-01 7.35753275946009e-04
5.79264705882353e-01 1.85799194314030e-01 7.47740187729858e-04
6.08970588235294e-01 1.83915785207709e-01 7.58919522997109e-04
6.38676470588235e-01 1.82051467842125e-01 7.69346552478496e-04
6.68382352941176e-01 1.80206048685292e-01 7.79070715694508e-04
6.98088235294118e-01 1.78379336172694e-01 7.88136486999996e-04
7.27794117647059e-01 1.76571140678697e-01 7.96584079708264e-04
7.57500000000000e-01 1.74781274497591e-01 8.04450021770603e-04
7.87205882352941e-01 1.73009551831207e-01 8.11767635052507e-04
8.16911764705882e-01 1.71255788760128e-01 8.18567434370400e-04
8.46617647058823e-01 1.69519803233772e-01 8.24877463080895e-04
8.76323529411765e-01 1.67801415044645e-01 8.30723578595352e-04
9.06029411764706e-01 1.66100445810127e-01 8.36129693440319e-04
9.35735294117647e-01 1.64416718959709e-01 8.41117983987472e-04
9.65441176470588e-01 1.62750059710726e-01 8.45709070459352e-04
9.95147058823529e-01 1.61100295050629e-01 8.49922171017597e-04
1.02485294117647e+00 1.59467253724059e-01 8.53775237434893e-04
1.05455882352941e+00 1.57850766212878e-01 8.57285074751703e-04
1.08426470588235e+00 1.56250664714123e-01 8.60467446539471e-04
1.11397058823529e+00 1.54666783111738e-01 8.63337160375725e-04
1.14367647058824e+00 1.53098957002406e-01 8.65908153437740e-04
1.17338235294118e+00 1.51547023634484e-01 8.68193568576829e-04
1.20308823529412e+00 1.50010821906202e-01 8.70205814495419e-04
1.23279411764706e+00 1.48490192336643e-01 8.71956620142500e-04
1.26250000000000e+00 1.46984977086544e-01 8.73457089938216e-04
1.29220588235294e+00 1.45495019903800e-01 8.74717753802259e-04
1.32191176470588e+00 1.44020166120222e-01 8.75748605255660e-04
1.35161764705882e+00 1.42560262624786e-01 8.76559136409723e-04
1.38132352941176e+00 1.41115157880433e-01 8.77158375643016e-04
1.41102941176471e+00 1.39684701875014e-01 8.77554922136397e-04
1.44073529411765e+00 1.38268746117001e-01 8.77756970845959e-04
1.47044117647059e+00 1.36867143610673e-01 8.77772335785597e-04
1.50014705882353e+00 1.35479748869713e-01 8.77608476848797e-04
1.52985294117647e+00 1.34106417872722e-01 8.77272524643177e-04
1.55955882352941e+00 1.32747008058163e-01 8.76771295948644e-04
1.58926470588235e+00 1.31401378309693e-01 8.76111315030488e-04
1.61897058823529e+00 1.30069388933299e-01 8.75298826686430e-04
1.64867647058824e+00 1.28750901667590e-01 8.74339814647906e-04
1.67838235294118e+00 1.27445779644237e-01 8.73240018808025e-04
1.70808823529412e+00 1.26153887382352e-01 8.72004945782116e-04
1.73779411764706e+00 1.24875090767115e-01 8.70639879104287e-04
1.76750000000000e+00 1.23609257058030e-01 8.69149893334014e-04
1.79720588235294e+00 1.22356254852608e-01 8.67539867362795e-04
1.82691176470588e+00 1.21115954080367e-01 8.65814491785773e-04
1.85661764705882e+00 1.19888225982790e-01 8.63978276149276e-04
1.88632352941176e+00 1.18672943119890e-01 8.62035560048694e-04
1.91602941176471e+00 1.17469979336731e-01 8.59990523667270e-04
1.94573529411765e+00 1.16279209757178e-01 8.57847192956546e-04
1.97544117647059e+00 1.15100510765042e-01 8.55609444836911e-04
2.00514705882353e+00 1.13933760009241e-01 8.53281016127361e-04
2.03485294117647e+00 1.12778836372831e-01 8.50865512075329e-04
2.06455882352941e+00 1.11635619966584e-01 8.48366409014327e-04
2.09426470588235e+00 1.10503992116599e-01 8.45787062068136e-04
2.12397058823529e+00 1.09383835346734e-01 8.43130707539487e-04
2.15367647058824e+00 1.08275033382263e-01 8.40400469879720e-04
2.18338235294118e+00 1.07177471121729e-01 8.37599368392197e-04
2.21308823529412e+00 1.06091034630449e-01 8.34730319577595e-04
2.24279411764706e+00 1.05015611123937e-01 8.31796139644254e-04
2.27250000000000e+00 1.03951088970607e-01 8.28799550346610e-04
2.30220588235294e+00 1.02897357665569e-01 8.25743184626270e-04
2.33191176470588e+00 1.01854307824102e-01 8.22629588221214e-04
2.36161764705882e+00 1.00821831165979e-01 8.19461221465641e-04
2.39132352941176e+00 9.97998205173676e-02 8.16240464251555e-04
2.42102941176471e+00 9.87881697863805e-02 8.12969620842123e-04
2.45073529411765e+00 9.77867739565570e-02 8.09650920939983e-04
2.48044117647059e+00 9.67955290720201e-02 8.06286520959520e-04
2.51014705882353e+00 9.58143322387031e-02 8.02878508296215e-04
2.53985294117647e+00 9.48430816014877e-02 7.99428905483518e-04
2.56955882352941e+00 9.38816763377273e-02 7.95939670116978e-04
2.59926470588235e+00 9.29300166468121e-02 7.92412698712506e-04
2.62897058823529e+00 9.19880037362509e-02 7.88849826695881e-04
2.65867647058824e+00 9.10555398221656e-02 7.85252831981287e-04
2.68838235294118e+00 9.01325281082515e-02 7.81623438471092e-04
2.71808823529412e+00 8.92188727794176e-02 7.77963316375697e-04
2.74779411764706e+00 8.83144789885803e-02 7.74274082739474e-04
2.77750000000000e+00 8.74192528566940e-02 7.70557304590208e-04
2.80720588235294e+00 8.65331014530039e-02 7.66814502027951e-04
2.83691176470588e+00 8.56559327887771e-02 7.63047148335300e-04
2.86661764705882e+00 8.47876558047607e-02 7.59256670289918e-04
2.89632352941176e+00 8.39281803708212e-02 7.55444450958708e-04
2.92602941176471e+00 8.30774172673818e-02 7.51611832445043e-04
2.95573529411765e+00 8.22352781792634e-02 7.47760115842069e-04
2.98544117647059e+00 8.14016756837628e-02 7.43890561381882e-04
3.01514705882353e+00 8.05765232499611e-02 7.40004390932136e-04
3.04485294117647e+00 7.97597352212542e-02 7.36102790456211e-04
3.07455882352941e+00 7.89512268093136e-02 7.32186909276862e-04
3.10426470588235e+00 7.81509140853039e-02 7.28257862393632e-04
3.13397058823529e+00 7.73587139686626e-02 7.24316729862992e-04
3.16367647058824e+00 7.65745442260505e-02 7.20364558976944e-04
3.19338235294118e+00 7.57983234551504e-02 7.16402366416358e-04
3.22308823529412e+00 7.50299710788093e-02 7.12431137988958e-04
3.25279411764706e+00 7.42694073343595e-02 7.08451828545232e-04
3.28250000000000e+00 7.35165532723473e-02 7.04465363950224e-04
3.31220588235294e+00 7.27713307412461e-02 7.00472643035885e-04
3.34191176470588e+00 7.20336623817367e-02 6.96474537278335e-04
3.37161764705882e+00 7.13034716165375e-02 6.92471890645115e-04
3.40132352941176e+00 7.05806826489483e-02 6.88465521388100e-04
3.43102941176471e+00 6.98652204484130e-02 6.84456223821531e-04
3.46073529411765e+00 6.91570107449427e-02 6.80444767955275e-04
3.49044117647059e+00 6.84559800194259e-02 6.76431899290051e-04
3.52014705882353e+00 6.77620555020193e-02 6.72418340454395e-04
3.54985294117647e+00 6.70751651585015e-02 6.68404792830300e-04
3.57955882352941e+00 6.63952376848424e-02 6.64391935709793e-04
3.60926470588235e+00 6.57222024998130e-02 6.60380427838824e-04
3.63897058823529e+00 6.50559897358443e-02 6.56370906684124e-04
3.66867647058824e+00 6.43965302372558e-02 6.52363989895691e-04
3.69838235294118e+00 6.37437555475339e-02 6.48360276762308e-04
3.72808823529412e+00 6.30975979040978e-02 6.44360347794469e-04
3.75779411764706e+00 6.24579902295822e-02 6.40364764451043e-04
3.78750000000000e+00 6.18248661299713e-02 6.36374070484762e-04
3.81720588235294e+00 6.11981598825522e-02 6.32388793282799e-04
3.84691176470588e+00 6.05778064308306e-02 6.28409443437863e-04
3.87661764705882e+00 5.99637413762132e-02 6.24436514455595e-04
3.90632352941176e+00 5.93559009760674e-02 6.20470483995893e-04
3.93602941176471e+00 5.87542221323073e-02 6.16511815111033e-04
3.96573529411765e+00 5.81586423864579e-02 6.12560955810654e-04
3.99544117647059e+00 5.75690999117169e-02 6.08618338756058e-04
4.02514705882353e+00 5.69855335109574e-02 6.04684382408291e-04
4.05485294117647e+00 5.64078826059060e-02 6.00759492174315e-04
4.08455882352941e+00 5.58360872323557e-02 5.96844059619549e-04
4.11426470588235e+00 5.52700880339489e-02 5.92938463561422e-04
4.14397058823529e+00 5.47098262546766e-02 5.89043069375264e-04
4.17367647058824e+00 5.41552437368245e-02 5.85158230034836e-04
4.20338235294118e+00 5.36062829108472e-02 5.81284287152793e-04
4.23308823529412e+00 5.30628867907725e-02 5.77421570550922e-04
4.26279411764706e+00 5.25249989670377e-02 5.73570397944602e-04
4.29250000000000e+00 5.19925636044106e-02 5.69731075909684e-04
4.32220588235294e+00 5.14655254323769e-02 5.65903900850127e-04
4.35191176470588e+00 5.09438297406886e-02 5.62089158573354e-04
4.38161764705882e+00 5.04274223725214e-02 5.58287123973612e-04
4.41132352941176e+00 4.99162497223806e-02 5.54498061932144e-04
4.44102941176471e+00 4.94102587269712e-02 5.50722228218682e-04
4.47073529411765e+00 4.89093968608893e-02 5.46959869073672e-04
4.50044117647059e+00 4.84136121300829e-02 5.43211220893002e-04
4.53014705882353e+00 4.79228530697538e-02 5.39476511067372e-04
4.55985294117647e+00 4.74370687356812e-02 5.35755958823422e-04
4.58955882352941e+00 4.69562087000539e-02 5.32049774535976e-04
4.61926470588235e+00 4.64802230462397e-02 5.28358160532754e-04
4.64897058823529e+00 4.60090623626010e-02 5.24681310482998e-04
4.67867647058824e+00 4.55426777403962e-02 5.21019410165240e-04
4.70838235294118e+00 4.50810207656407e-02 5.17372638237562e-04
4.73808823529412e+00 4.46240435151141e-02 5.13741165843278e-04
4.76779411764706e+00 4.41716985504474e-02 5.10125156307123e-04
4.79750000000000e+00 4.37239389160371e-02 5.06524765853384e-04
4.82720588235294e+00 4.32807181313033e-02 5.02940144326789e-04
4.85691176470588e+00 4.28419901868307e-02 4.99371434808559e-04
4.88661764705882e+00 4.24077095387152e-02 4.95818773318366e-04
4.91632352941176e+00 4.19778311064949e-02 4.92282289486813e-04
4.94602941176471e+00 4.15523102657843e-02 4.88762107230740e-04
4.97573529411765e+00 4.11311028445461e-02 4.85258344380369e-04
5.00544117647059e+00 4.07141651176836e-02 4.81771112387752e-04
5.03514705882353e+00 4.03014538049952e-02 4.78300516957074e-04
5.06485294117647e+00 3.98929260641631e-02 4.74846658678181e-04
5.09455882352941e+00 3.94885394871522e-02 4.71409632442598e-04
5.12426470588235e+00 3.90882520958111e-02 4.67989528050700e-04
5.15397058823529e+00 3.86920223367534e-02 4.64586429689506e-04
5.18367647058824e+00 3.82998090793429e-02 4.61200416512828e-04
5.21338235294118e+00 3.79115716091023e-02 4.57831563224876e-04
5.24308823529412e+00 3.75272696242701e-02 4.54479939735087e-04
5.27279411764706e+00 3.71468632309035e-02 4.51145610884962e-04
5.30250000000000e+00 3.67703129408944e-02 4.47828636993122e-04
5.33220588235294e+00 3.63975796656916e-02 4.44529074403733e-04
5.36191176470588e+00 3.60286247129773e-02 4.41246975152890e-04
5.39161764705882e+00 3.56634097819810e-02 4.37982386703242e-04
5.42132352941176e+00 3.53018969615303e-02 4.34735352456387e-04
5.45102941176471e+00 3.49440487240689e-02 4.31505912268759e-04
5.48073529411765e+00 3.45898279224497e-02 4.28294102129477e-04
5.51044117647059e+00 3.42391977854506e-02 4.25099953902912e-04
5.54014705882353e+00 3.38921219158611e-02 4.21923495810830e-04
5.56985294117647e+00 3.35485642847819e-02 4.18764752917962e-04
5.59955882352941e+00 3.32084892285304e-02 4.15623746642872e-04
5.62926470588235e+00 3.28718614449409e-02 4.12500495223845e-04
5.65897058823529e+00 3.25386459891176e-02 4.09395013279401e-04
5.68867647058824e+00 3.22088082715664e-02 4.06307312254067e-04
5.71838235294118e+00 3.18823140528281e-02 4.03237400867583e-04
5.74808823529412e+00 3.15591294405227e-02 4.00185284819547e-04
5.77779411764706e+00 3.12392208852839e-02 3.97150966551526e-04
5.80750000000000e+00 3.09225551789315e-02 3.94134445667117e-04
5.83720588235294e+00 3.06090994493535e-02 3.91135719355376e-04
5.86691176470588e+00 3.02988211576559e-02 3.88154782106387e-04
5.89661764705882e+00 2.99916880942710e-02 3.85191625481362e-04
5.92632352941176e+00 2.96876683771709e-02 3.82246238508645e-04
5.95602941176471e+00 2.93867304469860e-02 3.79318608083113e-04
5.98573529411765e+00 2.90888430642571e-02 3.76408718692431e-04
6.01544117647059e+00 2.87939753057095e-02 3.73516552194980e-04
6.04514705882353e+00 2.85020965625088e-02 3.70642088193493e-04
6.07485294117647e+00 2.82131765356036e-02 3.67785304411982e-04
6.10455882352941e+00 2.79271852330768e-02 3.64946176288686e-04
6.13426470588235e+00 2.76440929670346e-02 3.62124677337965e-04
6.16397058823529e+00 2.73638703500747e-02 3.59320778783274e-04
6.19367647058824e+00 2.70864882935940e-02 3.56534449903673e-04
6.22338235294118e+00 2.68119180033977e-02 3.53765658383615e-04
6.25308823529412e+00 2.65401309771728e-02 3.51014370063283e-04
6.28279411764706e+00 2.62710990011056e-02 3.48280548734851e-04
6.31250000000000e+00 2.60047941482332e-02 3.45564156469775e-04
6.34220588235294e+00 2.57411887742522e-02 3.42865153949246e-04
6.37191176470588e+00 2.54802555150843e-02 3.40183500224198e-04
6.40161764705882e+00 2.52219672836370e-02 3.37519152519039e-04
6.43132352941176e+00 2.49662972681982e-02 3.34872066540862e-04
6.46102941176471e+00 2.47132189284351e-02 3.32242196791707e-04
6.49073529411765e+00 2.44627059930489e-02 3.29629496338065e-04
6.52044117647059e+00 2.42147324566725e-02 3.27033916621802e-04
6.55014705882353e+00 2.39692725783075e-02 3.24455407752430e-04
6.57985294117647e+00 2.37263008775052e-02 3.21893918802389e-04
6.60955882352941e+00 2.34857921321062e-02 3.19349397469479e-04
6.63926470588235e+00 2.32477213756241e-02 3.16821790360555e-04
6.66897058823529e+00 2.30120638943037e-02 3.14311042686206e-04
6.69867647058823e+00 2.27787952256117e-02 3.11817098532467e-04
6.72838235294118e+00 2.25478911546315e-02 3.09339901135546e-04
6.75808823529412e+00 2.23193277119087e-02 3.06879392672107e-04
6.78779411764706e+00 2.20930811706336e-02 3.04435514086566e-04
6.81750000000000e+00 2.18691280451737e-02 3.02008205348197e-04
6.84720588235294e+00 2.16474450876312e-02 2.99597405711027e-04
6.87691176470588e+00 2.14280092857677e-02 2.97203053512564e-04
6.90661764705882e+00 2.12107978603045e-02 2.94825086007605e-04
6.93632352941176e+00 2.09957882634986e-02 2.92463439611606e-04
6.96602941176471e+00 2.07829581758530e-02 2.90118050146673e-04
6.99573529411765e+00 2.05722855041187e-02 2.87788852648367e-04
7.02544117647059e+00 2.03637483787088e-02 2.85475781205955e-04
7.05514705882353e+00 2.01573251523152e-02 2.83178769192733e-04
7.08485294117647e+00 1.99529943967663e-02 2.80897749498983e-04
7.11455882352941e+00 1.97507349011031e-02 2.78632654252424e-04
7.14426470588235e+00 1.95505256693784e-02 2.76383415042146e-04
7.17397058823529e+00 1.93523459182040e-02 2.74149962665176e-04
7.20367647058823e+00 1.91561750754185e-02 2.71932227340992e-04
7.23338235294118e+00 1.89619927771190e-02 2.69730138928640e-04
7.26308823529412e+00 1.87697788658276e-02 2.67543626751327e-04
7.29279411764706e+00 1.85795133881414e-02 2.65372619450808e-04
7.32250000000000e+00 1.83911765934403e-02 2.63217045190634e-04
7.35220588235294e+00 1.82047489310504e-02 2.61076831861831e-04
7.38191176470588e+00 1.80202110484792e-02 2.58951906914633e-04
7.41161764705882e+00 1.78375437891632e-02 2.56842197218578e-04
7.44132352941176e+00 1.76567281912159e-02 2.54747629255095e-04
7.47102941176471e+00 1.74777454847163e-02 2.52668129312422e-04
7.50073529411765e+00 1.73005770900102e-02 2.50603623324233e-04
7.53044117647059e+00 1.71252046155518e-02 2.48554036735216e-04
7.56014705882353e+00 1.69516098566905e-02 2.46519294683573e-04
7.58985294117647e+00 1.67797747930789e-02 2.44499322185844e-04
7.61955882352941e+00 1.66096815870379e-02 2.42494043905614e-04
7.64926470588235e+00 1.64413125817059e-02 2.40503384331166e-04
7.67897058823529e+00 1.62746502989910e-02 2.38527267565333e-04
7.70867647058823e+00 1.61096774384050e-02 2.36565617495742e-04
7.73838235294118e+00 1.59463768746136e-02 2.34618357967301e-04
7.76808823529412e+00 1.57847316558788e-02 2.32685412635802e-04
7.79779411764706e+00 1.56247250020962e-02 2.30766704845553e-04
7.82750000000000e+00 1.54663403036665e-02 2.28862157790875e-04
7.85720588235294e+00 1.53095611191528e-02 2.26971694679690e-04
7.88691176470588e+00 1.51543711737814e-02 2.25095238593103e-04
7.91661764705882e+00 1.50007543575618e-02 2.23232712367956e-04
7.94632352941176e+00 1.48486947241929e-02 2.21384038749979e-04
7.97602941176471e+00 1.46981764888237e-02 2.19549140548961e-04
8.00573529411765e+00 1.45491840266110e-02 2.17727940504141e-04
8.03544117647059e+00 1.44017018709163e-02 2.15920361171431e-04
8.06514705882353e+00 1.42557147122487e-02 2.14126325068706e-04
8.09485294117647e+00 1.41112073961226e-02 2.12345754823056e-04
8.12455882352941e+00 1.39681649216699e-02 2.10578572979429e-04
8.15426470588235e+00 1.38265724400838e-02 2.08824702142178e-04
8.18397058823529e+00 1.36864152529078e-02 2.07084064800834e-04
8.21367647058823e+00 1.35476788110213e-02 2.05356583465852e-04
8.24338235294118e+00 1.34103487126135e-02 2.03642180806201e-04
8.27308823529412e+00 1.32744107018619e-02 2.01940779527245e-04
8.30279411764706e+00 1.31398506672926e-02 2.00252302268221e-04
8.33250000000000e+00 1.30066546407992e-02 1.98576671731065e-04
8.36220588235294e+00 1.28748087957048e-02 1.96913810810991e-04
8.39191176470588e+00 1.27442994454906e-02 1.95263642479468e-04
8.42161764705882e+00 1.26151130422242e-02 1.93626089685793e-04
8.45132352941176e+00 1.24872361756108e-02 1.92001075479364e-04
8.48102941176471e+00 1.23606555711394e-02 1.90388523133687e-04
8.51073529411765e+00 1.22353580888601e-02 1.88788356034171e-04
8.54044117647059e+00 1.21113307218765e-02 1.87200497583673e-04
8.57014705882353e+00 1.19885605954298e-02 1.85624871318582e-04
8.59985294117647e+00 1.18670349651243e-02 1.84061401026577e-04
8.62955882352941e+00 1.17467412157516e-02 1.82510010588244e-04
8.65926470588235e+00 1.16276668599812e-02 1.80970624090269e-04
8.68897058823529e+00 1.15097995369304e-02 1.79443165681021e-04
8.71867647058824e+00 1.13931270112861e-02 1.77927559679106e-04
8.74838235294118e+00 1.12776371716260e-02 1.76423730683492e-04
8.77808823529412e+00 1.11633180292989e-02 1.74931603471769e-04
8.80779411764706e+00 1.10501577170537e-02 1.73451102914303e-04
8.83750000000000e+00 1.09381444881905e-02 1.71982154077354e-04
8.86720588235294e+00 1.08272667149545e-02 1.70524682327672e-04
8.89691176470588e+00 1.07175128874593e-02 1.69078613234982e-04
8.92661764705882e+00 1.06088716123718e-02 1.67643872489623e-04
8.95632352941177e+00 1.05013316120930e-02 1.66220386000459e-04
8.98602941176471e+00 1.03948817232206e-02 1.64808079994281e-04
9.01573529411765e+00 1.02895108955133e-02 1.63406880922337e-04
9.04544117647059e+00 1.01852081906303e-02 1.62016715381294e-04
9.07514705882353e+00 1.00819627813400e-02 1.60637510206260e-04
9.10485294117647e+00 9.97976395004865e-03 1.59269192565234e-04
9.13455882352941e+00 9.87860108780444e-03 1.57911689827975e-04
9.16426470588235e+00 9.77846369319661e-03 1.56564929656785e-04
9.19397058823529e+00 9.67934137115867e-03 1.55228839886745e-04
9.22367647058823e+00 9.58122383221118e-03 1.53903348612782e-04
9.25338235294118e+00 9.48410089106905e-03 1.52588384278073e-04
9.28308823529412e+00 9.38796246569346e-03 1.51283875589297e-04
9.31279411764706e+00 9.29279857614438e-03 1.49989751444827e-04
9.34250000000000e+00 9.19859934384961e-03 1.48705941017459e-04
9.37220588235294e+00 9.10535499027167e-03 1.47432373838434e-04
