Energy (eV)          EEDF (eV^-(3/2))     First Anisotropy
1.06756756756757e-02 3.24666169840268e-01 1.99137640886784e-04
3.20270270270270e-02 3.21649501918794e-01 3.28409201174866e-04
5.33783783783784e-02 3.18660863677421e-01 4.32416505199631e-04
7.47297297297297e-02 3.15699994661574e-01 5.10752816922146e-04
9.60810810810811e-02 3.12766636856721e-01 5.75526887728347e-04
1.17432432432432e-01 3.09860534628917e-01 6.31333335774825e-04
1.38783783783784e-01 3.06981434747937e-01 6.80557997087652e-04
1.60135135135135e-01 3.04129086314659e-01 7.24646404097537e-04
1.81486486486486e-01 3.01303240748474e-01 7.64560401177441e-04
2.02837837837838e-01 2.98503651812124e-01 8.00982008185380e-04
2.24189189189189e-01 2.95730075525103e-01 8.34417716398693e-04
2.45540540540541e-01 2.92982270202235e-01 8.65257165285023e-04
2.66891891891892e-01 2.90259996388793e-01 8.93808569323181e-04
2.88243243243243e-01 2.87563016845908e-01 9.20321296274529e-04
3.09594594594595e-01 2.84891096559512e-01 9.45000910427971e-04
3.30945945945946e-01 2.82244002688250e-01 9.68019556030018e-04
3.52297297297297e-01 2.79621504547083e-01 9.89523335180043e-04
3.73648648648649e-01 2.77023373610240e-01 1.00963769521936e-03
3.95000000000000e-01 2.74449383466878e-01 1.02847144521507e-03
4.16351351351351e-01 2.71899309804026e-01 1.04611980208617e-03
4.37702702702703e-01 2.69372930405717e-01 1.06266674920306e-03
4.59054054054054e-01 2.66870025113958e-01 1.07818688578217e-03
4.80405405405405e-01 2.64390375811442e-01 1.09274689115648e-03
5.01756756756757e-01 2.61933766418142e-01 1.10640670671834e-03
5.23108108108108e-01 2.59499982856189e-01 1.11922049641145e-03
5.44459459459460e-01 2.57088813032584e-01 1.13123743023970e-03
5.65810810810811e-01 2.54700046834032e-01 1.14250233721965e-03
5.87162162162162e-01 2.52333476094839e-01 1.15305625036910e-03
6.08513513513514e-01 2.49988894579782e-01 1.16293686072143e-03
6.29864864864865e-01 2.47666097977683e-01 1.17217890615647e-03
6.51216216216216e-01 2.45364883868193e-01 1.18081450060789e-03
6.72567567567568e-01 2.43085051719080e-01 1.18887341606072e-03
6.93918918918919e-01 2.40826402857596e-01 1.19638332782566e-03
7.15270270270270e-01 2.38588740453905e-01 1.20337002278889e-03
7.36621621621622e-01 2.36371869513454e-01 1.20985758432907e-03
7.57972972972973e-01 2.34175596850177e-01 1.21586855403613e-03
7.79324324324324e-01 2.31999731070292e-01 1.22142407019919e-03
8.00675675675676e-01 2.29844082564058e-01 1.22654399330001e-03
8.22027027027027e-01 2.27708463480565e-01 1.23124701708453e-03
8.43378378378378e-01 2.25592687711903e-01 1.23555076393130e-03
8.64729729729730e-01 2.23496570884482e-01 1.23947187301213e-03
8.86081081081081e-01 2.21419930335213e-01 1.24302607911519e-03
9.07432432432432e-01 2.19362585096038e-01 1.24622828026131e-03
9.28783783783784e-01 2.17324355884950e-01 1.24909260148312e-03
9.50135135135135e-01 2.15305065083410e-01 1.25163245235037e-03
9.71486486486487e-01 2.13304536721234e-01 1.25386057610361e-03
9.92837837837838e-01 2.11322596467419e-01 1.25578909608779e-03
1.01418918918919e+00 2.09359071614342e-01 1.25742956087778e-03
1.03554054054054e+00 2.07413791049428e-01 1.25879298329419e-03
1.05689189189189e+00 2.05486585235863e-01 1.25988986509633e-03
1.07824324324324e+00 2.03577286248835e-01 1.26073023704181e-03
1.09959459459459e+00 2.01685727705140e-01 1.26132369350334e-03
1.12094594594595e+00 1.99811744767539e-01 1.26167941033574e-03
1.14229729729730e+00 1.97955174130365e-01 1.26180617263669e-03
1.16364864864865e+00 1.96115854005385e-01 1.26171239753884e-03
1.18500000000000e+00 1.94293624107644e-01 1.26140615779171e-03
1.20635135135135e+00 1.92488325626661e-01 1.26089519350188e-03
1.22770270270270e+00 1.90699801257683e-01 1.26018693531810e-03
1.24905405405405e+00 1.88927895142272e-01 1.25928852633726e-03
1.27040540540541e+00 1.87172452870172e-01 1.25820682969039e-03
1.29175675675676e+00 1.85433321465814e-01 1.25694844561065e-03
1.31310810810811e+00 1.83710349375053e-01 1.25551972485072e-03
1.33445945945946e+00 1.82003386451938e-01 1.25392678345412e-03
1.35581081081081e+00 1.80312283933250e-01 1.25217550763540e-03
1.37716216216216e+00 1.78636894463104e-01 1.25027156928017e-03
1.39851351351351e+00 1.76977072042067e-01 1.24822044078030e-03
1.41986486486486e+00 1.75332672027274e-01 1.24602739761553e-03
1.44121621621622e+00 1.73703551119818e-01 1.24369752969087e-03
1.46256756756757e+00 1.72089567352265e-01 1.24123574976397e-03
1.48391891891892e+00 1.70490580076309e-01 1.23864680137948e-03
1.50527027027027e+00 1.68906449950498e-01 1.23593526829307e-03
1.52662162162162e+00 1.67337038917916e-01 1.23310557556386e-03
1.54797297297297e+00 1.65782210225021e-01 1.23016200017211e-03
1.56932432432432e+00 1.64241828378494e-01 1.22710868129871e-03
1.59067567567568e+00 1.62715759143964e-01 1.22394962013372e-03
1.61202702702703e+00 1.61203869534295e-01 1.22068868750224e-03
1.63337837837838e+00 1.59706027798040e-01 1.21732962914633e-03
1.65472972972973e+00 1.58222103407939e-01 1.21387607248885e-03
1.67608108108108e+00 1.56751967040856e-01 1.21033152606263e-03
1.69743243243243e+00 1.55295490592855e-01 1.20669938757481e-03
1.71878378378378e+00 1.53852547141388e-01 1.20298295177755e-03
1.74013513513514e+00 1.52423010943226e-01 1.19918540906679e-03
1.76148648648649e+00 1.51006757423485e-01 1.19530985116678e-03
1.78283783783784e+00 1.49603663164788e-01 1.19135927479104e-03
1.80418918918919e+00 1.48213605896512e-01 1.18733658513521e-03
1.82554054054054e+00 1.46836464484127e-01 1.18324460074602e-03
1.84689189189189e+00 1.45472118911340e-01 1.17908605200462e-03
1.86824324324324e+00 1.44120450291764e-01 1.17486358729322e-03
1.88959459459459e+00 1.42781340836190e-01 1.17057977905815e-03
1.91094594594595e+00 1.41454673849857e-01 1.16623712174903e-03
1.93229729729730e+00 1.40140333722278e-01 1.16183803606093e-03
1.95364864864865e+00 1.38838205917185e-01 1.15738487144847e-03
1.97500000000000e+00 1.37548176962540e-01 1.15287990992810e-03
1.99635135135135e+00 1.36270134434312e-01 1.14832536415489e-03
2.01770270270270e+00 1.35003966965865e-01 1.14372338246097e-03
2.03905405405405e+00 1.33749564218871e-01 1.13907605383337e-03
2.06040540540541e+00 1.32506816880218e-01 1.13438540559957e-03
2.08175675675676e+00 1.31275616652483e-01 1.12965340682129e-03
2.10310810810811e+00 1.30055856244506e-01 1.12488197015337e-03
2.12445945945946e+00 1.28847429362039e-01 1.12007295489438e-03
2.14581081081081e+00 1.27650230692960e-01 1.11522816488471e-03
2.16716216216216e+00 1.26464155914817e-01 1.11034935271584e-03
2.18851351351351e+00 1.25289101668845e-01 1.10543822390676e-03
2.20986486486487e+00 1.24124965556649e-01 1.10049643450558e-03
2.23121621621622e+00 1.22971646131274e-01 1.09552559387114e-03
2.25256756756757e+00 1.21829042888371e-01 1.09052726607900e-03
2.27391891891892e+00 1.20697056257442e-01 1.08550297127939e-03
2.29527027027027e+00 1.19575587593160e-01 1.08045418812962e-03
2.31662162162162e+00 1.18464539162037e-01 1.07538235164840e-03
2.33797297297297e+00 1.17363814148253e-01 1.07028885671330e-03
2.35932432432432e+00 1.16273316630726e-01 1.06517506154336e-03
2.38067567567568e+00 1.15192951579638e-01 1.06004228533192e-03
2.40202702702703e+00 1.14122624848142e-01 1.05489181050566e-03
2.42337837837838e+00 1.13062243164175e-01 1.04972488377455e-03
2.44472972972973e+00 1.12011714122321e-01 1.04454271817085e-03
2.46608108108108e+00 1.10970946171590e-01 1.03934649093506e-03
2.48743243243243e+00 1.09939848620066e-01 1.03413734653641e-03
2.50878378378378e+00 1.08918331614257e-01 1.02891639968846e-03
2.53013513513514e+00 1.07906306135552e-01 1.02368473305721e-03
2.55148648648649e+00 1.06903683992463e-01 1.01844339918092e-03
2.57283783783784e+00 1.05910377812942e-01 1.01319342129468e-03
2.59418918918919e+00 1.04926301036773e-01 1.00793579413137e-03
2.61554054054054e+00 1.03951367908023e-01 1.00267148561083e-03
2.63689189189189e+00 1.02985493463953e-01 9.97401434817265e-04
2.65824324324324e+00 1.02028593538564e-01 9.92126554583151e-04
2.67959459459459e+00 1.01080584744208e-01 9.86847734075674e-04
2.70094594594595e+00 1.00141384468041e-01 9.81565836630682e-04
2.72229729729730e+00 9.92109108648229e-02 9.76281701365485e-04
2.74364864864865e+00 9.82890828497911e-02 9.70996143817785e-04
2.76500000000000e+00 9.73758200915909e-02 9.65709957401806e-04
2.78635135135135e+00 9.64710430020691e-02 9.60423911481178e-04
2.80770270270270e+00 9.55746727390442e-02 9.55138753645795e-04
2.82905405405405e+00 9.46866311896392e-02 9.49855211994698e-04
2.85040540540541e+00 9.38068409667712e-02 9.44573993089778e-04
2.87175675675676e+00 9.29352254024039e-02 9.39295783357635e-04
2.89310810810811e+00 9.20717085408727e-02 9.34021249605006e-04
2.91445945945946e+00 9.12162151322643e-02 9.28751040284243e-04
2.93581081081081e+00 9.03686706230065e-02 9.23485783673276e-04
2.95716216216216e+00 8.95290011580027e-02 9.18226089894985e-04
2.97851351351351e+00 8.86971335654853e-02 9.12972552945104e-04
2.99986486486487e+00 8.78729953535699e-02 9.07725748769732e-04
3.02121621621622e+00 8.70565147039364e-02 9.02486236494419e-04
3.04256756756757e+00 8.62476204655715e-02 8.97254558844058e-04
3.06391891891892e+00 8.54462421485711e-02 8.92031242553305e-04
3.08527027027027e+00 8.46523099179957e-02 8.86816799452877e-04
3.10662162162162e+00 8.38657545852862e-02 8.81611724777770e-04
3.12797297297297e+00 8.30865076097957e-02 8.76416498938084e-04
3.14932432432432e+00 8.23145010851873e-02 8.71231589299496e-04
3.17067567567568e+00 8.15496677360829e-02 8.66057448405814e-04
3.19202702702703e+00 8.07919409121974e-02 8.60894515041221e-04
3.21337837837838e+00 8.00412545825370e-02 8.55743214567880e-04
3.23472972972973e+00 7.92975433296419e-02 8.50603959885667e-04
3.25608108108108e+00 7.85607423416518e-02 8.45477149848635e-04
3.27743243243243e+00 7.78307874134175e-02 8.40363170852367e-04
3.29878378378378e+00 7.71076149340860e-02 8.35262398431977e-04
3.32013513513514e+00 7.63911618838514e-02 8.30175195603979e-04
3.34148648648649e+00 7.56813658284613e-02 8.25101913809870e-04
3.36283783783784e+00 7.49781649137780e-02 8.20042893195757e-04
3.38418918918919e+00 7.42814978603889e-02 8.14998462886367e-04
3.40554054054054e+00 7.35913039582657e-02 8.09968941820113e-04
3.42689189189189e+00 7.29075230595058e-02 8.04954637288750e-04
3.44824324324324e+00 7.22300955790451e-02 7.99955846343201e-04
3.46959459459459e+00 7.15589624834590e-02 7.94972857210147e-04
3.49094594594595e+00 7.08940652878378e-02 7.90005947766750e-04
3.51229729729730e+00 7.02353460506889e-02 7.85055386366968e-04
3.53364864864865e+00 6.95827473688910e-02 7.80121432070255e-04
3.55500000000000e+00 6.89362123726897e-02 7.75204335386962e-04
3.57635135135135e+00 6.82956847189750e-02 7.70304336917772e-04
3.59770270270270e+00 6.76611085917173e-02 7.65421668623145e-04
3.61905405405405e+00 6.70324286917110e-02 7.60556555103555e-04
3.64040540540541e+00 6.64095902335686e-02 7.55709212181912e-04
3.66175675675676e+00 6.57925389409454e-02 7.50879847643415e-04
3.68310810810811e+00 6.51812210418118e-02 7.46068661427375e-04
3.70445945945946e+00 6.45755832637672e-02 7.41275846294750e-04
3.72581081081081e+00 6.39755728278076e-02 7.36501586562565e-04
3.74716216216216e+00 6.33811374485347e-02 7.31746059253106e-04
3.76851351351351e+00 6.27922253247497e-02 7.27009435253928e-04
3.78986486486486e+00 6.22087851365704e-02 7.22291878001003e-04
3.81121621621622e+00 6.16307660409575e-02 7.17593544144209e-04
3.83256756756757e+00 6.10581176672849e-02 7.12914583708815e-04
3.85391891891892e+00 6.04907901129512e-02 7.08255140254279e-04
3.87527027027027e+00 5.99287339390302e-02 7.03615351463645e-04
3.89662162162162e+00 5.93719001645536e-02 6.98995347981177e-04
3.91797297297297e+00 5.88202402665048e-02 6.94395254440056e-04
3.93932432432432e+00 5.82737061712925e-02 6.89815190500228e-04
3.96067567567568e+00 5.77322502520057e-02 6.85255269641299e-04
3.98202702702703e+00 5.71958253242624e-02 6.80715599751870e-04
4.00337837837838e+00 5.66643846421006e-02 6.76196283263878e-04
4.02472972972973e+00 5.61378818939031e-02 6.71697417684192e-04
4.04608108108108e+00 5.56162711970903e-02 6.67219094514900e-04
4.06743243243243e+00 5.50995070979683e-02 6.62761400187920e-04
4.08878378378378e+00 5.45875445638889e-02 6.58324417009376e-04
4.11013513513514e+00 5.40803389806294e-02 6.53908222039652e-04
4.13148648648649e+00 5.35778461485041e-02 6.49512887626355e-04
4.15283783783784e+00 5.30800222785132e-02 6.45138481518263e-04
4.17418918918919e+00 5.25868239885277e-02 6.40785066977537e-04
4.19554054054054e+00 5.20982082995077e-02 6.36452703251844e-04
4.21689189189189e+00 5.16141326306262e-02 6.32141444584006e-04
4.23824324324324e+00 5.11345547989804e-02 6.27851341051519e-04
4.25959459459459e+00 5.06594330124652e-02 6.23582439415356e-04
4.28094594594595e+00 5.01887258672909e-02 6.19334782093563e-04
4.30229729729730e+00 4.97223923443747e-02 6.15108407636375e-04
4.32364864864865e+00 4.92603918057676e-02 6.10903350821721e-04
4.34500000000000e+00 4.88026839911122e-02 6.06719643083112e-04
4.36635135135135e+00 4.83492290131104e-02 6.02557311590411e-04
4.38770270270270e+00 4.78999873571444e-02 5.98416380015891e-04
4.40905405405405e+00 4.74549198747107e-02 5.94296869309040e-04
4.43040540540541e+00 4.70139877810582e-02 5.90198796744955e-04
4.45175675675676e+00 4.65771526518075e-02 5.86122176355522e-04
4.47310810810811e+00 4.61443764196036e-02 5.82067019010819e-04
4.49445945945946e+00 4.57156213707986e-02 5.78033332807291e-04
4.51581081081081e+00 4.52908501412369e-02 5.74021122214913e-04
4.53716216216216e+00 4.48700257158053e-02 5.70030388777062e-04
4.55851351351351e+00 4.44531114223782e-02 5.66061131818814e-04
4.57986486486486e+00 4.40400709295728e-02 5.62113347564432e-04
4.60121621621622e+00 4.36308682435829e-02 5.58187029529640e-04
4.62256756756757e+00 4.32254677050422e-02 5.54282168591066e-04
4.64391891891892e+00 4.28238339859172e-02 5.50398753054744e-04
4.66527027027027e+00 4.24259320864288e-02 5.46536769003595e-04
4.68662162162162e+00 4.20317273311726e-02 5.42696199515311e-04
4.70797297297297e+00 4.16411853686046e-02 5.38877025294044e-04
4.72932432432432e+00 4.12542721655203e-02 5.35079225309854e-04
4.75067567567568e+00 4.08709540049381e-02 5.31302775990375e-04
4.77202702702703e+00 4.04911974831602e-02 5.27547651572226e-04
4.79337837837838e+00 4.01149695068638e-02 5.23813824159595e-04
4.81472972972973e+00 3.97422372902158e-02 5.20101264040786e-04
4.83608108108108e+00 3.93729683512630e-02 5.16409938962415e-04
4.85743243243243e+00 3.90071305113785e-02 5.12739814707985e-04
4.87878378378378e+00 3.86446918901623e-02 5.09090855683744e-04
4.90013513513514e+00 3.82856209034342e-02 5.05463024168987e-04
4.92148648648649e+00 3.79298862604815e-02 5.01856280636728e-04
4.94283783783784e+00 3.75774569613322e-02 4.98270583803786e-04
4.96418918918919e+00 3.72283022940541e-02 4.94705890680281e-04
4.98554054054054e+00 3.68823918320779e-02 4.91162156853588e-04
5.00689189189189e+00 3.65396954308715e-02 4.87639335822955e-04
5.02824324324324e+00 3.62001832273522e-02 4.84137379522920e-04
5.04959459459459e+00 3.58638256352291e-02 4.80656238853573e-04
5.07094594594595e+00 3.55305933431149e-02 4.77195862993374e-04
5.09229729729730e+00 3.52004573119720e-02 4.73756199687678e-04
5.11364864864865e+00 3.48733887725823e-02 4.70337195291053e-04
5.13500000000000e+00 3.45493592230395e-02 4.66938795026599e-04
5.15635135135135e+00 3.42283404256524e-02 4.63560942368420e-04
5.17770270270270e+00 3.39103044063390e-02 4.60203579521929e-04
5.19905405405405e+00 3.35952234503188e-02 4.56866647910574e-04
5.22040540540541e+00 3.32830701003259e-02 4.53550087538548e-04
5.24175675675676e+00 3.29738171542162e-02 4.50253837254428e-04
5.26310810810811e+00 3.26674376625972e-02 4.46977834787356e-04
5.28445945945946e+00 3.23639049264794e-02 4.43722016983926e-04
5.30581081081081e+00 3.20631924943911e-02 4.40486319235243e-04
5.32716216216216e+00 3.17652741617624e-02 4.37270675917947e-04
5.34851351351351e+00 3.14701239669392e-02 4.34075020841248e-04
5.36986486486486e+00 3.11777161894924e-02 4.30899286655772e-04
5.39121621621622e+00 3.08880253479770e-02 4.27743405094821e-04
5.41256756756757e+00 3.06010261977113e-02 4.24607307005304e-04
5.43391891891892e+00 3.03166937285772e-02 4.21490922378365e-04
5.45527027027027e+00 3.00350031628407e-02 4.18394180562913e-04
5.47662162162162e+00 2.97559299524906e-02 4.15317009739934e-04
5.49797297297297e+00 2.94794497786171e-02 4.12259337322653e-04
5.51932432432432e+00 2.92055385477628e-02 4.09221090362232e-04
5.54067567567568e+00 2.89341723903373e-02 4.06202195005782e-04
5.56202702702703e+00 2.86653276585363e-02 4.03202576713942e-04
5.58337837837838e+00 2.83989809242819e-02 4.00222160287046e-04
5.60472972972973e+00 2.81351089771806e-02 3.97260870060730e-04
5.62608108108108e+00 2.78736888220424e-02 3.94318629417870e-04
5.64743243243243e+00 2.76146976782620e-02 3.91395361156591e-04
5.66878378378378e+00 2.73581129764379e-02 3.88490987863448e-04
5.69013513513514e+00 2.71039123568744e-02 3.85605431410480e-04
5.71148648648649e+00 2.68520736676331e-02 3.82738613154722e-04
5.73283783783784e+00 2.66025749626024e-02 3.79890453960453e-04
5.75418918918919e+00 2.63553944995856e-02 3.77060874221238e-04
5.77554054054054e+00 2.61105107384056e-02 3.74249794036472e-04
5.79689189189189e+00 2.58679023386158e-02 3.71457132763605e-04
5.81824324324324e+00 2.56275481588869e-02 3.68682809352467e-04
5.83959459459459e+00 2.53894272539081e-02 3.65926742684499e-04
5.86094594594595e+00 2.51535188729841e-02 3.63188851111292e-04
5.88229729729730e+00 2.49198024582268e-02 3.60469052635024e-04
5.90364864864865e+00 2.46882576427637e-02 3.57767264927201e-04
5.92500000000000e+00 2.44588642489633e-02 3.55083405490581e-04
5.94635135135135e+00 2.42316022863000e-02 3.52417391243405e-04
5.96770270270270e+00 2.40064519507504e-02 3.49769138827215e-04
5.98905405405405e+00 2.37833936219207e-02 3.47138564919244e-04
6.01040540540541e+00 2.35624078617214e-02 3.44525585804085e-04
6.03175675675676e+00 2.33434754126744e-02 3.41930117539299e-04
6.05310810810811e+00 2.31265771962340e-02 3.39352075971317e-04
6.07445945945946e+00 2.29116943111252e-02 3.36791376883925e-04
6.09581081081081e+00 2.26988080313514e-02 3.34247935612243e-04
6.11716216216216e+00 2.24878998056042e-02 3.31721667326231e-04
6.13851351351351e+00 2.22789512545970e-02 3.29212487318536e-04
6.15986486486486e+00 2.20719441698165e-02 3.26720310606849e-04
6.18121621621622e+00 2.18668605119357e-02 3.24245052085991e-04
6.20256756756757e+00 2.16636824092413e-02 3.21786626541351e-04
6.22391891891892e+00 2.14623921560774e-02 3.19344948662150e-04
6.24527027027027e+00 2.12629722113017e-02 3.16919933175939e-04
6.26662162162162e+00 2.10654051964467e-02 3.14511494494070e-04
6.28797297297297e+00 2.08696738951441e-02 3.12119546969823e-04
6.30932432432432e+00 2.06757612506782e-02 3.09744005160436e-04
6.33067567567568e+00 2.04836503648178e-02 3.07384783462173e-04
6.35202702702703e+00 2.02933244963428e-02 3.05041796248069e-04
6.37337837837838e+00 2.01047670595861e-02 3.02714957879084e-04
6.39472972972973e+00 1.99179616229882e-02 3.00404182827735e-04
6.41608108108108e+00 1.97328919073805e-02 2.98109385348716e-04
6.43743243243243e+00 1.95495417854266e-02 2.95830479716920e-04
6.45878378378378e+00 1.93678952793504e-02 2.93567380469089e-04
6.48013513513514e+00 1.91879365598352e-02 2.91320002064840e-04
6.50148648648649e+00 1.90096499446437e-02 2.89088259013401e-04
6.52283783783784e+00 1.88330198972517e-02 2.86872065882924e-04
6.54418918918919e+00 1.86580310254945e-02 2.84671337309755e-04
6.56554054054054e+00 1.84846680802249e-02 2.82485988110418e-04
6.58689189189189e+00 1.83129159537281e-02 2.80315932979076e-04
6.60824324324324e+00 1.81427596791811e-02 2.78161086704421e-04
6.62959459459459e+00 1.79741844285665e-02 2.76021364389954e-04
6.65094594594595e+00 1.78071755116426e-02 2.73896681142651e-04
6.67229729729730e+00 1.76417183746637e-02 2.71786952187968e-04
6.69364864864865e+00 1.74777985991117e-02 2.69692092877524e-04
6.71500000000000e+00 1.73154019004397e-02 2.67612018792078e-04
6.73635135135135e+00 1.71545141265918e-02 2.65546645460438e-04
