Energy (eV)          EEDF (eV^-(3/2))     First Anisotropy
4.60714285714286e-03 1.73234599796360e+00 1.20414220412800e-03
1.38214285714286e-02 1.71114508502335e+00 1.98287991699092e-03
2.30357142857143e-02 1.69020363453421e+00 2.60309316450245e-03
3.22500000000000e-02 1.66951847111034e+00 3.06552294793846e-03
4.14642857142857e-02 1.64908645818742e+00 3.44402083707044e-03
5.06785714285714e-02 1.62890449770903e+00 3.76673636943905e-03
5.98928571428571e-02 1.60896952946108e+00 4.04834948667866e-03
6.91071428571429e-02 1.58927853068384e+00 4.29779155566505e-03
7.83214285714286e-02 1.56982851561142e+00 4.52102968739851e-03
8.75357142857143e-02 1.55061653502014e+00 4.72231192338996e-03
9.67500000000000e-02 1.53163967577991e+00 4.90480535351349e-03
1.05964285714286e-01 1.51289506037573e+00 5.07095570861575e-03
1.15178571428571e-01 1.49437984653436e+00 5.22270478475299e-03
1.24392857142857e-01 1.47609122693754e+00 5.36162933191054e-03
1.33607142857143e-01 1.45802642831174e+00 5.48903365635001e-03
1.42821428571429e-01 1.44018271147846e+00 5.60601362392665e-03
1.52035714285714e-01 1.42255737090119e+00 5.71350233394195e-03
1.61250000000000e-01 1.40514773391639e+00 5.81230341809303e-03
1.70464285714286e-01 1.38795116068882e+00 5.90311590938138e-03
1.79678571428571e-01 1.37096504369005e+00 5.98655320392179e-03
1.88892857142857e-01 1.35418680739286e+00 6.06315773410162e-03
1.98107142857143e-01 1.33761390760805e+00 6.13341246722285e-03
2.07321428571429e-01 1.32124383137367e+00 6.19775004634962e-03
2.16535714285714e-01 1.30507409655720e+00 6.25656021492713e-03
2.25750000000000e-01 1.28910225125276e+00 6.31019580333793e-03
2.34964285714286e-01 1.27332587363715e+00 6.35897765335841e-03
2.44178571428571e-01 1.25774257152603e+00 6.40319872914895e-03
2.53392857142857e-01 1.24234998207172e+00 6.44312755307191e-03
2.62607142857143e-01 1.22714577122123e+00 6.47901107866935e-03
2.71821428571429e-01 1.21212763354761e+00 6.51107711984003e-03
2.81035714285714e-01 1.19729329189078e+00 6.53953647513963e-03
2.90250000000000e-01 1.18264049685400e+00 6.56458470482563e-03
2.99464285714286e-01 1.16816702662216e+00 6.58640366881089e-03
3.08678571428571e-01 1.15387068657126e+00 6.60516288352694e-03
3.17892857142857e-01 1.13974930897962e+00 6.62102070404492e-03
3.27107142857143e-01 1.12580075256597e+00 6.63412534202602e-03
3.36321428571429e-01 1.11202290229905e+00 6.64461575535375e-03
3.45535714285714e-01 1.09841366907080e+00 6.65262247588998e-03
3.54750000000000e-01 1.08497098926221e+00 6.65826830393684e-03
3.63964285714286e-01 1.07169282454867e+00 6.66166892945467e-03
3.73178571428571e-01 1.05857716155108e+00 6.66293350505954e-03
3.82392857142857e-01 1.04562201156394e+00 6.66216515813256e-03
3.91607142857143e-01 1.03282541015279e+00 6.65946143594434e-03
4.00821428571429e-01 1.02018541695814e+00 6.65491470188444e-03
4.10035714285714e-01 1.00770011539707e+00 6.64861252872454e-03
4.19250000000000e-01 9.95367612282271e-01 6.64063802129355e-03
4.28464285714286e-01 9.83186037625973e-01 6.63107011242463e-03
4.37678571428571e-01 9.71153544325805e-01 6.61998384785728e-03
4.46892857142857e-01 9.59268307910790e-01 6.60745064514174e-03
4.56107142857143e-01 9.47528526185724e-01 6.59353851754277e-03
4.65321428571429e-01 9.35932419037515e-01 6.57831227517174e-03
4.74535714285714e-01 9.24478228162213e-01 6.56183373969807e-03
4.83750000000000e-01 9.13164216727001e-01 6.54416191302402e-03
4.92964285714286e-01 9.01988669178768e-01 6.52535313531709e-03
5.02178571428571e-01 8.90949890959794e-01 6.50546124415377e-03
5.11392857142857e-01 8.80046208271644e-01 6.48453772075416e-03
5.20607142857143e-01 8.69275967758243e-01 6.46263181435230e-03
5.29821428571429e-01 8.58637536318814e-01 6.43979065417750e-03
5.39035714285714e-01 8.48129300857946e-01 6.41605937935177e-03
5.48250000000000e-01 8.37749667983476e-01 6.39148123480948e-03
5.57464285714286e-01 8.27497063822850e-01 6.36609766296935e-03
5.66678571428571e-01 8.17369933764975e-01 6.33994840069711e-03
5.75892857142857e-01 8.07366742241446e-01 6.31307156905613e-03
5.85107142857143e-01 7.97485972442394e-01 6.28550374763260e-03
5.94321428571429e-01 7.87726126138214e-01 6.25728004124531e-03
6.03535714285714e-01 7.78085723450608e-01 6.22843416490250e-03
6.12750000000000e-01 7.68563302581145e-01 6.19899850184056e-03
6.21964285714286e-01 7.59157419637012e-01 6.16900416010669e-03
6.31178571428571e-01 7.49866648396140e-01 6.13848103571307e-03
6.40392857142857e-01 7.40689580104897e-01 6.10745787136612e-03
6.49607142857143e-01 7.31624823222226e-01 6.07596230341521e-03
6.58821428571429e-01 7.22671003251238e-01 6.04402090365436e-03
6.68035714285714e-01 7.13826762529394e-01 6.01165923833480e-03
6.77250000000000e-01 7.05090759983697e-01 5.97890190495638e-03
6.86464285714286e-01 6.96461670966591e-01 5.94577256889066e-03
6.95678571428571e-01 6.87938187041907e-01 5.91229400672568e-03
7.04892857142857e-01 6.79519015798079e-01 5.87848814668023e-03
7.14107142857143e-01 6.71202880617011e-01 5.84437609955563e-03
7.23321428571429e-01 6.62988520515951e-01 5.80997818595007e-03
7.32535714285714e-01 6.54874689955159e-01 5.77531397921906e-03
7.41750000000000e-01 6.46860158616507e-01 5.74040232963340e-03
7.50964285714286e-01 6.38943711249716e-01 5.70526138897229e-03
7.60178571428571e-01 6.31124147477062e-01 5.66990864153521e-03
7.69392857142857e-01 6.23400281621113e-01 5.63436093309280e-03
7.78607142857143e-01 6.15770942495425e-01 5.59863449198432e-03
7.87821428571429e-01 6.08234973256713e-01 5.56274494735290e-03
7.97035714285714e-01 6.00791231228518e-01 5.52670736159359e-03
8.06250000000000e-01 5.93438587700534e-01 5.49053624663990e-03
8.15464285714286e-01 5.86175927785087e-01 5.45424558096086e-03
8.24678571428571e-01 5.79002150238790e-01 5.41784883250309e-03
8.33892857142857e-01 5.71916167303815e-01 5.38135898010940e-03
8.43107142857143e-01 5.64916904517988e-01 5.34478852828027e-03
8.52321428571429e-01 5.58003300577036e-01 5.30814951965675e-03
8.61535714285714e-01 5.51174307172897e-01 5.27145356025121e-03
8.70750000000000e-01 5.44428888811531e-01 5.23471183064105e-03
8.79964285714286e-01 5.37766022679327e-01 5.19793509798292e-03
8.89178571428571e-01 5.31184698480136e-01 5.16113373344886e-03
8.98392857142857e-01 5.24683918289102e-01 5.12431772849346e-03
9.07607142857143e-01 5.18262696380101e-01 5.08749670539534e-03
9.16821428571429e-01 5.11920059097692e-01 5.05067992593111e-03
9.26035714285714e-01 5.05655044708843e-01 5.01387631145367e-03
9.35250000000000e-01 4.99466703237289e-01 4.97709445068794e-03
9.44464285714286e-01 4.93354096339459e-01 4.94034260837094e-03
9.53678571428571e-01 4.87316297155480e-01 4.90362873879846e-03
9.62892857142857e-01 4.81352390174640e-01 4.86696049844673e-03
9.72107142857143e-01 4.75461471078401e-01 4.83034525361939e-03
9.81321428571429e-01 4.69642646621588e-01 4.79379008653247e-03
9.90535714285714e-01 4.63895034496421e-01 4.75730181159030e-03
9.99750000000000e-01 4.58217763181740e-01 4.72088697766923e-03
1.00896428571429e+00 4.52609971843951e-01 4.68455188825893e-03
1.01817857142857e+00 4.47070810131370e-01 4.64830258785374e-03
1.02739285714286e+00 4.41599438188456e-01 4.61214489344647e-03
1.03660714285714e+00 4.36195026334659e-01 4.57608440018801e-03
1.04582142857143e+00 4.30856755095154e-01 4.54012644953369e-03
1.05503571428571e+00 4.25583815072726e-01 4.50427619861579e-03
1.06425000000000e+00 4.20375406678032e-01 4.46853858686492e-03
1.07346428571429e+00 4.15230740202855e-01 4.43291835090600e-03
1.08267857142857e+00 4.10149035510271e-01 4.39742003348968e-03
1.09189285714286e+00 4.05129522102153e-01 4.36204798728932e-03
1.10110714285714e+00 4.00171438820722e-01 4.32680639218772e-03
1.11032142857143e+00 3.95274033868217e-01 4.29169922310440e-03
1.11953571428571e+00 3.90436564689614e-01 4.25673031097244e-03
1.12875000000000e+00 3.85658297733030e-01 4.22190331228864e-03
1.13796428571429e+00 3.80938508506571e-01 4.18722172169658e-03
1.14717857142857e+00 3.76276481304112e-01 4.15268887924899e-03
1.15639285714286e+00 3.71671509257522e-01 4.11830797317389e-03
1.16560714285714e+00 3.67122894072255e-01 4.08408205465140e-03
1.17482142857143e+00 3.62629946038450e-01 4.05001400855427e-03
1.18403571428571e+00 3.58191983923537e-01 4.01610660725020e-03
1.19325000000000e+00 3.53808334758848e-01 3.98236248290668e-03
1.20246428571429e+00 3.49478333883314e-01 3.94878413821214e-03
1.21167857142857e+00 3.45201324700084e-01 3.91537395234095e-03
1.22089285714286e+00 3.40976658716503e-01 3.88213418296531e-03
1.23010714285714e+00 3.36803695309224e-01 3.84906697897611e-03
1.23932142857143e+00 3.32681801728709e-01 3.81617435392652e-03
1.24853571428571e+00 3.28610353000852e-01 3.78345823365353e-03
1.25775000000000e+00 3.24588731736499e-01 3.75092043113644e-03
1.26696428571429e+00 3.20616328164582e-01 3.71856265569678e-03
1.27617857142857e+00 3.16692539915576e-01 3.68638651793940e-03
1.28539285714286e+00 3.12816772051640e-01 3.65439353120561e-03
1.29460714285714e+00 3.08988436857471e-01 3.62258512258778e-03
1.30382142857143e+00 3.05206953839732e-01 3.59096260885766e-03
1.31303571428571e+00 3.01471749636936e-01 3.55952723872803e-03
1.32225000000000e+00 2.97782257849052e-01 3.52828017005713e-03
1.33146428571429e+00 2.94137919062156e-01 3.49722247778986e-03
1.34067857142857e+00 2.90538180655352e-01 3.46635515807932e-03
1.34989285714286e+00 2.86982496823008e-01 3.43567912932311e-03
1.35910714285714e+00 2.83470328388136e-01 3.40519524174673e-03
1.36832142857143e+00 2.80001142797981e-01 3.37490425560103e-03
1.37753571428571e+00 2.76574414041445e-01 3.34480687875114e-03
1.38675000000000e+00 2.73189622496387e-01 3.31490374602315e-03
1.39596428571429e+00 2.69846254947471e-01 3.28519542609271e-03
1.40517857142857e+00 2.66543804413661e-01 3.25568242494387e-03
1.41439285714286e+00 2.63281770164122e-01 3.22636518659134e-03
1.42360714285714e+00 2.60059657551387e-01 3.19724410145309e-03
1.43282142857143e+00 2.56876978004064e-01 3.16831948661146e-03
1.44203571428571e+00 2.53733248951169e-01 3.13959161931017e-03
1.45125000000000e+00 2.50627993685060e-01 3.11106071825055e-03
1.46046428571429e+00 2.47560741373819e-01 3.08272694959111e-03
1.46967857142857e+00 2.44531026906877e-01 3.05459042986511e-03
1.47889285714286e+00 2.41538390905823e-01 3.02665122646596e-03
1.48810714285714e+00 2.38582379575027e-01 2.99890936498654e-03
1.49732142857143e+00 2.35662544692219e-01 2.97136481135324e-03
1.50653571428571e+00 2.32778443539150e-01 2.94401750172599e-03
1.51575000000000e+00 2.29929638778381e-01 2.91686732556267e-03
1.52496428571429e+00 2.27115698461292e-01 2.88991413086392e-03
1.53417857142857e+00 2.24336195889713e-01 2.86315772664452e-03
1.54339285714286e+00 2.21590709622678e-01 2.83659788323889e-03
1.55260714285714e+00 2.18878823342458e-01 2.81023433875408e-03
1.56182142857143e+00 2.16200125843640e-01 2.78406678289945e-03
1.57103571428571e+00 2.13554210969571e-01 2.75809488371509e-03
1.58025000000000e+00 2.10940677501449e-01 2.73231827223871e-03
1.58946428571429e+00 2.08359129162869e-01 2.70673654710358e-03
1.59867857142857e+00 2.05809174495611e-01 2.68134927663983e-03
1.60789285714286e+00 2.03290426863172e-01 2.65615599904400e-03
1.61710714285714e+00 2.00802504330459e-01 2.63115622806696e-03
1.62632142857143e+00 1.98345029651842e-01 2.60634943837723e-03
1.63553571428571e+00 1.95917630212902e-01 2.58173508948520e-03
1.64475000000000e+00 1.93519937930477e-01 2.55731261186011e-03
1.65396428571429e+00 1.91151589254454e-01 2.53308141097175e-03
1.66317857142857e+00 1.88812225056134e-01 2.50904086908228e-03
1.67239285714286e+00 1.86501490629216e-01 2.48519034531270e-03
1.68160714285714e+00 1.84219035581623e-01 2.46152918066779e-03
1.69082142857143e+00 1.81964513822912e-01 2.43805668478596e-03
1.70003571428571e+00 1.79737583510869e-01 2.41477215737812e-03
1.70925000000000e+00 1.77537906961342e-01 2.39167487565570e-03
1.71846428571429e+00 1.75365150647866e-01 2.36876409789148e-03
1.72767857142857e+00 1.73218985101213e-01 2.34603906495167e-03
1.73689285714286e+00 1.71099084908381e-01 2.32349900028468e-03
1.74610714285714e+00 1.69005128615217e-01 2.30114311436911e-03
1.75532142857143e+00 1.66936798713482e-01 2.27897059271626e-03
1.76453571428571e+00 1.64893781591895e-01 2.25698061510161e-03
1.77375000000000e+00 1.62875767454706e-01 2.23517234417826e-03
1.78296428571429e+00 1.60882450319639e-01 2.21354492862028e-03
1.79217857142857e+00 1.58913527927411e-01 2.19209750443549e-03
1.80139285714286e+00 1.56968701739170e-01 2.17082919489650e-03
1.81060714285714e+00 1.55047676848752e-01 2.14973911448435e-03
1.81982142857143e+00 1.53150161969639e-01 2.12882635802266e-03
1.82903571428571e+00 1.51275869390066e-01 2.10809001794570e-03
1.83825000000000e+00 1.49424514899431e-01 2.08752917398296e-03
1.84746428571429e+00 1.47595817784946e-01 2.06714289593857e-03
1.85667857142857e+00 1.45789500750050e-01 2.04693024481839e-03
1.86589285714286e+00 1.44005289910673e-01 2.02689027271848e-03
1.87510714285714e+00 1.42242914716095e-01 2.00702202632685e-03
1.88432142857143e+00 1.40502107935969e-01 1.98732453708029e-03
1.89353571428571e+00 1.38782605619167e-01 1.96779683668228e-03
1.90275000000000e+00 1.37084147027206e-01 1.94843794775590e-03
1.91196428571429e+00 1.35406474629932e-01 1.92924688630511e-03
1.92117857142857e+00 1.33749334031887e-01 1.91022266268401e-03
1.93039285714286e+00 1.32112473967692e-01 1.89136428145451e-03
1.93960714285714e+00 1.30495646230604e-01 1.87267074449982e-03
1.94882142857143e+00 1.28898605659747e-01 1.85414104210540e-03
1.95803571428571e+00 1.27321110102380e-01 1.83577416691486e-03
1.96725000000000e+00 1.25762920353626e-01 1.81756910545796e-03
1.97646428571429e+00 1.24223800151450e-01 1.79952484033367e-03
1.98567857142857e+00 1.22703516110142e-01 1.78164035104431e-03
1.99489285714286e+00 1.21201837715072e-01 1.76391461383157e-03
2.00410714285714e+00 1.19718537258132e-01 1.74634660444841e-03
2.01332142857143e+00 1.18253389825290e-01 1.72893529007479e-03
2.02253571428571e+00 1.16806173261988e-01 1.71167964187812e-03
2.03175000000000e+00 1.15376668118549e-01 1.69457862733232e-03
2.04096428571429e+00 1.13964657644639e-01 1.67763121215605e-03
2.05017857142857e+00 1.12569927729154e-01 1.66083636103156e-03
2.05939285714286e+00 1.11192266894523e-01 1.64419303742636e-03
2.06860714285714e+00 1.09831466238343e-01 1.62770020606352e-03
2.07782142857143e+00 1.08487319421321e-01 1.61135682559209e-03
2.08703571428571e+00 1.07159622635546e-01 1.59516185989887e-03
2.09625000000000e+00 1.05848174555002e-01 1.57911427114290e-03
2.10546428571429e+00 1.04552776329700e-01 1.56321302147828e-03
2.11467857142857e+00 1.03273231531296e-01 1.54745707367400e-03
2.12389285714286e+00 1.02009346147116e-01 1.53184539092685e-03
2.13310714285714e+00 1.00760928527345e-01 1.51637693906501e-03
2.14232142857143e+00 9.95277893734144e-02 1.50105067990103e-03
2.15153571428571e+00 9.83097417089150e-02 1.48586558142514e-03
2.16075000000000e+00 9.71066008347038e-02 1.47082061148684e-03
2.16996428571429e+00 9.59181843228449e-02 1.45591473932771e-03
2.17917857142857e+00 9.47443119673828e-02 1.44114693611617e-03
2.18839285714286e+00 9.35848057782088e-02 1.42651617475588e-03
2.19760714285714e+00 9.24394899332476e-02 1.41202143185322e-03
2.20682142857143e+00 9.13081907673349e-02 1.39766168168754e-03
2.21603571428571e+00 9.01907367455380e-02 1.38343590540192e-03
2.22525000000000e+00 8.90869584224189e-02 1.36934308526994e-03
2.23446428571429e+00 8.79966884358856e-02 1.35538220606073e-03
2.24367857142857e+00 8.69197614626068e-02 1.34155225550061e-03
2.25289285714286e+00 8.58560142118217e-02 1.32785222408030e-03
2.26210714285714e+00 8.48052853820261e-02 1.31428110681300e-03
2.27132142857143e+00 8.37674156503581e-02 1.30083789776287e-03
2.28053571428571e+00 8.27422476481341e-02 1.28752159833626e-03
2.28975000000000e+00 8.17296259238584e-02 1.27433121207838e-03
2.29896428571429e+00 8.07293969370755e-02 1.26126574588963e-03
2.30817857142857e+00 7.97414090179630e-02 1.24832421042429e-03
2.31739285714286e+00 7.87655123611668e-02 1.23550561989895e-03
2.32660714285714e+00 7.78015589865398e-02 1.22280899366465e-03
2.33582142857143e+00 7.68494027290509e-02 1.21023335124098e-03
2.34503571428571e+00 7.59088992163486e-02 1.19777771979898e-03
2.35425000000000e+00 7.49799058351600e-02 1.18544112943765e-03
2.36346428571429e+00 7.40622817252089e-02 1.17322261426877e-03
2.37267857142857e+00 7.31558877425775e-02 1.16112121276075e-03
2.38189285714286e+00 7.22605864536288e-02 1.14913596755074e-03
2.39110714285714e+00 7.13762420994004e-02 1.13726592685130e-03
2.40032142857143e+00 7.05027205860397e-02 1.12551013994179e-03
2.40953571428571e+00 6.96398894642278e-02 1.11386766392546e-03
2.41875000000000e+00 6.87876178986430e-02 1.10233755944019e-03
2.42796428571429e+00 6.79457766619974e-02 1.09091889162648e-03
2.43717857142857e+00 6.71142381018003e-02 1.07961073042425e-03
2.44639285714286e+00 6.62928761344147e-02 1.06841215038965e-03
2.45560714285714e+00 6.54815662127516e-02 1.05732223195462e-03
2.46482142857143e+00 6.46801853172270e-02 1.04634005733262e-03
2.47403571428571e+00 6.38886119368922e-02 1.03546471662256e-03
2.48325000000000e+00 6.31067260416705e-02 1.02469530391307e-03
2.49246428571429e+00 6.23344090765533e-02 1.01403091814675e-03
2.50167857142857e+00 6.15715439314339e-02 1.00347066337625e-03
2.51089285714286e+00 6.08180149353369e-02 9.93013648586872e-04
2.52010714285714e+00 6.00737078270912e-02 9.82658988824986e-04
2.52932142857143e+00 5.93385097468028e-02 9.72405801479071e-04
2.53853571428571e+00 5.86123092185484e-02 9.62253211796024e-04
2.54775000000000e+00 5.78949961251237e-02 9.52200349341788e-04
2.55696428571429e+00 5.71864617024293e-02 9.42246348773494e-04
2.56617857142857e+00 5.64865985120796e-02 9.32390350060186e-04
2.57539285714286e+00 5.57953004358305e-02 9.22631498312143e-04
2.58460714285714e+00 5.51124626489470e-02 9.12968944792198e-04
2.59382142857143e+00 5.44379816121772e-02 9.03401843536939e-04
2.60303571428571e+00 5.37717550558805e-02 8.93929356343765e-04
2.61225000000000e+00 5.31136819570514e-02 8.84550649554551e-04
2.62146428571429e+00 5.24636625339173e-02 8.75264894745963e-04
2.63067857142857e+00 5.18215982210561e-02 8.66071268919528e-04
2.63989285714286e+00 5.11873916640423e-02 8.56968954337901e-04
2.64910714285714e+00 5.05609466952511e-02 8.47957139431942e-04
2.65832142857143e+00 4.99421683263190e-02 8.39035015730160e-04
2.66753571428571e+00 4.93309627335859e-02 8.30201782368827e-04
2.67675000000000e+00 4.87272372371845e-02 8.21456643168781e-04
2.68596428571429e+00 4.81309002958623e-02 8.12798807252613e-04
2.69517857142857e+00 4.75418614843709e-02 8.04227489208163e-04
2.70439285714286e+00 4.69600314883424e-02 7.95741908932276e-04
2.71360714285714e+00 4.63853220822992e-02 7.87341292444573e-04
2.72282142857143e+00 4.58176461225824e-02 7.79024869096394e-04
2.73203571428571e+00 4.52569175340007e-02 7.70791875651106e-04
2.74125000000000e+00 4.47030512907915e-02 7.62641553626574e-04
2.75046428571429e+00 4.41559634116779e-02 7.54573149847251e-04
2.75967857142857e+00 4.36155709393144e-02 7.46585916584647e-04
2.76889285714286e+00 4.30817919354013e-02 7.38679111408694e-04
2.77810714285714e+00 4.25545454606918e-02 7.30851997918149e-04
2.78732142857143e+00 4.20337515683696e-02 7.23103843203006e-04
2.79653571428571e+00 4.15193312918032e-02 7.15433921537131e-04
2.80575000000000e+00 4.10112066272071e-02 7.07841511961733e-04
2.81496428571429e+00 4.05093005289380e-02 7.00325898779445e-04
2.82417857142857e+00 4.00135368908037e-02 6.92886371674856e-04
2.83339285714286e+00 3.95238405414185e-02 6.85522225573437e-04
2.84260714285714e+00 3.90401372260205e-02 6.78232761297382e-04
2.85182142857143e+00 3.85623536002777e-02 6.71017283257992e-04
2.86103571428571e+00 3.80904172190566e-02 6.63875102798480e-04
2.87025000000000e+00 3.76242565206267e-02 6.56805535996154e-04
2.87946428571429e+00 3.71638008221976e-02 6.49807904104678e-04
2.88867857142857e+00 3.67089803029160e-02 6.42881533657401e-04
2.89789285714286e+00 3.62597259994629e-02 6.36025756333742e-04
2.90710714285714e+00 3.58159697895121e-02 6.29239909548218e-04
