Energy (eV)          EEDF (eV^-(3/2))     First Anisotropy
2.06000000000000e-03 6.83849537116861e+00 4.88449505053529e-03
6.18000000000000e-03 6.74504789116684e+00 8.03760199769083e-03
1.03000000000000e-02 6.65287736333272e+00 1.05363958374991e-02
1.44200000000000e-02 6.56196633822278e+00 1.23902257931620e-02
1.85400000000000e-02 6.47229760483597e+00 1.38999328661312e-02
2.26600000000000e-02 6.38385418735771e+00 1.51804428467577e-02
2.67800000000000e-02 6.29661934194642e+00 1.62918159918657e-02
3.09000000000000e-02 6.21057655356368e+00 1.72706677948975e-02
3.50200000000000e-02 6.12570953284772e+00 1.81415096594226e-02
3.91400000000000e-02 6.04200221302954e+00 1.89218248872842e-02
4.32600000000000e-02 5.95943874689122e+00 1.96246720965402e-02
4.73800000000000e-02 5.87800350376579e+00 2.02601535207623e-02
5.15000000000000e-02 5.79768106657804e+00 2.08363035670986e-02
5.56200000000000e-02 5.71845622892583e+00 2.13596566991600e-02
5.97400000000000e-02 5.64031399220128e+00 2.18356265643507e-02
6.38600000000000e-02 5.56323956275124e+00 2.22687683222388e-02
6.79800000000000e-02 5.48721834907665e+00 2.26629656647660e-02
7.21000000000000e-02 5.41223595907004e+00 2.30215675758421e-02
7.62200000000000e-02 5.33827819729097e+00 2.33474905467333e-02
8.03400000000000e-02 5.26533106227848e+00 2.36432964395069e-02
8.44600000000000e-02 5.19338074390047e+00 2.39112527997180e-02
8.85800000000000e-02 5.12241362073913e+00 2.41533802713411e-02
9.27000000000000e-02 5.05241625751224e+00 2.43714903681231e-02
9.68200000000000e-02 4.98337540252960e+00 2.45672159222265e-02
1.00940000000000e-01 4.91527798518428e+00 2.47420358946548e-02
1.05060000000000e-01 4.84811111347811e+00 2.48972957895181e-02
1.09180000000000e-01 4.78186207158104e+00 2.50342246011672e-02
1.13300000000000e-01 4.71651831742377e+00 2.51539489981926e-02
1.17420000000000e-01 4.65206748032339e+00 2.52575052841360e-02
1.21540000000000e-01 4.58849735864132e+00 2.53458495534490e-02
1.25660000000000e-01 4.52579591747340e+00 2.54198663704574e-02
1.29780000000000e-01 4.46395128637144e+00 2.54803762304039e-02
1.33900000000000e-01 4.40295175709596e+00 2.55281420091250e-02
1.38020000000000e-01 4.34278578139962e+00 2.55638745673789e-02
1.42140000000000e-01 4.28344196884091e+00 2.55882376442561e-02
1.46260000000000e-01 4.22490908462781e+00 2.56018521492873e-02
1.50380000000000e-01 4.16717604749077e+00 2.56052999432317e-02
1.54500000000000e-01 4.11023192758492e+00 2.55991271818612e-02
1.58620000000000e-01 4.05406594442081e+00 2.55838472844612e-02
1.62740000000000e-01 3.99866746482350e+00 2.55599435786077e-02
1.66860000000000e-01 3.94402600091951e+00 2.55278716645088e-02
1.70980000000000e-01 3.89013120815130e+00 2.54880615354248e-02
1.75100000000000e-01 3.83697288331887e+00 2.54409194851199e-02
1.79220000000000e-01 3.78454096264809e+00 2.53868298286915e-02
1.83340000000000e-01 3.73282551988550e+00 2.53261564592972e-02
1.87460000000000e-01 3.68181676441908e+00 2.52592442601136e-02
1.91580000000000e-01 3.63150503942471e+00 2.51864203881801e-02
1.95700000000000e-01 3.58188082003800e+00 2.51079954445175e-02
1.99820000000000e-01 3.53293471155104e+00 2.50242645430204e-02
2.03940000000000e-01 3.48465744763385e+00 2.49355082889897e-02
2.08060000000000e-01 3.43703988858006e+00 2.48419936767992e-02
2.12180000000000e-01 3.39007301957668e+00 2.47439749150095e-02
2.16300000000000e-01 3.34374794899738e+00 2.46416941862330e-02
2.20420000000000e-01 3.29805590671917e+00 2.45353823481818e-02
2.24540000000000e-01 3.25298824246209e+00 2.44252595815752e-02
2.28660000000000e-01 3.20853642415155e+00 2.43115359899375e-02
2.32780000000000e-01 3.16469203630303e+00 2.41944121557480e-02
2.36900000000000e-01 3.12144677842897e+00 2.40740796569159e-02
2.41020000000000e-01 3.07879246346724e+00 2.39507215471203e-02
2.45140000000000e-01 3.03672101623128e+00 2.38245128031760e-02
2.49260000000000e-01 2.99522447188129e+00 2.36956207422645e-02
2.53380000000000e-01 2.95429497441634e+00 2.35642054115671e-02
2.57500000000000e-01 2.91392477518711e+00 2.34304199525925e-02
2.61620000000000e-01 2.87410623142896e+00 2.32944109422526e-02
2.65740000000000e-01 2.83483180481499e+00 2.31563187125525e-02
2.69860000000000e-01 2.79609406002892e+00 2.30162776505743e-02
2.73980000000000e-01 2.75788566335746e+00 2.28744164802684e-02
2.78100000000000e-01 2.72019938130191e+00 2.27308585274461e-02
2.82220000000000e-01 2.68302807920873e+00 2.25857219692248e-02
2.86340000000000e-01 2.64636471991888e+00 2.24391200690677e-02
2.90460000000000e-01 2.61020236243546e+00 2.22911613984577e-02
2.94580000000000e-01 2.57453416060977e+00 2.21419500461602e-02
2.98700000000000e-01 2.53935336184515e+00 2.19915858159437e-02
3.02820000000000e-01 2.50465330581864e+00 2.18401644135536e-02
3.06940000000000e-01 2.47042742322003e+00 2.16877776236697e-02
3.11060000000000e-01 2.43666923450821e+00 2.15345134775173e-02
3.15180000000000e-01 2.40337234868446e+00 2.13804564117477e-02
3.19300000000000e-01 2.37053046208254e+00 2.12256874191556e-02
3.23420000000000e-01 2.33813735717529e+00 2.10702841917554e-02
3.27540000000000e-01 2.30618690139756e+00 2.09143212567001e-02
3.31660000000000e-01 2.27467304598519e+00 2.07578701054867e-02
3.35780000000000e-01 2.24358982482989e+00 2.06009993168573e-02
3.39900000000000e-01 2.21293135334975e+00 2.04437746737833e-02
3.44020000000000e-01 2.18269182737521e+00 2.02862592748821e-02
3.48140000000000e-01 2.15286552205018e+00 2.01285136405927e-02
3.52260000000000e-01 2.12344679074828e+00 1.99705958144160e-02
3.56380000000000e-01 2.09443006400381e+00 1.98125614595071e-02
3.60500000000000e-01 2.06580984845739e+00 1.96544639508758e-02
3.64620000000000e-01 2.03758072581590e+00 1.94963544634447e-02
3.68740000000000e-01 2.00973735182679e+00 1.93382820561913e-02
3.72860000000000e-01 1.98227445526626e+00 1.91802937525910e-02
3.76980000000000e-01 1.95518683694138e+00 1.90224346175558e-02
3.81100000000000e-01 1.92846936870573e+00 1.88647478310587e-02
3.85220000000000e-01 1.90211699248863e+00 1.87072747586157e-02
3.89340000000000e-01 1.87612471933749e+00 1.85500550187895e-02
3.93460000000000e-01 1.85048762847337e+00 1.83931265478676e-02
3.97580000000000e-01 1.82520086635935e+00 1.82365256618582e-02
4.01700000000000e-01 1.80025964578173e+00 1.80802871159377e-02
4.05820000000000e-01 1.77565924494365e+00 1.79244441614777e-02
4.09940000000000e-01 1.75139500657126e+00 1.77690286007696e-02
4.14060000000000e-01 1.72746233703195e+00 1.76140708395577e-02
4.18180000000000e-01 1.70385670546472e+00 1.74595999374875e-02
4.22300000000000e-01 1.68057364292245e+00 1.73056436565664e-02
4.26420000000000e-01 1.65760874152577e+00 1.71522285077328e-02
4.30540000000000e-01 1.63495765362866e+00 1.69993797956181e-02
4.34660000000000e-01 1.61261609099530e+00 1.68471216615883e-02
4.38780000000000e-01 1.59057982398827e+00 1.66954771251426e-02
4.42900000000000e-01 1.56884468076782e+00 1.65444681237420e-02
4.47020000000000e-01 1.54740654650202e+00 1.63941155511374e-02
4.51140000000000e-01 1.52626136258780e+00 1.62444392942674e-02
4.55260000000000e-01 1.50540512588255e+00 1.60954582687866e-02
4.59380000000000e-01 1.48483388794630e+00 1.59471904532803e-02
4.63500000000000e-01 1.46454375429417e+00 1.57996529222279e-02
4.67620000000000e-01 1.44453088365912e+00 1.56528618777658e-02
4.71740000000000e-01 1.42479148726468e+00 1.55068326803010e-02
4.75860000000000e-01 1.40532182810773e+00 1.53615798780215e-02
4.79980000000000e-01 1.38611822025096e+00 1.52171172353522e-02
4.84100000000000e-01 1.36717702812513e+00 1.50734577603990e-02
4.88220000000000e-01 1.34849466584072e+00 1.49306137314219e-02
4.92340000000000e-01 1.33006759650913e+00 1.47885967223764e-02
4.96460000000000e-01 1.31189233157302e+00 1.46474176275611e-02
5.00580000000000e-01 1.29396543014593e+00 1.45070866854069e-02
5.04700000000000e-01 1.27628349836082e+00 1.43676135014409e-02
5.08820000000000e-01 1.25884318872756e+00 1.42290070704607e-02
5.12940000000000e-01 1.24164119949920e+00 1.40912757979457e-02
5.17060000000000e-01 1.22467427404691e+00 1.39544275207358e-02
5.21180000000000e-01 1.20793920024340e+00 1.38184695270089e-02
5.25300000000000e-01 1.19143280985486e+00 1.36834085755810e-02
5.29420000000000e-01 1.17515197794111e+00 1.35492509145530e-02
5.33540000000000e-01 1.15909362226406e+00 1.34160022993328e-02
5.37660000000000e-01 1.14325470270411e+00 1.32836680100536e-02
5.41780000000000e-01 1.12763222068467e+00 1.31522528684112e-02
5.45900000000000e-01 1.11222321860446e+00 1.30217612539408e-02
5.50020000000000e-01 1.09702477927756e+00 1.28921971197563e-02
5.54140000000000e-01 1.08203402538116e+00 1.27635640077684e-02
5.58260000000000e-01 1.06724811891084e+00 1.26358650634030e-02
5.62380000000000e-01 1.05266426064328e+00 1.25091030498366e-02
5.66500000000000e-01 1.03827968960630e+00 1.23832803617651e-02
5.70620000000000e-01 1.02409168255621e+00 1.22583990387248e-02
5.74740000000000e-01 1.01009755346219e+00 1.21344607779801e-02
5.78860000000000e-01 9.96294652997826e-01 1.20114669469913e-02
5.82980000000000e-01 9.82680368039536e-01 1.18894185954810e-02
5.87100000000000e-01 9.69252121171854e-01 1.17683164671101e-02
5.91220000000000e-01 9.56007370199485e-01 1.16481610107777e-02
5.95340000000000e-01 9.42943607666024e-01 1.15289523915569e-02
5.99460000000000e-01 9.30058360379255e-01 1.14106905012815e-02
6.03580000000000e-01 9.17349188942932e-01 1.12933749687928e-02
6.07700000000000e-01 9.04813687294956e-01 1.11770051698585e-02
6.11820000000000e-01 8.92449482251872e-01 1.10615802367751e-02
6.15940000000000e-01 8.80254233059583e-01 1.09470990676654e-02
6.20060000000000e-01 8.68225630950203e-01 1.08335603354796e-02
6.24180000000000e-01 8.56361398704974e-01 1.07209624967097e-02
6.28300000000000e-01 8.44659290223142e-01 1.06093037998283e-02
6.32420000000000e-01 8.33117090096741e-01 1.04985822934601e-02
6.36540000000000e-01 8.21732613191169e-01 1.03887958342937e-02
6.40660000000000e-01 8.10503704231513e-01 1.02799420947437e-02
6.44780000000000e-01 7.99428237394514e-01 1.01720185703707e-02
6.48900000000000e-01 7.88504115906114e-01 1.00650225870661e-02
6.53020000000000e-01 7.77729271644500e-01 9.95895130801019e-03
6.57140000000000e-01 7.67101664748577e-01 9.85380174041224e-03
6.61260000000000e-01 7.56619283231782e-01 9.74957074203595e-03
6.65380000000000e-01 7.46280142601187e-01 9.64625502751954e-03
6.69500000000000e-01 7.36082285481796e-01 9.54385117449681e-03
6.73620000000000e-01 7.26023781245982e-01 9.44235562952566e-03
6.77740000000000e-01 7.16102725647986e-01 9.34176471382858e-03
6.81860000000000e-01 7.06317240463413e-01 9.24207462885170e-03
6.85980000000000e-01 6.96665473133651e-01 9.14328146165020e-03
6.90100000000000e-01 6.87145596415148e-01 9.04538119010206e-03
6.94220000000000e-01 6.77755808033487e-01 8.94836968795753e-03
6.98340000000000e-01 6.68494330342185e-01 8.85224272972889e-03
7.02460000000000e-01 6.59359409986149e-01 8.75699599542551e-03
7.06580000000000e-01 6.50349317569744e-01 8.66262507513918e-03
7.10700000000000e-01 6.41462347329382e-01 8.56912547348350e-03
7.14820000000000e-01 6.32696816810597e-01 8.47649261389314e-03
7.18940000000000e-01 6.24051066549524e-01 8.38472184278521e-03
7.23060000000000e-01 6.15523459758737e-01 8.29380843358985e-03
7.27180000000000e-01 6.07112382017376e-01 8.20374759065093e-03
7.31300000000000e-01 5.98816240965510e-01 8.11453445300210e-03
7.35420000000000e-01 5.90633466002676e-01 8.02616409802356e-03
7.39540000000000e-01 5.82562507990539e-01 7.93863154498020e-03
7.43660000000000e-01 5.74601838959612e-01 7.85193175844682e-03
7.47780000000000e-01 5.66749951819985e-01 7.76605965162258e-03
7.51900000000000e-01 5.59005360076010e-01 7.68101008953888e-03
7.56020000000000e-01 5.51366597544880e-01 7.59677789216364e-03
7.60140000000000e-01 5.43832218079055e-01 7.51335783740446e-03
7.64260000000000e-01 5.36400795292485e-01 7.43074466401475e-03
7.68380000000000e-01 5.29070922290567e-01 7.34893307440438e-03
7.72500000000000e-01 5.21841211403798e-01 7.26791773735872e-03
7.76620000000000e-01 5.14710293925066e-01 7.18769329066910e-03
7.80740000000000e-01 5.07676819850529e-01 7.10825434367572e-03
7.84860000000000e-01 5.00739457624038e-01 7.02959547972697e-03
7.88980000000000e-01 4.93896893885048e-01 6.95171125855765e-03
7.93100000000000e-01 4.87147833219982e-01 6.87459621858708e-03
7.97220000000000e-01 4.80490997916978e-01 6.79824487914120e-03
8.01340000000000e-01 4.73925127724009e-01 6.72265174260010e-03
8.05460000000000e-01 4.67448979610282e-01 6.64781129647292e-03
8.09580000000000e-01 4.61061327530924e-01 6.57371801540297e-03
8.13700000000000e-01 4.54760962194862e-01 6.50036636310371e-03
8.17820000000000e-01 4.48546690835885e-01 6.42775079422974e-03
8.21940000000000e-01 4.42417336986839e-01 6.35586575618306e-03
8.26060000000000e-01 4.36371740256894e-01 6.28470569085660e-03
8.30180000000000e-01 4.30408756111867e-01 6.21426503631808e-03
8.34300000000000e-01 4.24527255657542e-01 6.14453822843475e-03
8.38420000000000e-01 4.18726125425948e-01 6.07551970244054e-03
8.42540000000000e-01 4.13004267164564e-01 6.00720389444861e-03
8.46660000000000e-01 4.07360597628400e-01 5.93958524291016e-03
8.50780000000000e-01 4.01794048374920e-01 5.87265819002035e-03
8.54900000000000e-01 3.96303565561768e-01 5.80641718307402e-03
8.59020000000000e-01 3.90888109747257e-01 5.74085667577249e-03
8.63140000000000e-01 3.85546655693586e-01 5.67597112948253e-03
8.67260000000000e-01 3.80278192172746e-01 5.61175501444848e-03
8.71380000000000e-01 3.75081721775074e-01 5.54820281095989e-03
8.75500000000000e-01 3.69956260720430e-01 5.48530901047529e-03
8.79620000000000e-01 3.64900838671948e-01 5.42306811670376e-03
8.83740000000000e-01 3.59914498552336e-01 5.36147464664488e-03
8.87860000000000e-01 3.54996296362685e-01 5.30052313158946e-03
8.91980000000000e-01 3.50145301003756e-01 5.24020811808095e-03
8.96100000000000e-01 3.45360594099702e-01 5.18052416883923e-03
9.00220000000000e-01 3.40641269824209e-01 5.12146586364865e-03
9.04340000000000e-01 3.35986434729003e-01 5.06302780020910e-03
9.08460000000000e-01 3.31395207574711e-01 5.00520459495353e-03
9.12580000000000e-01 3.26866719164021e-01 4.94799088383280e-03
9.16700000000000e-01 3.22400112177133e-01 4.89138132306690e-03
9.20820000000000e-01 3.17994541009450e-01 4.83537058986503e-03
9.24940000000000e-01 3.13649171611495e-01 4.77995338311561e-03
9.29060000000000e-01 3.09363181331008e-01 4.72512442404603e-03
9.33180000000000e-01 3.05135758757204e-01 4.67087845685397e-03
9.37300000000000e-01 3.00966103567161e-01 4.61721024931097e-03
9.41420000000000e-01 2.96853426374304e-01 4.56411459333867e-03
9.45540000000000e-01 2.92796948578962e-01 4.51158630555848e-03
9.49660000000000e-01 2.88795902220962e-01 4.45962022781649e-03
9.53780000000000e-01 2.84849529834247e-01 4.40821122768337e-03
9.57900000000000e-01 2.80957084303470e-01 4.35735419892982e-03
9.62020000000000e-01 2.77117828722555e-01 4.30704406197919e-03
9.66140000000000e-01 2.73331036255187e-01 4.25727576433781e-03
9.70260000000000e-01 2.69595989997209e-01 4.20804428100294e-03
9.74380000000000e-01 2.65911982840902e-01 4.15934461484910e-03
9.78500000000000e-01 2.62278317341116e-01 4.11117179699519e-03
9.82620000000000e-01 2.58694305583230e-01 4.06352088715044e-03
9.86740000000000e-01 2.55159269052923e-01 4.01638697394104e-03
9.90860000000000e-01 2.51672538507715e-01 3.96976517521904e-03
9.94980000000000e-01 2.48233453850269e-01 3.92365063835188e-03
9.99100000000000e-01 2.44841364003426e-01 3.87803854049480e-03
1.00322000000000e+00 2.41495626786943e-01 3.83292408884641e-03
1.00734000000000e+00 2.38195608795914e-01 3.78830252088714e-03
1.01146000000000e+00 2.34940685280865e-01 3.74416910460198e-03
1.01558000000000e+00 2.31730240029468e-01 3.70051913868797e-03
1.01970000000000e+00 2.28563665249887e-01 3.65734795274603e-03
1.02382000000000e+00 2.25440361455714e-01 3.61465090745823e-03
1.02794000000000e+00 2.22359737352470e-01 3.57242339475143e-03
1.03206000000000e+00 2.19321209725671e-01 3.53066083794707e-03
1.03618000000000e+00 2.16324203330407e-01 3.48935869189744e-03
1.04030000000000e+00 2.13368150782445e-01 3.44851244310920e-03
1.04442000000000e+00 2.10452492450811e-01 3.40811760985475e-03
1.04854000000000e+00 2.07576676351843e-01 3.36816974227145e-03
1.05266000000000e+00 2.04740158044689e-01 3.32866442244895e-03
1.05678000000000e+00 2.01942400528237e-01 3.28959726450548e-03
1.06090000000000e+00 1.99182874139453e-01 3.25096391465347e-03
1.06502000000000e+00 1.96461056453103e-01 3.21276005125442e-03
1.06914000000000e+00 1.93776432182853e-01 3.17498138486335e-03
1.07326000000000e+00 1.91128493083712e-01 3.13762365826372e-03
1.07738000000000e+00 1.88516737855818e-01 3.10068264649291e-03
1.08150000000000e+00 1.85940672049530e-01 3.06415415685847e-03
1.08562000000000e+00 1.83399807971818e-01 3.02803402894513e-03
1.08974000000000e+00 1.80893664593942e-01 2.99231813461341e-03
1.09386000000000e+00 1.78421767460378e-01 2.95700237799037e-03
1.09798000000000e+00 1.75983648598997e-01 2.92208269545182e-03
1.10210000000000e+00 1.73578846432472e-01 2.88755505559667e-03
1.10622000000000e+00 1.71206905690893e-01 2.85341545921455e-03
1.11034000000000e+00 1.68867377325576e-01 2.81965993924574e-03
1.11446000000000e+00 1.66559818424048e-01 2.78628456073405e-03
1.11858000000000e+00 1.64283792126203e-01 2.75328542077340e-03
1.12270000000000e+00 1.62038867541588e-01 2.72065864844765e-03
1.12682000000000e+00 1.59824619667838e-01 2.68840040476429e-03
1.13094000000000e+00 1.57640629310205e-01 2.65650688258228e-03
1.13506000000000e+00 1.55486483002207e-01 2.62497430653377e-03
1.13918000000000e+00 1.53361772927347e-01 2.59379893294065e-03
1.14330000000000e+00 1.51266096841905e-01 2.56297704972585e-03
1.14742000000000e+00 1.49199057998790e-01 2.53250497631891e-03
1.15154000000000e+00 1.47160265072429e-01 2.50237906355714e-03
1.15566000000000e+00 1.45149332084677e-01 2.47259569358181e-03
1.15978000000000e+00 1.43165878331754e-01 2.44315127972987e-03
1.16390000000000e+00 1.41209528312161e-01 2.41404226642126e-03
1.16802000000000e+00 1.39279911655600e-01 2.38526512904192e-03
1.17214000000000e+00 1.37376663052851e-01 2.35681637382304e-03
1.17626000000000e+00 1.35499422186615e-01 2.32869253771621e-03
1.18038000000000e+00 1.33647833663298e-01 2.30089018826469e-03
1.18450000000000e+00 1.31821546945734e-01 2.27340592347174e-03
1.18862000000000e+00 1.30020216286816e-01 2.24623637166500e-03
1.19274000000000e+00 1.28243500664042e-01 2.21937819135772e-03
1.19686000000000e+00 1.26491063714958e-01 2.19282807110719e-03
1.20098000000000e+00 1.24762573673472e-01 2.16658272936989e-03
1.20510000000000e+00 1.23057703307050e-01 2.14063891435404e-03
1.20922000000000e+00 1.21376129854765e-01 2.11499340386915e-03
1.21334000000000e+00 1.19717534966190e-01 2.08964300517340e-03
1.21746000000000e+00 1.18081604641130e-01 2.06458455481839e-03
1.22158000000000e+00 1.16468029170180e-01 2.03981491849154e-03
1.22570000000000e+00 1.14876503076085e-01 2.01533099085633e-03
1.22982000000000e+00 1.13306725055914e-01 1.99112969539040e-03
1.23394000000000e+00 1.11758397924016e-01 1.96720798422182e-03
1.23806000000000e+00 1.10231228555756e-01 1.94356283796339e-03
1.24218000000000e+00 1.08724927832025e-01 1.92019126554521e-03
1.24630000000000e+00 1.07239210584501e-01 1.89709030404553e-03
1.25042000000000e+00 1.05773795541666e-01 1.87425701852001e-03
1.25454000000000e+00 1.04328405275552e-01 1.85168850182977e-03
1.25866000000000e+00 1.02902766149224e-01 1.82938187446782e-03
1.26278000000000e+00 1.01496608264971e-01 1.80733428438416e-03
1.26690000000000e+00 1.00109665413214e-01 1.78554290680984e-03
1.27102000000000e+00 9.87416750221044e-02 1.76400494407992e-03
1.27514000000000e+00 9.73923781078182e-02 1.74271762545528e-03
1.27926000000000e+00 9.60615192255230e-02 1.72167820694355e-03
1.28338000000000e+00 9.47488464210195e-02 1.70088397111908e-03
1.28750000000000e+00 9.34541111830418e-02 1.68033222694222e-03
1.29162000000000e+00 9.21770683962104e-02 1.66002030957789e-03
1.29574000000000e+00 9.09174762946270e-02 1.63994558021332e-03
1.29986000000000e+00 8.96750964161049e-02 1.62010542587527e-03
