Energy (eV)          EEDF (eV^-(3/2))     First Anisotropy
5.62500000000000e-01 6.19959869253188e-02 1.51685849904857e-04
1.68750000000000e+00 5.21593640164926e-02 2.31383334315770e-04
2.81250000000000e+00 4.38834735848668e-02 2.58727078798242e-04
3.93750000000000e+00 3.69206812656840e-02 2.59521448691223e-04
5.06250000000000e+00 3.10626437190765e-02 2.48342453714677e-04
6.18750000000000e+00 2.61340745008165e-02 2.31348631691866e-04
7.31250000000000e+00 2.19874990741623e-02 2.11785498491173e-04
8.43750000000000e+00 1.84988420202591e-02 1.91504984715158e-04
9.56250000000000e+00 1.55637144059115e-02 1.71588669094113e-04
1.06875000000000e+01 1.30942902179227e-02 1.52659005685446e-04
1.18125000000000e+01 1.10166783994739e-02 1.35053563662932e-04
1.29375000000000e+01 9.26871185360738e-03 1.18929775862435e-04
1.40625000000000e+01 7.79808725552924e-03 1.04330856730209e-04
1.51875000000000e+01 6.56080001248289e-03 9.12285127593141e-05
1.63125000000000e+01 5.51982754146217e-03 7.95511045357461e-05
1.74375000000000e+01 4.64402146529593e-03 6.92023721698094e-05
1.85625000000000e+01 3.90717557897043e-03 6.00738899507166e-05
1.96875000000000e+01 3.28724169752090e-03 5.20532841186221e-05
2.08125000000000e+01 2.76566992179234e-03 4.50295575977563e-05
2.19375000000000e+01 2.32685358124879e-03 3.88964287270954e-05
2.30625000000000e+01 1.95766224519718e-03 3.35543060229583e-05
2.41875000000000e+01 1.64704882900868e-03 2.89113304803622e-05
2.53125000000000e+01 1.38571903901923e-03 2.48837870564019e-05
2.64375000000000e+01 1.16585326511304e-03 2.13960970987154e-05
2.75625000000000e+01 9.80872599352282e-04 1.83805405327967e-05
2.86875000000000e+01 8.25241979372778e-04 1.57768121406395e-05
2.98125000000000e+01 6.94304566126951e-04 1.35314846346354e-05
3.09375000000000e+01 5.84142400161369e-04 1.15974286546327e-05
3.20625000000000e+01 4.91459166932648e-04 9.93322367721778e-06
3.31875000000000e+01 4.13481563220559e-04 8.50258229887584e-06
3.43125000000000e+01 3.47876313286364e-04 7.27380214888721e-06
3.54375000000000e+01 2.92680351702064e-04 6.21925388331514e-06
3.65625000000000e+01 2.46242083754432e-04 5.31490964624210e-06
3.76875000000000e+01 2.07171965795123e-04 4.53991357922874e-06
3.88125000000000e+01 1.74300926783167e-04 3.87619406607734e-06
3.99375000000000e+01 1.46645386893298e-04 3.30811616273747e-06
4.10625000000000e+01 1.23377826463524e-04 2.82217189524547e-06
4.21875000000000e+01 1.03802024634702e-04 2.40670567545050e-06
4.33125000000000e+01 8.73322267632004e-05 2.05167188502478e-06
4.44375000000000e+01 7.34756172459982e-05 1.74842163988064e-06
4.55625000000000e+01 6.18175733033673e-05 1.48951581647857e-06
4.66875000000000e+01 5.20092584771762e-05 1.26856156014073e-06
4.78125000000000e+01 4.37571846127189e-05 1.08006967575932e-06
4.89375000000000e+01 3.68144299936868e-05 9.19330503594963e-07
5.00625000000000e+01 3.09732508559547e-05 7.82306093482762e-07
5.11875000000000e+01 2.60588651990650e-05 6.65536700324446e-07
5.23125000000000e+01 2.19242228922344e-05 5.66059826029042e-07
5.34375000000000e+01 1.84456055839923e-05 4.81340224156639e-07
5.45625000000000e+01 1.55189247542599e-05 4.09209461152584e-07
5.56875000000000e+01 1.30566071377665e-05 3.47813791137071e-07
5.68125000000000e+01 1.09849743232488e-05 2.95569249456140e-07
5.79375000000000e+01 9.24203811979582e-06 2.51123003876495e-07
5.90625000000000e+01 7.77564572244692e-06 2.13320122052049e-07
6.01875000000000e+01 6.54191917597747e-06 1.81175020561181e-07
6.13125000000000e+01 5.50394244190875e-06 1.53846955389639e-07
6.24375000000000e+01 4.63065678265860e-06 1.30618997246604e-07
6.35625000000000e+01 3.89593141009406e-06 1.10880008585544e-07
6.46875000000000e+01 3.27778159007569e-06 9.41092036628389e-08
6.58125000000000e+01 2.75771080681827e-06 7.98629293603301e-08
6.69375000000000e+01 2.32015730305772e-06 6.77633537144191e-08
6.80625000000000e+01 1.95202843518712e-06 5.74887919553063e-08
6.91875000000000e+01 1.64230891015767e-06 4.87654371144431e-08
7.03125000000000e+01 1.38173118165910e-06 4.13602945834640e-08
7.14375000000000e+01 1.16249814304774e-06 3.50751480119998e-08
7.25625000000000e+01 9.78049819333722e-07 2.97414081578219e-08
7.36875000000000e+01 8.22867077095571e-07 2.52157172331511e-08
7.48125000000000e+01 6.92306478855113e-07 2.13761993524312e-08
7.59375000000000e+01 5.82461340361900e-07 1.81192632555697e-08
7.70625000000000e+01 4.90044833290058e-07 1.53568768870625e-08
7.81875000000000e+01 4.12291635501633e-07 1.30142449450652e-08
7.93125000000000e+01 3.46875186017923e-07 1.10278304283707e-08
8.04375000000000e+01 2.91838068770358e-07 9.34366972401693e-09
8.15625000000000e+01 2.45533442046821e-07 7.91593808584722e-09
8.26875000000000e+01 2.06575761062887e-07 6.70572862154640e-09
8.38125000000000e+01 1.73799319159846e-07 5.68001327707443e-09
8.49375000000000e+01 1.46223367083374e-07 4.81075890823995e-09
8.60625000000000e+01 1.23022766628530e-07 4.07417546767530e-09
8.71875000000000e+01 1.03503300538199e-07 3.45007670520603e-09
8.83125000000000e+01 8.70808998683035e-08 2.92133666122362e-09
8.94375000000000e+01 7.32641672530519e-08 2.47342769569000e-09
9.05625000000000e+01 6.16396731246565e-08 2.09402789967435e-09
9.16875000000000e+01 5.18595849153834e-08 1.77268753332748e-09
9.28125000000000e+01 4.36312590781743e-08 1.50054566817704e-09
9.39375000000000e+01 3.67084844942919e-08 1.27008952057115e-09
9.50625000000000e+01 3.08841152498791e-08 1.07495007960970e-09
9.61875000000000e+01 2.59838723365475e-08 9.09728584940084e-10
9.73125000000000e+01 2.18611288081060e-08 7.69849221314568e-10
9.84375000000000e+01 1.83925223528904e-08 6.51434088331182e-10
9.95625000000000e+01 1.54742639994025e-08 5.51197092873586e-10
1.00687500000000e+02 1.30190325029331e-08 4.66353913454732e-10
1.01812500000000e+02 1.09533614858175e-08 3.94545612804973e-10
1.02937500000000e+02 9.21544114833119e-09 3.33773838609947e-10
1.04062500000000e+02 7.75326877217703e-09 2.82345861680316e-10
1.05187500000000e+02 6.52309267522167e-09 2.38827964036698e-10
1.06312500000000e+02 5.48810305689723e-09 2.02005913258614e-10
1.07437500000000e+02 4.61733056124351e-09 1.70851449812151e-10
1.08562500000000e+02 3.88471959997171e-09 1.44493875915484e-10
1.09687500000000e+02 3.26834870716732e-09 1.22195972069100e-10
1.10812500000000e+02 2.74977459678687e-09 1.03333584286895e-10
1.11937500000000e+02 2.31348029558565e-09 8.73783243984038e-11
1.13062500000000e+02 1.94641083829821e-09 7.38829101778484e-11
1.14187500000000e+02 1.63758263196519e-09 6.24687437293356e-11
1.15312500000000e+02 1.37775480065589e-09 5.28153874237969e-11
1.16437500000000e+02 1.15915267643772e-09 4.46516483632326e-11
1.17562500000000e+02 9.75235162783007e-10 3.77480262208846e-11
1.18687500000000e+02 8.20499009372301e-10 3.19103165457216e-11
1.19812500000000e+02 6.90314141729446e-10 2.69741932242354e-11
1.20937500000000e+02 5.80785118358911e-10 2.28006206108711e-11
1.22062500000000e+02 4.88634569852658e-10 1.92719685920945e-11
1.23187500000000e+02 4.11105132186844e-10 1.62887231515786e-11
1.24312500000000e+02 3.45876939818901e-10 1.37667013765704e-11
1.25437500000000e+02 2.90998209781814e-10 1.16346937311511e-11
1.26562500000000e+02 2.44826839686273e-10 9.83246819711218e-12
1.27687500000000e+02 2.05981272103736e-10 8.30908086717439e-12
1.28812500000000e+02 1.73299155075653e-10 7.02144603969715e-12
1.29937500000000e+02 1.45802561772753e-10 5.93312603934515e-12
1.31062500000000e+02 1.22668728593726e-10 5.01330707004605e-12
1.32187500000000e+02 1.03205436117470e-10 4.23593256107804e-12
1.33312500000000e+02 8.68302962483131e-11 3.57896983521543e-12
1.34437500000000e+02 7.30533257762532e-11 3.02378962914540e-12
1.35562500000000e+02 6.14622849115876e-11 2.55464113233180e-12
1.36687500000000e+02 5.17103420879591e-11 2.15820786723400e-12
1.37812500000000e+02 4.35056959353235e-11 1.82323198431658e-12
1.38937500000000e+02 3.66028438875393e-11 1.54019645154308e-12
1.40062500000000e+02 3.07952361605089e-11 1.30105623255657e-12
1.41187500000000e+02 2.59090952903896e-11 1.09901091504438e-12
1.42312500000000e+02 2.17982162977314e-11 9.28312408621909e-13
1.43437500000000e+02 1.83395918860560e-11 7.84102311956123e-13
1.44562500000000e+02 1.54297317703970e-11 6.62274378915550e-13
1.45687500000000e+02 1.29815660013358e-11 5.59358216271786e-13
1.46812500000000e+02 1.09218396246107e-11 4.72420940375485e-13
1.47937500000000e+02 9.18892071830494e-12 3.98984023798180e-13
1.49062500000000e+02 7.73095621886162e-12 3.36952989160774e-13
1.50187500000000e+02 6.50432035384678e-12 2.84557968112251e-13
1.51312500000000e+02 5.47230925486926e-12 2.40303448718594e-13
1.52437500000000e+02 4.60404269036611e-12 2.02925792876786e-13
1.53562500000000e+02 3.87354005548065e-12 1.71357323985185e-13
1.54687500000000e+02 3.25894297044842e-12 1.44695970079973e-13
1.55812500000000e+02 2.74186122578183e-12 1.22179604153677e-13
1.56937500000000e+02 2.30682250337489e-12 1.03164355780217e-13
1.58062500000000e+02 1.94080940787199e-12 8.71062801852570e-14
1.59187500000000e+02 1.63286995517586e-12 7.35458656563873e-14
1.60312500000000e+02 1.37378986298271e-12 6.20949403393043e-14
1.61437500000000e+02 1.15581683749627e-12 5.24256072607354e-14
1.62562500000000e+02 9.72428606322236e-13 4.42608937582188e-14
1.63687500000000e+02 8.18137756534331e-13 3.73668499908160e-14
1.64812500000000e+02 6.88327538202042e-13 3.15458722157098e-14
1.65937500000000e+02 5.79113720230075e-13 2.66310611963450e-14
1.67062500000000e+02 4.87228364907111e-13 2.24814554338736e-14
1.68187500000000e+02 4.09922043421357e-13 1.89780037106733e-14
1.69312500000000e+02 3.44881566398083e-13 1.60201624010481e-14
1.70437500000000e+02 2.90160767760747e-13 1.35230207308027e-14
1.71562500000000e+02 2.44122270803901e-13 1.14148721541214e-14
1.72687500000000e+02 2.05388493979974e-13 9.63516268594847e-15
1.73812500000000e+02 1.72800430376334e-13 8.13275773859366e-15
1.74937500000000e+02 1.45382967466316e-13 6.86447806513495e-15
1.76062500000000e+02 1.22315709418549e-13 5.79386306527999e-15
1.77187500000000e+02 1.02908428898518e-13 4.89012617811436e-15
1.78312500000000e+02 8.65804138217697e-14 4.12727255365453e-15
1.79437500000000e+02 7.28430910643983e-14 3.48335381612630e-15
1.80562500000000e+02 6.12854071908127e-14 2.93983863730196e-15
1.81687500000000e+02 5.15615287553248e-14 2.48108113873275e-15
1.82812500000000e+02 4.33804941412666e-14 2.09387193089061e-15
1.83937500000000e+02 3.64975072960016e-14 1.76705895421176e-15
1.85062500000000e+02 3.07066128496340e-14 1.49122727870837e-15
1.86187500000000e+02 2.58345334395099e-14 1.25842870174013e-15
1.87312500000000e+02 2.17354848385731e-14 1.06195340552352e-15
1.88437500000000e+02 1.82868137438601e-14 8.96137137419286e-16
1.89562500000000e+02 1.53853276973684e-14 7.56198391140370e-16
1.90687500000000e+02 1.29442073217860e-14 6.38100924640778e-16
1.91812500000000e+02 1.08904084778148e-14 5.38437674986939e-16
1.92937500000000e+02 9.16247660944411e-15 4.54332742606856e-16
1.94062500000000e+02 7.70870787717742e-15 3.83358634392407e-16
1.95187500000000e+02 6.48560205593393e-15 3.23466391931412e-16
1.96312500000000e+02 5.45656090464489e-15 2.72926600119998e-16
1.97437500000000e+02 4.59079305966015e-15 2.30279583075017e-16
1.98562500000000e+02 3.86239268376596e-15 1.94293357522300e-16
1.99687500000000e+02 3.24956430179694e-15 1.63928136192911e-16
2.00812500000000e+02 2.73397062807634e-15 1.38306361564786e-16
2.01937500000000e+02 2.30018387112722e-15 1.16687408905230e-16
2.03062500000000e+02 1.93522409738415e-15 9.84462315327691e-17
2.04187500000000e+02 1.62817084064718e-15 8.30553343539369e-17
2.05312500000000e+02 1.36983633570760e-15 7.00695572764718e-17
2.06437500000000e+02 1.15249059851665e-15 5.91132307881204e-17
2.07562500000000e+02 9.69630126640754e-16 4.98693341284292e-17
2.08687500000000e+02 8.15783298969602e-16 4.20703440198427e-17
2.09812500000000e+02 6.86346651772603e-16 3.54905105115954e-17
2.10937500000000e+02 5.77447132093122e-16 2.99393375168792e-17
2.12062500000000e+02 4.85826206773785e-16 2.52560802660508e-17
2.13187500000000e+02 4.08742359378697e-16 2.13051011490711e-17
2.14312500000000e+02 3.43889057488116e-16 1.79719501175156e-17
2.15437500000000e+02 2.89325735751547e-16 1.51600566686319e-17
2.16562500000000e+02 2.43419729547710e-16 1.27879380392290e-17
2.17687500000000e+02 2.04797421768117e-16 1.07868431008527e-17
2.18812500000000e+02 1.72303140919592e-16 9.09876399638726e-18
2.19937500000000e+02 1.44964580679006e-16 7.67475815222067e-18
2.21062500000000e+02 1.21963706170899e-16 6.47353224369548e-18
2.22187500000000e+02 1.02612276414466e-16 5.46024724167630e-18
2.23312500000000e+02 8.63312505132054e-17 4.60551004166665e-18
2.24437500000000e+02 7.26334613713245e-17 4.21924697670900e-18
