Energy (eV)          EEDF (eV^-(3/2))     First Anisotropy
4.15853658536585e-03 1.14465648271176e+00 6.62088795959476e-04
1.24756097560976e-02 1.13505806733948e+00 1.09238530080394e-03
2.07926829268293e-02 1.12554013864658e+00 1.43965972629165e-03
2.91097560975610e-02 1.11610202168753e+00 1.70202300501946e-03
3.74268292682927e-02 1.10674304721169e+00 1.91962914532625e-03
4.57439024390244e-02 1.09746255157995e+00 2.10769371536767e-03
5.40609756097561e-02 1.08825987673666e+00 2.27410746022651e-03
6.23780487804878e-02 1.07913437010205e+00 2.42364520624420e-03
7.06951219512195e-02 1.07008538458950e+00 2.55948014838637e-03
7.90121951219512e-02 1.06111227855096e+00 2.68385956451651e-03
8.73292682926829e-02 1.05221441569372e+00 2.79845033994212e-03
9.56463414634146e-02 1.04339116507305e+00 2.90453326432638e-03
1.03963414634146e-01 1.03464190104368e+00 3.00312027355560e-03
1.12280487804878e-01 1.02596600320376e+00 3.09502915883273e-03
1.20597560975610e-01 1.01736285634575e+00 3.18093330160212e-03
1.28914634146341e-01 1.00883185035516e+00 3.26139596289775e-03
1.37231707317073e-01 1.00037238037164e+00 3.33689468328601e-03
1.45548780487805e-01 9.91983846534527e-01 3.40783907430790e-03
1.53865853658537e-01 9.83665654013247e-01 3.47458404716040e-03
1.62182926829268e-01 9.75417212965366e-01 3.53743987980798e-03
1.70500000000000e-01 9.67237938495181e-01 3.59667999050962e-03
1.78817073170732e-01 9.59127250566885e-01 3.65254701110732e-03
1.87134146341463e-01 9.51084574101143e-01 3.70525763133086e-03
1.95451219512195e-01 9.43109338792976e-01 3.75500649305257e-03
2.03768292682927e-01 9.35200979119528e-01 3.80196932964044e-03
2.12085365853659e-01 9.27358934300297e-01 3.84630555811130e-03
2.20402439024390e-01 9.19582648257419e-01 3.88816042359773e-03
2.28719512195122e-01 9.11871569542904e-01 3.92766677225595e-03
2.37036585365854e-01 9.04225151400922e-01 3.96494655982439e-03
2.45353658536585e-01 8.96642851625448e-01 4.00011212925807e-03
2.53670731707317e-01 8.89124132556959e-01 4.03326727882679e-03
2.61987804878049e-01 8.81668461044609e-01 4.06450819224637e-03
2.70304878048781e-01 8.74275308408360e-01 4.09392423963359e-03
2.78621951219512e-01 8.66944150375642e-01 4.12159865726944e-03
2.86939024390244e-01 8.59674467122828e-01 4.14760915532532e-03
2.95256097560976e-01 8.52465743158258e-01 4.17202844978868e-03
3.03573170731707e-01 8.45317467312772e-01 4.19492471203496e-03
3.11890243902439e-01 8.38229132703735e-01 4.21636197824445e-03
3.20207317073171e-01 8.31200236698981e-01 4.23640051130933e-03
3.28524390243902e-01 8.24230280860419e-01 4.25509711003145e-03
3.36841463414634e-01 8.17318770971837e-01 4.27250539897155e-03
3.45158536585366e-01 8.10465216939664e-01 4.28867608804706e-03
3.53475609756098e-01 8.03669132779867e-01 4.30365718999024e-03
3.61792682926829e-01 7.96930036583736e-01 4.31749423032274e-03
3.70109756097561e-01 7.90247450465866e-01 4.33023042282857e-03
3.78426829268293e-01 7.83620900584185e-01 4.34190684128123e-03
3.86743902439024e-01 7.77049917051613e-01 4.35256257552049e-03
3.95060975609756e-01 7.70534033921267e-01 4.36223485938592e-03
4.03378048780488e-01 7.64072789153375e-01 4.37095919785184e-03
4.11695121951220e-01 7.57665724582647e-01 4.37876948279764e-03
4.20012195121951e-01 7.51312385870906e-01 4.38569808909719e-03
4.28329268292683e-01 7.45012322519883e-01 4.39177597444992e-03
4.36646341463415e-01 7.38765087793623e-01 4.39703277139728e-03
4.44963414634146e-01 7.32570238702223e-01 4.40149685957351e-03
4.53280487804878e-01 7.26427335970418e-01 4.40519544186477e-03
4.61597560975610e-01 7.20335944006503e-01 4.40815461449322e-03
4.69914634146341e-01 7.14295630858836e-01 4.41039942302098e-03
4.78231707317073e-01 7.08305968223369e-01 4.41195392486676e-03
4.86548780487805e-01 7.02366531374613e-01 4.41284124759178e-03
4.94865853658537e-01 6.96476899148558e-01 4.41308363188888e-03
5.03182926829268e-01 6.90636653912832e-01 4.41270248024172e-03
5.11500000000000e-01 6.84845381537118e-01 4.41171840206347e-03
5.19817073170732e-01 6.79102671352976e-01 4.41015124784493e-03
5.28134146341463e-01 6.73408116157455e-01 4.40802015072444e-03
5.36451219512195e-01 6.67761312151082e-01 4.40534356561492e-03
5.44768292682927e-01 6.62161858920385e-01 4.40213929574485e-03
5.53085365853659e-01 6.56609359409541e-01 4.39842452541872e-03
5.61402439024390e-01 6.51103419892222e-01 4.39421585059137e-03
5.69719512195122e-01 6.45643649934322e-01 4.38952930036502e-03
5.78036585365854e-01 6.40229662394614e-01 4.38438036602934e-03
5.86353658536585e-01 6.34861073368620e-01 4.37878402861747e-03
5.94670731707317e-01 6.29537502171037e-01 4.37275477569981e-03
6.02987804878049e-01 6.24258571308785e-01 4.36630662441477e-03
6.11304878048781e-01 6.19023906454231e-01 4.35945314306396e-03
6.19621951219512e-01 6.13833136410477e-01 4.35220746493005e-03
6.27939024390244e-01 6.08685893109787e-01 4.34458230941647e-03
6.36256097560976e-01 6.03581811562458e-01 4.33659000224775e-03
6.44573170731707e-01 5.98520529839355e-01 4.32824248623799e-03
6.52890243902439e-01 5.93501689046292e-01 4.31955133808142e-03
6.61207317073171e-01 5.88524933298564e-01 4.31052778415206e-03
6.69524390243902e-01 5.83589909688535e-01 4.30118270947892e-03
6.77841463414634e-01 5.78696268282363e-01 4.29152667367778e-03
6.86158536585366e-01 5.73843662073197e-01 4.28156992626829e-03
6.94475609756098e-01 5.69031746963963e-01 4.27132241358981e-03
7.02792682926829e-01 5.64260181743007e-01 4.26079379283458e-03
7.11109756097561e-01 5.59528628053389e-01 4.24999343831427e-03
7.19426829268293e-01 5.54836750388557e-01 4.23893045433845e-03
7.27743902439024e-01 5.50184216048682e-01 4.22761368765275e-03
7.36060975609756e-01 5.45570695123756e-01 4.21605173217700e-03
7.44378048780488e-01 5.40995860470193e-01 4.20425293916108e-03
7.52695121951220e-01 5.36459387687660e-01 4.19222542677962e-03
7.61012195121951e-01 5.31960955090291e-01 4.17997708415728e-03
7.69329268292683e-01 5.27500243701341e-01 4.16751558157629e-03
7.77646341463415e-01 5.23076937212923e-01 4.15484838038228e-03
7.85963414634146e-01 5.18690721969523e-01 4.14198273591288e-03
7.94280487804878e-01 5.14341286945752e-01 4.12892570548798e-03
8.02597560975610e-01 5.10028323724306e-01 4.11568415596903e-03
8.10914634146341e-01 5.05751526468956e-01 4.10226476626691e-03
8.19231707317073e-01 5.01510591918415e-01 4.08867403561084e-03
8.27548780487805e-01 4.97305219349121e-01 4.07491829160732e-03
8.35865853658537e-01 4.93135110559198e-01 4.06100369193688e-03
8.44182926829268e-01 4.88999969847316e-01 4.04693623076792e-03
8.52500000000000e-01 4.84899503991731e-01 4.03272174483139e-03
8.60817073170732e-01 4.80833422224886e-01 4.01836591488355e-03
8.69134146341463e-01 4.76801436226720e-01 4.00387427253041e-03
8.77451219512195e-01 4.72803260090162e-01 3.98925220690391e-03
8.85768292682927e-01 4.68838610305582e-01 3.97450496551084e-03
8.94085365853659e-01 4.64907205740702e-01 3.95963765947232e-03
9.02402439024390e-01 4.61008767620655e-01 3.94465526848734e-03
9.10719512195122e-01 4.57143019504090e-01 3.92956264156880e-03
9.19036585365854e-01 4.53309687276069e-01 3.91436450276684e-03
9.27353658536585e-01 4.49508499116012e-01 3.89906545678556e-03
9.35670731707317e-01 4.45739185482659e-01 3.88366998924368e-03
9.43987804878049e-01 4.42001479094967e-01 3.86818247101931e-03
9.52304878048781e-01 4.38295114913161e-01 3.85260716236612e-03
9.60621951219512e-01 4.34619830116213e-01 3.83694821314058e-03
9.68939024390244e-01 4.30975364094471e-01 3.82120966766769e-03
9.77256097560976e-01 4.27361458419806e-01 3.80539546952886e-03
9.85573170731707e-01 4.23777856831112e-01 3.78950946141359e-03
9.93890243902439e-01 4.20224305216145e-01 3.77355538876944e-03
1.00220731707317e+00 4.16700551593496e-01 3.75753689979321e-03
1.01052439024390e+00 4.13206346104766e-01 3.74145756179754e-03
1.01884146341463e+00 4.09741440943308e-01 3.72532083761702e-03
1.02715853658537e+00 4.06305590447200e-01 3.70913010006069e-03
1.03547560975610e+00 4.02898550980657e-01 3.69288866274199e-03
1.04379268292683e+00 3.99520080919553e-01 3.67659973060047e-03
1.05210975609756e+00 3.96169940729449e-01 3.66026642789830e-03
1.06042682926829e+00 3.92847892852302e-01 3.64389182516131e-03
1.06874390243902e+00 3.89553701692209e-01 3.62747889135720e-03
1.07706097560976e+00 3.86287133689408e-01 3.61103052075057e-03
1.08537804878049e+00 3.83047957211986e-01 3.59454955880093e-03
1.09369512195122e+00 3.79835942541834e-01 3.57803875593589e-03
1.10201219512195e+00 3.76650861944875e-01 3.56150079332788e-03
1.11032926829268e+00 3.73492489567488e-01 3.54493830038088e-03
1.11864634146341e+00 3.70360601449943e-01 3.52835383979557e-03
1.12696341463415e+00 3.67254975483828e-01 3.51174989515323e-03
1.13528048780488e+00 3.64175391477151e-01 3.49512888733121e-03
1.14359756097561e+00 3.61121631057052e-01 3.47849319803080e-03
1.15191463414634e+00 3.58093477656369e-01 3.46184512729671e-03
1.16023170731707e+00 3.55090716575443e-01 3.44518691692067e-03
1.16854878048780e+00 3.52113134888914e-01 3.42852077306347e-03
1.17686585365854e+00 3.49160521432603e-01 3.41184882517988e-03
1.18518292682927e+00 3.46232666862207e-01 3.39517314855612e-03
1.19350000000000e+00 3.43329363563977e-01 3.37849578607159e-03
1.20181707317073e+00 3.40450405641898e-01 3.36181870848226e-03
1.21013414634146e+00 3.37595588973459e-01 3.34514383612616e-03
1.21845121951220e+00 3.34764711124027e-01 3.32847305987475e-03
1.22676829268293e+00 3.31957571334297e-01 3.31180820272760e-03
1.23508536585366e+00 3.29173970573314e-01 3.29515104071081e-03
1.24340243902439e+00 3.26413711456374e-01 3.27850332307031e-03
1.25171951219512e+00 3.23676598232708e-01 3.26186673513071e-03
1.26003658536585e+00 3.20962436835930e-01 3.24524291841580e-03
1.26835365853659e+00 3.18271034805290e-01 3.22863349012375e-03
1.27667073170732e+00 3.15602201273588e-01 3.21204000720444e-03
1.28498780487805e+00 3.12955747015190e-01 3.19546398573808e-03
1.29330487804878e+00 3.10331484370464e-01 3.17890691400725e-03
1.30162195121951e+00 3.07729227253386e-01 3.16237024066471e-03
1.30993902439024e+00 3.05148791119265e-01 3.14585536477391e-03
1.31825609756098e+00 3.02589993009441e-01 3.12936364811309e-03
1.32657317073171e+00 3.00052651479967e-01 3.11289643298993e-03
1.33489024390244e+00 2.97536586590125e-01 3.09645500915334e-03
1.34320731707317e+00 2.95041619944983e-01 3.08004063153118e-03
1.35152439024390e+00 2.92567574626869e-01 3.06365453740658e-03
1.35984146341463e+00 2.90114275184170e-01 3.04729791440290e-03
1.36815853658537e+00 2.87681547671854e-01 3.03097191760855e-03
1.37647560975610e+00 2.85269219585613e-01 3.01467768614281e-03
1.38479268292683e+00 2.82877119850934e-01 2.99841631217841e-03
1.39310975609756e+00 2.80505078861689e-01 2.98218885746908e-03
1.40142682926829e+00 2.78152928416857e-01 2.96599636934265e-03
1.40974390243902e+00 2.75820501709809e-01 2.94983985072555e-03
1.41806097560976e+00 2.73507633365100e-01 2.93372027608636e-03
1.42637804878049e+00 2.71214159377644e-01 2.91763860688793e-03
1.43469512195122e+00 2.68939917102214e-01 2.90159576257646e-03
1.44301219512195e+00 2.66684745288529e-01 2.88559263596622e-03
1.45132926829268e+00 2.64448484022765e-01 2.86963010357360e-03
1.45964634146341e+00 2.62230974732047e-01 2.85370901596942e-03
1.46796341463415e+00 2.60032060158694e-01 2.83783018959954e-03
1.47628048780488e+00 2.57851584392981e-01 2.82199441652491e-03
1.48459756097561e+00 2.55689392817772e-01 2.80620247862563e-03
1.49291463414634e+00 2.53545332098551e-01 2.79045512082586e-03
1.50123170731707e+00 2.51419250214669e-01 2.77475306522628e-03
1.50954878048780e+00 2.49310996406049e-01 2.75909702482111e-03
1.51786585365854e+00 2.47220421163459e-01 2.74348767757534e-03
1.52618292682927e+00 2.45147376258323e-01 2.72792568008796e-03
1.53450000000000e+00 2.43091714691404e-01 2.71241168084118e-03
1.54281707317073e+00 2.41053290683318e-01 2.69694629510216e-03
1.55113414634146e+00 2.39031959702974e-01 2.68153011813155e-03
1.55945121951220e+00 2.37027578418163e-01 2.66616373798740e-03
1.56776829268293e+00 2.35040004686292e-01 2.65084771122333e-03
1.57608536585366e+00 2.33069097581526e-01 2.63558257565274e-03
1.58440243902439e+00 2.31114717347213e-01 2.62036886273171e-03
1.59271951219512e+00 2.29176725386811e-01 2.60520707402572e-03
1.60103658536585e+00 2.27254984289818e-01 2.59009769354298e-03
1.60935365853659e+00 2.25349357785942e-01 2.57504119971482e-03
1.61767073170732e+00 2.23459710736226e-01 2.56003804260410e-03
1.62598780487805e+00 2.21585909157816e-01 2.54508865582395e-03
1.63430487804878e+00 2.19727820179808e-01 2.53019346452912e-03
1.64262195121951e+00 2.17885312045477e-01 2.51535287777765e-03
1.65093902439024e+00 2.16058254092213e-01 2.50056728201462e-03
1.65925609756098e+00 2.14246516774702e-01 2.48583704861215e-03
1.66757317073171e+00 2.12449971623003e-01 2.47116254491429e-03
1.67589024390244e+00 2.10668491234155e-01 2.45654411315891e-03
1.68420731707317e+00 2.08901949294312e-01 2.44198208147068e-03
1.69252439024390e+00 2.07150220538331e-01 2.42747677454130e-03
1.70084146341463e+00 2.05413180741572e-01 2.41302849320939e-03
1.70915853658537e+00 2.03690706741059e-01 2.39863752510105e-03
1.71747560975610e+00 2.01982676396493e-01 2.38430415495856e-03
1.72579268292683e+00 2.00288968582269e-01 2.37002864485744e-03
1.73410975609756e+00 1.98609463207678e-01 2.35581124450254e-03
1.74242682926829e+00 1.96944041179326e-01 2.34165220122399e-03
1.75074390243902e+00 1.95292584393317e-01 2.32755174081024e-03
1.75906097560976e+00 1.93654975754582e-01 2.31351007746607e-03
1.76737804878049e+00 1.92031099140618e-01 2.29952742349232e-03
1.77569512195122e+00 1.90420839393859e-01 2.28560397071349e-03
1.78401219512195e+00 1.88824082340148e-01 2.27173990011022e-03
1.79232926829268e+00 1.87240714753767e-01 2.25793538826301e-03
1.80064634146341e+00 1.85670624358446e-01 2.24419060110083e-03
1.80896341463415e+00 1.84113699811061e-01 2.23050568854515e-03
1.81728048780488e+00 1.82569830718961e-01 2.21688079059370e-03
1.82559756097561e+00 1.81038907606706e-01 2.20331604626962e-03
1.83391463414634e+00 1.79520821908833e-01 2.18981157641828e-03
1.84223170731707e+00 1.78015465986426e-01 2.17636749260786e-03
1.85054878048780e+00 1.76522733095003e-01 2.16298390578974e-03
1.85886585365854e+00 1.75042517377468e-01 2.14966090962440e-03
1.86718292682927e+00 1.73574713879949e-01 2.13639858910297e-03
1.87550000000000e+00 1.72119218520799e-01 2.12319702892972e-03
1.88381707317073e+00 1.70675928083717e-01 2.11005629735963e-03
1.89213414634146e+00 1.69244740232902e-01 2.09697645454890e-03
1.90045121951220e+00 1.67825553483115e-01 2.08395756067168e-03
1.90876829268293e+00 1.66418267192970e-01 2.07099966025308e-03
1.91708536585366e+00 1.65022781579426e-01 2.05810279025391e-03
1.92540243902439e+00 1.63638997688889e-01 2.04526698793431e-03
1.93371951219512e+00 1.62266817390645e-01 2.03249227566623e-03
1.94203658536585e+00 1.60906143390741e-01 2.01977866875967e-03
1.95035365853659e+00 1.59556879204070e-01 2.00712618308304e-03
1.95867073170732e+00 1.58218929147957e-01 1.99453482033873e-03
1.96698780487805e+00 1.56892198355448e-01 1.98200457564046e-03
1.97530487804878e+00 1.55576592748343e-01 1.96953544257877e-03
1.98362195121951e+00 1.54272019037330e-01 1.95712740824355e-03
1.99193902439024e+00 1.52978384709072e-01 1.94478044894362e-03
2.00025609756098e+00 1.51695598038683e-01 1.93249453499132e-03
2.00857317073171e+00 1.50423568064033e-01 1.92026963775894e-03
2.01689024390244e+00 1.49162204579687e-01 1.90810571601929e-03
2.02520731707317e+00 1.47911418148843e-01 1.89600272296460e-03
2.03352439024390e+00 1.46671120078502e-01 1.88396061304057e-03
2.04184146341463e+00 1.45441222413553e-01 1.87197932870025e-03
2.05015853658537e+00 1.44221637948204e-01 1.86005880720768e-03
2.05847560975610e+00 1.43012280201979e-01 1.84819898725780e-03
2.06679268292683e+00 1.41813063413953e-01 1.83639979613079e-03
2.07510975609756e+00 1.40623902553691e-01 1.82466115628527e-03
2.08342682926829e+00 1.39444713298051e-01 1.81298299177362e-03
2.09174390243902e+00 1.38275412025553e-01 1.80136521578445e-03
2.10006097560976e+00 1.37115915826855e-01 1.78980773702938e-03
2.10837804878049e+00 1.35966142482333e-01 1.77831046596323e-03
2.11669512195122e+00 1.34826010456578e-01 1.76687330270148e-03
2.12501219512195e+00 1.33695438908434e-01 1.75549614320727e-03
2.13332926829268e+00 1.32574347669317e-01 1.74417888342082e-03
2.14164634146341e+00 1.31462657242894e-01 1.73292141516445e-03
2.14996341463415e+00 1.30360288794471e-01 1.72172362261144e-03
2.15828048780488e+00 1.29267164160432e-01 1.71058538618811e-03
2.16659756097561e+00 1.28183205827546e-01 1.69950658834477e-03
2.17491463414634e+00 1.27108336927778e-01 1.68848710233428e-03
2.18323170731707e+00 1.26042481247314e-01 1.67752679794880e-03
2.19154878048781e+00 1.24985563206561e-01 1.66662554711198e-03
2.19986585365854e+00 1.23937507855076e-01 1.65578321299302e-03
2.20818292682927e+00 1.22898240880214e-01 1.64499965557027e-03
2.21650000000000e+00 1.21867688587782e-01 1.63427473705040e-03
2.22481707317073e+00 1.20845777897089e-01 1.62360831130804e-03
2.23313414634146e+00 1.19832436349238e-01 1.61300022928038e-03
2.24145121951220e+00 1.18827592088400e-01 1.60245034422089e-03
2.24976829268293e+00 1.17831173856996e-01 1.59195850145389e-03
2.25808536585366e+00 1.16843111003629e-01 1.58152454360407e-03
2.26640243902439e+00 1.15863333464980e-01 1.57114831569177e-03
2.27471951219512e+00 1.14891771761096e-01 1.56082965519244e-03
2.28303658536585e+00 1.13928357002997e-01 1.55056839710541e-03
2.29135365853659e+00 1.12973020875157e-01 1.54036437889664e-03
2.29967073170732e+00 1.12025695630904e-01 1.53021743085376e-03
2.30798780487805e+00 1.11086314099708e-01 1.52012738099880e-03
2.31630487804878e+00 1.10154809670237e-01 1.51009405836647e-03
2.32462195121951e+00 1.09231116289720e-01 1.50011728972609e-03
2.33293902439024e+00 1.08315168455461e-01 1.49019689674727e-03
2.34125609756098e+00 1.07406901221699e-01 1.48033269909842e-03
2.34957317073171e+00 1.06506250183407e-01 1.47052451903687e-03
2.35789024390244e+00 1.05613151471951e-01 1.46077217244102e-03
2.36620731707317e+00 1.04727541761660e-01 1.45107547337393e-03
2.37452439024390e+00 1.03849358254148e-01 1.44143423853353e-03
2.38284146341463e+00 1.02978538674076e-01 1.43184827854951e-03
2.39115853658537e+00 1.02115021275453e-01 1.42231740241131e-03
2.39947560975610e+00 1.01258744826451e-01 1.41284142178301e-03
2.40779268292683e+00 1.00409648605280e-01 1.40342014255723e-03
2.41610975609756e+00 9.95676724062216e-02 1.39405336915007e-03
2.42442682926829e+00 9.87327565249314e-02 1.38474090868681e-03
2.43274390243902e+00 9.79048417544111e-02 1.37548256280520e-03
2.44106097560976e+00 9.70838693907917e-02 1.36627813181973e-03
2.44937804878049e+00 9.62697812191078e-02 1.35712741878347e-03
2.45769512195122e+00 9.54625195093631e-02 1.34803022153259e-03
2.46601219512195e+00 9.46620270220758e-02 1.33898633672436e-03
2.47432926829268e+00 9.38682469945051e-02 1.32999556252857e-03
2.48264634146341e+00 9.30811231398903e-02 1.32105769591861e-03
2.49096341463415e+00 9.23005996404218e-02 1.31217253032447e-03
2.49928048780488e+00 9.15266211524625e-02 1.30333985817755e-03
2.50759756097561e+00 9.07591327933739e-02 1.29455947468779e-03
2.51591463414634e+00 8.99980801377998e-02 1.28583117044009e-03
2.52423170731707e+00 8.92434092226700e-02 1.27715473514771e-03
2.53254878048780e+00 8.84950665344415e-02 1.26852996131598e-03
2.54086585365854e+00 8.77529990054740e-02 1.25995663705517e-03
2.54918292682927e+00 8.70171540188265e-02 1.25143454972360e-03
2.55750000000000e+00 8.62874793958977e-02 1.24296348948108e-03
2.56581707317073e+00 8.55639233928930e-02 1.23454324231199e-03
2.57413414634146e+00 8.48464347054207e-02 1.22617359356090e-03
2.58245121951220e+00 8.41349624565210e-02 1.21785433137992e-03
2.59076829268293e+00 8.34294561932185e-02 1.20958523995574e-03
2.59908536585366e+00 8.27298658909293e-02 1.20136610293958e-03
2.60740243902439e+00 8.20361419418649e-02 1.19319670679346e-03
2.61571951219512e+00 8.13482351516673e-02 1.18507683421463e-03
2.62403658536585e+00 8.06660967436355e-02 1.17700626746271e-03
