Energy (eV)          EEDF (eV^-(3/2))     First Anisotropy
7.05681818181818e-04 1.47483174267201e+01 7.72613123579052e-03
2.11704545454545e-03 1.46329668973519e+01 1.27510130297359e-02
3.52840909090909e-03 1.45185185558062e+01 1.68141804378415e-02
4.93977272727273e-03 1.44049653452142e+01 1.98897021692077e-02
6.35113636363636e-03 1.42923002645411e+01 2.24453920398553e-02
7.76250000000000e-03 1.41805163676688e+01 2.46583701301786e-02
9.17386363636364e-03 1.40696067624606e+01 2.66204171022581e-02
1.05852272727273e-02 1.39595646109544e+01 2.83870278429545e-02
1.19965909090909e-02 1.38503831283789e+01 2.99950541981506e-02
1.34079545454545e-02 1.37420555836001e+01 3.14705750945463e-02
1.48193181818182e-02 1.36345752970378e+01 3.28329195827824e-02
1.62306818181818e-02 1.35279356427532e+01 3.40969285129986e-02
1.76420454545455e-02 1.34221300458637e+01 3.52743189059383e-02
1.90534090909091e-02 1.33171519824776e+01 3.63745528051340e-02
2.04647727272727e-02 1.32129949807381e+01 3.74054157424444e-02
2.18761363636364e-02 1.31096526188642e+01 3.83734156996392e-02
2.32875000000000e-02 1.30071185249442e+01 3.92840663441264e-02
2.46988636363636e-02 1.29053863776898e+01 4.01420937374801e-02
2.61102272727273e-02 1.28044499045012e+01 4.09515901869953e-02
2.75215909090909e-02 1.27043028825536e+01 4.17161310389307e-02
2.89329545454545e-02 1.26049391373163e+01 4.24388649729881e-02
3.03443181818182e-02 1.25063525422780e+01 4.31225844852218e-02
3.17556818181818e-02 1.24085370194325e+01 4.37697820577315e-02
3.31670454545455e-02 1.23114865380010e+01 4.43826952795736e-02
3.45784090909091e-02 1.22151951141424e+01 4.49633432712341e-02
3.59897727272727e-02 1.21196568113115e+01 4.55135567457617e-02
3.74011363636364e-02 1.20248657391360e+01 4.60350028733115e-02
3.88125000000000e-02 1.19308160531116e+01 4.65292058224170e-02
4.02238636363636e-02 1.18375019548711e+01 4.69975642197524e-02
4.16352272727273e-02 1.17449176909852e+01 4.74413658217995e-02
4.30465909090909e-02 1.16530575534230e+01 4.78617999985673e-02
4.44579545454545e-02 1.15619158785910e+01 4.82599685245126e-02
4.58693181818182e-02 1.14714870470248e+01 4.86368946774355e-02
4.72806818181818e-02 1.13817654835614e+01 4.89935312800273e-02
4.86920454545455e-02 1.12927456564608e+01 4.93307676936022e-02
5.01034090909091e-02 1.12044220771005e+01 4.96494357672090e-02
5.15147727272727e-02 1.11167893000952e+01 4.99503152120285e-02
5.29261363636364e-02 1.10298419224900e+01 5.02341383353502e-02
5.43375000000000e-02 1.09435745834541e+01 5.05015940762124e-02
5.57488636363636e-02 1.08579819643622e+01 5.07533317469086e-02
5.71602272727273e-02 1.07730587879172e+01 5.09899642869440e-02
5.85715909090909e-02 1.06887998183605e+01 5.12120711649014e-02
5.99829545454545e-02 1.06051998607483e+01 5.14202010578034e-02
6.13943181818182e-02 1.05222537606532e+01 5.16148741052123e-02
6.28056818181818e-02 1.04399564041995e+01 5.17965840733535e-02
6.42170454545455e-02 1.03583027173859e+01 5.19658003098500e-02
6.56284090909091e-02 1.02772876657925e+01 5.21229693846390e-02
6.70397727272727e-02 1.01969062545900e+01 5.22685167050749e-02
6.84511363636364e-02 1.01171535279048e+01 5.24028479851923e-02
6.98625000000000e-02 1.00380245685286e+01 5.25263504635313e-02
7.12738636363636e-02 9.95951449790883e+00 5.26393941471562e-02
7.26852272727273e-02 9.88161847545658e+00 5.27423328874121e-02
7.40965909090909e-02 9.80433169863105e+00 5.28355053632608e-02
7.55079545454545e-02 9.72764940235702e+00 5.29192360502252e-02
7.69193181818182e-02 9.65156685874396e+00 5.29938359867235e-02
7.83306818181818e-02 9.57607937705247e+00 5.30596035907756e-02
7.97420454545455e-02 9.50118230314195e+00 5.31168254142412e-02
8.11534090909091e-02 9.42687101919573e+00 5.31657767338768e-02
8.25647727272727e-02 9.35314094367351e+00 5.32067222033649e-02
8.39761363636364e-02 9.27998753078707e+00 5.32399164581903e-02
8.53875000000000e-02 9.20740627023013e+00 5.32656045764505e-02
8.67988636363636e-02 9.13539268711988e+00 5.32840226173839e-02
8.82102272727273e-02 9.06394234142830e+00 5.32953980703648e-02
8.96215909090909e-02 8.99305082799578e+00 5.32999502710912e-02
9.10329545454545e-02 8.92271377604438e+00 5.32978908449942e-02
9.24443181818182e-02 8.85292684891684e+00 5.32894240167185e-02
9.38556818181818e-02 8.78368574400568e+00 5.32747469923851e-02
9.52670454545455e-02 8.71498619228798e+00 5.32540503177591e-02
9.66784090909091e-02 8.64682395807034e+00 5.32275181245845e-02
9.80897727272727e-02 8.57919483891014e+00 5.31953284501344e-02
9.95011363636364e-02 8.51209466517084e+00 5.31576535190599e-02
1.00912500000000e-01 8.44551929988422e+00 5.31146600331317e-02
1.02323863636364e-01 8.37946463810355e+00 5.30665092382281e-02
1.03735227272727e-01 8.31392660781740e+00 5.30133574055659e-02
1.05146590909091e-01 8.24890116777066e+00 5.29553559679307e-02
1.06557954545455e-01 8.18438430886349e+00 5.28926514006671e-02
1.07969318181818e-01 8.12037205386444e+00 5.28253859534232e-02
1.09380681818182e-01 8.05686045562188e+00 5.27536975633770e-02
1.10792045454545e-01 7.99384559836964e+00 5.26777197634697e-02
1.12203409090909e-01 7.93132359745148e+00 5.25975823638202e-02
1.13614772727273e-01 7.86929059762575e+00 5.25134113486835e-02
1.15026136363636e-01 7.80774277428887e+00 5.24253287698934e-02
1.16437500000000e-01 7.74667633320536e+00 5.23334533844040e-02
1.17848863636364e-01 7.68608750890233e+00 5.22379004612159e-02
1.19260227272727e-01 7.62597256624916e+00 5.21387819749711e-02
1.20671590909091e-01 7.56632779845855e+00 5.20362068166785e-02
1.22082954545455e-01 7.50714952817137e+00 5.19302805906618e-02
1.23494318181818e-01 7.44843410720009e+00 5.18211061855485e-02
1.24905681818182e-01 7.39017791506818e+00 5.17087836482215e-02
1.26317045454545e-01 7.33237736002735e+00 5.15934100567587e-02
1.27728409090909e-01 7.27502887881023e+00 5.14750800598236e-02
1.29139772727273e-01 7.21812893523988e+00 5.13538857459051e-02
1.30551136363636e-01 7.16167402118708e+00 5.12299165121050e-02
1.31962500000000e-01 7.10566065632799e+00 5.11032595750681e-02
1.33373863636364e-01 7.05008538682178e+00 5.09739997699588e-02
1.34785227272727e-01 6.99494478656248e+00 5.08422196847334e-02
1.36196590909091e-01 6.94023545553506e+00 5.07079998106314e-02
1.37607954545455e-01 6.88595402067081e+00 5.05714183380685e-02
1.39019318181818e-01 6.83209713561637e+00 5.04325516222938e-02
1.40430681818182e-01 6.77866147952168e+00 5.02914740488400e-02
1.41842045454545e-01 6.72564375784502e+00 5.01482578994950e-02
1.43253409090909e-01 6.67304070212967e+00 5.00029737959242e-02
1.44664772727273e-01 6.62084906884632e+00 4.98556905650327e-02
1.46076136363636e-01 6.56906564015299e+00 4.97064751050478e-02
1.47487500000000e-01 6.51768722367636e+00 4.95553928088439e-02
1.48898863636364e-01 6.46671065140714e+00 4.94025073715731e-02
1.50310227272727e-01 6.41613278070592e+00 4.92478808901723e-02
1.51721590909091e-01 6.36595049293288e+00 4.90915739774897e-02
1.53132954545455e-01 6.31616069413077e+00 4.89336455696594e-02
1.54544318181818e-01 6.26676031481603e+00 4.87741533161570e-02
1.55955681818182e-01 6.21774630896055e+00 4.86131534490173e-02
1.57367045454545e-01 6.16911565463631e+00 4.84507006531369e-02
1.58778409090909e-01 6.12086535381299e+00 4.82868484398477e-02
1.60189772727273e-01 6.07299243138289e+00 4.81216490179208e-02
1.61601136363636e-01 6.02549393577101e+00 4.79551531656995e-02
1.63012500000000e-01 5.97836693873691e+00 4.77874105892662e-02
1.64423863636364e-01 5.93160853444178e+00 4.76184697446111e-02
1.65835227272727e-01 5.88521584026549e+00 4.74483779149248e-02
1.67246590909091e-01 5.83918599565181e+00 4.72771813008628e-02
1.68657954545455e-01 5.79351616265942e+00 4.71049248436139e-02
1.70069318181818e-01 5.74820352577233e+00 4.69316525573141e-02
1.71480681818182e-01 5.70324529103586e+00 4.67574074068357e-02
1.72892045454545e-01 5.65863868657777e+00 4.65822311868151e-02
1.74303409090909e-01 5.61438096242437e+00 4.64061648411367e-02
1.75714772727273e-01 5.57046938967134e+00 4.62292483431999e-02
1.77126136363636e-01 5.52690126097793e+00 4.60515205774381e-02
1.78537500000000e-01 5.48367389038695e+00 4.58730196465982e-02
1.79948863636364e-01 5.44078461252972e+00 4.56937827099699e-02
1.81360227272727e-01 5.39823078329557e+00 4.55138460454983e-02
1.82771590909091e-01 5.35600977885025e+00 4.53332451233135e-02
1.84182954545455e-01 5.31411899608382e+00 4.51520144453119e-02
1.85594318181818e-01 5.27255585243836e+00 4.49701878317932e-02
1.87005681818182e-01 5.23131778516877e+00 4.47877983093981e-02
1.88417045454545e-01 5.19040225176726e+00 4.46048780002984e-02
1.89828409090909e-01 5.14980672979592e+00 4.44214583983573e-02
1.91239772727273e-01 5.10952871617614e+00 4.42375702597227e-02
1.92651136363636e-01 5.06956572759177e+00 4.40532434946578e-02
1.94062500000000e-01 5.02991530032534e+00 4.38685074337480e-02
1.95473863636364e-01 4.99057498957544e+00 4.36833906819335e-02
1.96885227272727e-01 4.95154237000928e+00 4.34979211696456e-02
1.98296590909091e-01 4.91281503492216e+00 4.33121262139873e-02
1.99707954545455e-01 4.87439059660398e+00 4.31260323742429e-02
2.01119318181818e-01 4.83626668618231e+00 4.29396657011093e-02
2.02530681818182e-01 4.79844095298572e+00 4.27530516349560e-02
2.03942045454545e-01 4.76091106489163e+00 4.25662149052757e-02
2.05353409090909e-01 4.72367470817372e+00 4.23791797712248e-02
2.06764772727273e-01 4.68672958688896e+00 4.21919699224985e-02
2.08176136363636e-01 4.65007342320848e+00 4.20046083813585e-02
2.09587500000000e-01 4.61370395726827e+00 4.18171177348879e-02
2.10998863636364e-01 4.57761894657942e+00 4.16295200038083e-02
2.12410227272727e-01 4.54181616648705e+00 4.14418366853576e-02
2.13821590909091e-01 4.50629340944594e+00 4.12540888050044e-02
2.15232954545455e-01 4.47104848532214e+00 4.10662967866948e-02
2.16644318181818e-01 4.43607922124986e+00 4.08784806709373e-02
2.18055681818182e-01 4.40138346107987e+00 4.06906600229223e-02
2.19467045454545e-01 4.36695906566606e+00 4.05028538417249e-02
2.20878409090909e-01 4.33280391272618e+00 4.03150807710670e-02
2.22289772727273e-01 4.29891589631018e+00 4.01273590098935e-02
2.23701136363636e-01 4.26529292707298e+00 3.99397062239974e-02
2.25112500000000e-01 4.23193293213831e+00 3.97521397497716e-02
2.26523863636364e-01 4.19883385458647e+00 3.95646764765490e-02
2.27935227272727e-01 4.16599365383732e+00 3.93773328830225e-02
2.29346590909091e-01 4.13341030502289e+00 3.91901250814706e-02
2.30757954545455e-01 4.10108179923654e+00 3.90030687014380e-02
2.32169318181818e-01 4.06900614340234e+00 3.88161790814633e-02
2.33580681818182e-01 4.03718135979491e+00 3.86294711863397e-02
2.34992045454545e-01 4.00560548627636e+00 3.84429595253650e-02
2.36403409090909e-01 3.97427657616917e+00 3.82566583378319e-02
2.37814772727273e-01 3.94319269779280e+00 3.80705815125438e-02
2.39226136363636e-01 3.91235193468951e+00 3.78847425082937e-02
2.40637500000000e-01 3.88175238549999e+00 3.76991545333645e-02
2.42048863636364e-01 3.85139216351650e+00 3.75138304400596e-02
2.43460227272727e-01 3.82126939700382e+00 3.73287827559866e-02
2.44871590909091e-01 3.79138222865337e+00 3.71440237222135e-02
2.46282954545455e-01 3.76172881578980e+00 3.69595651890254e-02
2.47694318181818e-01 3.73230733025168e+00 3.67754187851475e-02
2.49105681818182e-01 3.70311595797168e+00 3.65915958433403e-02
2.50517045454545e-01 3.67415289917324e+00 3.64081073268846e-02
2.51928409090909e-01 3.64541636825436e+00 3.62249639934334e-02
2.53339772727273e-01 3.61690459338213e+00 3.60421763226633e-02
2.54751136363636e-01 3.58861581668021e+00 3.58597544447850e-02
2.56162500000000e-01 3.56054829411523e+00 3.56777082992244e-02
2.57573863636364e-01 3.53270029510534e+00 3.54960475401078e-02
2.58985227272727e-01 3.50507010279024e+00 3.53147815633325e-02
2.60396590909091e-01 3.47765601355426e+00 3.51339195397182e-02
2.61807954545455e-01 3.45045633719819e+00 3.49534703215906e-02
2.63219318181818e-01 3.42346939683020e+00 3.47734425926077e-02
2.64630681818182e-01 3.39669352849748e+00 3.45938448008871e-02
2.66042045454545e-01 3.37012708134987e+00 3.44146850929413e-02
2.67453409090909e-01 3.34376841753358e+00 3.42359714588426e-02
2.68864772727273e-01 3.31761591183517e+00 3.40577116672129e-02
2.70276136363636e-01 3.29166795183753e+00 3.38799132009901e-02
2.71687500000000e-01 3.26592293781615e+00 3.37025833980983e-02
2.73098863636364e-01 3.24037928239492e+00 3.35257293667250e-02
2.74510227272727e-01 3.21503541077409e+00 3.33493580088975e-02
2.75921590909091e-01 3.18988976031218e+00 3.31734760494507e-02
2.77332954545455e-01 3.16494078066914e+00 3.29980899522814e-02
2.78744318181818e-01 3.14018693370666e+00 3.28232060533379e-02
2.80155681818182e-01 3.11562669316386e+00 3.26488305005384e-02
2.81567045454545e-01 3.09125854479375e+00 3.24749691943983e-02
2.82978409090909e-01 3.06708098626600e+00 3.23016279169637e-02
2.84389772727273e-01 3.04309252685328e+00 3.21288122733990e-02
2.85801136363636e-01 3.01929168756144e+00 3.19565276342663e-02
2.87212500000000e-01 2.99567700103453e+00 3.17847792605356e-02
2.88623863636364e-01 2.97224701125146e+00 3.16135722275973e-02
2.90035227272727e-01 2.94900027371876e+00 3.14429114459040e-02
2.91446590909091e-01 2.92593535510305e+00 3.12728016863929e-02
2.92857954545455e-01 2.90305083335053e+00 3.11032475053713e-02
2.94269318181818e-01 2.88034529759574e+00 3.09342533628259e-02
2.95680681818182e-01 2.85781734787532e+00 3.07658235684259e-02
2.97092045454545e-01 2.83546559524191e+00 3.05979622281633e-02
2.98503409090909e-01 2.81328866167523e+00 3.04306733591100e-02
2.99914772727273e-01 2.79128517980498e+00 3.02639608369202e-02
3.01326136363636e-01 2.76945379301956e+00 3.00978283439500e-02
3.02737500000000e-01 2.74779315537922e+00 2.99322794805797e-02
3.04148863636364e-01 2.72630193134789e+00 2.97673176970226e-02
3.05560227272727e-01 2.70497879595661e+00 2.96029463114642e-02
3.06971590909091e-01 2.68382243447953e+00 2.94391685324656e-02
3.08382954545455e-01 2.66283154253376e+00 2.92759873915433e-02
3.09794318181818e-01 2.64200482599590e+00 2.91134058486192e-02
3.11205681818182e-01 2.62134100074869e+00 2.89514267434791e-02
3.12617045454545e-01 2.60083879277622e+00 2.87900527477950e-02
3.14028409090909e-01 2.58049693808256e+00 2.86292864674539e-02
3.15439772727273e-01 2.56031418244639e+00 2.84691303953594e-02
3.16851136363636e-01 2.54028928151186e+00 2.83095868647828e-02
3.18262500000000e-01 2.52042100070916e+00 2.81506581486695e-02
3.19673863636364e-01 2.50070811501682e+00 2.79923463984012e-02
3.21085227272727e-01 2.48114940910069e+00 2.78346536597981e-02
3.22496590909091e-01 2.46174367702742e+00 2.76775818929185e-02
3.23907954545455e-01 2.44248972234811e+00 2.75211329115065e-02
3.25319318181818e-01 2.42338635802188e+00 2.73653084771330e-02
3.26730681818182e-01 2.40443240619110e+00 2.72101102555416e-02
3.28142045454545e-01 2.38562669826105e+00 2.70555397734934e-02
3.29553409090909e-01 2.36696807482549e+00 2.69015985101513e-02
3.30964772727273e-01 2.34845538544878e+00 2.67482878546312e-02
3.32376136363636e-01 2.33008748874201e+00 2.65956090640381e-02
3.33787500000000e-01 2.31186325229022e+00 2.64435633521868e-02
3.35198863636364e-01 2.29378155244132e+00 2.62921518345761e-02
3.36610227272727e-01 2.27584127442441e+00 2.61413755425447e-02
3.38021590909091e-01 2.25804131209596e+00 2.59912354408132e-02
3.39432954545455e-01 2.24038056800982e+00 2.58417323730647e-02
3.40844318181818e-01 2.22285795334727e+00 2.56928671461170e-02
3.42255681818182e-01 2.20547238771720e+00 2.55446404906363e-02
3.43667045454545e-01 2.18822279922279e+00 2.53970530222986e-02
3.45078409090909e-01 2.17110812439338e+00 2.52501053235267e-02
3.46489772727273e-01 2.15412730799066e+00 2.51037979052857e-02
3.47901136363636e-01 2.13727930307242e+00 2.49581311693101e-02
3.49312500000000e-01 2.12056307092589e+00 2.48131054874812e-02
3.50723863636364e-01 2.10397758088000e+00 2.46687211523517e-02
3.52135227272727e-01 2.08752181040609e+00 2.45249783896927e-02
3.53546590909091e-01 2.07119474489278e+00 2.43818773740763e-02
3.54957954545455e-01 2.05499537770448e+00 2.42394181799314e-02
3.56369318181818e-01 2.03892271011736e+00 2.40976008568989e-02
3.57780681818182e-01 2.02297575114141e+00 2.39564253944605e-02
3.59192045454545e-01 2.00715351757625e+00 2.38158916869679e-02
3.60603409090909e-01 1.99145503394871e+00 2.36759996068378e-02
3.62014772727273e-01 1.97587933234016e+00 2.35367489701469e-02
3.63426136363636e-01 1.96042545243992e+00 2.33981395026235e-02
3.64837500000000e-01 1.94509244148415e+00 2.32601709107457e-02
3.66248863636364e-01 1.92987935408850e+00 2.31228428372214e-02
3.67660227272727e-01 1.91478525233415e+00 2.29861548721438e-02
3.69071590909091e-01 1.89980920556749e+00 2.28501065668526e-02
3.70482954545455e-01 1.88495029044918e+00 2.27146973898879e-02
3.71894318181818e-01 1.87020759089548e+00 2.25799267945319e-02
3.73305681818182e-01 1.85558019791951e+00 2.24457941869404e-02
3.74717045454545e-01 1.84106720967793e+00 2.23122988946397e-02
3.76128409090909e-01 1.82666773141380e+00 2.21794402321463e-02
3.77539772727273e-01 1.81238087530247e+00 2.20472174699709e-02
3.78951136363636e-01 1.79820576049624e+00 2.19156298039744e-02
3.80362500000000e-01 1.78414151306842e+00 2.17846764191266e-02
3.81773863636364e-01 1.77018726586394e+00 2.16543564494191e-02
3.83185227272727e-01 1.75634215857278e+00 2.15246689877958e-02
3.84596590909091e-01 1.74260533755162e+00 2.13956130985106e-02
3.86007954545455e-01 1.72897595586484e+00 2.12671877774623e-02
3.87419318181818e-01 1.71545317323079e+00 2.11393920127922e-02
3.88830681818182e-01 1.70203615587995e+00 2.10122247561614e-02
3.90242045454545e-01 1.68872407659396e+00 2.08856848943536e-02
3.91653409090909e-01 1.67551611465330e+00 2.07597713081631e-02
3.93064772727273e-01 1.66241145569952e+00 2.06344828444550e-02
3.94476136363636e-01 1.64940929177255e+00 2.05098182885380e-02
3.95887500000000e-01 1.63650882125955e+00 2.03857764213966e-02
3.97298863636364e-01 1.62370924876122e+00 2.02623559835765e-02
3.98710227272727e-01 1.61100978515466e+00 2.01395556840384e-02
4.00121590909091e-01 1.59840964743425e+00 2.00173742111876e-02
4.01532954545455e-01 1.58590805874590e+00 1.98958101971349e-02
4.02944318181818e-01 1.57350424833783e+00 1.97748622721170e-02
4.04355681818182e-01 1.56119745143365e+00 1.96545290385937e-02
4.05767045454545e-01 1.54898690926501e+00 1.95348090456350e-02
4.07178409090909e-01 1.53687186902358e+00 1.94157008418215e-02
4.08589772727273e-01 1.52485158373779e+00 1.92972029500405e-02
4.10001136363636e-01 1.51292531230400e+00 1.91793138425693e-02
4.11412500000000e-01 1.50109231943959e+00 1.90620319924962e-02
4.12823863636364e-01 1.48935187556328e+00 1.89453558411595e-02
4.14235227272727e-01 1.47770325684895e+00 1.88292838060585e-02
4.15646590909091e-01 1.46614574508341e+00 1.87138142907105e-02
4.17057954545455e-01 1.45467862769505e+00 1.85989456524278e-02
4.18469318181818e-01 1.44330119770873e+00 1.84846762512311e-02
4.19880681818182e-01 1.43201275363206e+00 1.83710044264800e-02
4.21292045454545e-01 1.42081259948263e+00 1.82579284737629e-02
4.22703409090909e-01 1.40970004474400e+00 1.81454466924517e-02
4.24114772727273e-01 1.39867440425527e+00 1.80335573629609e-02
4.25526136363636e-01 1.38773499823703e+00 1.79222587242603e-02
4.26937500000000e-01 1.37688115224840e+00 1.78115490201097e-02
4.28348863636364e-01 1.36611219707972e+00 1.77014264696934e-02
4.29760227272727e-01 1.35542746879863e+00 1.75918892746905e-02
4.31171590909091e-01 1.34482630862288e+00 1.74829356280992e-02
4.32582954545455e-01 1.33430806294415e+00 1.73745636851646e-02
4.33994318181818e-01 1.32387208328672e+00 1.72667716073791e-02
4.35405681818182e-01 1.31351772620549e+00 1.71595575413874e-02
4.36817045454545e-01 1.30324435330863e+00 1.70529195981225e-02
4.38228409090909e-01 1.29305133121725e+00 1.69468558955896e-02
4.39639772727273e-01 1.28293803146633e+00 1.68413645383364e-02
4.41051136363636e-01 1.27290383052629e+00 1.67364435971491e-02
4.42462500000000e-01 1.26294810976360e+00 1.66320911506570e-02
4.43873863636364e-01 1.25307025534456e+00 1.65283052588329e-02
4.45285227272727e-01 1.24326965827463e+00 1.64250839693197e-02
