Energy (eV)          EEDF (eV^-(3/2))     First Anisotropy
7.39090909090909e-04 9.85353185769262e+00 4.71134701624716e-03
2.21727272727273e-03 9.79182970997946e+00 7.78157494874437e-03
3.69545454545455e-03 9.73051393695519e+00 1.02773354471791e-02
5.17363636363636e-03 9.66958211930142e+00 1.21762938710433e-02
6.65181818181818e-03 9.60903185253258e+00 1.37624593667870e-02
8.13000000000000e-03 9.54886074740995e+00 1.51431154999913e-02
9.60818181818182e-03 9.48906642965169e+00 1.63737342176011e-02
1.10863636363636e-02 9.42964653998443e+00 1.74877854767874e-02
1.25645454545455e-02 9.37059873369144e+00 1.85074488667154e-02
1.40427272727273e-02 9.31192068041344e+00 1.94483875361098e-02
1.55209090909091e-02 9.25361006520832e+00 2.03221866699345e-02
1.69990909090909e-02 9.19566458718608e+00 2.11377231612524e-02
1.84772727272727e-02 9.13808195986288e+00 2.19019910139943e-02
1.99554545454545e-02 9.08085991108450e+00 2.26206268444621e-02
2.14336363636364e-02 9.02399618268297e+00 2.32982591989617e-02
2.29118181818182e-02 8.96748853114062e+00 2.39387493669879e-02
2.43900000000000e-02 8.91133472672096e+00 2.45453623725657e-02
2.58681818181818e-02 8.85553255364974e+00 2.51208913995475e-02
2.73463636363636e-02 8.80007981002932e+00 2.56677504752492e-02
2.88245454545455e-02 8.74497430775265e+00 2.61880447767200e-02
3.03027272727273e-02 8.69021387225203e+00 2.66836247925030e-02
3.17809090909091e-02 8.63579634291376e+00 2.71561287960836e-02
3.32590909090909e-02 8.58171957247928e+00 2.76070165394068e-02
3.47372727272727e-02 8.52798142713485e+00 2.80375962128326e-02
3.62154545454546e-02 8.47457978643082e+00 2.84490463918734e-02
3.76936363636364e-02 8.42151254306876e+00 2.88424339410743e-02
3.91718181818182e-02 8.36877760320755e+00 2.92187288776200e-02
4.06500000000000e-02 8.31637288598302e+00 2.95788167580869e-02
4.21281818181818e-02 8.26429632356090e+00 2.99235090025781e-02
4.36063636363636e-02 8.21254586105592e+00 3.02535516746016e-02
4.50845454545455e-02 8.16111945645108e+00 3.05696329477422e-02
4.65627272727273e-02 8.11001508041815e+00 3.08723894430707e-02
4.80409090909091e-02 8.05923071653772e+00 3.11624117409897e-02
4.95190909090909e-02 8.00876436091403e+00 3.14402491499311e-02
5.09972727272727e-02 7.95861402219896e+00 3.17064137863791e-02
5.24754545454546e-02 7.90877772151502e+00 3.19613841957622e-02
5.39536363636364e-02 7.85925349229392e+00 3.22056084685192e-02
5.54318181818182e-02 7.81003938045024e+00 3.24395070367279e-02
5.69100000000000e-02 7.76113344404895e+00 3.26634751464325e-02
5.83881818181818e-02 7.71253375331513e+00 3.28778849918428e-02
5.98663636363636e-02 7.66423839055810e+00 3.30830876575054e-02
6.13445454545455e-02 7.61624545009596e+00 3.32794148505336e-02
6.28227272727273e-02 7.56855303811225e+00 3.34671804099392e-02
6.43009090909091e-02 7.52115927278765e+00 3.36466817104391e-02
6.57790909090909e-02 7.47406228401631e+00 3.38182009275097e-02
6.72572727272727e-02 7.42726021340250e+00 3.39820061275334e-02
6.87354545454546e-02 7.38075121418815e+00 3.41383523031115e-02
7.02136363636364e-02 7.33453345112051e+00 3.42874822644977e-02
7.16918181818182e-02 7.28860510055892e+00 3.44296274950573e-02
7.31700000000000e-02 7.24296435022133e+00 3.45650089318009e-02
7.46481818181818e-02 7.19760939917395e+00 3.46938376304987e-02
7.61263636363636e-02 7.15253845776036e+00 3.48163154105446e-02
7.76045454545455e-02 7.10774974753105e+00 3.49326354452609e-02
7.90827272727273e-02 7.06324150112283e+00 3.50429827696407e-02
8.05609090909091e-02 7.01901196234158e+00 3.51475347886165e-02
8.20390909090909e-02 6.97505938593861e+00 3.52464617464017e-02
8.35172727272727e-02 6.93138203759363e+00 3.53399271165702e-02
8.49954545454546e-02 6.88797819384683e+00 3.54280880039834e-02
8.64736363636364e-02 6.84484614198602e+00 3.55110954768876e-02
8.79518181818182e-02 6.80198418011434e+00 3.55890949132223e-02
8.94300000000000e-02 6.75939061694623e+00 3.56622263230756e-02
9.09081818181818e-02 6.71706377178676e+00 3.57306246084899e-02
9.23863636363636e-02 6.67500197446544e+00 3.57944198364140e-02
9.38645454545455e-02 6.63320356527038e+00 3.58537374925972e-02
9.53427272727273e-02 6.59166689484387e+00 3.59086986894554e-02
9.68209090909091e-02 6.55039032423507e+00 3.59594203956910e-02
9.82990909090909e-02 6.50937222471625e+00 3.60060156519121e-02
9.97772727272727e-02 6.46861097775857e+00 3.60485937638497e-02
1.01255454545455e-01 6.42810497482409e+00 3.60872603468020e-02
1.02733636363636e-01 6.38785261801908e+00 3.61221177260775e-02
1.04211818181818e-01 6.34785231867483e+00 3.61532650107279e-02
1.05690000000000e-01 6.30810249842721e+00 3.61807980422202e-02
1.07168181818182e-01 6.26860158879497e+00 3.62048097560676e-02
1.08646363636364e-01 6.22934803111853e+00 3.62253902400933e-02
1.10124545454545e-01 6.19034027649906e+00 3.62426267929659e-02
1.11602727272727e-01 6.15157678604788e+00 3.62566042300626e-02
1.13080909090909e-01 6.11305602988541e+00 3.62674048635416e-02
1.14559090909091e-01 6.07477648802817e+00 3.62751084758735e-02
1.16037272727273e-01 6.03673665000958e+00 3.62797926107015e-02
1.17515454545455e-01 5.99893501482252e+00 3.62815325398801e-02
1.18993636363636e-01 5.96137009114111e+00 3.62804015295372e-02
1.20471818181818e-01 5.92404039640942e+00 3.62764708021562e-02
1.21950000000000e-01 5.88694445764162e+00 3.62698094937853e-02
1.23428181818182e-01 5.85008081107509e+00 3.62604849101439e-02
1.24906363636364e-01 5.81344800211319e+00 3.62485625356492e-02
1.26384545454545e-01 5.77704458526822e+00 3.62341060452671e-02
1.27862727272727e-01 5.74086912435713e+00 3.62171775345520e-02
1.29340909090909e-01 5.70492019168008e+00 3.61978374685687e-02
1.30819090909091e-01 5.66919636873424e+00 3.61761446272099e-02
1.32297272727273e-01 5.63369624589857e+00 3.61521563292413e-02
1.33775454545455e-01 5.59841842237970e+00 3.61259283759755e-02
1.35253636363636e-01 5.56336150638732e+00 3.60975152580173e-02
1.36731818181818e-01 5.52852411438018e+00 3.60669700979745e-02
1.38210000000000e-01 5.49390487171541e+00 3.60343445902933e-02
1.39688181818182e-01 5.45950241235770e+00 3.59996892040979e-02
1.41166363636364e-01 5.42531537882572e+00 3.59630531712381e-02
1.42644545454545e-01 5.39134242213891e+00 3.59244844778211e-02
1.44122727272727e-01 5.35758220197324e+00 3.58840300485253e-02
1.45600909090909e-01 5.32403338597602e+00 3.58417356851798e-02
1.47079090909091e-01 5.29069465034995e+00 3.57976460030510e-02
1.48557272727273e-01 5.25756467958664e+00 3.57518046129881e-02
1.50035454545455e-01 5.22464216641588e+00 3.57042540579764e-02
1.51513636363636e-01 5.19192581194612e+00 3.56550359821463e-02
1.52991818181818e-01 5.15941432503144e+00 3.56041910679578e-02
1.54470000000000e-01 5.12710642280621e+00 3.55517589714358e-02
1.55948181818182e-01 5.09500083043776e+00 3.54977784899361e-02
1.57426363636364e-01 5.06309628107633e+00 3.54422875412296e-02
1.58904545454545e-01 5.03139151580527e+00 3.53853231460584e-02
1.60382727272727e-01 4.99988528376664e+00 3.53269215816865e-02
1.61860909090909e-01 4.96857634158204e+00 3.52671183187807e-02
1.63339090909091e-01 4.93746345383676e+00 3.52059479566220e-02
1.64817272727273e-01 4.90654539285176e+00 3.51434443762343e-02
1.66295454545455e-01 4.87582093863601e+00 3.50796406766610e-02
1.67773636363636e-01 4.84528887900026e+00 3.50145693175414e-02
1.69251818181818e-01 4.81494800901926e+00 3.49482620566544e-02
1.70730000000000e-01 4.78479713147722e+00 3.48807498859921e-02
1.72208181818182e-01 4.75483505665508e+00 3.48120631743440e-02
1.73686363636364e-01 4.72506060228366e+00 3.47422316429253e-02
1.75164545454545e-01 4.69547259349727e+00 3.46712843442732e-02
1.76642727272727e-01 4.66606986293570e+00 3.45992497933856e-02
1.78120909090909e-01 4.63685125024962e+00 3.45261559065897e-02
1.79599090909091e-01 4.60781560250620e+00 3.44520299391138e-02
1.81077272727273e-01 4.57896177399180e+00 3.43768986166310e-02
1.82555454545455e-01 4.55028862616751e+00 3.43007880741756e-02
1.84033636363636e-01 4.52179502776186e+00 3.42237239789357e-02
1.85511818181818e-01 4.49347985430961e+00 3.41457314706617e-02
1.86990000000000e-01 4.46534198852650e+00 3.40668351008825e-02
1.88468181818182e-01 4.43738032012451e+00 3.39870589562939e-02
1.89946363636364e-01 4.40959374576814e+00 3.39064266335983e-02
1.91424545454545e-01 4.38198116903101e+00 3.38249612173181e-02
1.92902727272727e-01 4.35454150047942e+00 3.37426853936603e-02
1.94380909090909e-01 4.32727365724626e+00 3.36596213929362e-02
1.95859090909091e-01 4.30017656337368e+00 3.35757909308937e-02
1.97337272727273e-01 4.27324914964114e+00 3.34912153233800e-02
1.98815454545455e-01 4.24649035352374e+00 3.34059154291008e-02
2.00293636363636e-01 4.21989911926832e+00 3.33199117568558e-02
2.01771818181818e-01 4.19347439749477e+00 3.32332244098142e-02
2.03250000000000e-01 4.16721514551382e+00 3.31458730287858e-02
2.04728181818182e-01 4.14112032716531e+00 3.30578769003302e-02
2.06206363636364e-01 4.11518891277745e+00 3.29692549321080e-02
2.07684545454545e-01 4.08941987912627e+00 3.28800256309136e-02
2.09162727272727e-01 4.06381220950434e+00 3.27902072026880e-02
2.10640909090909e-01 4.03836489335115e+00 3.26998174990376e-02
2.12119090909091e-01 4.01307692654470e+00 3.26088739628167e-02
2.13597272727273e-01 3.98794731125050e+00 3.25173937291116e-02
2.15075454545455e-01 3.96297505588263e+00 3.24253935722274e-02
2.16553636363636e-01 3.93815917516650e+00 3.23328900002539e-02
2.18031818181818e-01 3.91349868979190e+00 3.22398992035163e-02
2.19510000000000e-01 3.88899262668424e+00 3.21464370021510e-02
2.20988181818182e-01 3.86464001886214e+00 3.20525189416730e-02
2.22466363636364e-01 3.84043990539939e+00 3.19581602694672e-02
2.23944545454545e-01 3.81639133138713e+00 3.18633759136889e-02
2.25422727272727e-01 3.79249334799055e+00 3.17681805718463e-02
2.26900909090909e-01 3.76874501212633e+00 3.16725886615041e-02
2.28379090909091e-01 3.74514538671221e+00 3.15766142701619e-02
2.29857272727273e-01 3.72169354053371e+00 3.14802712448584e-02
2.31335454545455e-01 3.69838854820772e+00 3.13835731433833e-02
2.32813636363636e-01 3.67522949023437e+00 3.12865333182859e-02
2.34291818181818e-01 3.65221545269350e+00 3.11891648694648e-02
2.35770000000000e-01 3.62934552747743e+00 3.10914805959782e-02
2.37248181818182e-01 3.60661881216487e+00 3.09934930810783e-02
2.38726363636364e-01 3.58403440998544e+00 3.08952146701314e-02
2.40204545454545e-01 3.56159142978435e+00 3.07966574506963e-02
2.41682727272727e-01 3.53928898606939e+00 3.06978333314704e-02
2.43160909090909e-01 3.51712619872785e+00 3.05987539970391e-02
2.44639090909091e-01 3.49510219324138e+00 3.04994308618865e-02
2.46117272727273e-01 3.47321610056766e+00 3.03998751503672e-02
2.47595454545455e-01 3.45146705710635e+00 3.03000978519543e-02
2.49073636363636e-01 3.42985420474221e+00 3.02001097962823e-02
2.50551818181818e-01 3.40837669057809e+00 3.00999216096848e-02
2.52030000000000e-01 3.38703366713571e+00 2.99995436710221e-02
2.53508181818182e-01 3.36582429224358e+00 2.98989861877302e-02
2.54986363636364e-01 3.34474772900382e+00 2.97982591752738e-02
2.56464545454546e-01 3.32380314575919e+00 2.96973724385224e-02
2.57942727272727e-01 3.30298971613214e+00 2.95963356424420e-02
2.59420909090909e-01 3.28230661877528e+00 2.94951582706590e-02
2.60899090909091e-01 3.26175303755709e+00 2.93938495833455e-02
2.62377272727273e-01 3.24132816145651e+00 2.92924186889107e-02
2.63855454545455e-01 3.22103118453112e+00 2.91908745030376e-02
2.65333636363636e-01 3.20086130595293e+00 2.90892258159993e-02
2.66811818181818e-01 3.18081772977265e+00 2.89874812528837e-02
2.68290000000000e-01 3.16089966509353e+00 2.88856492331644e-02
2.69768181818182e-01 3.14110632597129e+00 2.87837380389935e-02
2.71246363636364e-01 3.12143693138319e+00 2.86817557961779e-02
2.72724545454545e-01 3.10189070519726e+00 2.85797104568792e-02
2.74202727272727e-01 3.08246687620469e+00 2.84776098631574e-02
2.75680909090909e-01 3.06316467789908e+00 2.83754617090660e-02
2.77159090909091e-01 3.04398334863760e+00 2.82732735021363e-02
2.78637272727273e-01 3.02492213154666e+00 2.81710526278680e-02
2.80115454545455e-01 3.00598027449227e+00 2.80688063122657e-02
2.81593636363636e-01 2.98715703010972e+00 2.79665416824366e-02
2.83071818181818e-01 2.96845165559468e+00 2.78642657302134e-02
2.84550000000000e-01 2.94986341285427e+00 2.77619852751916e-02
2.86028181818182e-01 2.93139156841748e+00 2.76597070262443e-02
2.87506363636364e-01 2.91303539340623e+00 2.75574375639637e-02
2.88984545454545e-01 2.89479416350667e+00 2.74551833246694e-02
2.90462727272727e-01 2.87666715899612e+00 2.73529506576989e-02
2.91940909090909e-01 2.85865366454705e+00 2.72507457907460e-02
2.93419090909091e-01 2.84075296936737e+00 2.71485747946492e-02
2.94897272727273e-01 2.82296436711588e+00 2.70464436415754e-02
2.96375454545455e-01 2.80528715587449e+00 2.69443581707699e-02
2.97853636363636e-01 2.78772063817295e+00 2.68423241432655e-02
2.99331818181818e-01 2.77026412080304e+00 2.67403472086223e-02
3.00810000000000e-01 2.75291691495037e+00 2.66384328711262e-02
3.02288181818182e-01 2.73567833611380e+00 2.65365865453619e-02
3.03766363636364e-01 2.71854770407852e+00 2.64348135400454e-02
3.05244545454545e-01 2.70152434288919e+00 2.63331190432616e-02
3.06722727272727e-01 2.68460758087235e+00 2.62315081742563e-02
3.08200909090909e-01 2.66779675046183e+00 2.61299859517501e-02
3.09679090909091e-01 2.65109118832130e+00 2.60285572617426e-02
3.11157272727273e-01 2.63449023526813e+00 2.59272269101330e-02
3.12635454545455e-01 2.61799323624751e+00 2.58259995914110e-02
3.14113636363636e-01 2.60159954035297e+00 2.57248799381632e-02
3.15591818181818e-01 2.58530850066064e+00 2.56238724906564e-02
3.17070000000000e-01 2.56911947434454e+00 2.55229816659366e-02
3.18548181818182e-01 2.55303182260398e+00 2.54222118081419e-02
3.20026363636364e-01 2.53704491063840e+00 2.53215671736296e-02
3.21504545454545e-01 2.52115810762234e+00 2.52210519173772e-02
3.22982727272727e-01 2.50537078672406e+00 2.51206701399068e-02
3.24460909090909e-01 2.48968232494951e+00 2.50204258583050e-02
3.25939090909091e-01 2.47409210324974e+00 2.49203229767803e-02
3.27417272727273e-01 2.45859950645219e+00 2.48203653343600e-02
3.28895454545455e-01 2.44320392323652e+00 2.47205566762523e-02
3.30373636363636e-01 2.42790474615162e+00 2.46209006987390e-02
3.31851818181818e-01 2.41270137146742e+00 2.45214010213582e-02
3.33330000000000e-01 2.39759319927594e+00 2.44220611586400e-02
3.34808181818182e-01 2.38257963342577e+00 2.43228845657435e-02
3.36286363636364e-01 2.36766008149856e+00 2.42238746247898e-02
3.37764545454545e-01 2.35283395478566e+00 2.41250346323442e-02
3.39242727272727e-01 2.33810066830352e+00 2.40263678420073e-02
3.40720909090909e-01 2.32345964065405e+00 2.39278774379069e-02
3.42199090909091e-01 2.30891029411884e+00 2.38295665077665e-02
3.43677272727273e-01 2.29445205459710e+00 2.37314380862070e-02
3.45155454545455e-01 2.28008435158302e+00 2.36334951285446e-02
3.46633636363636e-01 2.26580661817992e+00 2.35357405515771e-02
3.48111818181818e-01 2.25161829096737e+00 2.34381772081245e-02
3.49590000000000e-01 2.23751881009000e+00 2.33408078611688e-02
3.51068181818182e-01 2.22350761919822e+00 2.32436352253232e-02
3.52546363636364e-01 2.20958416542625e+00 2.31466619542775e-02
3.54024545454545e-01 2.19574789937032e+00 2.30498906292823e-02
3.55502727272727e-01 2.18199827510143e+00 2.29533237978670e-02
3.56980909090909e-01 2.16833475003998e+00 2.28569639495850e-02
3.58459090909091e-01 2.15475678503872e+00 2.27608134913588e-02
3.59937272727273e-01 2.14126384432643e+00 2.26648747868622e-02
3.61415454545455e-01 2.12785539548692e+00 2.25691501325394e-02
3.62893636363636e-01 2.11453090947060e+00 2.24736417947053e-02
3.64371818181818e-01 2.10128986047514e+00 2.23783519862463e-02
3.65850000000000e-01 2.08813172602370e+00 2.22832828429415e-02
3.67328181818182e-01 2.07505598691113e+00 2.21884364611993e-02
3.68806363636364e-01 2.06206212718351e+00 2.20938148865276e-02
3.70284545454545e-01 2.04914963411782e+00 2.19994201029401e-02
3.71762727272727e-01 2.03631799823237e+00 2.19052540682116e-02
3.73240909090909e-01 2.02356671317410e+00 2.18113186916677e-02
3.74719090909091e-01 2.01089527579170e+00 2.17176158116022e-02
3.76197272727273e-01 1.99830318608452e+00 2.16241472311491e-02
3.77675454545455e-01 1.98578994718293e+00 2.15309146963200e-02
3.79153636363636e-01 1.97335506535780e+00 2.14379199297949e-02
3.80631818181818e-01 1.96099804991311e+00 2.13451646095913e-02
3.82110000000000e-01 1.94871841325499e+00 2.12526503473749e-02
3.83588181818182e-01 1.93651567084282e+00 2.11603787228409e-02
3.85066363636364e-01 1.92438934117013e+00 2.10683512731251e-02
3.86544545454546e-01 1.91233894574565e+00 2.09765694830634e-02
3.88022727272727e-01 1.90036400910183e+00 2.08850348173294e-02
3.89500909090909e-01 1.88846405869329e+00 2.07937487000830e-02
3.90979090909091e-01 1.87663862496142e+00 2.07027124942888e-02
3.92457272727273e-01 1.86488724128793e+00 2.06119275344190e-02
3.93935454545455e-01 1.85320944397647e+00 2.05213951063265e-02
3.95413636363636e-01 1.84160477226043e+00 2.04311164780742e-02
3.96891818181818e-01 1.83007276820605e+00 2.03410928803803e-02
3.98370000000000e-01 1.81861297677348e+00 2.02513254867416e-02
3.99848181818182e-01 1.80722494577225e+00 2.01618154448053e-02
4.01326363636364e-01 1.79590822584350e+00 2.00725638666345e-02
4.02804545454546e-01 1.78466237044221e+00 1.99835718197542e-02
4.04282727272727e-01 1.77348693584421e+00 1.98948403564758e-02
4.05760909090909e-01 1.76238148105449e+00 1.98063704952484e-02
4.07239090909091e-01 1.75134556786433e+00 1.97181632016999e-02
4.08717272727273e-01 1.74037876080901e+00 1.96302194184854e-02
4.10195454545455e-01 1.72948062715070e+00 1.95425400468413e-02
4.11673636363636e-01 1.71865073688472e+00 1.94551259747258e-02
4.13151818181818e-01 1.70788866265206e+00 1.93679780588954e-02
4.14630000000000e-01 1.69719397979342e+00 1.92810971066831e-02
4.16108181818182e-01 1.68656626630864e+00 1.91944839046429e-02
4.17586363636364e-01 1.67600510284014e+00 1.91081392096064e-02
4.19064545454546e-01 1.66551007265631e+00 1.90220637404476e-02
4.20542727272727e-01 1.65508076165715e+00 1.89362582048718e-02
4.22020909090909e-01 1.64471675829140e+00 1.88507232823133e-02
4.23499090909091e-01 1.63441765360718e+00 1.87654596065466e-02
4.24977272727273e-01 1.62418304121341e+00 1.86804677929610e-02
4.26455454545455e-01 1.61401251726382e+00 1.85957484216412e-02
4.27933636363636e-01 1.60390568046199e+00 1.85113020630848e-02
4.29411818181818e-01 1.59386213198222e+00 1.84271292617614e-02
4.30890000000000e-01 1.58388147551741e+00 1.83432305193978e-02
4.32368181818182e-01 1.57396331724209e+00 1.82596063211584e-02
4.33846363636364e-01 1.56410726579691e+00 1.81762571274277e-02
4.35324545454546e-01 1.55431293227318e+00 1.80931833662346e-02
4.36802727272727e-01 1.54457993021735e+00 1.80103854577467e-02
4.38280909090909e-01 1.53490787555602e+00 1.79278637985769e-02
4.39759090909091e-01 1.52529638664081e+00 1.78456187458322e-02
4.41237272727273e-01 1.51574508421318e+00 1.77636506420512e-02
4.42715454545455e-01 1.50625359138949e+00 1.76819597996797e-02
4.44193636363636e-01 1.49682153366501e+00 1.76005465245960e-02
4.45671818181818e-01 1.48744853884221e+00 1.75194111010223e-02
4.47150000000000e-01 1.47813423707327e+00 1.74385537761828e-02
4.48628181818182e-01 1.46887826082633e+00 1.73579747842563e-02
4.50106363636364e-01 1.45968024487098e+00 1.72776743388207e-02
4.51584545454546e-01 1.45053982626389e+00 1.71976526258790e-02
4.53062727272727e-01 1.44145664435225e+00 1.71179098262784e-02
4.54540909090909e-01 1.43243034070584e+00 1.70384461013037e-02
4.56019090909091e-01 1.42346055915688e+00 1.69592615780344e-02
4.57497272727273e-01 1.41454694576790e+00 1.68803563721664e-02
4.58975454545455e-01 1.40568914881773e+00 1.68017305737590e-02
4.60453636363636e-01 1.39688681880468e+00 1.67233842687734e-02
4.61931818181818e-01 1.38813960838148e+00 1.66453175252164e-02
4.63410000000000e-01 1.37944717239305e+00 1.65675303790530e-02
4.64888181818182e-01 1.37080916784566e+00 1.64900228561403e-02
4.66366363636364e-01 1.36222525389335e+00 1.64127949652728e-02
