Energy (eV)          EEDF (eV^-(3/2))     First Anisotropy
9.54444444444445e-03 2.86387686333200e-01 1.59450256272635e-04
2.86333333333333e-02 2.84198949208556e-01 2.63176305622054e-04
4.77222222222222e-02 2.82026939654247e-01 3.47101118924993e-04
6.68111111111111e-02 2.79871529829165e-01 4.10664160761760e-04
8.59000000000000e-02 2.77732592868536e-01 4.63515147643972e-04
1.04988888888889e-01 2.75610002879611e-01 5.09306613998148e-04
1.24077777777778e-01 2.73503634931729e-01 5.49930767012472e-04
1.43166666666667e-01 2.71413365040039e-01 5.86531443038708e-04
1.62255555555556e-01 2.69339070174613e-01 6.19868032320682e-04
1.81344444444444e-01 2.67280628245614e-01 6.50477802649973e-04
2.00433333333333e-01 2.65237918096006e-01 6.78758869637052e-04
2.19522222222222e-01 2.63210819494874e-01 7.05016834743810e-04
2.38611111111111e-01 2.61199213130104e-01 7.29492915116618e-04
2.57700000000000e-01 2.59202980601386e-01 7.52381861199672e-04
2.76788888888889e-01 2.57222004420635e-01 7.73843881663194e-04
2.95877777777778e-01 2.55256167982426e-01 7.94012864108796e-04
3.14966666666667e-01 2.53305355580383e-01 8.13002215676474e-04
3.34055555555556e-01 2.51369452392401e-01 8.30909122724271e-04
3.53144444444444e-01 2.49448344473897e-01 8.47817721253348e-04
3.72233333333333e-01 2.47541918751056e-01 8.63801504153278e-04
3.91322222222222e-01 2.45650063014283e-01 8.78925179286779e-04
4.10411111111111e-01 2.43772665911541e-01 8.93246125025235e-04
4.29500000000000e-01 2.41909616941802e-01 9.06815545034117e-04
4.48588888888889e-01 2.40060806452710e-01 9.19679397713948e-04
4.67677777777778e-01 2.38226125621412e-01 9.31879148441578e-04
4.86766666666667e-01 2.36405466461095e-01 9.43452386006293e-04
5.05855555555556e-01 2.34598721810237e-01 9.54433334826565e-04
5.24944444444445e-01 2.32805785326303e-01 9.64853280158016e-04
5.44033333333333e-01 2.31026551479462e-01 9.74740925685603e-04
5.63122222222222e-01 2.29260915546422e-01 9.84122695960555e-04
5.82211111111111e-01 2.27508773604243e-01 9.93022993822679e-04
6.01300000000000e-01 2.25770022524219e-01 1.00146442039368e-03
6.20388888888889e-01 2.24044559968604e-01 1.00946796602663e-03
6.39477777777778e-01 2.22332284376093e-01 1.01705317367988e-03
6.58566666666667e-01 2.20633094964460e-01 1.02423828086083e-03
6.77655555555556e-01 2.18946891721709e-01 1.03104034555554e-03
6.96744444444444e-01 2.17273575400192e-01 1.03747535518302e-03
7.15833333333333e-01 2.15613047510758e-01 1.04355832290461e-03
7.34922222222222e-01 2.13965210316972e-01 1.04930337275885e-03
7.54011111111111e-01 2.12329966829359e-01 1.05472381518608e-03
7.73100000000000e-01 2.10707220799687e-01 1.05983221391554e-03
7.92188888888889e-01 2.09096876717344e-01 1.06464044698025e-03
8.11277777777778e-01 2.07498839797536e-01 1.06915975980091e-03
8.30366666666667e-01 2.05913015981964e-01 1.07340081279188e-03
8.49455555555556e-01 2.04339311931170e-01 1.07737372586236e-03
8.68544444444445e-01 2.02777635019052e-01 1.08108811733863e-03
8.87633333333333e-01 2.01227893327400e-01 1.08455313950388e-03
9.06722222222222e-01 1.99689995640500e-01 1.08777751084824e-03
9.25811111111111e-01 1.98163851439763e-01 1.09076954540026e-03
9.44900000000000e-01 1.96649370898391e-01 1.09353717917825e-03
9.63988888888889e-01 1.95146464877649e-01 1.09608799544410e-03
9.83077777777778e-01 1.93655044916901e-01 1.09842924648004e-03
1.00216666666667e+00 1.92175023233173e-01 1.10056787324365e-03
1.02125555555556e+00 1.90706312715788e-01 1.10251052608476e-03
1.04034444444444e+00 1.89248826915582e-01 1.10426358072842e-03
1.05943333333333e+00 1.87802480046940e-01 1.10583315369319e-03
1.07852222222222e+00 1.86367186979907e-01 1.10722511835983e-03
1.09761111111111e+00 1.84942863235136e-01 1.10844511807166e-03
1.11670000000000e+00 1.83529424978915e-01 1.10949857635541e-03
1.13578888888889e+00 1.82126789030530e-01 1.11039071584100e-03
1.15487777777778e+00 1.80734872820119e-01 1.11112656428856e-03
1.17396666666667e+00 1.79353594421431e-01 1.11171095980950e-03
1.19305555555556e+00 1.77982872534339e-01 1.11214856766093e-03
1.21214444444444e+00 1.76622626480056e-01 1.11244388655250e-03
1.23123333333333e+00 1.75272776196353e-01 1.11260125683030e-03
1.25032222222222e+00 1.73933242232914e-01 1.11262486813827e-03
1.26941111111111e+00 1.72603945746620e-01 1.11251876659939e-03
1.28850000000000e+00 1.71284808496918e-01 1.11228685944970e-03
1.30758888888889e+00 1.69975752851163e-01 1.11193292760853e-03
1.32667777777778e+00 1.68676701749915e-01 1.11146062738729e-03
1.34576666666667e+00 1.67387578732820e-01 1.11087349179916e-03
1.36485555555556e+00 1.66108307923875e-01 1.11017494219935e-03
1.38394444444444e+00 1.64838814026963e-01 1.10936829106185e-03
1.40303333333333e+00 1.63579022321400e-01 1.10845674661155e-03
1.42212222222222e+00 1.62328858657579e-01 1.10744341720284e-03
1.44121111111111e+00 1.61088249452586e-01 1.10633131546322e-03
1.46030000000000e+00 1.59857121685865e-01 1.10512336037537e-03
1.47938888888889e+00 1.58635402903130e-01 1.10382238647002e-03
1.49847777777778e+00 1.57423021187269e-01 1.10243114363899e-03
1.51756666666667e+00 1.56219905179160e-01 1.10095229672359e-03
1.53665555555556e+00 1.55025984065046e-01 1.09938843427631e-03
1.55574444444444e+00 1.53841187572365e-01 1.09774206965977e-03
1.57483333333333e+00 1.52665445965604e-01 1.09601564387022e-03
1.59392222222222e+00 1.51498690042223e-01 1.09421152822733e-03
1.61301111111111e+00 1.50340851128563e-01 1.09233202693865e-03
1.63210000000000e+00 1.49191861075809e-01 1.09037937792186e-03
1.65118888888889e+00 1.48051652262832e-01 1.08835575997470e-03
1.67027777777778e+00 1.46920157571471e-01 1.08626329172964e-03
1.68936666666667e+00 1.45797310403498e-01 1.08410403046819e-03
1.70845555555556e+00 1.44683044669662e-01 1.08187997908881e-03
1.72754444444444e+00 1.43577294785803e-01 1.07959308636082e-03
1.74663333333333e+00 1.42479995668981e-01 1.07724524874842e-03
1.76572222222222e+00 1.41391082733668e-01 1.07483831215921e-03
1.78481111111111e+00 1.40310491887932e-01 1.07237407362133e-03
1.80390000000000e+00 1.39238159529671e-01 1.06985428145254e-03
1.82298888888889e+00 1.38174022548651e-01 1.06728064109920e-03
1.84207777777778e+00 1.37118018305290e-01 1.06465481371536e-03
1.86116666666667e+00 1.36070084644617e-01 1.06197841464599e-03
1.88025555555556e+00 1.35030159886685e-01 1.05925301917654e-03
1.89934444444444e+00 1.33998182822938e-01 1.05648016234906e-03
1.91843333333333e+00 1.32974092712603e-01 1.05366134019635e-03
1.93752222222222e+00 1.31957829279129e-01 1.05079801093134e-03
1.95661111111111e+00 1.30949332706632e-01 1.04789159609361e-03
1.97570000000000e+00 1.29948543636376e-01 1.04494348037163e-03
1.99478888888889e+00 1.28955403168212e-01 1.04195501650005e-03
2.01387777777778e+00 1.27969852842190e-01 1.03892752370018e-03
2.03296666666667e+00 1.26991834650157e-01 1.03586228605055e-03
2.05205555555556e+00 1.26021291027294e-01 1.03276055735292e-03
2.07114444444444e+00 1.25058164848720e-01 1.02962356072119e-03
2.09023333333333e+00 1.24102399426129e-01 1.02645248944873e-03
2.10932222222222e+00 1.23153938504468e-01 1.02324850784785e-03
2.12841111111111e+00 1.22212726258613e-01 1.02001275206262e-03
2.14750000000000e+00 1.21278707290089e-01 1.01674632970752e-03
2.16658888888889e+00 1.20351826628045e-01 1.01345032405968e-03
2.18567777777778e+00 1.19432029713207e-01 1.01012579248168e-03
2.20476666666667e+00 1.18519262407578e-01 1.00677376478998e-03
2.22385555555556e+00 1.17613470986911e-01 1.00339524744661e-03
2.24294444444444e+00 1.16714602137552e-01 9.99991223035914e-04
2.26203333333333e+00 1.15822602953294e-01 9.96562650893251e-04
2.28112222222222e+00 1.14937420932273e-01 9.93110467715674e-04
2.30021111111111e+00 1.14059003973876e-01 9.89635588155793e-04
2.31930000000000e+00 1.13187300375671e-01 9.86138904367677e-04
2.33838888888889e+00 1.12322258834028e-01 9.82621289648539e-04
2.35747777777778e+00 1.11463828430028e-01 9.79083596905120e-04
2.37656666666667e+00 1.10611958637621e-01 9.75526657076299e-04
2.39565555555556e+00 1.09766599316905e-01 9.71951282790751e-04
2.41474444444444e+00 1.08927700711174e-01 9.68358267795150e-04
2.43383333333333e+00 1.08095213443989e-01 9.64748387421989e-04
2.45292222222222e+00 1.07269088516275e-01 9.61122399045437e-04
2.47201111111111e+00 1.06449277303437e-01 9.57481042525865e-04
2.49110000000000e+00 1.05635731552497e-01 9.53825039715181e-04
2.51018888888889e+00 1.04828403382436e-01 9.50155097654244e-04
2.52927777777778e+00 1.04027245271756e-01 9.46471907113567e-04
2.54836666666667e+00 1.03232210065376e-01 9.42776141097591e-04
2.56745555555556e+00 1.02443250968598e-01 9.39068458066612e-04
2.58654444444444e+00 1.01660321544357e-01 9.35349501353348e-04
2.60563333333333e+00 1.00883375710483e-01 9.31619899518529e-04
2.62472222222222e+00 1.00112367736993e-01 9.27880266698522e-04
2.64381111111111e+00 9.93472522434007e-02 9.24131202945241e-04
2.66290000000000e+00 9.85879841960423e-02 9.20373293720803e-04
2.68198888888889e+00 9.78345189082073e-02 9.16607112727652e-04
2.70107777777778e+00 9.70868120291066e-02 9.12833220537657e-04
2.72016666666667e+00 9.63448195497238e-02 9.09052163189856e-04
2.73925555555556e+00 9.56084977973843e-02 9.05264475049126e-04
2.75834444444444e+00 9.48778034331847e-02 9.01470678231958e-04
2.77743333333333e+00 9.41526934494386e-02 8.97671282881882e-04
2.79652222222222e+00 9.34331251671519e-02 8.93866787439255e-04
2.81561111111111e+00 9.27190562335071e-02 8.90057678905706e-04
2.83470000000000e+00 9.20104446193710e-02 8.86244432346063e-04
2.85378888888889e+00 9.13072486192591e-02 8.82427513408733e-04
2.87287777777778e+00 9.06094268415142e-02 8.78607377047570e-04
2.89196666666667e+00 8.99169382132890e-02 8.74784466217029e-04
2.91105555555556e+00 8.92297419756376e-02 8.70959214422725e-04
2.93014444444444e+00 8.85477976811172e-02 8.67132045167984e-04
2.94923333333333e+00 8.78710651914045e-02 8.63303372170548e-04
2.96832222222222e+00 8.71995046749385e-02 8.59473599575267e-04
2.98741111111111e+00 8.65330766045732e-02 8.55643122162936e-04
3.00650000000000e+00 8.58717417552515e-02 8.51812324869372e-04
3.02558888888889e+00 8.52154612038425e-02 8.47981585041167e-04
3.04467777777778e+00 8.45641963203675e-02 8.44151271249959e-04
3.06376666666667e+00 8.39179087722543e-02 8.40321742083372e-04
3.08285555555556e+00 8.32765605198897e-02 8.36493348430973e-04
3.10194444444444e+00 8.26401138143807e-02 8.32666432958033e-04
3.12103333333333e+00 8.20085311953303e-02 8.28841330278247e-04
3.14012222222222e+00 8.13817754886374e-02 8.25018367123578e-04
3.15921111111111e+00 8.07598098043062e-02 8.21197862511472e-04
3.17830000000000e+00 8.01425975342749e-02 8.17380127286540e-04
3.19738888888889e+00 7.95301023521564e-02 8.13565466147231e-04
3.21647777777778e+00 7.89222882053762e-02 8.09754176549591e-04
3.23556666666667e+00 7.83191193188131e-02 8.05946547590065e-04
3.25465555555556e+00 7.77205601907597e-02 8.02142862061630e-04
3.27374444444445e+00 7.71265755908325e-02 7.98343395957962e-04
3.29283333333333e+00 7.65371305578968e-02 7.94548418612668e-04
3.31192222222222e+00 7.59521903980123e-02 7.90758192836373e-04
3.33101111111111e+00 7.53717206823893e-02 7.86972975051949e-04
3.35010000000000e+00 7.47956872453626e-02 7.83193014861888e-04
3.36918888888889e+00 7.42240561840581e-02 7.79418556874888e-04
3.38827777777778e+00 7.36567938513297e-02 7.75649839694315e-04
3.40736666666667e+00 7.30938668588809e-02 7.71887094887948e-04
3.42645555555556e+00 7.25352420735875e-02 7.68130548842862e-04
3.44554444444444e+00 7.19808866155471e-02 7.64380422301026e-04
3.46463333333333e+00 7.14307678561428e-02 7.60636930472519e-04
3.48372222222222e+00 7.08848534161252e-02 7.56900283147413e-04
3.50281111111111e+00 7.03431111637057e-02 7.53170684806025e-04
3.52190000000000e+00 6.98055092126648e-02 7.49448334213021e-04
3.54098888888889e+00 6.92720159219654e-02 7.45733426068133e-04
3.56007777777778e+00 6.87425998893912e-02 7.42026150073863e-04
3.57916666666667e+00 6.82172299542276e-02 7.38326689986720e-04
3.59825555555556e+00 6.76958751939076e-02 7.34635225294518e-04
3.61734444444444e+00 6.71785049221921e-02 7.30951930783242e-04
3.63643333333333e+00 6.66650886873621e-02 7.27276976630058e-04
3.65552222222222e+00 6.61555962704293e-02 7.23610528495100e-04
3.67461111111111e+00 6.56499976833559e-02 7.19952747612396e-04
3.69370000000000e+00 6.51482631672894e-02 7.16303790410291e-04
3.71278888888889e+00 6.46503631921376e-02 7.12663810006716e-04
3.73187777777778e+00 6.41562684508259e-02 7.09032955350926e-04
3.75096666666667e+00 6.36659498616029e-02 7.05411370349908e-04
3.77005555555556e+00 6.31793785649764e-02 7.01799195388626e-04
3.78914444444445e+00 6.26965259220147e-02 6.98196566927192e-04
3.80823333333333e+00 6.22173635126601e-02 6.94603617577741e-04
3.82732222222222e+00 6.17418631340580e-02 6.91020476180374e-04
3.84641111111111e+00 6.12699967988957e-02 6.87447267878346e-04
3.86550000000000e+00 6.08017367337556e-02 6.83884113764603e-04
3.88458888888889e+00 6.03370553786631e-02 6.80331132238838e-04
3.90367777777778e+00 5.98759253818928e-02 6.76788438217339e-04
3.92276666666667e+00 5.94183196019536e-02 6.73256142329259e-04
3.94185555555556e+00 5.89642111047851e-02 6.69734352297138e-04
3.96094444444444e+00 5.85135731621720e-02 6.66223172562755e-04
3.98003333333333e+00 5.80663792501703e-02 6.62722704351093e-04
3.99912222222222e+00 5.76226030475479e-02 6.59233045733635e-04
4.01821111111111e+00 5.71822184342343e-02 6.55754291691011e-04
4.03730000000000e+00 5.67451994897835e-02 6.52286533784348e-04
4.05638888888889e+00 5.63115204929050e-02 6.48829861388791e-04
4.07547777777778e+00 5.58811559167589e-02 6.45384360966614e-04
4.09456666666667e+00 5.54540804306652e-02 6.41950115327827e-04
4.11365555555556e+00 5.50302688975351e-02 6.38527204885499e-04
4.13274444444444e+00 5.46096963723917e-02 6.35115707309084e-04
4.15183333333333e+00 5.41923381009009e-02 6.31715697577826e-04
4.17092222222222e+00 5.37781695179162e-02 6.28327248033743e-04
4.19001111111111e+00 5.33671662460315e-02 6.24950428434116e-04
4.20910000000000e+00 5.29593040941469e-02 6.21585305646407e-04
4.22818888888889e+00 5.25545590569904e-02 6.18231944771199e-04
4.24727777777778e+00 5.21529073108492e-02 6.14890408473432e-04
4.26636666666667e+00 5.17543252150414e-02 6.11560756302207e-04
4.28545555555556e+00 5.13587893095608e-02 6.08243045833875e-04
4.30454444444444e+00 5.09662763136957e-02 6.04937332351279e-04
4.32363333333333e+00 5.05767631246582e-02 6.01643668888483e-04
4.34272222222222e+00 5.01902268162256e-02 5.98362106275181e-04
4.36181111111111e+00 4.98066446373902e-02 5.95092693180958e-04
4.38090000000000e+00 4.94259940110206e-02 5.91835475832380e-04
4.39998888888889e+00 4.90482525333810e-02 5.88590499036664e-04
4.41907777777778e+00 4.86733979702510e-02 5.85357805566277e-04
4.43816666666667e+00 4.83014082581949e-02 5.82137435533135e-04
4.45725555555556e+00 4.79322615023982e-02 5.78929427430992e-04
4.47634444444444e+00 4.75659359753790e-02 5.75733817838544e-04
4.49543333333333e+00 4.72024101157085e-02 5.72550641457137e-04
4.51452222222222e+00 4.68416625267431e-02 5.69379931148264e-04
4.53361111111111e+00 4.64836719753644e-02 5.66221717970852e-04
4.55270000000000e+00 4.61284173907297e-02 5.63076030919251e-04
4.57178888888889e+00 4.57758778637934e-02 5.59942897857382e-04
4.59087777777778e+00 4.54260326437762e-02 5.56822344952386e-04
4.60996666666667e+00 4.50788611392585e-02 5.53714396098900e-04
4.62905555555556e+00 4.47343429161921e-02 5.50619073870488e-04
4.64814444444445e+00 4.43924576966972e-02 5.47536399245072e-04
4.66723333333333e+00 4.40531853578687e-02 5.44466391636861e-04
4.68632222222222e+00 4.37165059305925e-02 5.41409068928031e-04
4.70541111111111e+00 4.33823995983698e-02 5.38364447500276e-04
4.72450000000000e+00 4.30508466961507e-02 5.35332541992264e-04
4.74358888888889e+00 4.27218277098621e-02 5.32313366152946e-04
4.76267777777778e+00 4.23953232731901e-02 5.29306932320315e-04
4.78176666666667e+00 4.20713141685224e-02 5.26313250891546e-04
4.80085555555556e+00 4.17497813251181e-02 5.23332331192382e-04
4.81994444444445e+00 4.14307058179861e-02 5.20364181223264e-04
4.83903333333333e+00 4.11140688667702e-02 5.17408807686390e-04
4.85812222222222e+00 4.07998518346446e-02 5.14466216012621e-04
4.87721111111111e+00 4.04880362272169e-02 5.11536410388168e-04
4.89630000000000e+00 4.01786036914392e-02 5.08619393530115e-04
4.91538888888889e+00 3.98715360151452e-02 5.05715167466767e-04
4.93447777777778e+00 3.95668151241152e-02 5.02823733057714e-04
4.95356666666667e+00 3.92644230828866e-02 4.99945089506080e-04
4.97265555555556e+00 3.89643420930701e-02 4.97079235153641e-04
4.99174444444445e+00 3.86665544923017e-02 4.94226167246203e-04
5.01083333333333e+00 3.83710427532027e-02 4.91385881956544e-04
5.02992222222222e+00 3.80777894823490e-02 4.88558374407236e-04
5.04901111111111e+00 3.77867774192467e-02 4.85743638693393e-04
5.06810000000000e+00 3.74979894353166e-02 4.82941667674938e-04
5.08718888888889e+00 3.72114085334422e-02 4.80152453690671e-04
5.10627777777778e+00 3.69270178452896e-02 4.77375988116430e-04
5.12536666666667e+00 3.66448006320047e-02 4.74612260916018e-04
5.14445555555556e+00 3.63647402826613e-02 4.71861261368852e-04
5.16354444444444e+00 3.60868203132833e-02 4.69122977853207e-04
5.18263333333333e+00 3.58110243658741e-02 4.66397397865669e-04
5.20172222222222e+00 3.55373362074545e-02 4.63684508040595e-04
5.22081111111111e+00 3.52657397291069e-02 4.60984294169438e-04
5.23990000000000e+00 3.49962189450271e-02 4.58296741008617e-04
5.25898888888889e+00 3.47287579920862e-02 4.55621832933511e-04
5.27807777777778e+00 3.44633411273796e-02 4.52959553531398e-04
5.29716666666667e+00 3.41999527288272e-02 4.50309885187939e-04
5.31625555555556e+00 3.39385772937412e-02 4.47672809753642e-04
5.33534444444444e+00 3.36791994379146e-02 4.45048308343574e-04
5.35443333333333e+00 3.34218038947146e-02 4.42436361353955e-04
5.37352222222222e+00 3.31663755141850e-02 4.39836948478652e-04
5.39261111111111e+00 3.29128992621543e-02 4.37250048725662e-04
5.41170000000000e+00 3.26613602193503e-02 4.34675640239416e-04
5.43078888888889e+00 3.24117435809767e-02 4.32113700900128e-04
5.44987777777778e+00 3.21640346544708e-02 4.29564207948797e-04
5.46896666666667e+00 3.19182188600177e-02 4.27027137606179e-04
5.48805555555556e+00 3.16742817292297e-02 4.24502465683805e-04
5.50714444444445e+00 3.14322089042946e-02 4.21990167398811e-04
5.52623333333333e+00 3.11919861371306e-02 4.19490217387978e-04
5.54532222222222e+00 3.09535992885480e-02 4.17002589721918e-04
5.56441111111111e+00 3.07170343274168e-02 4.14527257919040e-04
5.58350000000000e+00 3.04822773298410e-02 4.12064194781243e-04
5.60258888888889e+00 3.02493144787492e-02 4.09613372943517e-04
5.62167777777778e+00 3.00181320618426e-02 4.07174764528382e-04
5.64076666666667e+00 2.97887164720343e-02 4.04748340794780e-04
5.65985555555556e+00 2.95610542062305e-02 4.02334072698429e-04
5.67894444444445e+00 2.93351318645359e-02 3.99931930720758e-04
5.69803333333333e+00 2.91109361494643e-02 3.97541884880877e-04
5.71712222222222e+00 2.88884538651568e-02 3.95163904747560e-04
5.73621111111111e+00 2.86676719166047e-02 3.92797959451237e-04
5.75530000000000e+00 2.84485773088786e-02 3.90444017531986e-04
5.77438888888889e+00 2.82311571467359e-02 3.88102047443850e-04
5.79347777777778e+00 2.80153986327388e-02 3.85772017236281e-04
5.81256666666667e+00 2.78012890676307e-02 3.83453894230543e-04
5.83165555555556e+00 2.75888158492099e-02 3.81147645533939e-04
5.85074444444445e+00 2.73779664715879e-02 3.78853237881673e-04
5.86983333333333e+00 2.71687285244529e-02 3.76570637647094e-04
5.88892222222222e+00 2.69610896923402e-02 3.74299810851847e-04
5.90801111111111e+00 2.67550377539067e-02 3.72040723176094e-04
5.92710000000000e+00 2.65505605812116e-02 3.69793339817905e-04
5.94618888888889e+00 2.63476461393400e-02 3.67557625956318e-04
5.96527777777778e+00 2.61462824846768e-02 3.65333546457622e-04
5.98436666666667e+00 2.59464577652275e-02 3.63121065576922e-04
6.00345555555556e+00 2.57481602195772e-02 3.60920147430339e-04
6.02254444444445e+00 2.55513781761983e-02 3.58730755848876e-04
