Energy (eV)          EEDF (eV^-(3/2))     First Anisotropy
7.50000000000000e-02 4.72170146698417e-01 8.47065299637899e-04
2.25000000000000e-01 4.33057083988494e-01 1.34533452060919e-03
3.75000000000000e-01 3.97184022124122e-01 1.63990242808116e-03
5.25000000000000e-01 3.64282569812171e-01 1.79319406794968e-03
6.75000000000000e-01 3.34106568434642e-01 1.87060855971144e-03
8.25000000000000e-01 3.06430250365062e-01 1.89966402163859e-03
9.75000000000000e-01 2.81046549844060e-01 1.89576278998001e-03
1.12500000000000e+00 2.57765553776592e-01 1.86872661410729e-03
1.27500000000000e+00 2.36413080860160e-01 1.82529139563521e-03
1.42500000000000e+00 2.16829378413511e-01 1.77028807163205e-03
1.57500000000000e+00 1.98867927155854e-01 1.70728283886933e-03
1.72500000000000e+00 1.82394344994358e-01 1.63895843512033e-03
1.87500000000000e+00 1.67285381618368e-01 1.56735735378228e-03
2.02500000000000e+00 1.53427996378225e-01 1.49404528032832e-03
2.17500000000000e+00 1.40718512549646e-01 1.42022545359258e-03
2.32500000000000e+00 1.29061841656137e-01 1.34682128865295e-03
2.47500000000000e+00 1.18370772046052e-01 1.27453761790867e-03
2.62500000000000e+00 1.08565316401653e-01 1.20390703256876e-03
2.77500000000000e+00 9.95721132984204e-02 1.13532554428907e-03
2.92500000000000e+00 9.13238783372855e-02 1.06908040742615e-03
3.07500000000000e+00 8.37589007433030e-02 1.00537206985928e-03
3.22500000000000e+00 7.68205816644802e-02 9.44331650348580e-04
3.37500000000000e+00 7.04570107164511e-02 8.86034957389112e-04
3.52500000000000e+00 6.46205776048350e-02 8.30513800652941e-04
3.67500000000000e+00 5.92676159195537e-02 7.77765160243027e-04
3.82500000000000e+00 5.43580764360873e-02 7.27758645435970e-04
3.97500000000000e+00 4.98552274794077e-02 6.80442576915739e-04
4.12500000000000e+00 4.57253801088035e-02 6.35748953910653e-04
4.27500000000000e+00 4.19376360675147e-02 5.93597512916185e-04
4.42500000000000e+00 3.84636566114122e-02 5.53899042882769e-04
4.57500000000000e+00 3.52774504871682e-02 5.16558089441076e-04
4.72500000000000e+00 3.23551794736376e-02 4.81475155503771e-04
4.87500000000000e+00 2.96749800315666e-02 4.48548485684594e-04
5.02500000000000e+00 2.72167997272702e-02 4.17675506148407e-04
5.17500000000000e+00 2.49622472064467e-02 3.88753978818213e-04
5.32500000000000e+00 2.28944545956819e-02 3.61682918622442e-04
5.47500000000000e+00 2.09979513021717e-02 3.36363314144431e-04
5.62500000000000e+00 1.92585482674716e-02 3.12698685236822e-04
5.77500000000000e+00 1.76632318092943e-02 2.90595505579700e-04
5.92500000000000e+00 1.62000662571139e-02 2.69963513554354e-04
6.07500000000000e+00 1.48581046531238e-02 2.50715930988072e-04
6.22500000000000e+00 1.36273068504418e-02 2.32769606152192e-04
6.37500000000000e+00 1.24984643957973e-02 2.16045094748747e-04
6.52500000000000e+00 1.14631316346963e-02 2.00466690406931e-04
6.67500000000000e+00 1.05135625236137e-02 1.85962414353964e-04
6.82500000000000e+00 9.64265267646151e-03 1.72463972364556e-04
6.97500000000000e+00 8.84388621174158e-03 1.59906685779616e-04
7.12500000000000e+00 8.11128700271039e-03 1.48229402277217e-04
7.27500000000000e+00 7.43937396582381e-03 1.37374391143843e-04
7.42500000000000e+00 6.82312005294398e-03 1.27287227003839e-04
7.57500000000000e+00 6.25791464050039e-03 1.17916665297024e-04
7.72500000000000e+00 5.73952903421244e-03 1.09214512229355e-04
7.87500000000000e+00 5.26408483129030e-03 1.01135491443591e-04
8.02500000000000e+00 4.82802490340969e-03 9.36371092527030e-05
8.17500000000000e+00 4.42808678336413e-03 8.66795199370349e-05
8.32500000000000e+00 4.06127825628165e-03 8.02253923176849e-05
8.47500000000000e+00 3.72485497278696e-03 7.42397785750496e-05
8.62500000000000e+00 3.41629991661757e-03 6.86899860764170e-05
8.77500000000000e+00 3.13330457307680e-03 6.35454528040568e-05
8.92500000000000e+00 2.87375165743183e-03 5.87776268306560e-05
9.07500000000000e+00 2.63569927403600e-03 5.43598501680025e-05
9.22500000000000e+00 2.41736638765860e-03 5.02672472140690e-05
9.37500000000000e+00 2.21711949832322e-03 4.64766179400342e-05
9.52500000000000e+00 2.03346041995982e-03 4.29663358897805e-05
9.67500000000000e+00 1.86501507143409e-03 3.97162510078144e-05
9.82500000000000e+00 1.71052319609201e-03 3.67075972655049e-05
9.97500000000000e+00 1.56882893290455e-03 3.39229050184226e-05
1.01250000000000e+01 1.43887216866835e-03 3.13459179980227e-05
1.02750000000000e+01 1.31968060656255e-03 2.89615148177611e-05
1.04250000000000e+01 1.21036249172091e-03 2.67556348559821e-05
1.05750000000000e+01 1.11009993939425e-03 2.47152083646876e-05
1.07250000000000e+01 1.01814281578652e-03 2.28280906438685e-05
1.08750000000000e+01 9.33803125782856e-04 2.10830001148199e-05
1.10250000000000e+01 8.56449865580218e-04 1.94694601222227e-05
1.11750000000000e+01 7.85504301709674e-04 1.79777442933182e-05
1.13250000000000e+01 7.20435641129318e-04 1.65988252828114e-05
1.14750000000000e+01 6.60757059992838e-04 1.53243267339035e-05
1.16250000000000e+01 6.06022061382177e-04 1.41464782887727e-05
1.17750000000000e+01 5.55821134753949e-04 1.30580734856667e-05
1.19250000000000e+01 5.09778692106626e-04 1.20524303843279e-05
1.20750000000000e+01 4.67550257945811e-04 1.11233547665772e-05
1.22250000000000e+01 4.28819892023795e-04 1.02651057643831e-05
1.23750000000000e+01 3.93297825571109e-04 9.47236377352842e-06
1.25250000000000e+01 3.60718293335095e-04 8.74020051694233e-06
1.26750000000000e+01 3.30837545205441e-04 8.06405112781793e-06
1.28250000000000e+01 3.03432022550305e-04 7.43968812871060e-06
1.29750000000000e+01 2.78296685618905e-04 6.86319718885314e-06
1.31250000000000e+01 2.55243479496722e-04 6.33095454788497e-06
1.32750000000000e+01 2.34099927136064e-04 5.83960600003712e-06
1.34250000000000e+01 2.14707838935466e-04 5.38604733851425e-06
1.35750000000000e+01 1.96922129213412e-04 4.96740616534440e-06
1.37250000000000e+01 1.80609730721564e-04 4.58102497731209e-06
1.38750000000000e+01 1.65648599076261e-04 4.22444544373793e-06
1.40250000000000e+01 1.51926799659701e-04 3.89539379680807e-06
1.41750000000000e+01 1.39341670159328e-04 3.59176725988662e-06
1.43250000000000e+01 1.27799052479751e-04 3.31162144376030e-06
1.44750000000000e+01 1.17212588280642e-04 3.05315864506660e-06
1.46250000000000e+01 1.07503072869997e-04 2.81471698524751e-06
1.47750000000000e+01 9.85978626188269e-05 2.59476033225215e-06
1.49250000000000e+01 9.04303314637089e-05 2.39186895088992e-06
1.50750000000000e+01 8.29393724309270e-05 2.20473083121367e-06
1.52250000000000e+01 7.60689404527577e-05 2.03213364759916e-06
1.53750000000000e+01 6.97676330553894e-05 1.87295730428660e-06
1.55250000000000e+01 6.39883057813119e-05 1.72616702607133e-06
1.56750000000000e+01 5.86877194688831e-05 1.59080695557953e-06
1.58250000000000e+01 5.38262167501274e-05 1.46599422115036e-06
1.59750000000000e+01 4.93674253464195e-05 1.35091344177339e-06
1.61250000000000e+01 4.52779859422041e-05 1.24481163780960e-06
1.62750000000000e+01 4.15273026007852e-05 1.14699351836074e-06
1.64250000000000e+01 3.80873138548713e-05 1.05681711815426e-06
1.65750000000000e+01 3.49322827592477e-05 9.73689758685863e-07
1.67250000000000e+01 3.20386043348123e-05 8.97064310115640e-07
1.68750000000000e+01 2.93846289633308e-05 8.26435732054277e-07
1.70250000000000e+01 2.69505004116054e-05 7.61337872908463e-07
1.71750000000000e+01 2.47180072732016e-05 7.01340508886280e-07
1.73250000000000e+01 2.26704467162676e-05 6.46046605099727e-07
1.74750000000000e+01 2.07924995180471e-05 5.95089782448244e-07
1.76250000000000e+01 1.90701154511333e-05 5.48131975129823e-07
1.77750000000000e+01 1.74904081639584e-05 5.04861264709971e-07
1.79250000000000e+01 1.60415587690468e-05 4.64989877688474e-07
1.80750000000000e+01 1.47127274177085e-05 4.28252334444246e-07
1.82250000000000e+01 1.34939721996015e-05 3.94403738313910e-07
1.83750000000000e+01 1.23761747603952e-05 3.63218194374365e-07
1.85250000000000e+01 1.13509720810279e-05 3.34487348257415e-07
1.86750000000000e+01 1.04106939081523e-05 3.08019036029189e-07
1.88250000000000e+01 9.54830536764256e-06 2.83636036822177e-07
1.89750000000000e+01 8.75735433181443e-06 2.61174920516532e-07
1.91250000000000e+01 8.03192314657650e-06 2.40484983332885e-07
1.92750000000000e+01 7.36658435734954e-06 2.21427264724217e-07
1.94250000000000e+01 6.75636010250886e-06 2.03873639442151e-07
1.95750000000000e+01 6.19668487054394e-06 1.87705979105788e-07
1.97250000000000e+01 5.68337134229560e-06 1.72815378021436e-07
1.98750000000000e+01 5.21257906271285e-06 1.59101438391466e-07
2.00250000000000e+01 4.78078570774114e-06 1.46471610412163e-07
2.01750000000000e+01 4.38476073136947e-06 1.34840583095844e-07
2.03250000000000e+01 4.02154119567174e-06 1.24129721963482e-07
2.04750000000000e+01 3.68840960301014e-06 1.14266550042332e-07
2.06250000000000e+01 3.38287356454769e-06 1.05184268870231e-07
2.07750000000000e+01 3.10264715295616e-06 9.68213164557951e-08
2.09250000000000e+01 2.84563379980596e-06 8.91209593730821e-08
2.10750000000000e+01 2.60991060968141e-06 8.20309163817609e-08
2.12250000000000e+01 2.39371397366452e-06 7.55030111605326e-08
2.13750000000000e+01 2.19542637455167e-06 6.94928519237569e-08
2.15250000000000e+01 2.01356428508387e-06 6.39595358598877e-08
2.16750000000000e+01 1.84676706864893e-06 5.88653764864446e-08
2.18250000000000e+01 1.69378679941381e-06 5.41756521607433e-08
2.19750000000000e+01 1.55347892572468e-06 4.98583741193129e-08
2.21250000000000e+01 1.42479370692104e-06 4.58840725426481e-08
2.22750000000000e+01 1.30676835949661e-06 4.22255992563918e-08
2.24250000000000e+01 1.19851985384722e-06 3.88579457859056e-08
2.25750000000000e+01 1.09923830771302e-06 3.57580755790976e-08
2.27250000000000e+01 1.00818092688669e-06 3.29047693029186e-08
2.28750000000000e+01 9.24666447854052e-07 3.02784822026540e-08
2.30250000000000e+01 8.48070040788549e-07 2.78612125905359e-08
2.31750000000000e+01 7.77818634765270e-07 2.56363806017491e-08
2.33250000000000e+01 7.13386630219326e-07 2.35887164220346e-08
2.34750000000000e+01 6.54291966570416e-07 2.17041572522127e-08
2.36250000000000e+01 6.00092515592796e-07 1.99697523314291e-08
2.37750000000000e+01 5.50382773546913e-07 1.83735753931118e-08
2.39250000000000e+01 5.04790827324274e-07 1.69046439758454e-08
2.40750000000000e+01 4.62975571907150e-07 1.55528450559107e-08
2.42250000000000e+01 4.24624158325004e-07 1.43088665093838e-08
2.43750000000000e+01 3.89449653014044e-07 1.31641339496920e-08
2.45250000000000e+01 3.57188891067925e-07 1.21107525216204e-08
2.46750000000000e+01 3.27600507318293e-07 1.11414532651794e-08
2.48250000000000e+01 3.00463130514308e-07 1.02495436926661e-08
2.49750000000000e+01 2.75573727090554e-07 9.42886224989232e-09
2.51250000000000e+01 2.52746082131906e-07 8.67373635805966e-09
2.52750000000000e+01 2.31809406170412e-07 7.97894375631625e-09
2.54250000000000e+01 2.12607057390645e-07 7.33967688676935e-09
2.55750000000000e+01 1.94995369683487e-07 6.75151008379438e-09
2.57250000000000e+01 1.78842577780171e-07 6.21036934800133e-09
2.58750000000000e+01 1.64027831424785e-07 5.71250450231097e-09
2.60250000000000e+01 1.50440291209561e-07 5.25446354336613e-09
2.61750000000000e+01 1.37978299308283e-07 4.83306901605649e-09
2.63250000000000e+01 1.26548618903473e-07 4.44539625236422e-09
2.64750000000000e+01 1.16065736616997e-07 4.08875332812685e-09
2.66250000000000e+01 1.06451222725090e-07 3.76066260274322e-09
2.67750000000000e+01 9.76331443711121e-08 3.45884371739268e-09
2.69250000000000e+01 8.95455273858842e-08 3.18119793706318e-09
2.70750000000000e+01 8.21278626891038e-08 2.92579373065491e-09
2.72250000000000e+01 7.53246535788850e-08 2.69085349170068e-09
2.73750000000000e+01 6.90850005223841e-08 2.47474130987447e-09
2.75250000000000e+01 6.33622203410400e-08 2.27595171049739e-09
2.76750000000000e+01 5.81134969412887e-08 2.09309928573964e-09
2.78250000000000e+01 5.32995609776282e-08 1.92490914720088e-09
2.79750000000000e+01 4.88843960513677e-08 1.77020813506927e-09
2.81250000000000e+01 4.48349692469328e-08 1.62791672414626e-09
2.82750000000000e+01 4.11209839896788e-08 1.49704157171508e-09
2.84250000000000e+01 3.77146533761724e-08 1.37666865655390e-09
2.85750000000000e+01 3.45904922810662e-08 1.26595696238167e-09
2.87250000000000e+01 3.17251266851741e-08 1.16413266269813e-09
2.88750000000000e+01 2.90971187981984e-08 1.07048376736730e-09
2.90250000000000e+01 2.66868066677296e-08 9.84355194414850e-10
2.91750000000000e+01 2.44761570745236e-08 9.05144233387801e-10
2.93250000000000e+01 2.24486306134625e-08 8.32296369276275e-10
2.94750000000000e+01 2.05890579507770e-08 7.65301438441458e-10
2.96250000000000e+01 1.88835263317235e-08 7.03690090245934e-10
2.97750000000000e+01 1.73192754896024e-08 6.47030530158115e-10
2.99250000000000e+01 1.58846021773394e-08 5.94925522015026e-10
3.00750000000000e+01 1.45687726073655e-08 5.47009628889967e-10
3.02250000000000e+01 1.33619421446962e-08 5.02946673635280e-10
3.03750000000000e+01 1.22550816523791e-08 4.62427401666567e-10
3.05250000000000e+01 1.12399099382489e-08 4.25167329933016e-10
3.06750000000000e+01 1.03088317975769e-08 3.90904767288400e-10
3.08250000000000e+01 9.45488118806846e-09 3.59398992647141e-10
3.09750000000000e+01 8.67166911206202e-09 3.30428578387533e-10
3.11250000000000e+01 7.95333581600011e-09 3.03789847457027e-10
3.12750000000000e+01 7.29450694954258e-09 2.79295453548881e-10
3.14250000000000e+01 6.69025335631877e-09 2.56773074561897e-10
3.15750000000000e+01 6.13605419548491e-09 2.36064210330765e-10
3.17250000000000e+01 5.62776311817360e-09 2.17023076329196e-10
3.18750000000000e+01 5.16157724577793e-09 1.99515585706151e-10
3.20250000000000e+01 4.73400871797507e-09 1.83418412621690e-10
3.21750000000000e+01 4.34185859762065e-09 1.68618130407153e-10
3.23250000000000e+01 3.98219293727791e-09 1.55010418588553e-10
3.24750000000000e+01 3.65232082831905e-09 1.42499333285455e-10
3.26250000000000e+01 3.34977426836871e-09 1.30996635933626e-10
3.27750000000000e+01 3.07228969646390e-09 1.20421175681175e-10
3.29250000000000e+01 2.81779105778219e-09 1.10698321177582e-10
3.30750000000000e+01 2.58437427123357e-09 1.01759437815419e-10
3.32250000000000e+01 2.37029298370721e-09 9.35414067979273e-11
3.33750000000000e+01 2.17394550439086e-09 8.59861826942455e-11
3.35250000000000e+01 1.99386282140934e-09 7.90403864097070e-11
3.36750000000000e+01 1.82869761112635e-09 7.26549307432640e-11
3.38250000000000e+01 1.67721415788045e-09 6.67846759292814e-11
3.39750000000000e+01 1.53827910873794e-09 6.13881127682623e-11
3.41250000000000e+01 1.41085299409227e-09 5.64270711419269e-11
3.42750000000000e+01 1.29398245066997e-09 5.18664518837623e-11
3.44250000000000e+01 1.18679308875772e-09 4.76739801379018e-11
3.45750000000000e+01 1.08848295028565e-09 4.38199784880703e-11
3.47250000000000e+01 9.98316508821883e-10 4.02771582753833e-11
3.48750000000000e+01 9.15619166588478e-10 3.70204276499352e-11
3.50250000000000e+01 8.39772207326842e-10 3.40267150172226e-11
3.51750000000000e+01 7.70208167251652e-10 3.12748066473229e-11
3.53250000000000e+01 7.06406589460116e-10 2.87451973131175e-11
3.54750000000000e+01 6.47890130032380e-10 2.64199529143821e-11
3.56250000000000e+01 5.94220986690093e-10 2.42825841278920e-11
3.57750000000000e+01 5.44997623293476e-10 2.23179302003790e-11
3.59250000000000e+01 4.99851765670547e-10 2.05120520717511e-11
3.60750000000000e+01 4.58445646302242e-10 1.88521340809413e-11
3.62250000000000e+01 4.20469477248991e-10 1.73263935665204e-11
3.63750000000000e+01 3.85639132411967e-10 1.59239977292210e-11
3.65250000000000e+01 3.53694021788382e-10 1.46349871741335e-11
3.66750000000000e+01 3.24395141816678e-10 1.34502055969191e-11
3.68250000000000e+01 2.97523287224866e-10 1.23612351212476e-11
3.69750000000000e+01 2.72877411003628e-10 1.13603368341070e-11
3.71250000000000e+01 2.50273120233997e-10 1.04403961019263e-11
3.72750000000000e+01 2.29541296515848e-10 9.59487228384735e-12
3.74250000000000e+01 2.10526830675679e-10 8.81775248920604e-12
3.75750000000000e+01 1.93087462287145e-10 8.10350905455546e-12
3.77250000000000e+01 1.77092715321993e-10 7.44706044157631e-12
3.78750000000000e+01 1.62422921968271e-10 6.84373528115092e-12
3.80250000000000e+01 1.48968327312303e-10 6.28923931089773e-12
3.81750000000000e+01 1.36628268185943e-10 5.77962497372038e-12
3.83250000000000e+01 1.25310420035496e-10 5.31126346356323e-12
3.84750000000000e+01 1.14930106177603e-10 4.88081902171225e-12
3.86250000000000e+01 1.05409664274156e-10 4.48522530275416e-12
3.87750000000000e+01 9.66778652864028e-11 4.12166364381866e-12
3.89250000000000e+01 8.86693805610329e-11 3.78754308407832e-12
3.90750000000000e+01 8.13242930611445e-11 3.48048199376218e-12
3.92250000000000e+01 7.45876490852738e-11 3.19829118323607e-12
3.93750000000000e+01 6.84090471205832e-11 2.93895837309529e-12
3.95250000000000e+01 6.27422607541350e-11 2.70063391577488e-12
3.96750000000000e+01 5.75448928209879e-11 2.48161766797659e-12
3.98250000000000e+01 5.27780582015567e-11 2.28034692130016e-12
3.99750000000000e+01 4.84060928950234e-11 2.09538530590688e-12
4.01250000000000e+01 4.43962871921749e-11 1.92541258888728e-12
4.02750000000000e+01 4.07186409513485e-11 1.76921529529943e-12
4.04250000000000e+01 3.73456391465335e-11 1.62567808563438e-12
4.05750000000000e+01 3.42520460083506e-11 1.49377582879057e-12
4.07250000000000e+01 3.14147162177318e-11 1.37256631453704e-12
4.08750000000000e+01 2.88124217397121e-11 1.26118355395043e-12
4.10250000000000e+01 2.64256930017551e-11 1.15883162045372e-12
4.11750000000000e+01 2.42366732283568e-11 1.06477898789577e-12
4.13250000000000e+01 2.22289848421055e-11 9.78353325614883e-13
4.14750000000000e+01 2.03876069316489e-11 8.98936713653257e-13
4.16250000000000e+01 1.86987628698229e-11 8.25961244253196e-13
4.17750000000000e+01 1.71498172411346e-11 7.58904978492156e-13
4.19250000000000e+01 1.57291813074424e-11 6.97288229420733e-13
4.20750000000000e+01 1.44262263045568e-11 6.40670145373340e-13
4.22250000000000e+01 1.32312039210721e-11 5.88645569241532e-13
4.23750000000000e+01 1.21351733644782e-11 5.40842151449710e-13
4.25250000000000e+01 1.11299344688816e-11 4.96917696166004e-13
4.26750000000000e+01 1.02079663438682e-11 4.56557721929914e-13
4.28250000000000e+01 9.36237110549821e-12 4.19473219394547e-13
4.29750000000000e+01 8.58682226844531e-12 3.85398590275476e-13
4.31250000000000e+01 7.87551741316545e-12 3.54089752880319e-13
4.32750000000000e+01 7.22313477396593e-12 3.25322400772068e-13
4.34250000000000e+01 6.62479342317971e-12 2.98890402203149e-13
4.35750000000000e+01 6.07601675355534e-12 2.74604328954025e-13
4.37250000000000e+01 5.57269898564861e-12 2.52290104126624e-13
4.38750000000000e+01 5.11107444963469e-12 2.31787759285592e-13
4.40250000000000e+01 4.68768941171656e-12 2.12950292115289e-13
4.41750000000000e+01 4.29937623434347e-12 1.95642616472817e-13
4.43250000000000e+01 3.94322967691425e-12 1.79740597372502e-13
4.44750000000000e+01 3.61658515965436e-12 1.65130164039512e-13
4.46250000000000e+01 3.31699882804382e-12 1.51706494724061e-13
4.47750000000000e+01 3.04222926864401e-12 1.39373267476778e-13
4.49250000000000e+01 2.79022073952689e-12 1.28041971553951e-13
4.50750000000000e+01 2.55908778984172e-12 1.17631274551712e-13
4.52250000000000e+01 2.34710115344761e-12 1.08066440763887e-13
4.53750000000000e+01 2.15267481107235e-12 9.92787966220623e-14
4.55250000000000e+01 1.97435412420064e-12 9.12052394108029e-14
4.56750000000000e+01 1.81080495191295e-12 8.37877857584679e-14
4.58250000000000e+01 1.66080366925059e-12 7.69731566867227e-14
4.59750000000000e+01 1.52322801242750e-12 7.07123962617141e-14
4.61250000000000e+01 1.39704868239530e-12 6.49605211287799e-14
4.62750000000000e+01 1.28132164394222e-12 5.96761984321875e-14
4.64250000000000e+01 1.17518106270992e-12 5.48214498232992e-14
4.65750000000000e+01 1.07783282728524e-12 5.03613794461660e-14
4.67250000000000e+01 9.88548607901154e-13 4.62639239601791e-14
4.68750000000000e+01 9.06660407295886e-13 4.24996228162572e-14
4.70250000000000e+01 8.31555562961389e-13 3.90414071472349e-14
4.71750000000000e+01 7.62672163389582e-13 3.58644057656622e-14
4.73250000000000e+01 6.99494844022050e-13 3.29457668840645e-14
