Energy (eV)          EEDF (eV^-(3/2))     First Anisotropy
3.92500000000000e-03 3.66448215099059e+00 2.97778704257333e-03
1.17750000000000e-02 3.60157242935020e+00 4.89140914630626e-03
1.96250000000000e-02 3.53974270562439e+00 6.38931992019982e-03
2.74750000000000e-02 3.47897443902933e+00 7.48681047119088e-03
3.53250000000000e-02 3.41924940707941e+00 8.36922768648384e-03
4.31750000000000e-02 3.36054970012228e+00 9.10777270061397e-03
5.10250000000000e-02 3.30285771596824e+00 9.73985072591094e-03
5.88750000000000e-02 3.24615615461188e+00 1.02883800166922e-02
6.67250000000000e-02 3.19042801304431e+00 1.07687762432986e-02
7.45750000000000e-02 3.13565658015454e+00 1.11920852590367e-02
8.24250000000000e-02 3.08182543171832e+00 1.15665932095008e-02
9.02750000000000e-02 3.02891842547303e+00 1.18987364972493e-02
9.81250000000000e-02 2.97691969627712e+00 1.21936535993735e-02
1.05975000000000e-01 2.92581365135270e+00 1.24555384739800e-02
1.13825000000000e-01 2.87558496560967e+00 1.26878769978907e-02
1.21675000000000e-01 2.82621857705031e+00 1.28936109143391e-02
1.29525000000000e-01 2.77769968225258e+00 1.30752549692631e-02
1.37375000000000e-01 2.73001373193108e+00 1.32349827571756e-02
1.45225000000000e-01 2.68314642657420e+00 1.33746910274156e-02
1.53075000000000e-01 2.63708371215608e+00 1.34960487820618e-02
1.60925000000000e-01 2.59181177592232e+00 1.36005353954948e-02
1.68775000000000e-01 2.54731704224793e+00 1.36894706531141e-02
1.76625000000000e-01 2.50358616856644e+00 1.37640387381612e-02
1.84475000000000e-01 2.46060604136889e+00 1.38253076154913e-02
1.92325000000000e-01 2.41836377227150e+00 1.38742448651923e-02
2.00175000000000e-01 2.37684669415084e+00 1.39117307433899e-02
2.08025000000000e-01 2.33604235734538e+00 1.39385690524116e-02
2.15875000000000e-01 2.29593852592221e+00 1.39554962620323e-02
2.23725000000000e-01 2.25652317400789e+00 1.39631892209773e-02
2.31575000000000e-01 2.21778448218223e+00 1.39622717219793e-02
2.39425000000000e-01 2.17971083393408e+00 1.39533201268601e-02
2.47275000000000e-01 2.14229081217785e+00 1.39368682150563e-02
2.55125000000000e-01 2.10551319582991e+00 1.39134113860585e-02
2.62975000000000e-01 2.06936695644375e+00 1.38834103207730e-02
2.70825000000000e-01 2.03384125490288e+00 1.38472941869547e-02
2.78675000000000e-01 1.99892543817052e+00 1.38054634582423e-02
2.86525000000000e-01 1.96460903609511e+00 1.37582924039527e-02
2.94375000000000e-01 1.93088175827061e+00 1.37061312969055e-02
3.02225000000000e-01 1.89773349095077e+00 1.36493083786022e-02
3.10075000000000e-01 1.86515429401632e+00 1.35881316146567e-02
3.17925000000000e-01 1.83313439799422e+00 1.35228902681336e-02
3.25775000000000e-01 1.80166420112814e+00 1.34538563141636e-02
3.33625000000000e-01 1.77073426649918e+00 1.33812857156775e-02
3.41475000000000e-01 1.74033531919601e+00 1.33054195771690e-02
3.49325000000000e-01 1.71045824353368e+00 1.32264851909695e-02
3.57175000000000e-01 1.68109408032006e+00 1.31446969884851e-02
3.65025000000000e-01 1.65223402416926e+00 1.30602574071371e-02
3.72875000000000e-01 1.62386942086121e+00 1.29733576823083e-02
3.80725000000000e-01 1.59599176474652e+00 1.28841785723795e-02
3.88575000000000e-01 1.56859269619586e+00 1.27928910239064e-02
3.96425000000000e-01 1.54166399909324e+00 1.26996567831011e-02
4.04275000000000e-01 1.51519759837221e+00 1.26046289590271e-02
4.12125000000000e-01 1.48918555759443e+00 1.25079525432669e-02
4.19975000000000e-01 1.46362007656975e+00 1.24097648902626e-02
4.27825000000000e-01 1.43849348901719e+00 1.23101961620422e-02
4.35675000000000e-01 1.41379826026611e+00 1.22093697406313e-02
4.43525000000000e-01 1.38952698499673e+00 1.21074026110756e-02
4.51375000000000e-01 1.36567238501954e+00 1.20044057176883e-02
4.59225000000000e-01 1.34222730709282e+00 1.19004842958556e-02
4.67075000000000e-01 1.31918472077756e+00 1.17957381814896e-02
4.74925000000000e-01 1.29653771632932e+00 1.16902621000033e-02
4.82775000000000e-01 1.27427950262616e+00 1.15841459364913e-02
4.90625000000000e-01 1.25240340513219e+00 1.14774749886382e-02
4.98475000000000e-01 1.23090286389616e+00 1.13703302037225e-02
5.06325000000000e-01 1.20977143158426e+00 1.12627884009572e-02
5.14175000000000e-01 1.18900277154680e+00 1.11549224802896e-02
5.22025000000000e-01 1.16859065591805e+00 1.10468016186808e-02
5.29875000000000e-01 1.14852896374871e+00 1.09384914547906e-02
5.37725000000000e-01 1.12881167917038e+00 1.08300542629120e-02
5.45575000000000e-01 1.10943288959167e+00 1.07215491169262e-02
5.53425000000000e-01 1.09038678392514e+00 1.06130320449795e-02
5.61275000000000e-01 1.07166765084475e+00 1.05045561755265e-02
5.69125000000000e-01 1.05326987707323e+00 1.03961718753300e-02
5.76975000000000e-01 1.03518794569882e+00 1.02879268799554e-02
5.84825000000000e-01 1.01741643452092e+00 1.01798664172598e-02
5.92675000000000e-01 9.99950014424181e-01 1.00720333243307e-02
6.00525000000000e-01 9.82783447780404e-01 9.96446815829656e-03
6.08375000000000e-01 9.65911586878000e-01 9.85720930139658e-03
6.16225000000000e-01 9.49329372378323e-01 9.75029306066952e-03
6.24075000000000e-01 9.33031831798547e-01 9.64375376259248e-03
6.31925000000000e-01 9.17014078020567e-01 9.53762384297565e-03
6.39775000000000e-01 9.01271307825513e-01 9.43193393239894e-03
6.47625000000000e-01 8.85798800453414e-01 9.32671293745420e-03
6.55475000000000e-01 8.70591916187587e-01 9.22198811803676e-03
6.63325000000000e-01 8.55646094963340e-01 9.11778516091570e-03
6.71175000000000e-01 8.40956855000547e-01 9.01412824979375e-03
6.79025000000000e-01 8.26519791459706e-01 8.91104013205401e-03
6.86875000000000e-01 8.12330575121064e-01 8.80854218237922e-03
6.94725000000000e-01 7.98384951086424e-01 8.70665446341353e-03
7.02575000000000e-01 7.84678737503233e-01 8.60539578362795e-03
7.10425000000000e-01 7.71207824310577e-01 8.50478375254039e-03
7.18275000000000e-01 7.57968172006704e-01 8.40483483342973e-03
7.26125000000000e-01 7.44955810437704e-01 8.30556439367582e-03
7.33975000000000e-01 7.32166837606986e-01 8.20698675284762e-03
7.41825000000000e-01 7.19597418505191e-01 8.10911522865686e-03
7.49675000000000e-01 7.07243783960196e-01 8.01196218088534e-03
7.57525000000000e-01 6.95102229506857e-01 7.91553905338641e-03
7.65375000000000e-01 6.83169114276155e-01 7.81985641425851e-03
7.73225000000000e-01 6.71440859903416e-01 7.72492399427906e-03
7.81075000000000e-01 6.59913949455274e-01 7.63075072368570e-03
7.88925000000000e-01 6.48584926375051e-01 7.53734476738358e-03
7.96775000000000e-01 6.37450393446245e-01 7.44471355865366e-03
8.04625000000000e-01 6.26507011773815e-01 7.35286383143572e-03
8.12475000000000e-01 6.15751499782947e-01 7.26180165124980e-03
8.20325000000000e-01 6.05180632235017e-01 7.17153244482249e-03
8.28175000000000e-01 5.94791239260443e-01 7.08206102847711e-03
8.36025000000000e-01 5.84580205408138e-01 6.99339163534360e-03
8.43875000000000e-01 5.74544468711290e-01 6.90552794144329e-03
8.51725000000000e-01 5.64681019769170e-01 6.81847309069862e-03
8.59575000000000e-01 5.54986900844711e-01 6.73222971891704e-03
8.67425000000000e-01 5.45459204977574e-01 6.64679997679246e-03
8.75275000000000e-01 5.36095075112443e-01 6.56218555197002e-03
8.83125000000000e-01 5.26891703242283e-01 6.47838769021453e-03
8.90975000000000e-01 5.17846329566310e-01 6.39540721572090e-03
8.98825000000000e-01 5.08956241662413e-01 6.31324455060454e-03
9.06675000000000e-01 5.00218773673781e-01 6.23189973360656e-03
9.14525000000000e-01 4.91631305509502e-01 6.15137243804753e-03
9.22375000000000e-01 4.83191262058875e-01 6.07166198906085e-03
9.30225000000000e-01 4.74896112419221e-01 5.99276738013735e-03
9.38075000000000e-01 4.66743369136939e-01 5.91468728900932e-03
9.45925000000000e-01 4.58730587461604e-01 5.83742009290088e-03
9.53775000000000e-01 4.50855364612858e-01 5.76096388317186e-03
9.61625000000000e-01 4.43115339059894e-01 5.68531647938037e-03
9.69475000000000e-01 4.35508189813308e-01 5.61047544278643e-03
9.77325000000000e-01 4.28031635729108e-01 5.53643808932047e-03
9.85175000000000e-01 4.20683434824666e-01 5.46320150203843e-03
9.93025000000000e-01 4.13461383606428e-01 5.39076254308379e-03
1.00087500000000e+00 4.06363316409145e-01 5.31911786517639e-03
1.00872500000000e+00 3.99387104746465e-01 5.24826392264682e-03
1.01657500000000e+00 3.92530656672665e-01 5.17819698203499e-03
1.02442500000000e+00 3.85791916155344e-01 5.10891313226904e-03
1.03227500000000e+00 3.79168862458881e-01 5.04040829444203e-03
1.04012500000000e+00 3.72659509538482e-01 4.97267823120230e-03
1.04797500000000e+00 3.66261905444629e-01 4.90571855577183e-03
1.05582500000000e+00 3.59974131737748e-01 4.83952474060716e-03
1.06367500000000e+00 3.53794302912935e-01 4.77409212571739e-03
1.07152500000000e+00 3.47720565834547e-01 4.70941592665204e-03
1.07937500000000e+00 3.41751099180509e-01 4.64549124217174e-03
1.08722500000000e+00 3.35884112896156e-01 4.58231306161305e-03
1.09507500000000e+00 3.30117847657450e-01 4.51987627196050e-03
1.10292500000000e+00 3.24450574343419e-01 4.45817566463588e-03
1.11077500000000e+00 3.18880593517643e-01 4.39720594201574e-03
1.11862500000000e+00 3.13406234918649e-01 4.33696172368816e-03
1.12647500000000e+00 3.08025856959052e-01 4.27743755245729e-03
1.13432500000000e+00 3.02737846233298e-01 4.21862790010617e-03
1.14217500000000e+00 2.97540617033847e-01 4.16052717292709e-03
1.15002500000000e+00 2.92432610875676e-01 4.10312971702713e-03
1.15787500000000e+00 2.87412296028937e-01 4.04642982341802e-03
1.16572500000000e+00 2.82478167059638e-01 3.99042173289859e-03
1.17357500000000e+00 2.77628744378212e-01 3.93509964073693e-03
1.18142500000000e+00 2.72862573795835e-01 3.88045770116009e-03
1.18927500000000e+00 2.68178226088360e-01 3.82649003165808e-03
1.19712500000000e+00 2.63574296567737e-01 3.77319071710941e-03
1.20497500000000e+00 2.59049404660794e-01 3.72055381373529e-03
1.21282500000000e+00 2.54602193495243e-01 3.66857335288735e-03
1.22067500000000e+00 2.50231329492802e-01 3.61724334467583e-03
1.22852500000000e+00 2.45935501969291e-01 3.56655778144510e-03
1.23637500000000e+00 2.41713422741604e-01 3.51651064110030e-03
1.24422500000000e+00 2.37563825741420e-01 3.46709589029177e-03
1.25207500000000e+00 2.33485466635552e-01 3.41830748746215e-03
1.25992500000000e+00 2.29477122452808e-01 3.37013938576124e-03
1.26777500000000e+00 2.25537591217264e-01 3.32258553583325e-03
1.27562500000000e+00 2.21665691587824e-01 3.27563988848151e-03
1.28347500000000e+00 2.17860262503979e-01 3.22929639721496e-03
1.29132500000000e+00 2.14120162837639e-01 3.18354902068069e-03
1.29917500000000e+00 2.10444271050944e-01 3.13839172498655e-03
1.30702500000000e+00 2.06831484859949e-01 3.09381848591812e-03
1.31487500000000e+00 2.03280720904089e-01 3.04982329105413e-03
1.32272500000000e+00 1.99790914421308e-01 3.00640014178338e-03
1.33057500000000e+00 1.96361018928773e-01 2.96354305522727e-03
1.33842500000000e+00 1.92990005909066e-01 2.92124606607133e-03
1.34627500000000e+00 1.89676864501764e-01 2.87950322830894e-03
1.35412500000000e+00 1.86420601200317e-01 2.83830861690065e-03
1.36197500000000e+00 1.83220239554119e-01 2.79765632935192e-03
1.36982500000000e+00 1.80074819875711e-01 2.75754048721289e-03
1.37767500000000e+00 1.76983398952994e-01 2.71795523750217e-03
1.38552500000000e+00 1.73945049766392e-01 2.67889475405800e-03
1.39337500000000e+00 1.70958861210868e-01 2.64035323881984e-03
1.40122500000000e+00 1.68023937822712e-01 2.60232492304195e-03
1.40907500000000e+00 1.65139399511020e-01 2.56480406844196e-03
1.41692500000000e+00 1.62304381293783e-01 2.52778496828758e-03
1.42477500000000e+00 1.59518033038505e-01 2.49126194842248e-03
1.43262500000000e+00 1.56779519207275e-01 2.45522936823431e-03
1.44047500000000e+00 1.54088018606217e-01 2.41968162156713e-03
1.44832500000000e+00 1.51442724139239e-01 2.38461313758005e-03
1.45617500000000e+00 1.48842842566010e-01 2.35001838155399e-03
1.46402500000000e+00 1.46287594264094e-01 2.31589185564867e-03
1.47187500000000e+00 1.43776212995163e-01 2.28222809961203e-03
1.47972500000000e+00 1.41307945675229e-01 2.24902169144344e-03
1.48757500000000e+00 1.38882052148815e-01 2.21626724801243e-03
1.49542500000000e+00 1.36497804967010e-01 2.18395942563493e-03
1.50327500000000e+00 1.34154489169325e-01 2.15209292060848e-03
1.51112500000000e+00 1.31851402069304e-01 2.12066246970804e-03
1.51897500000000e+00 1.29587853043804e-01 2.08966285064378e-03
1.52682500000000e+00 1.27363163325908e-01 2.05908888248255e-03
1.53467500000000e+00 1.25176665801374e-01 2.02893542603421e-03
1.54252500000000e+00 1.23027704808596e-01 1.99919738420440e-03
1.55037500000000e+00 1.20915635941990e-01 1.96986970231484e-03
1.55822500000000e+00 1.18839825858755e-01 1.94094736839266e-03
1.56607500000000e+00 1.16799652088956e-01 1.91242541342983e-03
1.57392500000000e+00 1.14794502848862e-01 1.88429891161388e-03
1.58177500000000e+00 1.12823776857494e-01 1.85656298053117e-03
1.58962500000000e+00 1.10886883156320e-01 1.82921278134377e-03
1.59747500000000e+00 1.08983240932044e-01 1.80224351894097e-03
1.60532500000000e+00 1.07112279342437e-01 1.77565044206642e-03
1.61317500000000e+00 1.05273437345163e-01 1.74942884342205e-03
1.62102500000000e+00 1.03466163529535e-01 1.72357405974953e-03
1.62887500000000e+00 1.01689915951172e-01 1.69808147189035e-03
1.63672500000000e+00 9.99441619694779e-02 1.67294650482548e-03
1.64457500000000e+00 9.82283780879272e-02 1.64816462769519e-03
1.65242500000000e+00 9.65420497970802e-02 1.62373135380007e-03
1.66027500000000e+00 9.48846714202994e-02 1.59964224058410e-03
1.66812500000000e+00 9.32557459621131e-02 1.57589288960048e-03
1.67597500000000e+00 9.16547849591818e-02 1.55247894646074e-03
1.68382500000000e+00 9.00813083338239e-02 1.52939610076843e-03
1.69167500000000e+00 8.85348442500551e-02 1.50664008603753e-03
1.69952500000000e+00 8.70149289720999e-02 1.48420667959636e-03
1.70737500000000e+00 8.55211067253318e-02 1.46209170247799e-03
1.71522500000000e+00 8.40529295596010e-02 1.44029101929737e-03
1.72307500000000e+00 8.26099572149080e-02 1.41880053811594e-03
1.73092500000000e+00 8.11917569893840e-02 1.39761621029448e-03
1.73877500000000e+00 7.97979036095367e-02 1.37673403033441e-03
1.74662500000000e+00 7.84279791027247e-02 1.35615003570834e-03
1.75447500000000e+00 7.70815726718204e-02 1.33586030668043e-03
1.76232500000000e+00 7.57582805720250e-02 1.31586096611686e-03
1.77017500000000e+00 7.44577059897980e-02 1.29614817928699e-03
1.77802500000000e+00 7.31794589238659e-02 1.27671815365578e-03
1.78587500000000e+00 7.19231560682722e-02 1.25756713866789e-03
1.79372500000000e+00 7.06884206974370e-02 1.23869142552373e-03
1.80157500000000e+00 6.94748825531882e-02 1.22008734694808e-03
1.80942500000000e+00 6.82821777337332e-02 1.20175127695162e-03
1.81727500000000e+00 6.71099485845358e-02 1.18367963058580e-03
1.82512500000000e+00 6.59578435910674e-02 1.16586886369137e-03
1.83297500000000e+00 6.48255172733986e-02 1.14831547264089e-03
1.84082500000000e+00 6.37126300826004e-02 1.13101599407577e-03
1.84867500000000e+00 6.26188482989249e-02 1.11396700463800e-03
1.85652500000000e+00 6.15438439317326e-02 1.09716512069688e-03
1.86437500000000e+00 6.04872946211387e-02 1.08060699807130e-03
1.87222500000000e+00 5.94488835413475e-02 1.06428933174757e-03
1.88007500000000e+00 5.84282993056461e-02 1.04820885559328e-03
1.88792500000000e+00 5.74252358730300e-02 1.03236234206752e-03
1.89577500000000e+00 5.64393924564302e-02 1.01674660192751e-03
1.90362500000000e+00 5.54704734325173e-02 1.00135848393203e-03
1.91147500000000e+00 5.45181882530532e-02 9.86194874542090e-04
1.91932500000000e+00 5.35822513577646e-02 9.71252697618671e-04
1.92717500000000e+00 5.26623820887129e-02 9.56528914118117e-04
1.93502500000000e+00 5.17583046061334e-02 9.42020521785268e-04
1.94287500000000e+00 5.08697478057201e-02 9.27724554844550e-04
1.95072500000000e+00 4.99964452373294e-02 9.13638083689285e-04
1.95857500000000e+00 4.91381350250808e-02 8.99758214569293e-04
1.96642500000000e+00 4.82945597888280e-02 8.86082089277114e-04
1.97427500000000e+00 4.74654665669792e-02 8.72606884832999e-04
1.98212500000000e+00 4.66506067406416e-02 8.59329813168811e-04
1.98997500000000e+00 4.58497359590687e-02 8.46248120811065e-04
1.99782500000000e+00 4.50626140663868e-02 8.33359088563169e-04
2.00567500000000e+00 4.42890050295803e-02 8.20660031187106e-04
2.01352500000000e+00 4.35286768677125e-02 8.08148297084716e-04
2.02137500000000e+00 4.27814015823621e-02 7.95821267978696e-04
2.02922500000000e+00 4.20469550892535e-02 7.83676358593413e-04
2.03707500000000e+00 4.13251171510610e-02 7.71711016335687e-04
2.04492500000000e+00 4.06156713113667e-02 7.59922720975778e-04
2.05277500000000e+00 3.99184048297519e-02 7.48308984328564e-04
2.06062500000000e+00 3.92331086180030e-02 7.36867349935049e-04
2.06847500000000e+00 3.85595771774127e-02 7.25595392744318e-04
2.07632500000000e+00 3.78976085371572e-02 7.14490718796108e-04
2.08417500000000e+00 3.72470041937316e-02 7.03550964904063e-04
2.09202500000000e+00 3.66075690514252e-02 6.92773798339692e-04
2.09987500000000e+00 3.59791113638179e-02 6.82156916517266e-04
2.10772500000000e+00 3.53614426762821e-02 6.71698046679642e-04
2.11557500000000e+00 3.47543777694707e-02 6.61394945585088e-04
2.12342500000000e+00 3.41577346037759e-02 6.51245399195212e-04
2.13127500000000e+00 3.35713342647412e-02 6.41247222364181e-04
2.13912500000000e+00 3.29950009094105e-02 6.31398258529185e-04
2.14697500000000e+00 3.24285617135983e-02 6.21696379402134e-04
2.15482500000000e+00 3.18718468200655e-02 6.12139484662880e-04
2.16267500000000e+00 3.13246892875844e-02 6.02725501653848e-04
2.17052500000000e+00 3.07869250408780e-02 5.93452385076215e-04
2.17837500000000e+00 3.02583928214195e-02 5.84318116687655e-04
2.18622500000000e+00 2.97389341390758e-02 5.75320705001767e-04
2.19407500000000e+00 2.92283932245809e-02 5.66458184989149e-04
2.20192500000000e+00 2.87266169828263e-02 5.57728617780225e-04
2.20977500000000e+00 2.82334549469521e-02 5.49130090369878e-04
2.21762500000000e+00 2.77487592332269e-02 5.40660715323862e-04
2.22547500000000e+00 2.72723844967021e-02 5.32318630487169e-04
2.23332500000000e+00 2.68041878876278e-02 5.24101998694189e-04
2.24117500000000e+00 2.63440290086160e-02 5.16009007480861e-04
2.24902500000000e+00 2.58917698725407e-02 5.08037868798860e-04
2.25687500000000e+00 2.54472748611594e-02 5.00186818731746e-04
2.26472500000000e+00 2.50104106844455e-02 4.92454117213111e-04
2.27257500000000e+00 2.45810463406188e-02 4.84838047746818e-04
2.28042500000000e+00 2.41590530768626e-02 4.77336917129378e-04
2.28827500000000e+00 2.37443043507143e-02 4.69949055174367e-04
2.29612500000000e+00 2.33366757921194e-02 4.62672814439029e-04
2.30397500000000e+00 2.29360451661373e-02 4.55506569953014e-04
2.31182500000000e+00 2.25422923362863e-02 4.48448718949296e-04
2.31967500000000e+00 2.21552992285186e-02 4.41497680597285e-04
2.32752500000000e+00 2.17749497958141e-02 4.34651895738128e-04
2.33537500000000e+00 2.14011299833808e-02 4.27909826622255e-04
2.34322500000000e+00 2.10337276944541e-02 4.21269956649139e-04
2.35107500000000e+00 2.06726327566818e-02 4.14730790109293e-04
2.35892500000000e+00 2.03177368890877e-02 4.08290851928555e-04
2.36677500000000e+00 1.99689336696007e-02 4.01948687414609e-04
2.37462500000000e+00 1.96261185031429e-02 3.95702862005768e-04
2.38247500000000e+00 1.92891885902643e-02 3.89551961022050e-04
2.39032500000000e+00 1.89580428963170e-02 3.83494589418523e-04
2.39817500000000e+00 1.86325821211576e-02 3.77529371540926e-04
2.40602500000000e+00 1.83127086693704e-02 3.71654950883603e-04
2.41387500000000e+00 1.79983266210019e-02 3.65869989849711e-04
2.42172500000000e+00 1.76893417027970e-02 3.60173169513693e-04
2.42957500000000e+00 1.73856612599296e-02 3.54563189386076e-04
2.43742500000000e+00 1.70871942282185e-02 3.49038767180534e-04
2.44527500000000e+00 1.67938511068198e-02 3.43598638583254e-04
2.45312500000000e+00 1.65055439313888e-02 3.38241557024579e-04
2.46097500000000e+00 1.62221862477019e-02 3.32966293452897e-04
2.46882500000000e+00 1.59436930857319e-02 3.27771636110854e-04
2.47667500000000e+00 1.56699809341683e-02 3.22656390313848e-04
