Energy (eV)          EEDF (eV^-(3/2))     First Anisotropy
9.23728813559322e-03 2.01982316585698e-01 9.86426181466637e-05
2.77118644067797e-02 2.00798246609149e-01 1.62957388525489e-04
4.61864406779661e-02 1.99621117944981e-01 2.15308772036796e-04
6.46610169491525e-02 1.98450889897357e-01 2.55194290667658e-04
8.31355932203390e-02 1.97287522013515e-01 2.88553617223505e-04
1.01610169491525e-01 1.96130974077698e-01 3.17629147223896e-04
1.20084745762712e-01 1.94981206106327e-01 3.43579695776137e-04
1.38559322033898e-01 1.93838178360713e-01 3.67104080145117e-04
1.57033898305085e-01 1.92701851326794e-01 3.88665141906442e-04
1.75508474576271e-01 1.91572185722735e-01 4.08589567686448e-04
1.93983050847458e-01 1.90449142491435e-01 4.27118862293762e-04
2.12457627118644e-01 1.89332682817302e-01 4.44437975494504e-04
2.30932203389831e-01 1.88222768105416e-01 4.60692552997875e-04
2.49406779661017e-01 1.87119359982843e-01 4.75999910805343e-04
2.67881355932203e-01 1.86022420311220e-01 4.90456334596813e-04
2.86355932203390e-01 1.84931911170663e-01 5.04142108674228e-04
3.04830508474576e-01 1.83847794863590e-01 5.17125084057888e-04
3.23305084745763e-01 1.82770033910159e-01 5.29463276541265e-04
3.41779661016949e-01 1.81698591057272e-01 5.41206801436322e-04
3.60254237288136e-01 1.80633429266518e-01 5.52399341031880e-04
3.78728813559322e-01 1.79574511716650e-01 5.63079274672544e-04
3.97203389830508e-01 1.78521801799668e-01 5.73280563268339e-04
4.15677966101695e-01 1.77475263127671e-01 5.83033451940226e-04
4.34152542372881e-01 1.76434859523189e-01 5.92365034259620e-04
4.52627118644068e-01 1.75400555018577e-01 6.01299706912629e-04
4.71101694915254e-01 1.74372313861809e-01 6.09859544835536e-04
4.89576271186441e-01 1.73350100507985e-01 6.18064610921246e-04
5.08050847457627e-01 1.72333879620566e-01 6.25933212677244e-04
5.26525423728814e-01 1.71323616068275e-01 6.33482117666711e-04
5.45000000000000e-01 1.70319274929737e-01 6.40726736618545e-04
5.63474576271186e-01 1.69320821486252e-01 6.47681279185924e-04
5.81949152542373e-01 1.68328221222657e-01 6.54358886001556e-04
6.00423728813559e-01 1.67341439824502e-01 6.60771742311647e-04
6.18898305084746e-01 1.66360443181855e-01 6.66931177198052e-04
6.37372881355932e-01 1.65385197383009e-01 6.72847749813138e-04
6.55847457627119e-01 1.64415668715075e-01 6.78531323555454e-04
6.74322033898305e-01 1.63451823661382e-01 6.83991131118765e-04
6.92796610169492e-01 1.62493628904642e-01 6.89235832628241e-04
7.11271186440678e-01 1.61541051321386e-01 6.94273567255048e-04
7.29745762711864e-01 1.60594057981046e-01 6.99111996822128e-04
7.48220338983051e-01 1.59652616148745e-01 7.03758346638117e-04
7.66694915254237e-01 1.58716693280153e-01 7.08219441723483e-04
7.85169491525424e-01 1.57786257021720e-01 7.12501738278378e-04
8.03644067796610e-01 1.56861275208428e-01 7.16611351962787e-04
8.22118644067797e-01 1.55941715866149e-01 7.20554084159176e-04
8.40593220338983e-01 1.55027547207000e-01 7.24335445692339e-04
8.59067796610170e-01 1.54118737629455e-01 7.27960677404368e-04
8.77542372881356e-01 1.53215255716223e-01 7.31434768846308e-04
8.96016949152542e-01 1.52317070236270e-01 7.34762476023641e-04
9.14491525423729e-01 1.51424150140580e-01 7.37948337774923e-04
9.32966101694915e-01 1.50536464561214e-01 7.40996688940877e-04
9.51440677966102e-01 1.49653982813118e-01 7.43911674130601e-04
9.69915254237288e-01 1.48776674390140e-01 7.46697260159406e-04
9.88389830508475e-01 1.47904508964960e-01 7.49357246675410e-04
1.00686440677966e+00 1.47037456387193e-01 7.51895275073219e-04
1.02533898305085e+00 1.46175486689083e-01 7.54314841613809e-04
1.04381355932203e+00 1.45318570066054e-01 7.56619303184592e-04
1.06228813559322e+00 1.44466676895828e-01 7.58811881144106e-04
1.08076271186441e+00 1.43619777737646e-01 7.60895678280169e-04
1.09923728813559e+00 1.42777843307569e-01 7.62873680525047e-04
1.11771186440678e+00 1.41940844501198e-01 7.64748758050849e-04
1.13618644067797e+00 1.41108752392166e-01 7.66523681465951e-04
1.15466101694915e+00 1.40281538208863e-01 7.68201122189251e-04
1.17313559322034e+00 1.39459173355763e-01 7.69783652508803e-04
1.19161016949153e+00 1.38641629411911e-01 7.71273760265718e-04
1.21008474576271e+00 1.37828878109038e-01 7.72673846810711e-04
1.22855932203390e+00 1.37020891358159e-01 7.73986232529971e-04
1.24703389830508e+00 1.36217641221749e-01 7.75213162532110e-04
1.26550847457627e+00 1.35419099932659e-01 7.76356803966219e-04
1.28398305084746e+00 1.34625239892753e-01 7.77419258656259e-04
1.30245762711864e+00 1.33836033653211e-01 7.78402561733184e-04
1.32093220338983e+00 1.33051453932366e-01 7.79308680127870e-04
1.33940677966102e+00 1.32271473614360e-01 7.80139524304468e-04
1.35788135593220e+00 1.31496065730508e-01 7.80896945104152e-04
1.37635593220339e+00 1.30725203481730e-01 7.81582737502073e-04
1.39483050847458e+00 1.29958860214824e-01 7.82198644584650e-04
1.41330508474576e+00 1.29197009438448e-01 7.82746354099952e-04
1.43177966101695e+00 1.28439624821879e-01 7.83227508881400e-04
1.45025423728814e+00 1.27686680178107e-01 7.83643704721275e-04
1.46872881355932e+00 1.26938149478963e-01 7.83996488185731e-04
1.48720338983051e+00 1.26194006853900e-01 7.84287366442860e-04
1.50567796610170e+00 1.25454226573930e-01 7.84517803698039e-04
1.52415254237288e+00 1.24718783070774e-01 7.84689223936595e-04
1.54262711864407e+00 1.23987650916382e-01 7.84803013897523e-04
1.56110169491525e+00 1.23260804836604e-01 7.84860519377709e-04
1.57957627118644e+00 1.22538219710042e-01 7.84863054144667e-04
1.59805084745763e+00 1.21819870553377e-01 7.84811897506269e-04
1.61652542372881e+00 1.21105732534347e-01 7.84708291861129e-04
1.63500000000000e+00 1.20395780970628e-01 7.84553451184669e-04
1.65347457627119e+00 1.19689991315841e-01 7.84348557381609e-04
1.67194915254237e+00 1.18988339176073e-01 7.84094762401545e-04
1.69042372881356e+00 1.18290800292024e-01 7.83793190577958e-04
1.70889830508475e+00 1.17597350550808e-01 7.83444934930283e-04
1.72737288135593e+00 1.16907965984892e-01 7.83051064965307e-04
1.74584745762712e+00 1.16222622759242e-01 7.82612624164636e-04
1.76432203389830e+00 1.15541297182557e-01 7.82130627473071e-04
1.78279661016949e+00 1.14863965706233e-01 7.81606068774961e-04
1.80127118644068e+00 1.14190604912072e-01 7.81039917318497e-04
1.81974576271186e+00 1.13521191526654e-01 7.80433119418516e-04
1.83822033898305e+00 1.12855702405643e-01 7.79786600368109e-04
1.85669491525424e+00 1.12194114544066e-01 7.79101260853954e-04
1.87516949152542e+00 1.11536405075313e-01 7.78377983894417e-04
1.89364406779661e+00 1.10882551259800e-01 7.77617632356042e-04
1.91211864406780e+00 1.10232530494764e-01 7.76821046481076e-04
1.93059322033898e+00 1.09586320313299e-01 7.75989050566150e-04
1.94906779661017e+00 1.08943898373487e-01 7.75122449531741e-04
1.96754237288136e+00 1.08305242470977e-01 7.74222030337715e-04
1.98601694915254e+00 1.07670330525111e-01 7.73288563591528e-04
2.00449152542373e+00 1.07039140587919e-01 7.72322800130154e-04
2.02296610169492e+00 1.06411650843191e-01 7.71325477259558e-04
2.04144067796610e+00 1.05787839596404e-01 7.70297316355630e-04
2.05991525423729e+00 1.05167685283318e-01 7.69239020481822e-04
2.07838983050847e+00 1.04551166469080e-01 7.68151280414478e-04
2.09686440677966e+00 1.03938261838543e-01 7.67034771388989e-04
2.11533898305085e+00 1.03328950207358e-01 7.65890154306501e-04
2.13381355932203e+00 1.02723210509622e-01 7.64718077116756e-04
2.15228813559322e+00 1.02121021805805e-01 7.63519171587945e-04
2.17076271186441e+00 1.01522363281876e-01 7.62294058963946e-04
2.18923728813559e+00 1.00927214240314e-01 7.61043347676217e-04
2.20771186440678e+00 1.00335554107686e-01 7.59767631075274e-04
2.22618644067797e+00 9.97473624338112e-02 7.58467492906426e-04
2.24466101694915e+00 9.91626188830984e-02 7.57143505061670e-04
2.26313559322034e+00 9.85813032418216e-02 7.55796225351265e-04
2.28161016949153e+00 9.80033954172862e-02 7.54426202807368e-04
2.30008474576271e+00 9.74288754295017e-02 7.53033974676304e-04
2.31855932203390e+00 9.68577234206073e-02 7.51620067421431e-04
2.33703389830508e+00 9.62899196442363e-02 7.50184997882169e-04
2.35550847457627e+00 9.57254444722415e-02 7.48729270296683e-04
2.37398305084746e+00 9.51642783939029e-02 7.47253381305877e-04
2.39245762711864e+00 9.46064020081465e-02 7.45757817830000e-04
2.41093220338983e+00 9.40517960300021e-02 7.44243054965343e-04
2.42940677966102e+00 9.35004412898216e-02 7.42709560838932e-04
2.44788135593220e+00 9.29523187257831e-02 7.41157793787975e-04
2.46635593220339e+00 9.24074093922897e-02 7.39588203248038e-04
2.48483050847458e+00 9.18656944504005e-02 7.38001230783887e-04
2.50330508474576e+00 9.13271551738205e-02 7.36397307300820e-04
2.52177966101695e+00 9.07917729481515e-02 7.34776857637326e-04
2.54025423728814e+00 9.02595292638727e-02 7.33140298566669e-04
2.55872881355932e+00 8.97304057220971e-02 7.31488036818567e-04
2.57720338983051e+00 8.92043840338353e-02 7.29820473540274e-04
2.59567796610169e+00 8.86814460132239e-02 7.28138001656273e-04
2.61415254237288e+00 8.81615735850363e-02 7.26441006662867e-04
2.63262711864407e+00 8.76447487760422e-02 7.24729867553329e-04
2.65110169491525e+00 8.71309537203614e-02 7.23004954209204e-04
2.66957627118644e+00 8.66201706587552e-02 7.21266631630031e-04
2.68805084745763e+00 8.61123819322715e-02 7.19515258056628e-04
2.70652542372881e+00 8.56075699873939e-02 7.17751183113923e-04
2.72500000000000e+00 8.51057173753479e-02 7.15974751923723e-04
2.74347457627119e+00 8.46068067459613e-02 7.14186302634818e-04
2.76194915254237e+00 8.41108208544054e-02 7.12386167139816e-04
2.78042372881356e+00 8.36177425533663e-02 7.10574671911787e-04
2.79889830508475e+00 8.31275547978450e-02 7.08752135564866e-04
2.81737288135593e+00 8.26402406444875e-02 7.06918872760780e-04
2.83584745762712e+00 8.21557832458125e-02 7.05075192448682e-04
2.85432203389831e+00 8.16741658548325e-02 7.03221396123788e-04
2.87279661016949e+00 8.11953718243980e-02 7.01357781628984e-04
2.89127118644068e+00 8.07193846016154e-02 6.99484640845010e-04
2.90974576271186e+00 8.02461877339143e-02 6.97602260341511e-04
2.92822033898305e+00 7.97757648619343e-02 6.95710922137872e-04
2.94669491525424e+00 7.93080997238409e-02 6.93810901422632e-04
2.96516949152542e+00 7.88431761546911e-02 6.91902470170154e-04
2.98364406779661e+00 7.83809780811763e-02 6.89985895490630e-04
3.00211864406780e+00 7.79214895257805e-02 6.88061437998134e-04
3.02059322033898e+00 7.74646946061602e-02 6.86129355332702e-04
3.03906779661017e+00 7.70105775300549e-02 6.84189900000192e-04
3.05754237288136e+00 7.65591226007630e-02 6.82243319966516e-04
3.07601694915254e+00 7.61103142106613e-02 6.80289859353016e-04
3.09449152542373e+00 7.56641368450960e-02 6.78329756304071e-04
3.11296610169492e+00 7.52205750817812e-02 6.76363246341987e-04
3.13144067796610e+00 7.47796135859989e-02 6.74390560820830e-04
3.14991525423729e+00 7.43412371143495e-02 6.72411925397437e-04
3.16838983050847e+00 7.39054305141659e-02 6.70427563300546e-04
3.18686440677966e+00 7.34721787188614e-02 6.68437693310219e-04
3.20533898305085e+00 7.30414667528835e-02 6.66442530302669e-04
3.22381355932203e+00 7.26132797257964e-02 6.64442285888385e-04
3.24228813559322e+00 7.21876028357963e-02 6.62437166417496e-04
3.26076271186441e+00 7.17644213691411e-02 6.60427376097370e-04
3.27923728813559e+00 7.13437206957577e-02 6.58413115543768e-04
3.29771186440678e+00 7.09254862726333e-02 6.56394580348258e-04
3.31618644067797e+00 7.05097036432595e-02 6.54371964117507e-04
3.33466101694915e+00 7.00963584333718e-02 6.52345457057377e-04
3.35313559322034e+00 6.96854363542263e-02 6.50315244572741e-04
3.37161016949153e+00 6.92769232020503e-02 6.48281510231023e-04
3.39008474576271e+00 6.88708048539147e-02 6.46244433912977e-04
3.40855932203390e+00 6.84670672720740e-02 6.44204192300921e-04
3.42703389830508e+00 6.80656964987158e-02 6.42160959450589e-04
3.44550847457627e+00 6.76666786590334e-02 6.40114904965727e-04
3.46398305084746e+00 6.72699999606986e-02 6.38066196828017e-04
3.48245762711864e+00 6.68756466899516e-02 6.36015000070026e-04
3.50093220338983e+00 6.64836052145712e-02 6.33961475462847e-04
3.51940677966102e+00 6.60938619833553e-02 6.31905782276791e-04
3.53788135593220e+00 6.57064035223288e-02 6.29848076550155e-04
3.55635593220339e+00 6.53212164386898e-02 6.27788511540090e-04
3.57483050847458e+00 6.49382874159914e-02 6.25727238251140e-04
3.59330508474576e+00 6.45576032169313e-02 6.23664403726353e-04
3.61177966101695e+00 6.41791506828507e-02 6.21600153685286e-04
3.63025423728814e+00 6.38029167301398e-02 6.19534631279938e-04
3.64872881355932e+00 6.34288883529357e-02 6.17467975864838e-04
3.66720338983051e+00 6.30570526226286e-02 6.15400325571272e-04
3.68567796610169e+00 6.26873966843744e-02 6.13331815685903e-04
3.70415254237288e+00 6.23199077606873e-02 6.11262579068539e-04
3.72262711864407e+00 6.19545731470112e-02 6.09192746641308e-04
3.74110169491525e+00 6.15913802142572e-02 6.07122445788083e-04
3.75957627118644e+00 6.12303164083260e-02 6.05051802816494e-04
3.77805084745763e+00 6.08713692467992e-02 6.02980941791363e-04
3.79652542372881e+00 6.05145263213925e-02 6.00909983381362e-04
3.81500000000000e+00 6.01597752974882e-02 5.98839047262260e-04
3.83347457627119e+00 5.98071039109202e-02 5.96768250597676e-04
3.85194915254237e+00 5.94564999712523e-02 5.94697708426683e-04
3.87042372881356e+00 5.91079513576998e-02 5.92627534117688e-04
3.88889830508475e+00 5.87614460214412e-02 5.90557837868482e-04
3.90737288135593e+00 5.84169719851645e-02 5.88488729006445e-04
3.92584745762712e+00 5.80745173400146e-02 5.86420314894048e-04
3.94432203389831e+00 5.77340702478294e-02 5.84352699846937e-04
3.96279661016949e+00 5.73956189406950e-02 5.82285987379922e-04
3.98127118644068e+00 5.70591517179797e-02 5.80220278782578e-04
3.99974576271186e+00 5.67246569493276e-02 5.78155673479508e-04
4.01822033898305e+00 5.63921230708989e-02 5.76092269452284e-04
4.03669491525424e+00 5.60615385874782e-02 5.74030161833167e-04
4.05516949152542e+00 5.57328920720429e-02 5.71969445055819e-04
4.07364406779661e+00 5.54061721629439e-02 5.69910211828208e-04
4.09211864406780e+00 5.50813675659459e-02 5.67852552117369e-04
4.11059322033898e+00 5.47584670538046e-02 5.65796555250154e-04
4.12906779661017e+00 5.44374594635259e-02 5.63742308577113e-04
4.14754237288136e+00 5.41183336991042e-02 5.61689897807972e-04
4.16601694915254e+00 5.38010787280509e-02 5.59639407404446e-04
4.18449152542373e+00 5.34856835833202e-02 5.57590919260962e-04
4.20296610169492e+00 5.31721373628982e-02 5.55544514717392e-04
4.22144067796610e+00 5.28604292271962e-02 5.53500273594925e-04
4.23991525423729e+00 5.25505484009137e-02 5.51458273243018e-04
4.25838983050847e+00 5.22424841726375e-02 5.49418590505599e-04
4.27686440677966e+00 5.19362258923048e-02 5.47381300467440e-04
4.29533898305085e+00 5.16317629737116e-02 5.45346476766990e-04
4.31381355932203e+00 5.13290848913038e-02 5.43314191962219e-04
4.33228813559322e+00 5.10281811819370e-02 5.41284516292751e-04
4.35076271186441e+00 5.07290414444871e-02 5.39257519564963e-04
4.36923728813559e+00 5.04316553374352e-02 5.37233270246291e-04
4.38771186440678e+00 5.01360125805725e-02 5.35211834570051e-04
4.40618644067797e+00 4.98421029546187e-02 5.33193278377623e-04
4.42466101694915e+00 4.95499162988719e-02 5.31177666232860e-04
4.44313559322034e+00 4.92594425128612e-02 5.29165060546581e-04
4.46161016949153e+00 4.89706715559709e-02 5.27155523376784e-04
4.48008474576271e+00 4.86835934451544e-02 5.25149115276834e-04
4.49855932203390e+00 4.83981982571652e-02 5.23145895580834e-04
4.51703389830509e+00 4.81144761256669e-02 5.21145922737345e-04
4.53550847457627e+00 4.78324172427945e-02 5.19149253171916e-04
4.55398305084746e+00 4.75520118587914e-02 5.17155943013885e-04
4.57245762711864e+00 4.72732502798293e-02 5.15166047264115e-04
4.59093220338983e+00 4.69961228695225e-02 5.13179618972501e-04
4.60940677966102e+00 4.67206200485708e-02 5.11196710925794e-04
4.62788135593220e+00 4.64467322926375e-02 5.09217374565598e-04
4.64635593220339e+00 4.61744501343996e-02 5.07241660255175e-04
4.66483050847458e+00 4.59037641608675e-02 5.05269617591254e-04
4.68330508474576e+00 4.56346650148174e-02 5.03301294335467e-04
4.70177966101695e+00 4.53671433944451e-02 5.01336738034004e-04
4.72025423728814e+00 4.51011900513425e-02 4.99375995235370e-04
4.73872881355932e+00 4.48367957918860e-02 4.97419110717254e-04
4.75720338983051e+00 4.45739514768966e-02 4.95466129069858e-04
4.77567796610169e+00 4.43126480196698e-02 4.93517093679224e-04
4.79415254237288e+00 4.40528763878591e-02 4.91572046976809e-04
4.81262711864407e+00 4.37946276009902e-02 4.89631030731087e-04
4.83110169491525e+00 4.35378927317747e-02 4.87694085043288e-04
4.84957627118644e+00 4.32826629057810e-02 4.85761249867519e-04
4.86805084745763e+00 4.30289292995535e-02 4.83832564275218e-04
4.88652542372881e+00 4.27766831418870e-02 4.81908065728017e-04
4.90500000000000e+00 4.25259157135037e-02 4.79987791564123e-04
4.92347457627119e+00 4.22766183452210e-02 4.78071778042482e-04
4.94194915254237e+00 4.20287824196853e-02 4.76160060576462e-04
4.96042372881356e+00 4.17823993690630e-02 4.74252674006825e-04
4.97889830508475e+00 4.15374606762469e-02 4.72349651657463e-04
4.99737288135593e+00 4.12939578745433e-02 4.70451026762932e-04
5.01584745762712e+00 4.10518825459220e-02 4.68556831776470e-04
5.03432203389831e+00 4.08112263221876e-02 4.66667097686013e-04
5.05279661016949e+00 4.05719808846717e-02 4.64781855410184e-04
5.07127118644068e+00 4.03341379625283e-02 4.62901134899326e-04
5.08974576271186e+00 4.00976893343308e-02 4.61024965354523e-04
5.10822033898305e+00 3.98626268259250e-02 4.59153375483212e-04
5.12669491525424e+00 3.96289423115385e-02 4.57286392611151e-04
5.14516949152542e+00 3.93966277134824e-02 4.55424044023575e-04
5.16364406779661e+00 3.91656750005225e-02 4.53566356313970e-04
5.18211864406780e+00 3.89360761889562e-02 4.51713354740476e-04
5.20059322033898e+00 3.87078233423192e-02 4.49865064537587e-04
5.21906779661017e+00 3.84809085697985e-02 4.48021510070456e-04
5.23754237288136e+00 3.82553240277039e-02 4.46182715040198e-04
5.25601694915254e+00 3.80310619174708e-02 4.44348702723534e-04
5.27449152542373e+00 3.78081144866812e-02 4.42519495137202e-04
5.29296610169492e+00 3.75864740287789e-02 4.40695114298579e-04
5.31144067796610e+00 3.73661328815523e-02 4.38875581612775e-04
5.32991525423729e+00 3.71470834281250e-02 4.37060917266569e-04
5.34838983050847e+00 3.69293180966772e-02 4.35251141461698e-04
5.36686440677966e+00 3.67128293589661e-02 4.33446273618876e-04
5.38533898305085e+00 3.64976097316836e-02 4.31646332570382e-04
5.40381355932203e+00 3.62836517745963e-02 4.29851336784873e-04
5.42228813559322e+00 3.60709480914859e-02 4.28061303580875e-04
5.44076271186441e+00 3.58594913298777e-02 4.26276250312342e-04
5.45923728813559e+00 3.56492741796260e-02 4.24496193791276e-04
5.47771186440678e+00 3.54402893738264e-02 4.22721149717246e-04
5.49618644067797e+00 3.52325296885503e-02 4.20951133837243e-04
5.51466101694915e+00 3.50259879414649e-02 4.19186161380733e-04
5.53313559322034e+00 3.48206569927192e-02 4.17426246501291e-04
5.55161016949153e+00 3.46165297446834e-02 4.15671403411354e-04
5.57008474576271e+00 3.44135991406024e-02 4.13921645648321e-04
5.58855932203390e+00 3.42118581658154e-02 4.12176986251607e-04
5.60703389830508e+00 3.40112998460652e-02 4.10437437969313e-04
5.62550847457627e+00 3.38119172483392e-02 4.08703012532880e-04
5.64398305084746e+00 3.36137034806164e-02 4.06973721748313e-04
5.66245762711864e+00 3.34166516905797e-02 4.05249576964165e-04
5.68093220338983e+00 3.32207550664321e-02 4.03530588545394e-04
5.69940677966102e+00 3.30260068366486e-02 4.01816766941231e-04
5.71788135593220e+00 3.28324002687199e-02 4.00108121993946e-04
5.73635593220339e+00 3.26399286702779e-02 3.98404663105137e-04
5.75483050847458e+00 3.24485853875201e-02 3.96706399429836e-04
5.77330508474576e+00 3.22583638059843e-02 3.95013339193326e-04
5.79177966101695e+00 3.20692573503081e-02 3.93325490718193e-04
5.81025423728814e+00 3.18812594830258e-02 3.91642861922996e-04
5.82872881355932e+00 3.16943637053214e-02 3.89965459826527e-04
