Energy (eV)          EEDF (eV^-(3/2))     First Anisotropy
1.55714285714286e-02 7.86670783418510e-01 7.75159161846510e-04
4.67142857142857e-02 7.67483632605103e-01 1.26866319513635e-03
7.78571428571429e-02 7.48764462485877e-01 1.64499106340302e-03
1.09000000000000e-01 7.30501858895923e-01 1.91338474564813e-03
1.40142857142857e-01 7.12684685943305e-01 2.12318291351189e-03
1.71285714285714e-01 6.95302079547712e-01 2.29356350574866e-03
2.02428571428571e-01 6.78343440477567e-01 2.43471115673510e-03
2.33571428571429e-01 6.61798428027154e-01 2.55292879049501e-03
2.64714285714286e-01 6.45656953705375e-01 2.65249525719930e-03
2.95857142857143e-01 6.29909175086773e-01 2.73650238973174e-03
3.27000000000000e-01 6.14545489806364e-01 2.80728718496033e-03
3.58142857142857e-01 5.99556529662145e-01 2.86667716808257e-03
3.89285714285714e-01 5.84933155035219e-01 2.91613988382384e-03
4.20428571428571e-01 5.70666449176877e-01 2.95687908911079e-03
4.51571428571429e-01 5.56747712821113e-01 2.98989940783761e-03
4.82714285714286e-01 5.43168458879647e-01 3.01605138890015e-03
5.13857142857143e-01 5.29920407267695e-01 3.03606385794280e-03
5.45000000000000e-01 5.16995479854486e-01 3.05056774887990e-03
5.76142857142857e-01 5.04385795515847e-01 3.06011404338441e-03
6.07285714285714e-01 4.92083665396021e-01 3.06518754548999e-03
6.38428571428571e-01 4.80081588149173e-01 3.06621763392217e-03
6.69571428571429e-01 4.68372245389767e-01 3.06358677460891e-03
7.00714285714286e-01 4.56948497229928e-01 3.05763736011745e-03
7.31857142857143e-01 4.45803377926168e-01 3.04867726590496e-03
7.63000000000000e-01 4.34930091631738e-01 3.03698441498570e-03
7.94142857142857e-01 4.24322008239649e-01 3.02281056058840e-03
8.25285714285714e-01 4.13972659380552e-01 3.00638445602744e-03
8.56428571428571e-01 4.03875734436570e-01 2.98791452959896e-03
8.87571428571429e-01 3.94025076707835e-01 2.96759115386072e-03
9.18714285714286e-01 3.84414679658299e-01 2.94558859159290e-03
9.49857142857143e-01 3.75038683253353e-01 2.92206667121587e-03
9.81000000000000e-01 3.65891370386516e-01 2.89717223921109e-03
1.01214285714286e+00 3.56967163384727e-01 2.87104042549663e-03
1.04328571428571e+00 3.48260620600410e-01 2.84379573995728e-03
1.07442857142857e+00 3.39766433223806e-01 2.81555306876851e-03
1.10557142857143e+00 3.31479421759574e-01 2.78641852624461e-03
1.13671428571429e+00 3.23394533122600e-01 2.75649019599181e-03
1.16785714285714e+00 3.15506837541328e-01 2.72585884926449e-03
1.19900000000000e+00 3.07811525347167e-01 2.69460853516068e-03
1.23014285714286e+00 3.00303904249546e-01 2.66281711413478e-03
1.26128571428571e+00 2.92979396404261e-01 2.63055676197058e-03
1.29242857142857e+00 2.85833535676976e-01 2.59789442116465e-03
1.32357142857143e+00 2.78861964752380e-01 2.56489219196108e-03
1.35471428571429e+00 2.72060432647604e-01 2.53160768127699e-03
1.38585714285714e+00 2.65424792110032e-01 2.49809436188167e-03
1.41700000000000e+00 2.58950996944032e-01 2.46440185993352e-03
1.44814285714286e+00 2.52635099690459e-01 2.43057622110187e-03
1.47928571428571e+00 2.46473249169897e-01 2.39666017277038e-03
1.51042857142857e+00 2.40461688173720e-01 2.36269336186321e-03
1.54157142857143e+00 2.34596751052955e-01 2.32871255974149e-03
1.57271428571429e+00 2.28874861605238e-01 2.29475184636830e-03
1.60385714285714e+00 2.23292530887278e-01 2.26084281279561e-03
1.63500000000000e+00 2.17846354982772e-01 2.22701471681086e-03
1.66614285714286e+00 2.12533013033163e-01 2.19329462966961e-03
1.69728571428571e+00 2.07349265176654e-01 2.15970758654260e-03
1.72842857142857e+00 2.02291950601522e-01 2.12627672390058e-03
1.75957142857143e+00 1.97357985530722e-01 2.09302339628196e-03
1.79071428571429e+00 1.92544361431031e-01 2.05996728138728e-03
1.82185714285714e+00 1.87848143173694e-01 2.02712650364395e-03
1.85300000000000e+00 1.83266467167362e-01 1.99451772449985e-03
1.88414285714286e+00 1.78796539690557e-01 1.96215622887658e-03
1.91528571428571e+00 1.74435635161535e-01 1.93005601736723e-03
1.94642857142857e+00 1.70181094497840e-01 1.89822989067535e-03
1.97757142857143e+00 1.66030323429262e-01 1.86668951998214e-03
2.00871428571429e+00 1.61980790982679e-01 1.83544551008599e-03
2.03985714285714e+00 1.58030027935240e-01 1.80450747898916e-03
2.07100000000000e+00 1.54175625250738e-01 1.77388411271551e-03
2.10214285714286e+00 1.50415232669602e-01 1.74358321853725e-03
2.13328571428571e+00 1.46746557255821e-01 1.71361178407185e-03
2.16442857142857e+00 1.43167362015051e-01 1.68397603141852e-03
2.19557142857143e+00 1.39675464481014e-01 1.65468146115269e-03
2.22671428571429e+00 1.36268735435104e-01 1.62573289153432e-03
2.25785714285714e+00 1.32945097605476e-01 1.59713451172081e-03
2.28900000000000e+00 1.29702524356395e-01 1.56888991601411e-03
2.32014285714286e+00 1.26539038497200e-01 1.54100213756817e-03
2.35128571428571e+00 1.23452711061526e-01 1.51347368744935e-03
2.38242857142857e+00 1.20441660143496e-01 1.48630659035247e-03
2.41357142857143e+00 1.17504049712383e-01 1.45950241274653e-03
2.44471428571429e+00 1.14638088531521e-01 1.43306228769577e-03
2.47585714285714e+00 1.11842029064144e-01 1.40698695137753e-03
2.50700000000000e+00 1.09114166374077e-01 1.38127676481581e-03
2.53814285714286e+00 1.06452837120411e-01 1.35593173557614e-03
2.56928571428571e+00 1.03856418531641e-01 1.33095154411848e-03
2.60042857142857e+00 1.01323327425708e-01 1.30633556780710e-03
2.63157142857143e+00 9.88520192155237e-02 1.28208289913606e-03
2.66271428571429e+00 9.64409869967374e-02 1.25819236156474e-03
2.69385714285714e+00 9.40887606274222e-02 1.23466253503525e-03
2.72500000000000e+00 9.17939058055896e-02 1.21149176982551e-03
2.75614285714286e+00 8.95550232210834e-02 1.18867820059704e-03
2.78728571428571e+00 8.73707476933604e-02 1.16621976440575e-03
2.81842857142857e+00 8.52397473464595e-02 1.14411421702415e-03
2.84957142857143e+00 8.31607227742967e-02 1.12235914477201e-03
2.88071428571429e+00 8.11324062712921e-02 1.10095197458536e-03
2.91185714285714e+00 7.91535610582538e-02 1.07988999206595e-03
2.94300000000000e+00 7.72229805079815e-02 1.05917035024878e-03
2.97414285714286e+00 7.53394874301010e-02 1.03879007866358e-03
3.00528571428571e+00 7.35019333462809e-02 1.01874609572788e-03
3.03642857142857e+00 7.17091977957107e-02 9.99035219897158e-04
3.06757142857143e+00 6.99601876342729e-02 9.79654177287092e-04
3.09871428571429e+00 6.82538363858935e-02 9.60599607973021e-04
3.12985714285714e+00 6.65891035913869e-02 9.41868078855222e-04
3.16100000000000e+00 6.49649741581814e-02 9.23456089091157e-04
3.19214285714286e+00 6.33804577574581e-02 9.05360075852098e-04
3.22328571428571e+00 6.18345882148294e-02 8.87576422862130e-04
3.25442857142857e+00 6.03264229257333e-02 8.70101468007732e-04
3.28557142857143e+00 5.88550422668547e-02 8.52931508152589e-04
3.31671428571429e+00 5.74195490494204e-02 8.36062802945300e-04
3.34785714285714e+00 5.60190679714613e-02 8.19491584025724e-04
3.37900000000000e+00 5.46527450716360e-02 8.03214058249735e-04
3.41014285714286e+00 5.33197472211752e-02 7.87226411234080e-04
3.44128571428571e+00 5.20192616115820e-02 7.71524813216297e-04
3.47242857142857e+00 5.07504952625833e-02 7.56105424211121e-04
3.50357142857143e+00 4.95126745277156e-02 7.40964396938572e-04
3.53471428571429e+00 4.83050446336519e-02 7.26097878977061e-04
3.56585714285714e+00 4.71268692194516e-02 7.11502019355691e-04
3.59700000000000e+00 4.59774298777260e-02 6.97172970314342e-04
3.62814285714286e+00 4.48560257265737e-02 6.83106889362677e-04
3.65928571428571e+00 4.37619729788236e-02 6.69299943261472e-04
3.69042857142857e+00 4.26946045279121e-02 6.55748311466322e-04
3.72157142857143e+00 4.16532695324959e-02 6.42448187785679e-04
3.75271428571429e+00 4.06373330283501e-02 6.29395781437546e-04
3.78385714285714e+00 3.96461755407839e-02 6.16587321758090e-04
3.81500000000000e+00 3.86791926991203e-02 6.04019058994170e-04
3.84614285714286e+00 3.77357948760926e-02 5.91687265366347e-04
3.87728571428571e+00 3.68154068256287e-02 5.79588237726432e-04
3.90842857142857e+00 3.59174673343311e-02 5.67718299801065e-04
3.93957142857143e+00 3.50414288724336e-02 5.56073802998626e-04
3.97071428571429e+00 3.41867572668903e-02 5.44651126746475e-04
4.00185714285714e+00 3.33529313753372e-02 5.33446681834220e-04
4.03300000000000e+00 3.25394427621270e-02 5.22456910575064e-04
4.06414285714286e+00 3.17457953946001e-02 5.11678287207242e-04
4.09528571428571e+00 3.09715053384900e-02 5.01107319617350e-04
4.12642857142857e+00 3.02161004646251e-02 4.90740550743076e-04
4.15757142857143e+00 2.94791201555967e-02 4.80574558816248e-04
4.18871428571429e+00 2.87601150304296e-02 4.70605957237109e-04
4.21985714285714e+00 2.80586466703133e-02 4.60831396924762e-04
4.25100000000000e+00 2.73742873463329e-02 4.51247566076488e-04
4.28214285714286e+00 2.67066197636770e-02 4.41851190137379e-04
4.31328571428571e+00 2.60552368054864e-02 4.32639032865750e-04
4.34442857142857e+00 2.54197412860364e-02 4.23607897149092e-04
4.37557142857143e+00 2.47997457041996e-02 4.14754624881331e-04
4.40671428571429e+00 2.41948720115843e-02 4.06076096549371e-04
4.43785714285714e+00 2.36047513818146e-02 3.97569232860846e-04
4.46900000000000e+00 2.30290239816855e-02 3.89230994257792e-04
4.50014285714286e+00 2.24673387557652e-02 3.81058380612982e-04
4.53128571428571e+00 2.19193532109747e-02 3.73048431834671e-04
4.56242857142857e+00 2.13847332088911e-02 3.65198228276488e-04
4.59357142857143e+00 2.08631527585207e-02 3.57504890385779e-04
4.62471428571429e+00 2.03542938210628e-02 3.49965578121995e-04
4.65585714285714e+00 1.98578461158228e-02 3.42577492058986e-04
4.68700000000000e+00 1.93735069278491e-02 3.35337872759582e-04
4.71814285714286e+00 1.89009809265677e-02 3.28244000307825e-04
4.74928571428571e+00 1.84399799846105e-02 3.21293194594429e-04
4.78042857142857e+00 1.79902230030437e-02 3.14482815449622e-04
4.81157142857143e+00 1.75514357371688e-02 3.07810262156941e-04
4.84271428571429e+00 1.71233506321415e-02 3.01272972784589e-04
4.87385714285714e+00 1.67057066596994e-02 2.94868424906989e-04
4.90500000000000e+00 1.62982491564536e-02 2.88594134912338e-04
4.93614285714286e+00 1.59007296711912e-02 2.82447657445566e-04
4.96728571428571e+00 1.55129058125027e-02 2.76426585476080e-04
4.99842857142857e+00 1.51345411017188e-02 2.70528550245687e-04
5.02957142857143e+00 1.47654048264670e-02 2.64751220712424e-04
5.06071428571429e+00 1.44052719022775e-02 2.59092302849326e-04
5.09185714285714e+00 1.40539227352340e-02 2.53549540091784e-04
5.12300000000000e+00 1.37111430860265e-02 2.48120712626087e-04
5.15414285714286e+00 1.33767239413975e-02 2.42803636793886e-04
5.18528571428571e+00 1.30504613859892e-02 2.37596165015112e-04
5.21642857142857e+00 1.27321564785979e-02 2.32496185616640e-04
5.24757142857143e+00 1.24216151290554e-02 2.27501622249861e-04
5.27871428571429e+00 1.21186479817231e-02 2.22610433192693e-04
5.30985714285714e+00 1.18230702999482e-02 2.17820611601179e-04
5.34100000000000e+00 1.15347018517671e-02 2.13130184810383e-04
5.37214285714286e+00 1.12533668016861e-02 2.08537213734198e-04
5.40328571428571e+00 1.09788936028947e-02 2.04039792695577e-04
5.43442857142857e+00 1.07111148931431e-02 1.99636049182497e-04
5.46557142857143e+00 1.04498673912284e-02 1.95324143268255e-04
5.49671428571429e+00 1.01949917989192e-02 1.91102266939557e-04
5.52785714285714e+00 9.94633270375648e-03 1.86968644210208e-04
5.55900000000000e+00 9.70373848295438e-03 1.82921530453945e-04
5.59014285714286e+00 9.46706121230354e-03 1.78959211821599e-04
5.62128571428571e+00 9.23615657551280e-03 1.75080005015697e-04
5.65242857142857e+00 9.01088377659884e-03 1.71282257006483e-04
5.68357142857143e+00 8.79110545285150e-03 1.67564344473544e-04
5.71471428571429e+00 8.57668759227799e-03 1.63924673173776e-04
5.74585714285714e+00 8.36749945183475e-03 1.60361677959667e-04
5.77700000000000e+00 8.16341347662581e-03 1.56873822155669e-04
5.80814285714286e+00 7.96430522322247e-03 1.53459597006295e-04
5.83928571428571e+00 7.77005328341063e-03 1.50117521421182e-04
5.87042857142857e+00 7.58053921047506e-03 1.46846141673949e-04
5.90157142857143e+00 7.39564744601731e-03 1.43644030876483e-04
5.93271428571429e+00 7.21526525046670e-03 1.40509788394321e-04
5.96385714285714e+00 7.03928263429346e-03 1.37442039800697e-04
5.99500000000000e+00 6.86759229006661e-03 1.34439436302437e-04
6.02614285714286e+00 6.70008952791145e-03 1.31500654226771e-04
6.05728571428571e+00 6.53667221137251e-03 1.28624394755004e-04
6.08842857142857e+00 6.37724069538951e-03 1.25809383619687e-04
6.11957142857143e+00 6.22169776476090e-03 1.23054370617855e-04
6.15071428571429e+00 6.06994857565569e-03 1.20358129077113e-04
6.18185714285714e+00 5.92190059774692e-03 1.17719455768149e-04
6.21300000000000e+00 5.77746355708040e-03 1.15137170382345e-04
6.24414285714286e+00 5.63654938175091e-03 1.12610115061097e-04
6.27528571428571e+00 5.49907214795492e-03 1.10137154130394e-04
6.30642857142857e+00 5.36494802780450e-03 1.07717173806598e-04
6.33757142857143e+00 5.23409523758158e-03 1.05349081751415e-04
6.36871428571429e+00 5.10643398851083e-03 1.03031806589097e-04
6.39985714285714e+00 4.98188643807969e-03 1.00764297793851e-04
6.43100000000000e+00 4.86037664199630e-03 9.85455252188566e-05
6.46214285714286e+00 4.74183050846801e-03 9.63744786691237e-05
6.49328571428571e+00 4.62617575282450e-03 9.42501676451289e-05
6.52442857142857e+00 4.51334185360958e-03 9.21716210636871e-05
6.55557142857143e+00 4.40326000906720e-03 9.01378868551056e-05
6.58671428571429e+00 4.29586309571024e-03 8.81480315300745e-05
6.61785714285714e+00 4.19108562736864e-03 8.62011400536839e-05
6.64900000000000e+00 4.08886371478938e-03 8.42963154239245e-05
6.68014285714286e+00 3.98913502715626e-03 8.24326782873410e-05
6.71128571428571e+00 3.89183875392144e-03 8.06093666967975e-05
6.74242857142857e+00 3.79691556786251e-03 7.88255358512809e-05
6.77357142857143e+00 3.70430758848959e-03 7.70803577341323e-05
6.80471428571429e+00 3.61395834717658e-03 7.53730207270205e-05
6.83585714285714e+00 3.52581275271040e-03 7.37027294788319e-05
6.86700000000000e+00 3.43981705731654e-03 7.20687045307348e-05
6.89814285714286e+00 3.35591882427416e-03 7.04701819727098e-05
6.92928571428571e+00 3.27406689581067e-03 6.89064132183895e-05
6.96042857142857e+00 3.19421136201928e-03 6.73766647657324e-05
6.99157142857143e+00 3.11630353008581e-03 6.58802178742493e-05
7.02271428571429e+00 3.04029589494352e-03 6.44163682227799e-05
7.05385714285714e+00 2.96614211029150e-03 6.29844257789545e-05
7.08500000000000e+00 2.89379696002309e-03 6.15837144673597e-05
7.11614285714286e+00 2.82321633097149e-03 6.02135718643381e-05
7.14728571428571e+00 2.75435718590401e-03 5.88733489913231e-05
7.17842857142857e+00 2.68717753737068e-03 5.75624100970067e-05
7.20957142857143e+00 2.62163642182455e-03 5.62801323709126e-05
7.24071428571429e+00 2.55769387492575e-03 5.50259056413716e-05
7.27185714285714e+00 2.49531090716074e-03 5.37991322493590e-05
7.30300000000000e+00 2.43444947981387e-03 5.25992267560531e-05
7.33414285714286e+00 2.37507248203126e-03 5.14256156729374e-05
7.36528571428571e+00 2.31714370810452e-03 5.02777372739945e-05
7.39642857142857e+00 2.26062783546821e-03 4.91550413991018e-05
7.42757142857143e+00 2.20549040293512e-03 4.80569892010141e-05
7.45871428571429e+00 2.15169778991337e-03 4.69830528798399e-05
7.48985714285714e+00 2.09921719589610e-03 4.59327155636743e-05
7.52100000000000e+00 2.04801662025344e-03 4.49054710518163e-05
7.55214285714286e+00 1.99806484293080e-03 4.39008235770508e-05
7.58328571428571e+00 1.94933140534062e-03 4.29182876363528e-05
7.61442857142857e+00 1.90178659185062e-03 4.19573878146734e-05
7.64557142857143e+00 1.85540141147935e-03 4.10176585622949e-05
7.67671428571429e+00 1.81014758040675e-03 4.00986439621694e-05
7.70785714285714e+00 1.76599750471979e-03 3.91998976187712e-05
7.73900000000000e+00 1.72292426341708e-03 3.83209824333307e-05
7.77014285714286e+00 1.68090159216607e-03 3.74614703951911e-05
7.80128571428571e+00 1.63990386722956e-03 3.66209424302076e-05
7.83242857142857e+00 1.59990608989106e-03 3.57989882437136e-05
7.86357142857143e+00 1.56088387106025e-03 3.49952061252655e-05
7.89471428571429e+00 1.52281341655528e-03 3.42092027453572e-05
7.92585714285714e+00 1.48567151258747e-03 3.34405930531983e-05
7.95700000000000e+00 1.44943551146769e-03 3.26890000805113e-05
7.98814285714286e+00 1.41408331793781e-03 3.19540547589605e-05
8.01928571428572e+00 1.37959337565001e-03 3.12353957851499e-05
8.05042857142857e+00 1.34594465406326e-03 3.05326694813632e-05
8.08157142857143e+00 1.31311663549588e-03 2.98455296248255e-05
8.11271428571429e+00 1.28108930274054e-03 2.91736372705300e-05
8.14385714285714e+00 1.24984312685322e-03 2.85166606581488e-05
8.17500000000000e+00 1.21935905513166e-03 2.78742750411756e-05
8.20614285714286e+00 1.18961849961320e-03 2.72461625275903e-05
8.23728571428571e+00 1.16060332570150e-03 2.66320119602037e-05
8.26842857142857e+00 1.13229584114205e-03 2.60315187936738e-05
8.29957142857143e+00 1.10467878513268e-03 2.54443849455854e-05
8.33071428571429e+00 1.07773531790173e-03 2.48703186423763e-05
8.36185714285714e+00 1.05144901043547e-03 2.43090343352458e-05
8.39300000000000e+00 1.02580383436724e-03 2.37602525516819e-05
8.42414285714286e+00 1.00078415229860e-03 2.32236997567287e-05
8.45528571428571e+00 9.76374708232224e-04 2.26991082473619e-05
8.48642857142857e+00 9.52560618296671e-04 2.21862160442680e-05
8.51757142857143e+00 9.29327361587638e-04 2.16847667622476e-05
8.54871428571429e+00 9.06660771398222e-04 2.11945094764918e-05
8.57985714285714e+00 8.84547026577026e-04 2.07151986471226e-05
8.61100000000000e+00 8.62972643024272e-04 2.02465939904162e-05
8.64214285714286e+00 8.41924465547306e-04 1.97884603582578e-05
8.67328571428571e+00 8.21389659812793e-04 1.93405676452290e-05
8.70442857142857e+00 8.01355704543211e-04 1.89026906936763e-05
8.73557142857143e+00 7.81810383813710e-04 1.84746091811547e-05
8.76671428571429e+00 7.62741779672627e-04 1.80561075045714e-05
8.79785714285714e+00 7.44138264871457e-04 1.76469747128501e-05
8.82900000000000e+00 7.25988495712426e-04 1.72470043954264e-05
8.86014285714286e+00 7.08281405195189e-04 1.68559945776975e-05
8.89128571428571e+00 6.91006196247051e-04 1.64737476395406e-05
8.92242857142857e+00 6.74152335157687e-04 1.61000702322707e-05
8.95357142857143e+00 6.57709545100168e-04 1.57347731810567e-05
8.98471428571429e+00 6.41667799921431e-04 1.53776713847028e-05
9.01585714285714e+00 6.26017318026324e-04 1.50285837558495e-05
9.04700000000000e+00 6.10748556361798e-04 1.46873331245698e-05
9.07814285714286e+00 5.95852204650169e-04 1.43537461478419e-05
9.10928571428571e+00 5.81319179694378e-04 1.40276532382856e-05
9.14042857142857e+00 5.67140619854488e-04 1.37088884916940e-05
9.17157142857143e+00 5.53307879598272e-04 1.33972896025691e-05
9.20271428571429e+00 5.39812524276212e-04 1.30926977775526e-05
9.23385714285714e+00 5.26646324976414e-04 1.27949576825367e-05
9.26500000000000e+00 5.13801253464743e-04 1.25039173594317e-05
9.29614285714286e+00 5.01269477332430e-04 1.22194281478971e-05
9.32728571428571e+00 4.89043355205640e-04 1.19413446231630e-05
9.35842857142857e+00 4.77115432098444e-04 1.16695245329271e-05
9.38957142857143e+00 4.65478434829329e-04 1.14038287243506e-05
9.42071428571429e+00 4.54125267624670e-04 1.11441210693769e-05
9.45185714285714e+00 4.43049007790389e-04 1.08902684181203e-05
9.48300000000000e+00 4.32242901456093e-04 1.06421405270946e-05
9.51414285714286e+00 4.21700359492088e-04 1.03996099916345e-05
9.54528571428571e+00 4.11414953479645e-04 1.01625521917586e-05
9.57642857142857e+00 4.01380411801382e-04 9.93084523732734e-06
9.60757142857143e+00 3.91590615786055e-04 9.70436990502901e-06
9.63871428571429e+00 3.82039596009178e-04 9.48300957402795e-06
9.66985714285714e+00 3.72721528651780e-04 9.26665018501492e-06
9.70100000000000e+00 3.63630731920752e-04 9.05518017838871e-06
9.73214285714286e+00 3.54761662613310e-04 8.84849043597854e-06
9.76328571428571e+00 3.46108912727143e-04 8.64647423399981e-06
9.79442857142857e+00 3.37667206171202e-04 8.44902719547479e-06
9.82557142857143e+00 3.29431395523030e-04 8.25604723590525e-06
