Energy (eV)          EEDF (eV^-(3/2))     First Anisotropy
1.83333333333333e-02 1.33646133162975e-01 8.01262332496995e-05
5.50000000000000e-02 1.32465980888274e-01 1.32171337326314e-04
9.16666666666667e-02 1.31296249863024e-01 1.74111054873832e-04
1.28333333333333e-01 1.30136848060535e-01 2.05748639225478e-04
1.65000000000000e-01 1.28987684266539e-01 2.31949764012642e-04
2.01666666666667e-01 1.27848668083238e-01 2.54559409482310e-04
2.38333333333333e-01 1.26719709896135e-01 2.74534982536656e-04
2.75000000000000e-01 1.25600720889013e-01 2.92456183340069e-04
3.11666666666667e-01 1.24491613034132e-01 3.08708497107219e-04
3.48333333333333e-01 1.23392299072815e-01 3.23565091014897e-04
3.85000000000000e-01 1.22302692520890e-01 3.37228702603815e-04
4.21666666666667e-01 1.21222707660746e-01 3.49855202372432e-04
4.58333333333333e-01 1.20152259526032e-01 3.61567813059314e-04
4.95000000000000e-01 1.19091263903449e-01 3.72466172632721e-04
5.31666666666667e-01 1.18039637325489e-01 3.82632370224526e-04
5.68333333333333e-01 1.16997297057436e-01 3.92135109812384e-04
6.05000000000000e-01 1.15964161097251e-01 4.01032670330686e-04
6.41666666666667e-01 1.14940148168712e-01 4.09375065742269e-04
6.78333333333333e-01 1.13925177709918e-01 4.17205653689978e-04
7.15000000000000e-01 1.12919169872033e-01 4.24562357315705e-04
7.51666666666667e-01 1.11922045512721e-01 4.31478610269635e-04
7.88333333333333e-01 1.10933726185722e-01 4.37984096286303e-04
8.25000000000000e-01 1.09954134138870e-01 4.44105336516002e-04
8.61666666666667e-01 1.08983192307761e-01 4.49866162764801e-04
8.98333333333333e-01 1.08020824306155e-01 4.55288100843715e-04
9.35000000000000e-01 1.07066954423501e-01 4.60390684954694e-04
9.71666666666667e-01 1.06121507618815e-01 4.65191718959848e-04
1.00833333333333e+00 1.05184409511741e-01 4.69707493696578e-04
1.04500000000000e+00 1.04255586376976e-01 4.73952967596018e-04
1.08166666666667e+00 1.03334965151906e-01 4.77941925008749e-04
1.11833333333333e+00 1.02422473401541e-01 4.81687106298171e-04
1.15500000000000e+00 1.01518039339254e-01 4.85200316984264e-04
1.19166666666667e+00 1.00621591820066e-01 4.88492531440332e-04
1.22833333333333e+00 9.97330603117874e-02 4.91573973929768e-04
1.26500000000000e+00 9.88523749127506e-02 4.94454188768992e-04
1.30166666666667e+00 9.79794663454304e-02 4.97142110374525e-04
1.33833333333333e+00 9.71142659303158e-02 4.99646116540936e-04
1.37500000000000e+00 9.62567056012086e-02 5.01974075100575e-04
1.41166666666667e+00 9.54067178991242e-02 5.04133393351015e-04
1.44833333333333e+00 9.45642359484672e-02 5.06131054223963e-04
1.48500000000000e+00 9.37291934703154e-02 5.07973648254349e-04
1.52166666666667e+00 9.29015247765684e-02 5.09667409791980e-04
1.55833333333333e+00 9.20811647480899e-02 5.11218242197563e-04
1.59500000000000e+00 9.12680488463050e-02 5.12631740278839e-04
1.63166666666667e+00 9.04621131075719e-02 5.13913217700807e-04
1.66833333333333e+00 8.96632941230220e-02 5.15067724905319e-04
1.70500000000000e+00 8.88715290487313e-02 5.16100065162861e-04
1.74166666666667e+00 8.80867556002938e-02 5.17014815922906e-04
1.77833333333333e+00 8.73089120341455e-02 5.17816341769856e-04
1.81500000000000e+00 8.65379371565154e-02 5.18508806082837e-04
1.85166666666667e+00 8.57737703181874e-02 5.19096188089738e-04
1.88833333333333e+00 8.50163513971292e-02 5.19582292354264e-04
1.92500000000000e+00 8.42656208063945e-02 5.19970757343994e-04
1.96166666666667e+00 8.35215194890581e-02 5.20265069358149e-04
1.99833333333333e+00 8.27839889020049e-02 5.20468569539201e-04
2.03500000000000e+00 8.20529710229213e-02 5.20584460220955e-04
2.07166666666667e+00 8.13284083453948e-02 5.20615816527526e-04
2.10833333333333e+00 8.06102438637377e-02 5.20565591586457e-04
2.14500000000000e+00 7.98984210791857e-02 5.20436621255088e-04
2.18166666666667e+00 7.91928839951512e-02 5.20231633947624e-04
2.21833333333333e+00 7.84935771029793e-02 5.19953254520964e-04
2.25500000000000e+00 7.78004453874499e-02 5.19604007798675e-04
2.29166666666667e+00 7.71134343221775e-02 5.19186327023679e-04
2.32833333333333e+00 7.64324898562096e-02 5.18702556751232e-04
2.36500000000000e+00 7.57575584189155e-02 5.18154955469698e-04
2.40166666666667e+00 7.50885869155259e-02 5.17545702968118e-04
2.43833333333333e+00 7.44255227144964e-02 5.16876902477795e-04
2.47500000000000e+00 7.37683136518540e-02 5.16150582607180e-04
2.51166666666667e+00 7.31169080268700e-02 5.15368703838598e-04
2.54833333333333e+00 7.24712545901217e-02 5.14533160095378e-04
2.58500000000000e+00 7.18313025473582e-02 5.13645780150826e-04
2.62166666666667e+00 7.11970015553000e-02 5.12708333415671e-04
2.65833333333333e+00 7.05683017103413e-02 5.11722531062143e-04
2.69500000000000e+00 6.99451535519872e-02 5.10690027026464e-04
2.73166666666667e+00 6.93275080587753e-02 5.09612423210564e-04
2.76833333333333e+00 6.87153166375668e-02 5.08491270262104e-04
2.80500000000000e+00 6.81085311266011e-02 5.07328068260540e-04
2.84166666666667e+00 6.75071037915348e-02 5.06124271428894e-04
2.87833333333333e+00 6.69109873152759e-02 5.04881288645093e-04
2.91500000000000e+00 6.63201348006960e-02 5.03600483880363e-04
2.95166666666667e+00 6.57344997667823e-02 5.02283180496493e-04
2.98833333333333e+00 6.51540361389747e-02 5.00930661546230e-04
3.02500000000000e+00 6.45786982515704e-02 4.99544170017125e-04
3.06166666666667e+00 6.40084408439849e-02 4.98124912774176e-04
3.09833333333333e+00 6.34432190515559e-02 4.96674060694076e-04
3.13500000000000e+00 6.28829884076715e-02 4.95192748755818e-04
3.17166666666667e+00 6.23277048401361e-02 4.93682079677000e-04
3.20833333333333e+00 6.17773246624093e-02 4.92143123917046e-04
3.24500000000000e+00 6.12318045754842e-02 4.90576919646748e-04
3.28166666666667e+00 6.06911016643558e-02 4.88984476117554e-04
3.31833333333333e+00 6.01551733896642e-02 4.87366773561410e-04
3.35500000000000e+00 5.96239775893487e-02 4.85724763064802e-04
3.39166666666667e+00 5.90974724752144e-02 4.84059369703208e-04
3.42833333333333e+00 5.85756166249543e-02 4.82371492359399e-04
3.46500000000000e+00 5.80583689835999e-02 4.80662003522347e-04
3.50166666666667e+00 5.75456888601834e-02 4.78931752213652e-04
3.53833333333333e+00 5.70375359201142e-02 4.77181563741815e-04
3.57500000000000e+00 5.65338701864463e-02 4.75412239442029e-04
3.61166666666667e+00 5.60346520366321e-02 4.73624559417094e-04
3.64833333333333e+00 5.55398421952319e-02 4.71819282241626e-04
3.68500000000000e+00 5.50494017350155e-02 4.69997144655809e-04
3.72166666666667e+00 5.45632920738046e-02 4.68158864139769e-04
3.75833333333333e+00 5.40814749674959e-02 4.66305138578879e-04
3.79500000000000e+00 5.36039125110110e-02 4.64436645921945e-04
3.83166666666667e+00 5.31305671352266e-02 4.62554046605234e-04
3.86833333333333e+00 5.26614016002913e-02 4.60657983188072e-04
3.90500000000000e+00 5.21963789964393e-02 4.58749079983867e-04
3.94166666666667e+00 5.17354627410043e-02 4.56827945347599e-04
3.97833333333333e+00 5.12786165720140e-02 4.54895171289063e-04
4.01500000000000e+00 5.08258045488804e-02 4.52951333083732e-04
4.05166666666667e+00 5.03769910494943e-02 4.50996991435650e-04
4.08833333333333e+00 4.99321407640830e-02 4.49032692074318e-04
4.12500000000000e+00 4.94912186957874e-02 4.47058965350974e-04
4.16166666666667e+00 4.90541901578357e-02 4.45076328287326e-04
4.19833333333333e+00 4.86210207676494e-02 4.43085284161027e-04
4.23500000000000e+00 4.81916764473177e-02 4.41086322091841e-04
4.27166666666667e+00 4.77661234208486e-02 4.39079918985413e-04
4.30833333333333e+00 4.73443282085090e-02 4.37066539111273e-04
4.34500000000000e+00 4.69262576272069e-02 4.35046633682667e-04
4.38166666666667e+00 4.65118787878166e-02 4.33020642703396e-04
4.41833333333333e+00 4.61011590897417e-02 4.30988994541606e-04
4.45500000000000e+00 4.56940662212126e-02 4.28952105506310e-04
4.49166666666667e+00 4.52905681566847e-02 4.26910381604377e-04
4.52833333333333e+00 4.48906331516118e-02 4.24864218112890e-04
4.56500000000000e+00 4.44942297426679e-02 4.22813999154794e-04
4.60166666666667e+00 4.41013267452147e-02 4.20760099372396e-04
4.63833333333333e+00 4.37118932482766e-02 4.18702883500356e-04
4.67500000000000e+00 4.33258986146927e-02 4.16642705942565e-04
4.71166666666667e+00 4.29433124786521e-02 4.14579912367814e-04
4.74833333333333e+00 4.25641047408604e-02 4.12514839285233e-04
4.78500000000000e+00 4.21882455686281e-02 4.10447813624053e-04
4.82166666666667e+00 4.18157053934726e-02 4.08379154256528e-04
4.85833333333333e+00 4.14464549064659e-02 4.06309171577228e-04
4.89500000000000e+00 4.10804650582662e-02 4.04238167086948e-04
4.93166666666667e+00 4.07177070567841e-02 4.02166434847677e-04
4.96833333333333e+00 4.03581523627036e-02 4.00094261066791e-04
5.00500000000000e+00 4.00017726894611e-02 3.98021923686252e-04
5.04166666666667e+00 3.96485400009753e-02 3.95949693773716e-04
5.07833333333333e+00 3.92984265073321e-02 3.93877835112598e-04
5.11500000000000e+00 3.89514046647176e-02 3.91806603797463e-04
5.15166666666667e+00 3.86074471732078e-02 3.89736249564999e-04
5.18833333333333e+00 3.82665269726122e-02 3.87667015390802e-04
5.22500000000000e+00 3.79286172423630e-02 3.85599137091519e-04
5.26166666666667e+00 3.75936913993649e-02 3.83532844599231e-04
5.29833333333333e+00 3.72617230939884e-02 3.81468361565579e-04
5.33500000000000e+00 3.69326862099212e-02 3.79405904971178e-04
5.37166666666667e+00 3.66065548620748e-02 3.77345686346564e-04
5.40833333333333e+00 3.62833033927222e-02 3.75287911384030e-04
5.44500000000000e+00 3.59629063713139e-02 3.73232779554838e-04
5.48166666666667e+00 3.56453385924410e-02 3.71180485279684e-04
5.51833333333333e+00 3.53305750721100e-02 3.69131217548539e-04
5.55500000000000e+00 3.50185910475275e-02 3.67085159545938e-04
5.59166666666667e+00 3.47093619751180e-02 3.65042489773686e-04
5.62833333333333e+00 3.44028635269296e-02 3.63003381678960e-04
5.66500000000000e+00 3.40990715903914e-02 3.60968003287891e-04
5.70166666666667e+00 3.37979622663832e-02 3.58936518283017e-04
5.73833333333333e+00 3.34995118657679e-02 3.56909085639804e-04
5.77500000000000e+00 3.32036969091231e-02 3.54885859268713e-04
5.81166666666667e+00 3.29104941248630e-02 3.52866989049639e-04
5.84833333333333e+00 3.26198804458903e-02 3.50852620477014e-04
5.88500000000000e+00 3.23318330093062e-02 3.48842894310390e-04
5.92166666666667e+00 3.20463291545816e-02 3.46837947568125e-04
5.95833333333333e+00 3.17633464203252e-02 3.44837913181086e-04
5.99500000000000e+00 3.14828625439728e-02 3.42842919651713e-04
6.03166666666667e+00 3.12048554600078e-02 3.40853092008979e-04
6.06833333333333e+00 3.09293032968395e-02 3.38868551470721e-04
6.10500000000000e+00 3.06561843764749e-02 3.36889415111262e-04
6.14166666666667e+00 3.03854772127862e-02 3.34915796779383e-04
6.17833333333333e+00 3.01171605084959e-02 3.32947806769320e-04
6.21500000000000e+00 2.98512131548325e-02 3.30985551496877e-04
6.25166666666667e+00 2.95876142298440e-02 3.29029134382222e-04
6.28833333333333e+00 2.93263429954853e-02 3.27078655529401e-04
6.32500000000000e+00 2.90673788972595e-02 3.25134211410933e-04
6.36166666666667e+00 2.88107015625770e-02 3.23195895717090e-04
6.39833333333333e+00 2.85562907979402e-02 3.21263799043826e-04
6.43500000000000e+00 2.83041265885727e-02 3.19338008585724e-04
6.47166666666667e+00 2.80541890968226e-02 3.17418608953302e-04
6.50833333333333e+00 2.78064586594402e-02 3.15505681869283e-04
6.54500000000000e+00 2.75609157871982e-02 3.13599305869791e-04
6.58166666666667e+00 2.73175411633357e-02 3.11699557091107e-04
6.61833333333333e+00 2.70763156409281e-02 3.09806508974153e-04
6.65500000000000e+00 2.68372202424966e-02 3.07920231973845e-04
6.69166666666667e+00 2.66002361584946e-02 3.06040794316620e-04
6.72833333333333e+00 2.63653447447639e-02 3.04168261713037e-04
6.76500000000000e+00 2.61325275221373e-02 3.02302697075090e-04
6.80166666666667e+00 2.59017661749642e-02 3.00444161245839e-04
6.83833333333333e+00 2.56730425486511e-02 2.98592712719967e-04
6.87500000000000e+00 2.54463386492571e-02 2.96748407368921e-04
6.91166666666667e+00 2.52216366420594e-02 2.94911299143835e-04
6.94833333333333e+00 2.49989188491739e-02 2.93081439803887e-04
6.98500000000000e+00 2.47781677491452e-02 2.91258878649118e-04
7.02166666666667e+00 2.45593659755503e-02 2.89443663197798e-04
7.05833333333333e+00 2.43424963146965e-02 2.87635838922424e-04
7.09500000000000e+00 2.41275417052074e-02 2.85835448990029e-04
7.13166666666667e+00 2.39144852366634e-02 2.84042534915109e-04
7.16833333333333e+00 2.37033101473744e-02 2.82257136303034e-04
7.20500000000000e+00 2.34939998239621e-02 2.80479290597759e-04
7.24166666666667e+00 2.32865378000370e-02 2.78709033711296e-04
7.27833333333333e+00 2.30809077540422e-02 2.76946399774392e-04
7.31500000000000e+00 2.28770935088344e-02 2.75191420891439e-04
7.35166666666667e+00 2.26750790303948e-02 2.73444127747447e-04
7.38833333333333e+00 2.24748484257427e-02 2.71704549365867e-04
7.42500000000000e+00 2.22763859425148e-02 2.69972712870519e-04
7.46166666666667e+00 2.20796759677101e-02 2.68248644070975e-04
7.49833333333333e+00 2.18847030256706e-02 2.66532367227356e-04
7.53500000000000e+00 2.16914517776588e-02 2.64823904819101e-04
7.57166666666667e+00 2.14999070206368e-02 2.63123278109647e-04
7.60833333333333e+00 2.13100536853106e-02 2.61430506918002e-04
7.64500000000000e+00 2.11218768357081e-02 2.59745609394196e-04
7.68166666666667e+00 2.09353616679895e-02 2.58068602564109e-04
7.71833333333333e+00 2.07504935085546e-02 2.56399502107643e-04
7.75500000000000e+00 2.05672578136203e-02 2.54738322140680e-04
7.79166666666667e+00 2.03856401680636e-02 2.53085075740822e-04
7.82833333333333e+00 2.02056262835872e-02 2.51439774732003e-04
7.86500000000000e+00 2.00272019982994e-02 2.49802429472783e-04
7.90166666666667e+00 1.98503532755867e-02 2.48173049363775e-04
7.93833333333333e+00 1.96750662023377e-02 2.46551642638525e-04
7.97500000000000e+00 1.95013269885242e-02 2.44938216157957e-04
8.01166666666667e+00 1.93291219661033e-02 2.43332775900213e-04
8.04833333333333e+00 1.91584375872980e-02 2.41735326757633e-04
8.08500000000000e+00 1.89892604241787e-02 2.40145872337148e-04
8.12166666666667e+00 1.88215771675961e-02 2.38564415433259e-04
8.15833333333333e+00 1.86553746255136e-02 2.36990957830937e-04
8.19500000000000e+00 1.84906397225930e-02 2.35425500111833e-04
8.23166666666667e+00 1.83273594991542e-02 2.33868042111004e-04
8.26833333333333e+00 1.81655211095604e-02 2.32318582725578e-04
8.30500000000000e+00 1.80051118218061e-02 2.30777119726645e-04
8.34166666666667e+00 1.78461190165042e-02 2.29243650200330e-04
8.37833333333333e+00 1.76885301853219e-02 2.27718170362049e-04
8.41500000000000e+00 1.75323329305710e-02 2.26200675373933e-04
8.45166666666667e+00 1.73775149642223e-02 2.24691159770866e-04
8.48833333333333e+00 1.72240641063897e-02 2.23189617280167e-04
8.52500000000000e+00 1.70719682849239e-02 2.21696040644395e-04
8.56166666666667e+00 1.69212155344531e-02 2.20210422032883e-04
8.59833333333333e+00 1.67717939949132e-02 2.18732752866737e-04
8.63500000000000e+00 1.66236919111459e-02 2.17263023646825e-04
8.67166666666667e+00 1.64768976319643e-02 2.15801224351378e-04
8.70833333333333e+00 1.63313996087285e-02 2.14347344266165e-04
8.74500000000000e+00 1.61871863949476e-02 2.12901371817507e-04
8.78166666666667e+00 1.60442466453699e-02 2.11463294956480e-04
8.81833333333333e+00 1.59025691146022e-02 2.10033100994058e-04
8.85500000000000e+00 1.57621426567159e-02 2.08610776439074e-04
8.89166666666667e+00 1.56229562243614e-02 2.07196307369500e-04
8.92833333333333e+00 1.54849988674295e-02 2.05789679272417e-04
8.96500000000000e+00 1.53482597326617e-02 2.04390876886747e-04
9.00166666666667e+00 1.52127280627882e-02 2.02999884562111e-04
9.03833333333333e+00 1.50783931952301e-02 2.01616686103518e-04
9.07500000000000e+00 1.49452445617141e-02 2.00241264618722e-04
9.11166666666667e+00 1.48132716874334e-02 1.98873602865057e-04
9.14833333333333e+00 1.46824641897892e-02 1.97513683098738e-04
9.18500000000000e+00 1.45528117780105e-02 1.96161486926704e-04
9.22166666666667e+00 1.44243042523366e-02 1.94816995641894e-04
9.25833333333333e+00 1.42969315027969e-02 1.93480190077006e-04
9.29500000000000e+00 1.41706835088359e-02 1.92151050460699e-04
9.33166666666667e+00 1.40455503385170e-02 1.90829556741734e-04
9.36833333333333e+00 1.39215221473393e-02 1.89515688447040e-04
9.40500000000000e+00 1.37985891778672e-02 1.88209424542164e-04
9.44166666666667e+00 1.36767417589558e-02 1.86910743744672e-04
9.47833333333333e+00 1.35559703046030e-02 1.85619624386377e-04
9.51500000000000e+00 1.34362653135844e-02 1.84336044277937e-04
9.55166666666667e+00 1.33176173686987e-02 1.83059981011920e-04
9.58833333333333e+00 1.32000171356550e-02 1.81791411829051e-04
9.62500000000000e+00 1.30834553627123e-02 1.80530313486820e-04
9.66166666666667e+00 1.29679228799452e-02 1.79276662552553e-04
9.69833333333333e+00 1.28534105981643e-02 1.78030435273648e-04
9.73500000000000e+00 1.27399095085612e-02 1.76791607450023e-04
9.77166666666667e+00 1.26274106819934e-02 1.75560154717550e-04
9.80833333333333e+00 1.25159052679370e-02 1.74336052422130e-04
9.84500000000000e+00 1.24053844941373e-02 1.73119275495902e-04
9.88166666666667e+00 1.22958396659122e-02 1.71909798731403e-04
9.91833333333333e+00 1.21872621651366e-02 1.70707596659330e-04
9.95500000000000e+00 1.20796434498977e-02 1.69512643428413e-04
9.99166666666667e+00 1.19729750538179e-02 1.68324913070617e-04
1.00283333333333e+01 1.18672485850679e-02 1.67144379503985e-04
1.00650000000000e+01 1.17624557257187e-02 1.65971015809536e-04
1.01016666666667e+01 1.16585882326301e-02 1.64804795575402e-04
1.01383333333333e+01 1.15556379334017e-02 1.63645692307315e-04
1.01750000000000e+01 1.14535967288274e-02 1.62493678098807e-04
1.02116666666667e+01 1.13524565922052e-02 1.61348726043435e-04
1.02483333333333e+01 1.12522095657363e-02 1.60210809048818e-04
1.02850000000000e+01 1.11528477628841e-02 1.59079898671340e-04
1.03216666666667e+01 1.10543633677016e-02 1.57955967452143e-04
1.03583333333333e+01 1.09567486313564e-02 1.56838987768243e-04
1.03950000000000e+01 1.08599958743968e-02 1.55728930703692e-04
1.04316666666667e+01 1.07640974860972e-02 1.54625768311899e-04
1.04683333333333e+01 1.06690459211043e-02 1.53529472502629e-04
1.05050000000000e+01 1.05748337016137e-02 1.52440013948420e-04
1.05416666666667e+01 1.04814534167330e-02 1.51357364275657e-04
1.05783333333333e+01 1.03888977192445e-02 1.50281494986301e-04
1.06150000000000e+01 1.02971593276960e-02 1.49212376398399e-04
1.06516666666667e+01 1.02062310257818e-02 1.48149979768277e-04
1.06883333333333e+01 1.01161056592165e-02 1.47094276245840e-04
1.07250000000000e+01 1.00267761377446e-02 1.46045235848074e-04
1.07616666666667e+01 9.93823543453762e-03 1.45002829514650e-04
1.07983333333333e+01 9.85047658317642e-03 1.43967028095702e-04
1.08350000000000e+01 9.76349267958141e-03 1.42937801357230e-04
1.08716666666667e+01 9.67727688142685e-03 1.41915119972320e-04
1.09083333333333e+01 9.59182240522608e-03 1.40898954540324e-04
1.09450000000000e+01 9.50712252818705e-03 1.39889274623159e-04
1.09816666666667e+01 9.42317058764227e-03 1.38886050674229e-04
1.10183333333333e+01 9.33995997823386e-03 1.37889253087999e-04
1.10550000000000e+01 9.25748415369702e-03 1.36898851266184e-04
1.10916666666667e+01 9.17573662630538e-03 1.35914815486423e-04
1.11283333333333e+01 9.09471096415222e-03 1.34937115981292e-04
1.11650000000000e+01 9.01440079286470e-03 1.33965722033345e-04
1.12016666666667e+01 8.93479979506433e-03 1.33000603785577e-04
1.12383333333333e+01 8.85590170774068e-03 1.32041731348876e-04
1.12750000000000e+01 8.77770032389936e-03 1.31089073925027e-04
1.13116666666667e+01 8.70018949203707e-03 1.30142601560822e-04
1.13483333333333e+01 8.62336311360447e-03 1.29202284283066e-04
1.13850000000000e+01 8.54721514459061e-03 1.28268091248648e-04
1.14216666666667e+01 8.47173959501210e-03 1.27339992444110e-04
1.14583333333333e+01 8.39693052646198e-03 1.26417957847318e-04
1.14950000000000e+01 8.32278205363311e-03 1.25501956603726e-04
1.15316666666667e+01 8.24928834382109e-03 1.24591958673199e-04
1.15683333333333e+01 8.17644361455605e-03 1.23687934017493e-04
