Energy (eV)          EEDF (eV^-(3/2))     First Anisotropy
3.25000000000000e-04 2.13437556784315e+02 7.49419097664197e-02
9.75000000000000e-04 2.08881692966493e+02 1.22842629191312e-01
1.62500000000000e-03 2.04423074897949e+02 1.59779015719415e-01
2.27500000000000e-03 2.00059626850294e+02 1.86428343941516e-01
2.92500000000000e-03 1.95789317401962e+02 2.07515471349222e-01
3.57500000000000e-03 1.91610158492456e+02 2.24867803141068e-01
4.22500000000000e-03 1.87520204496798e+02 2.39451405097045e-01
4.87500000000000e-03 1.83517551319731e+02 2.51861671675853e-01
5.52500000000000e-03 1.79600335509261e+02 2.62501284552671e-01
6.17500000000000e-03 1.75766733389119e+02 2.71660243174313e-01
6.82500000000000e-03 1.72014960209742e+02 2.79557103859821e-01
7.47500000000000e-03 1.68343269317371e+02 2.86362346941227e-01
8.12500000000000e-03 1.64749951340895e+02 2.92212584114910e-01
8.77500000000000e-03 1.61233333396041e+02 2.97219681569654e-01
9.42500000000000e-03 1.57791778306560e+02 3.01476880061066e-01
1.00750000000000e-02 1.54423683842028e+02 3.05063050284725e-01
1.07250000000000e-02 1.51127481971925e+02 3.08045741748782e-01
1.13750000000000e-02 1.47901638135630e+02 3.10483423591138e-01
1.20250000000000e-02 1.44744650528000e+02 3.12427168040301e-01
1.26750000000000e-02 1.41655049400197e+02 3.13921939550849e-01
1.33250000000000e-02 1.38631396375445e+02 3.15007598704093e-01
1.39750000000000e-02 1.35672283779380e+02 3.15719695716238e-01
1.46250000000000e-02 1.32776333984709e+02 3.16090106043936e-01
1.52750000000000e-02 1.29942198769844e+02 3.16147545628934e-01
1.59250000000000e-02 1.27168558691237e+02 3.15917993107668e-01
1.65750000000000e-02 1.24454122469102e+02 3.15425039193012e-01
1.72250000000000e-02 1.21797626386259e+02 3.14690178386736e-01
1.78750000000000e-02 1.19197833699801e+02 3.13733054543448e-01
1.85250000000000e-02 1.16653534065326e+02 3.12571669147181e-01
1.91750000000000e-02 1.14163542973458e+02 3.11222559191368e-01
1.98250000000000e-02 1.11726701198387e+02 3.09700950074980e-01
2.04750000000000e-02 1.09341874258192e+02 3.08020887806694e-01
2.11250000000000e-02 1.07007951886679e+02 3.06195353949844e-01
2.17750000000000e-02 1.04723847516488e+02 3.04236366075949e-01
2.24250000000000e-02 1.02488497773237e+02 3.02155065975399e-01
2.30750000000000e-02 1.00300861980467e+02 2.99961797464962e-01
2.37250000000000e-02 9.81599216751506e+01 2.97666175307223e-01
2.43750000000000e-02 9.60646801335376e+01 2.95277146497494e-01
2.50250000000000e-02 9.40141619071309e+01 2.92803044964774e-01
2.56750000000000e-02 9.20074123685602e+01 2.90251640563992e-01
2.63250000000000e-02 9.00434972671516e+01 2.87630183098602e-01
2.69750000000000e-02 8.81215022939832e+01 2.84945441999305e-01
2.76250000000000e-02 8.62405326562249e+01 2.82203742191253e-01
2.82750000000000e-02 8.43997126605638e+01 2.79410996604619e-01
2.89250000000000e-02 8.25981853055213e+01 2.76572735718830e-01
2.95750000000000e-02 8.08351118824730e+01 2.73694134476685e-01
3.02250000000000e-02 7.91096715851835e+01 2.70780036859185e-01
3.08750000000000e-02 7.74210611276775e+01 2.67834978373500e-01
3.15250000000000e-02 7.57684943702661e+01 2.64863206673929e-01
3.21750000000000e-02 7.41512019535563e+01 2.61868700507957e-01
3.28250000000000e-02 7.25684309402727e+01 2.58855187155910e-01
3.34750000000000e-02 7.10194444647240e+01 2.55826158512304e-01
3.41250000000000e-02 6.95035213897525e+01 2.52784885939581e-01
3.47750000000000e-02 6.80199559710053e+01 2.49734434009792e-01
3.54250000000000e-02 6.65680575283724e+01 2.46677673236674e-01
3.60750000000000e-02 6.51471501244372e+01 2.43617291889318e-01
3.67250000000000e-02 6.37565722497916e+01 2.40555806968623e-01
3.73750000000000e-02 6.23956765150672e+01 2.37495574419121e-01
3.80250000000000e-02 6.10638293495402e+01 2.34438798641195e-01
3.86750000000000e-02 5.97604107061704e+01 2.31387541362054e-01
3.93250000000000e-02 5.84848137729355e+01 2.28343729917937e-01
3.99750000000000e-02 5.72364446903269e+01 2.25309164994862e-01
4.06250000000000e-02 5.60147222748765e+01 2.22285527870664e-01
4.12750000000000e-02 5.48190777485837e+01 2.19274387197025e-01
4.19250000000000e-02 5.36489544741190e+01 2.16277205356515e-01
4.25750000000000e-02 5.25038076956785e+01 2.13295344426494e-01
4.32250000000000e-02 5.13831042853713e+01 2.10330071778912e-01
4.38750000000000e-02 5.02863224950188e+01 2.07382565342358e-01
4.45250000000000e-02 4.92129517132533e+01 2.04453918550485e-01
4.51750000000000e-02 4.81624922278003e+01 2.01545144998867e-01
4.58250000000000e-02 4.71344549928354e+01 1.98657182830461e-01
4.64750000000000e-02 4.61283614013074e+01 1.95790898868200e-01
4.71250000000000e-02 4.51437430621201e+01 1.92947092511712e-01
4.77750000000000e-02 4.41801415820713e+01 1.90126499413788e-01
4.84250000000000e-02 4.32371083524460e+01 1.87329794951009e-01
4.90750000000000e-02 4.23142043401643e+01 1.84557597501828e-01
4.97250000000000e-02 4.14109998833880e+01 1.81810471544325e-01
5.03750000000000e-02 4.05270744914899e+01 1.79088930584986e-01
5.10250000000000e-02 3.96620166492922e+01 1.76393439929001e-01
5.16750000000000e-02 3.88154236254841e+01 1.73724419301781e-01
5.23250000000000e-02 3.79869012851286e+01 1.71082245330697e-01
5.29750000000000e-02 3.71760639061712e+01 1.68467253895434e-01
5.36250000000000e-02 3.63825339998655e+01 1.65879742354721e-01
5.42750000000000e-02 3.56059421350316e+01 1.63319971656674e-01
5.49250000000000e-02 3.48459267660660e+01 1.60788168339499e-01
5.55750000000000e-02 3.41021340646223e+01 1.58284526428812e-01
5.62250000000000e-02 3.33742177548854e+01 1.55809209237492e-01
5.68750000000000e-02 3.26618389523607e+01 1.53362351073481e-01
5.75250000000000e-02 3.19646660061054e+01 1.50944058860684e-01
5.81750000000000e-02 3.12823743443271e+01 1.48554413677767e-01
5.88250000000000e-02 3.06146463232777e+01 1.46193472219307e-01
5.94750000000000e-02 2.99611710793732e+01 1.43861268183499e-01
6.01250000000000e-02 2.93216443844700e+01 1.41557813590386e-01
6.07750000000000e-02 2.86957685042299e+01 1.39283100034289e-01
6.14250000000000e-02 2.80832520595089e+01 1.37037099873902e-01
6.20750000000000e-02 2.74838098907041e+01 1.34819767363327e-01
6.27250000000000e-02 2.68971629249968e+01 1.32631039727128e-01
6.33750000000000e-02 2.63230380464289e+01 1.30470838182262e-01
6.40250000000000e-02 2.57611679687525e+01 1.28339068909642e-01
6.46750000000000e-02 2.52112911109936e+01 1.26235623977865e-01
6.53250000000000e-02 2.46731514756722e+01 1.24160382221533e-01
6.59750000000000e-02 2.41464985296215e+01 1.22113210076452e-01
6.66250000000000e-02 2.36310870873509e+01 1.20093962373843e-01
6.72750000000000e-02 2.31266771968995e+01 1.18102483095618e-01
6.79250000000000e-02 2.26330340281247e+01 1.16138606092631e-01
6.85750000000000e-02 2.21499277633765e+01 1.14202155767707e-01
6.92250000000000e-02 2.16771334905048e+01 1.12292947725193e-01
6.98750000000000e-02 2.12144310981506e+01 1.10410789388621e-01
7.05250000000000e-02 2.07616051732724e+01 1.08555480588059e-01
7.11750000000000e-02 2.03184449008594e+01 1.06726814118582e-01
7.18250000000000e-02 1.98847439657859e+01 1.04924576271241e-01
7.24750000000000e-02 1.94603004567607e+01 1.03148547337865e-01
7.31250000000000e-02 1.90449167723257e+01 1.01398502090909e-01
7.37750000000000e-02 1.86383995288627e+01 9.96742102395459e-02
7.44250000000000e-02 1.82405594705618e+01 9.79754368631061e-02
7.50750000000000e-02 1.78512113813136e+01 9.63019428229434e-02
7.57250000000000e-02 1.74701739984801e+01 9.46534851537185e-02
7.63750000000000e-02 1.70972699285079e+01 9.30298174350701e-02
7.70250000000000e-02 1.67323255643413e+01 9.14306901445826e-02
7.76750000000000e-02 1.63751710045993e+01 8.98558509929129e-02
7.83250000000000e-02 1.60256399744769e+01 8.83050452419052e-02
7.89750000000000e-02 1.56835697483354e+01 8.67780160064762e-02
7.96250000000000e-02 1.53488010739446e+01 8.52745045410194e-02
8.02750000000000e-02 1.50211780983425e+01 8.37942505110328e-02
8.09250000000000e-02 1.47005482952772e+01 8.23369922506526e-02
8.15750000000000e-02 1.43867623941975e+01 8.09024670067400e-02
8.22250000000000e-02 1.40796743107596e+01 7.94904111701260e-02
8.28750000000000e-02 1.37791410788168e+01 7.81005604946051e-02
8.35250000000000e-02 1.34850227838611e+01 7.67326503042444e-02
8.41750000000000e-02 1.31971824978853e+01 7.53864156895249e-02
8.48250000000000e-02 1.29154862156355e+01 7.40615916928267e-02
8.54750000000000e-02 1.26398027922249e+01 7.27579134837557e-02
8.61250000000000e-02 1.23700038820780e+01 7.14751165247579e-02
8.67750000000000e-02 1.21059638791793e+01 7.02129367274670e-02
8.74250000000000e-02 1.18475598585968e+01 6.89711106002110e-02
8.80750000000000e-02 1.15946715192537e+01 6.77493753870747e-02
8.87250000000000e-02 1.13471811279217e+01 6.65474691989051e-02
8.93750000000000e-02 1.11049734644101e+01 6.53651311366202e-02
9.00250000000000e-02 1.08679357679239e+01 6.42021014071788e-02
9.06750000000000e-02 1.06359576845683e+01 6.30581214325448e-02
9.13250000000000e-02 1.04089312159726e+01 6.19329339519615e-02
9.19750000000000e-02 1.01867506690109e+01 6.08262831178402e-02
9.26250000000000e-02 9.96931260659683e+00 5.97379145855637e-02
9.32750000000000e-02 9.75651579952731e+00 5.86675755974766e-02
9.39250000000000e-02 9.54826117935531e+00 5.76150150613306e-02
9.45750000000000e-02 9.34445179226796e+00 5.65799836234398e-02
9.52250000000000e-02 9.14499275394932e+00 5.55622337367918e-02
9.58750000000000e-02 8.94979120540659e+00 5.45615197243484e-02
9.65250000000000e-02 8.75875626973919e+00 5.35775978377524e-02
9.71750000000000e-02 8.57179900983068e+00 5.26102263116625e-02
9.78250000000000e-02 8.38883238694370e+00 5.16591654139194e-02
9.84750000000000e-02 8.20977122019868e+00 5.07241774917299e-02
9.91250000000000e-02 8.03453214691759e+00 4.98050270140668e-02
9.97750000000000e-02 7.86303358381404e+00 4.89014806104561e-02
1.00425000000000e-01 7.69519568901186e+00 4.80133071063278e-02
1.01075000000000e-01 7.53094032487438e+00 4.71402775550898e-02
1.01725000000000e-01 7.37019102162714e+00 4.62821652670822e-02
1.02375000000000e-01 7.21287294175703e+00 4.54387458355670e-02
1.03025000000000e-01 7.05891284517139e+00 4.46097971598891e-02
1.03675000000000e-01 6.90823905510080e+00 4.37950994659514e-02
1.04325000000000e-01 6.76078142472960e+00 4.29944353241331e-02
1.04975000000000e-01 6.61647130453883e+00 4.22075896647809e-02
1.05625000000000e-01 6.47524151034606e+00 4.14343497913873e-02
1.06275000000000e-01 6.33702629202761e+00 4.06745053915731e-02
1.06925000000000e-01 6.20176130290823e+00 3.99278485459926e-02
1.07575000000000e-01 6.06938356980425e+00 3.91941737352546e-02
1.08225000000000e-01 5.93983146370619e+00 3.84732778449666e-02
1.08875000000000e-01 5.81304467108707e+00 3.77649601690019e-02
1.09525000000000e-01 5.68896416582322e+00 3.70690224110783e-02
1.10175000000000e-01 5.56753218171440e+00 3.63852686847344e-02
1.10825000000000e-01 5.44869218559053e+00 3.57135055117944e-02
1.11475000000000e-01 5.33238885099241e+00 3.50535418194012e-02
1.12125000000000e-01 5.21856803241426e+00 3.44051889356899e-02
1.12775000000000e-01 5.10717674009607e+00 3.37682605841859e-02
1.13425000000000e-01 4.99816311535397e+00 3.31425728769889e-02
1.14075000000000e-01 4.89147640643723e+00 3.25279443068164e-02
1.14725000000000e-01 4.78706694490053e+00 3.19241957379719e-02
1.15375000000000e-01 4.68488612248065e+00 3.13311503962972e-02
1.16025000000000e-01 4.58488636846666e+00 3.07486338581721e-02
1.16675000000000e-01 4.48702112755319e+00 3.01764740386144e-02
1.17325000000000e-01 4.39124483816640e+00 2.96145011785375e-02
1.17975000000000e-01 4.29751291125260e+00 2.90625478312177e-02
1.18625000000000e-01 4.20578170951965e+00 2.85204488480198e-02
1.19275000000000e-01 4.11600852712140e+00 2.79880413634299e-02
1.19925000000000e-01 4.02815156977584e+00 2.74651647794382e-02
1.20575000000000e-01 3.94216993530756e+00 2.69516607493202e-02
1.21225000000000e-01 3.85802359460561e+00 2.64473731608539e-02
1.21875000000000e-01 3.77567337298775e+00 2.59521481190139e-02
1.22525000000000e-01 3.69508093196253e+00 2.54658339281804e-02
1.23175000000000e-01 3.61620875138061e+00 2.49882810738992e-02
1.23825000000000e-01 3.53902011196715e+00 2.45193422042282e-02
1.24475000000000e-01 3.46347907822696e+00 2.40588721107021e-02
1.25125000000000e-01 3.38955048171459e+00 2.36067277089482e-02
1.25775000000000e-01 3.31719990466151e+00 2.31627680189822e-02
1.26425000000000e-01 3.24639366395278e+00 2.27268541452135e-02
1.27075000000000e-01 3.17709879544573e+00 2.22988492561865e-02
1.27725000000000e-01 3.10928303862335e+00 2.18786185640854e-02
1.28375000000000e-01 3.04291482157530e+00 2.14660293040262e-02
1.29025000000000e-01 2.97796324629946e+00 2.10609507131609e-02
1.29675000000000e-01 2.91439807431723e+00 2.06632540096148e-02
1.30325000000000e-01 2.85218971259590e+00 2.02728123712799e-02
1.30975000000000e-01 2.79130919977144e+00 1.98895009144833e-02
1.31625000000000e-01 2.73172819266548e+00 1.95131966725518e-02
1.32275000000000e-01 2.67341895309000e+00 1.91437785742911e-02
1.32925000000000e-01 2.61635433493365e+00 1.87811274223957e-02
1.33575000000000e-01 2.56050777152386e+00 1.84251258718071e-02
1.34225000000000e-01 2.50585326325853e+00 1.80756584080381e-02
1.34875000000000e-01 2.45236536550184e+00 1.77326113254742e-02
1.35525000000000e-01 2.40001917673840e+00 1.73958727056701e-02
1.36175000000000e-01 2.34879032698024e+00 1.70653323956534e-02
1.36825000000000e-01 2.29865496642124e+00 1.67408819862487e-02
1.37475000000000e-01 2.24958975433377e+00 1.64224147904349e-02
1.38125000000000e-01 2.20157184820234e+00 1.61098258217449e-02
1.38775000000000e-01 2.15457889308911e+00 1.58030117727213e-02
1.39425000000000e-01 2.10858901122651e+00 1.55018709934387e-02
1.40075000000000e-01 2.06358079183193e+00 1.52063034700990e-02
1.40725000000000e-01 2.01953328113985e+00 1.49162108037127e-02
1.41375000000000e-01 1.97642597264671e+00 1.46314961888723e-02
1.42025000000000e-01 1.93423879756403e+00 1.43520643926272e-02
1.42675000000000e-01 1.89295211547531e+00 1.40778217334686e-02
1.43325000000000e-01 1.85254670519236e+00 1.38086760604299e-02
1.43975000000000e-01 1.81300375580674e+00 1.35445367323098e-02
1.44625000000000e-01 1.77430485793234e+00 1.32853145970248e-02
1.45275000000000e-01 1.73643199513475e+00 1.30309219710981e-02
1.45925000000000e-01 1.69936753554368e+00 1.27812726192894e-02
1.46575000000000e-01 1.66309422364432e+00 1.25362817343701e-02
1.47225000000000e-01 1.62759517224402e+00 1.22958659170496e-02
1.47875000000000e-01 1.59285385461034e+00 1.20599431560584e-02
1.48525000000000e-01 1.55885409677697e+00 1.18284328083905e-02
1.49175000000000e-01 1.52558007001390e+00 1.16012555797085e-02
1.49825000000000e-01 1.49301628345824e+00 1.13783335049176e-02
1.50475000000000e-01 1.46114757690244e+00 1.11595899289094e-02
1.51125000000000e-01 1.42995911373634e+00 1.09449494874793e-02
1.51775000000000e-01 1.39943637403996e+00 1.07343380884208e-02
1.52425000000000e-01 1.36956514782367e+00 1.05276828927981e-02
1.53075000000000e-01 1.34033152841267e+00 1.03249122964010e-02
1.53725000000000e-01 1.31172190597269e+00 1.01259559113817e-02
1.54375000000000e-01 1.28372296117389e+00 9.93074454807812e-03
1.55025000000000e-01 1.25632165898994e+00 9.73921019702365e-03
1.55675000000000e-01 1.22950524262956e+00 9.55128601114432e-03
1.56325000000000e-01 1.20326122759751e+00 9.36690628814698e-03
1.56975000000000e-01 1.17757739588238e+00 9.18600645309730e-03
1.57625000000000e-01 1.15244179026850e+00 9.00852304118896e-03
1.58275000000000e-01 1.12784270876910e+00 8.83439368070590e-03
1.58925000000000e-01 1.10376869917852e+00 8.66355707617687e-03
1.59575000000000e-01 1.08020855374051e+00 8.49595299172413e-03
1.60225000000000e-01 1.05715130393042e+00 8.33152223460477e-03
1.60875000000000e-01 1.03458621534880e+00 8.17020663894646e-03
1.61525000000000e-01 1.01250278272390e+00 8.01194904967744e-03
1.62175000000000e-01 9.90890725020940e-01 7.85669330665000e-03
1.62825000000000e-01 9.69739980655705e-01 7.70438422895731e-03
1.63475000000000e-01 9.49040702810348e-01 7.55496759944400e-03
1.64125000000000e-01 9.28783254849151e-01 7.40839014940992e-03
1.64775000000000e-01 9.08958205832158e-01 7.26459954350631e-03
1.65425000000000e-01 8.89556326124553e-01 7.12354436482375e-03
1.66075000000000e-01 8.70568583099771e-01 6.98517410017138e-03
1.66725000000000e-01 8.51986136934319e-01 6.84943912554734e-03
1.67375000000000e-01 8.33800336492358e-01 6.71629069179793e-03
1.68025000000000e-01 8.16002715298130e-01 6.58568091046648e-03
1.68675000000000e-01 7.98584987594358e-01 6.45756273982987e-03
1.69325000000000e-01 7.81539044484773e-01 6.33188997112188e-03
1.69975000000000e-01 7.64856950158986e-01 6.20861721494230e-03
1.70625000000000e-01 7.48530938197936e-01 6.08769988785078e-03
1.71275000000000e-01 7.32553407958202e-01 5.96909419914433e-03
1.71925000000000e-01 7.16916921033493e-01 5.85275713781684e-03
1.72575000000000e-01 7.01614197791665e-01 5.73864645969957e-03
1.73225000000000e-01 6.86638113985656e-01 5.62672067478137e-03
1.73875000000000e-01 6.71981697436768e-01 5.51693903470724e-03
1.74525000000000e-01 6.57638124788734e-01 5.40926152045341e-03
1.75175000000000e-01 6.43600718331080e-01 5.30364883017795e-03
1.75825000000000e-01 6.29862942890288e-01 5.20006236724569e-03
1.76475000000000e-01 6.16418402787317e-01 5.09846422842503e-03
1.77125000000000e-01 6.03260838860069e-01 4.99881719225587e-03
1.77775000000000e-01 5.90384125549410e-01 4.90108470758690e-03
1.78425000000000e-01 5.77782268047390e-01 4.80523088228057e-03
1.79075000000000e-01 5.65449399506333e-01 4.71122047208430e-03
1.79725000000000e-01 5.53379778307507e-01 4.61901886966609e-03
1.80375000000000e-01 5.41567785388081e-01 4.52859209381310e-03
1.81025000000000e-01 5.30007921625155e-01 4.43990677879134e-03
1.81675000000000e-01 5.18694805275615e-01 4.35293016386516e-03
1.82325000000000e-01 5.07623169470640e-01 4.26763008297456e-03
1.82975000000000e-01 4.96787859763693e-01 4.18397495456849e-03
1.83625000000000e-01 4.86183831730843e-01 4.10193377159300e-03
1.84275000000000e-01 4.75806148622313e-01 4.02147609163170e-03
1.84925000000000e-01 4.65649979064157e-01 3.94257202719786e-03
1.85575000000000e-01 4.55710594808992e-01 3.86519223617574e-03
1.86225000000000e-01 4.45983368534743e-01 3.78930791240922e-03
1.86875000000000e-01 4.36463771690374e-01 3.71489077643677e-03
1.87525000000000e-01 4.27147372387602e-01 3.64191306637052e-03
1.88175000000000e-01 4.18029833337612e-01 3.57034752891768e-03
1.88825000000000e-01 4.09106909831816e-01 3.50016741054297e-03
1.89475000000000e-01 4.00374447765708e-01 3.43134644877006e-03
1.90125000000000e-01 3.91828381704907e-01 3.36385886362010e-03
1.90775000000000e-01 3.83464732992474e-01 3.29767934918621e-03
1.91425000000000e-01 3.75279607896631e-01 3.23278306534176e-03
1.92075000000000e-01 3.67269195798022e-01 3.16914562958082e-03
1.92725000000000e-01 3.59429767415660e-01 3.10674310898920e-03
1.93375000000000e-01 3.51757673070742e-01 3.04555201234430e-03
1.94025000000000e-01 3.44249340987533e-01 2.98554928234215e-03
1.94675000000000e-01 3.36901275630504e-01 2.92671228794993e-03
1.95325000000000e-01 3.29710056076974e-01 2.86901881688227e-03
1.95975000000000e-01 3.22672334424484e-01 2.81244706819979e-03
1.96625000000000e-01 3.15784834232168e-01 2.75697564502814e-03
1.97275000000000e-01 3.09044348995392e-01 2.70258354739572e-03
1.97925000000000e-01 3.02447740652949e-01 2.64925016518901e-03
1.98575000000000e-01 2.95991938126129e-01 2.59695527122334e-03
1.99225000000000e-01 2.89673935888956e-01 2.54567901442771e-03
1.99875000000000e-01 2.83490792568961e-01 2.49540191314215e-03
2.00525000000000e-01 2.77439629577808e-01 2.44610484852578e-03
2.01175000000000e-01 2.71517629771158e-01 2.39776905807450e-03
2.01825000000000e-01 2.65722036137135e-01 2.35037612924610e-03
2.02475000000000e-01 2.60050150512787e-01 2.30390799319164e-03
2.03125000000000e-01 2.54499332327946e-01 2.25834691859181e-03
2.03775000000000e-01 2.49066997375898e-01 2.21367550559627e-03
2.04425000000000e-01 2.43750616610297e-01 2.16987667986456e-03
2.05075000000000e-01 2.38547714967753e-01 2.12693368670730e-03
