Energy (eV)          EEDF (eV^-(3/2))     First Anisotropy
2.39117647058824e-03 9.78344728734603e+00 8.35551226967224e-03
7.17352941176471e-03 9.58662006996883e+00 1.37046078567275e-02
1.19558823529412e-02 9.39375269951110e+00 1.78476614920942e-02
1.67382352941176e-02 9.20476551040427e+00 2.08505535650234e-02
2.15205882352941e-02 9.01958043886131e+00 2.32380776164358e-02
2.63029411764706e-02 8.83812099339345e+00 2.52127990452669e-02
3.10852941176471e-02 8.66031222018623e+00 2.68816080182548e-02
3.58676470588235e-02 8.48608067310412e+00 2.83102695648086e-02
4.06500000000000e-02 8.31535438456898e+00 2.95431925424190e-02
4.54323529411765e-02 8.14806283403679e+00 3.06123130517796e-02
5.02147058823529e-02 7.98413692046444e+00 3.15416684468464e-02
5.49970588235294e-02 7.82350893233968e+00 3.23499870844742e-02
5.97794117647059e-02 7.66611252099882e+00 3.30522616489381e-02
6.45617647058824e-02 7.51188267228408e+00 3.36607587030693e-02
6.93441176470588e-02 7.36075567984000e+00 3.41856952747012e-02
7.41264705882353e-02 7.21266911939352e+00 3.46357089992172e-02
7.89088235294118e-02 7.06756182216222e+00 3.50181946412366e-02
8.36911764705882e-02 6.92537385033898e+00 3.53395512074053e-02
8.84735294117647e-02 6.78604647177810e+00 3.56053674769081e-02
9.32558823529412e-02 6.64952213580887e+00 3.58205638687114e-02
9.80382352941177e-02 6.51574444985756e+00 3.59895029058544e-02
1.02820588235294e-01 6.38465815538437e+00 3.61160763692522e-02
1.07602941176471e-01 6.25620910618505e+00 3.62037750837764e-02
1.12385294117647e-01 6.13034424513478e+00 3.62557454842776e-02
1.17167647058824e-01 6.00701158253178e+00 3.62748358270021e-02
1.21950000000000e-01 5.88616017462266e+00 3.62636343985830e-02
1.26732352941176e-01 5.76774010340114e+00 3.62245015898390e-02
1.31514705882353e-01 5.65170245340255e+00 3.61595966131129e-02
1.36297058823529e-01 5.53799929415183e+00 3.60709001216401e-02
1.41079411764706e-01 5.42658365945728e+00 3.59602337894107e-02
1.45861764705882e-01 5.31740952801076e+00 3.58292769101035e-02
1.50644117647059e-01 5.21043180437828e+00 3.56795807894542e-02
1.55426470588235e-01 5.10560630037293e+00 3.55125812475705e-02
1.60208823529412e-01 5.00288971680261e+00 3.53296095355414e-02
1.64991176470588e-01 4.90223962558493e+00 3.51319019135489e-02
1.69773529411765e-01 4.80361445222062e+00 3.49206080921232e-02
1.74555882352941e-01 4.70697345862365e+00 3.46967987033859e-02
1.79338235294118e-01 4.61227672629243e+00 3.44614719400024e-02
1.84120588235294e-01 4.51948513982118e+00 3.42155594760334e-02
1.88902941176471e-01 4.42856037074289e+00 3.39599317662582e-02
1.93685294117647e-01 4.33946486169744e+00 3.36954028047772e-02
1.98467647058824e-01 4.25216181091818e+00 3.34227344113722e-02
2.03250000000000e-01 4.16661515703063e+00 3.31426400735620e-02
2.08032352941177e-01 4.08278956451669e+00 3.28557885470573e-02
2.12814705882353e-01 4.00065040801795e+00 3.25628069796506e-02
2.17597058823529e-01 3.92016375915734e+00 3.22642837477392e-02
2.22379411764706e-01 3.84129637214203e+00 3.19607712028489e-02
2.27161764705882e-01 3.76401567003088e+00 3.16527880604671e-02
2.31944117647059e-01 3.68828973127827e+00 3.13408216204808e-02
2.36726470588235e-01 3.61408727654860e+00 3.10253298066919e-02
2.41508823529412e-01 3.54137765579605e+00 3.07067430437348e-02
2.46291176470588e-01 3.47013083560432e+00 3.03854659875329e-02
2.51073529411765e-01 3.40031738678061e+00 3.00618791233220e-02
2.55855882352941e-01 3.33190847220049e+00 2.97363402439886e-02
2.60638235294118e-01 3.26487583489603e+00 2.94091858198332e-02
2.65420588235294e-01 3.19919178638390e+00 2.90807322694178e-02
2.70202941176471e-01 3.13482919522849e+00 2.87512771404738e-02
2.74985294117647e-01 3.07176147583491e+00 2.84211002086747e-02
2.79767647058824e-01 3.00996257746762e+00 2.80904645013022e-02
2.84550000000000e-01 2.94940697348991e+00 2.77596172339883e-02
2.89332352941176e-01 2.89006965100226e+00 2.74287907577171e-02
2.94114705882353e-01 2.83192609995327e+00 2.70982033553280e-02
2.98897058823529e-01 2.77495230358329e+00 2.67680599828898e-02
3.03679411764706e-01 2.71912472831117e+00 2.64385530596434e-02
3.08461764705882e-01 2.66442031401350e+00 2.61098631335573e-02
3.13244117647059e-01 2.61081646449942e+00 2.57821595248042e-02
3.18026470588235e-01 2.55829103817700e+00 2.54556009302918e-02
3.22808823529412e-01 2.50682233890748e+00 2.51303359920850e-02
3.27591176470588e-01 2.45638910704348e+00 2.48065038323296e-02
3.32373529411765e-01 2.40697051064730e+00 2.44842345569632e-02
3.37155882352941e-01 2.35854613688646e+00 2.41636497304749e-02
3.41938235294118e-01 2.31109598360179e+00 2.38448628236939e-02
3.46720588235294e-01 2.26460045104536e+00 2.35279796363302e-02
3.51502941176471e-01 2.21904033378458e+00 2.32130986960190e-02
3.56285294117647e-01 2.17439681276926e+00 2.29003116353892e-02
3.61067647058824e-01 2.13065144755819e+00 2.25897035485736e-02
3.65850000000000e-01 2.08778616870212e+00 2.22813533171511e-02
3.70632352941177e-01 2.04578327038063e+00 2.19753339638625e-02
3.75414705882353e-01 2.00462540278154e+00 2.16717129317378e-02
3.80197058823529e-01 1.96429556524684e+00 2.13705523461769e-02
3.84979411764706e-01 1.92477709914437e+00 2.10719093232243e-02
3.89761764705882e-01 1.88605368098683e+00 2.07758362145565e-02
3.94544117647059e-01 1.84810931568919e+00 2.04823808517246e-02
3.99326470588235e-01 1.81092832996179e+00 2.01915867779614e-02
4.04108823529412e-01 1.77449536583631e+00 1.99034934682657e-02
4.08891176470588e-01 1.73879537432203e+00 1.96181365384436e-02
4.13673529411765e-01 1.70381360918961e+00 1.93355479436932e-02
4.18455882352941e-01 1.66953562088017e+00 1.90557561673579e-02
4.23238235294118e-01 1.63594725053673e+00 1.87787864003970e-02
4.28020588235294e-01 1.60303462415569e+00 1.85046607120285e-02
4.32802941176471e-01 1.57078414685605e+00 1.82333982120608e-02
4.37585294117647e-01 1.53918249726397e+00 1.79650152053529e-02
4.42367647058824e-01 1.50821662201016e+00 1.76995253388135e-02
4.47150000000000e-01 1.47787373033815e+00 1.74369397340886e-02
4.51932352941177e-01 1.44814128887916e+00 1.71772671428841e-02
4.56714705882353e-01 1.41900701629731e+00 1.69205140590405e-02
4.61497058823529e-01 1.39045887839750e+00 1.66666848237978e-02
4.66279411764706e-01 1.36248508309327e+00 1.64157817644959e-02
4.71061764705882e-01 1.33507407553592e+00 1.61678052963111e-02
4.75844117647059e-01 1.30821453334176e+00 1.59227540268112e-02
4.80626470588235e-01 1.28189536191518e+00 1.56806248556060e-02
4.85408823529412e-01 1.25610568986601e+00 1.54414130693372e-02
4.90191176470588e-01 1.23083486451892e+00 1.52051124322383e-02
4.94973529411765e-01 1.20607244751325e+00 1.49717152724628e-02
4.99755882352941e-01 1.18180821049138e+00 1.47412125644067e-02
5.04538235294118e-01 1.15803213087377e+00 1.45135940072208e-02
5.09320588235294e-01 1.13473438771905e+00 1.42888480996651e-02
5.14102941176471e-01 1.11190535766739e+00 1.40669622115029e-02
5.18885294117647e-01 1.08953561096548e+00 1.38479226515890e-02
5.23667647058824e-01 1.06761590757144e+00 1.36317147328091e-02
5.28450000000000e-01 1.04613719333816e+00 1.34183228292951e-02
5.33232352941177e-01 1.02509059630839e+00 1.32077304498736e-02
5.38014705882353e-01 1.00446742294343e+00 1.29999202847699e-02
5.42797058823529e-01 9.84259154640599e-01 1.27948742491751e-02
5.47579411764706e-01 9.64457444177768e-01 1.25925735498303e-02
5.52361764705882e-01 9.45054112265483e-01 1.23929987287048e-02
5.57144117647059e-01 9.26041144168428e-01 1.21961297095993e-02
5.61926470588235e-01 9.07410686394863e-01 1.20019458425834e-02
5.66708823529412e-01 8.89155043452657e-01 1.18104259463663e-02
5.71491176470588e-01 8.71266674670596e-01 1.16215483486917e-02
5.76273529411765e-01 8.53738191083611e-01 1.14352909248393e-02
5.81055882352941e-01 8.36562352380741e-01 1.12516311343267e-02
5.85838235294118e-01 8.19732063914424e-01 1.10705460558927e-02
5.90620588235294e-01 8.03240373769991e-01 1.08920124208238e-02
5.95402941176471e-01 7.87080469894103e-01 1.07160066447081e-02
6.00185294117647e-01 7.71245677280971e-01 1.05425048576816e-02
6.04967647058824e-01 7.55729455215180e-01 1.03714829332343e-02
6.09750000000000e-01 7.40525394569980e-01 1.02029165125263e-02
6.14532352941177e-01 7.25627215181389e-01 1.00367810399711e-02
6.19314705882353e-01 7.11028763188730e-01 9.87305178173874e-03
6.24097058823530e-01 6.96724008559147e-01 9.71170384269425e-03
6.28879411764706e-01 6.82707042574341e-01 9.55271219899517e-03
6.33661764705882e-01 6.68972075389913e-01 9.39605171605395e-03
6.38444117647059e-01 6.55513433643815e-01 9.24169716886524e-03
6.43226470588235e-01 6.42325558112911e-01 9.08962326132265e-03
6.48008823529412e-01 6.29403001416689e-01 8.93980464456721e-03
6.52791176470588e-01 6.16740425767162e-01 8.79221593441089e-03
6.57573529411765e-01 6.04332600764039e-01 8.64683172786947e-03
6.62355882352941e-01 5.92174401234272e-01 8.50362661885077e-03
6.67138235294118e-01 5.80260805115048e-01 8.36257521303360e-03
6.71920588235294e-01 5.68586891379375e-01 8.22365214196418e-03
6.76702941176471e-01 5.57147838003403e-01 8.08683207641096e-03
6.81485294117647e-01 5.45938919974640e-01 7.95208973900769e-03
6.86267647058824e-01 5.34955507340244e-01 7.81939991621465e-03
6.91050000000000e-01 5.24193063294569e-01 7.68873746755822e-03
6.95832352941177e-01 5.13647142318604e-01 7.56007734261438e-03
7.00614705882353e-01 5.03313388302862e-01 7.43339458687886e-03
7.05397058823529e-01 4.93187532789535e-01 7.30866434682298e-03
7.10179411764706e-01 4.83265393195318e-01 7.18586188558344e-03
7.14961764705882e-01 4.73542871083748e-01 7.06496258913261e-03
7.19744117647059e-01 4.64015950472308e-01 6.94594197422166e-03
7.24526470588235e-01 4.54680696173587e-01 6.82877569584464e-03
7.29308823529412e-01 4.45533252169809e-01 6.71343955424412e-03
7.34091176470588e-01 4.36569840020071e-01 6.59990950147802e-03
7.38873529411765e-01 4.27786757299613e-01 6.48816164756471e-03
7.43655882352941e-01 4.19180376070511e-01 6.37817226622822e-03
7.48438235294118e-01 4.10747141383110e-01 6.26991780026144e-03
7.53220588235294e-01 4.02483569807622e-01 6.16337486651897e-03
7.58002941176471e-01 3.94386247995261e-01 6.05852026055999e-03
7.62785294117647e-01 3.86451831268323e-01 5.95533096095562e-03
7.67567647058824e-01 3.78677042238639e-01 5.85378413327544e-03
7.72350000000000e-01 3.71058669453813e-01 5.75385713238200e-03
7.77132352941177e-01 3.63593566079198e-01 5.65552751003486e-03
7.81914705882353e-01 3.56278648572191e-01 5.55877301517487e-03
7.86697058823529e-01 3.49110895434819e-01 5.46357159377729e-03
7.91479411764706e-01 3.42087345956787e-01 5.36990139593698e-03
7.96261764705882e-01 3.35205098992524e-01 5.27774077668607e-03
8.01044117647059e-01 3.28461311762843e-01 5.18706829810212e-03
8.05826470588235e-01 3.21853198680694e-01 5.09786273119464e-03
8.10608823529412e-01 3.15378030200558e-01 5.01010305757934e-03
8.15391176470588e-01 3.09033131690979e-01 4.92376847095083e-03
8.20173529411765e-01 3.02815882329777e-01 4.83883837836136e-03
8.24955882352941e-01 2.96723714021501e-01 4.75529240131710e-03
8.29738235294118e-01 2.90754110336647e-01 4.67311037670058e-03
8.34520588235294e-01 2.84904605472223e-01 4.59227235752492e-03
8.39302941176471e-01 2.79172783233224e-01 4.51275861352961e-03
8.44085294117647e-01 2.73556276034602e-01 4.43454963162551e-03
8.48867647058824e-01 2.68052763923307e-01 4.35762611619646e-03
8.53650000000000e-01 2.62659973620013e-01 4.28196898833112e-03
8.58432352941177e-01 2.57375677585555e-01 4.20755938869681e-03
8.63214705882353e-01 2.52197693084255e-01 4.13437867555152e-03
8.67997058823530e-01 2.47123881299143e-01 4.06240842252662e-03
8.72779411764706e-01 2.42152146442805e-01 3.99163042134001e-03
8.77561764705882e-01 2.37280434891696e-01 3.92202668034881e-03
8.82344117647059e-01 2.32506734337874e-01 3.85357942402726e-03
8.87126470588235e-01 2.27829072957793e-01 3.78627109234949e-03
8.91908823529412e-01 2.23245518597821e-01 3.72008434008282e-03
8.96691176470588e-01 2.18754177976153e-01 3.65500203599695e-03
9.01473529411765e-01 2.14353195900760e-01 3.59100726199166e-03
9.06255882352941e-01 2.10040754503095e-01 3.52808331214928e-03
9.11038235294118e-01 2.05815072487201e-01 3.46621369171689e-03
9.15820588235294e-01 2.01674404393928e-01 3.40538211601999e-03
9.20602941176471e-01 1.97617039879957e-01 3.34557250931309e-03
9.25385294117647e-01 1.93641303011321e-01 3.28676900357060e-03
9.30167647058824e-01 1.89745551571150e-01 3.22895593722183e-03
9.34950000000000e-01 1.85928176381335e-01 3.17211785320239e-03
9.39732352941177e-01 1.82187600641355e-01 3.11623949950790e-03
9.44514705882353e-01 1.78522279266259e-01 3.06130582649633e-03
9.49297058823530e-01 1.74930698259325e-01 3.00730198407115e-03
9.54079411764706e-01 1.71411374083007e-01 2.95421332223503e-03
9.58861764705882e-01 1.67962853046150e-01 2.90202538886319e-03
9.63644117647059e-01 1.64583710703521e-01 2.85072392813564e-03
9.68426470588235e-01 1.61272551267437e-01 2.80029487893701e-03
9.73208823529412e-01 1.58028007031214e-01 2.75072437322710e-03
9.77991176470588e-01 1.54848737804228e-01 2.70199873438422e-03
9.82773529411765e-01 1.51733430358330e-01 2.65410447552287e-03
9.87555882352941e-01 1.48680797885410e-01 2.60702829778896e-03
9.92338235294118e-01 1.45689579465868e-01 2.56075708863475e-03
9.97120588235294e-01 1.42758539547774e-01 2.51527792007404e-03
1.00190294117647e+00 1.39886467436517e-01 2.47057804784121e-03
1.00668529411765e+00 1.37072176789756e-01 2.42664490546548e-03
1.01146764705882e+00 1.34314505149725e-01 2.38346610714642e-03
1.01625000000000e+00 1.31612313432717e-01 2.34102945217973e-03
1.02103235294118e+00 1.28964485448729e-01 2.29932290419247e-03
1.02581470588235e+00 1.26369927510093e-01 2.25833460060224e-03
1.03059705882353e+00 1.23827567908844e-01 2.21805286400209e-03
1.03537941176471e+00 1.21336356476853e-01 2.17846617421349e-03
1.04016176470588e+00 1.18895264216761e-01 2.13956317934130e-03
1.04494411764706e+00 1.16503282811152e-01 2.10133270255801e-03
1.04972647058824e+00 1.14159424228335e-01 2.06376373088050e-03
1.05450882352941e+00 1.11862720295057e-01 2.02684540661907e-03
1.05929117647059e+00 1.09612222355089e-01 1.99056703299140e-03
1.06407352941176e+00 1.07407000817881e-01 1.95491808354925e-03
1.06885588235294e+00 1.05246144776955e-01 1.91988817805898e-03
1.07363823529412e+00 1.03128761687974e-01 1.88546709166477e-03
1.07842058823529e+00 1.01053976944819e-01 1.85164476040504e-03
1.08320294117647e+00 9.90209335370569e-02 1.81841127138293e-03
1.08798529411765e+00 9.70287916798045e-02 1.78575685521808e-03
1.09276764705882e+00 9.50767285160126e-02 1.75367189058390e-03
1.09755000000000e+00 9.31639377266043e-02 1.72214691201971e-03
1.10233235294118e+00 9.12896291993775e-02 1.69117258911020e-03
1.10711470588235e+00 8.94530287483205e-02 1.66073973407522e-03
1.11189705882353e+00 8.76533777473791e-02 1.63083930898306e-03
1.11667941176471e+00 8.58899328189178e-02 1.60146240617847e-03
1.12146176470588e+00 8.41619655691263e-02 1.57260025529236e-03
1.12624411764706e+00 8.24687622439859e-02 1.54424422736020e-03
1.13102647058824e+00 8.08096234490639e-02 1.51638582668214e-03
1.13580882352941e+00 7.91838638480171e-02 1.48901668450674e-03
1.14059117647059e+00 7.75908119179492e-02 1.46212856238728e-03
1.14537352941176e+00 7.60298096329474e-02 1.43571335815517e-03
1.15015588235294e+00 7.45002121938148e-02 1.40976308902025e-03
1.15493823529412e+00 7.30013877974616e-02 1.38426989738182e-03
1.15972058823529e+00 7.15327173396040e-02 1.35922605416780e-03
1.16450294117647e+00 7.00935941713508e-02 1.33462395171432e-03
1.16928529411765e+00 6.86834238379935e-02 1.31045609820384e-03
1.17406764705882e+00 6.73016238658358e-02 1.28671512036561e-03
1.17885000000000e+00 6.59476234886960e-02 1.26339376842555e-03
1.18363235294118e+00 6.46208634134216e-02 1.24048490151099e-03
1.18841470588235e+00 6.33207956189765e-02 1.21798149246354e-03
1.19319705882353e+00 6.20468830994669e-02 1.19587663240892e-03
1.19797941176471e+00 6.07985996435107e-02 1.17416351703566e-03
1.20276176470588e+00 5.95754296448950e-02 1.15283545103973e-03
1.20754411764706e+00 5.83768678611307e-02 1.13188585060507e-03
1.21232647058824e+00 5.72024192143972e-02 1.11130823751689e-03
1.21710882352941e+00 5.60515985787188e-02 1.09109623452279e-03
1.22189117647059e+00 5.49239306049684e-02 1.07124356731546e-03
1.22667352941176e+00 5.38189494987115e-02 1.05174406831530e-03
1.23145588235294e+00 5.27361988288078e-02 1.03259166481706e-03
1.23623823529412e+00 5.16752313624977e-02 1.01378038267297e-03
1.24102058823529e+00 5.06356088566588e-02 9.95304348295068e-04
1.24580294117647e+00 4.96169018849221e-02 9.77157783509960e-04
1.25058529411765e+00 4.86186896532588e-02 9.59335001481487e-04
1.25536764705882e+00 4.76405598475927e-02 9.41830408295221e-04
1.26015000000000e+00 4.66821084417196e-02 9.24638506090912e-04
1.26493235294118e+00 4.57429395312560e-02 9.07753882820806e-04
1.26971470588235e+00 4.48226651900467e-02 8.91171215298139e-04
1.27449705882353e+00 4.39209052896610e-02 8.74885272088150e-04
1.27927941176471e+00 4.30372873431537e-02 8.58890903878593e-04
1.28406176470588e+00 4.21714463697717e-02 8.43183046294129e-04
1.28884411764706e+00 4.13230247253305e-02 8.27756721372960e-04
1.29362647058824e+00 4.04916719608732e-02 8.12607033318128e-04
1.29840882352941e+00 3.96770446723878e-02 7.97729165105227e-04
1.30319117647059e+00 3.88788063758068e-02 7.83118379632774e-04
1.30797352941176e+00 3.80966273508986e-02 7.68770022112857e-04
1.31275588235294e+00 3.73301845057322e-02 7.54679511748953e-04
1.31753823529412e+00 3.65791612589026e-02 7.40842344065888e-04
1.32232058823529e+00 3.58432473928258e-02 7.27254092094098e-04
1.32710294117647e+00 3.51221389310010e-02 7.13910402658458e-04
1.33188529411765e+00 3.44155380077747e-02 7.00806993400655e-04
1.33666764705882e+00 3.37231527595428e-02 6.87939653689435e-04
1.34145000000000e+00 3.30446971897282e-02 6.75304246597858e-04
1.34623235294118e+00 3.23798910511973e-02 6.62896701709656e-04
1.35101470588235e+00 3.17284597437609e-02 6.50713017045561e-04
1.35579705882353e+00 3.10901341872730e-02 6.38749260887065e-04
1.36057941176471e+00 3.04646507109957e-02 6.27001565012183e-04
1.36536176470588e+00 2.98517509570425e-02 6.15466126472790e-04
1.37014411764706e+00 2.92511817611095e-02 6.04139208458645e-04
1.37492647058824e+00 2.86626950521522e-02 5.93017137235816e-04
1.37970882352941e+00 2.80860477462369e-02 5.82096299673963e-04
1.38449117647059e+00 2.75210016573519e-02 5.71373143896279e-04
1.38927352941176e+00 2.69673233876216e-02 5.60844180785292e-04
1.39405588235294e+00 2.64247842313337e-02 5.50505978134519e-04
1.39883823529412e+00 2.58931600909219e-02 5.40355162117774e-04
1.40362058823529e+00 2.53722313737793e-02 5.30388417975564e-04
1.40840294117647e+00 2.48617829051519e-02 5.20602487342116e-04
1.41318529411765e+00 2.43616038361391e-02 5.10994166077334e-04
1.41796764705882e+00 2.38714875660992e-02 5.01560304773264e-04
1.42275000000000e+00 2.33912316476624e-02 4.92297809997319e-04
1.42753235294118e+00 2.29206377034717e-02 4.83203639235058e-04
1.43231470588235e+00 2.24595113530923e-02 4.74274802102757e-04
1.43709705882353e+00 2.20076621237276e-02 4.65508361493200e-04
1.44187941176471e+00 2.15649033718811e-02 4.56901428819841e-04
1.44666176470588e+00 2.11310522145124e-02 4.48451165134751e-04
1.45144411764706e+00 2.07059294451149e-02 4.40154781621730e-04
1.45622647058824e+00 2.02893594625288e-02 4.32009537392755e-04
1.46100882352941e+00 1.98811701959475e-02 4.24012737690308e-04
1.46579117647059e+00 1.94811930413412e-02 4.16161734239770e-04
1.47057352941176e+00 1.90892627841937e-02 4.08453926193303e-04
1.47535588235294e+00 1.87052175315474e-02 4.00886756016540e-04
1.48013823529412e+00 1.83288986521211e-02 3.93457710410785e-04
1.48492058823529e+00 1.79601507036846e-02 3.86164320699307e-04
1.48970294117647e+00 1.75988213712571e-02 3.79004160904294e-04
1.49448529411765e+00 1.72447614021040e-02 3.71974846171939e-04
1.49926764705882e+00 1.68978245504442e-02 3.65074033040467e-04
1.50405000000000e+00 1.65578675105846e-02 3.58299420217527e-04
1.50883235294118e+00 1.62247498579684e-02 3.51648745021978e-04
