Energy (eV)          EEDF (eV^-(3/2))     First Anisotropy
3.58333333333333e-03 4.92265089662999e+00 4.18670495669639e-03
1.07500000000000e-02 4.82874826811528e+00 6.87059838749541e-03
1.79166666666667e-02 4.73663689087229e+00 8.95717772514912e-03
2.50833333333333e-02 4.64628259531185e+00 1.04753702469366e-02
3.22500000000000e-02 4.55765186403502e+00 1.16872924384133e-02
3.94166666666667e-02 4.47071181928083e+00 1.26939474677722e-02
4.65833333333333e-02 4.38543020990455e+00 1.35485494103817e-02
5.37500000000000e-02 4.30177540022706e+00 1.42837908057731e-02
6.09166666666667e-02 4.21971635818714e+00 1.49217177985087e-02
6.80833333333333e-02 4.13922264338640e+00 1.54781647294298e-02
7.52500000000000e-02 4.06026439623748e+00 1.59650359856093e-02
8.24166666666667e-02 3.98281232684117e+00 1.63915971519276e-02
8.95833333333333e-02 3.90683770382661e+00 1.67652588736940e-02
9.67500000000000e-02 3.83231234398707e+00 1.70920794567737e-02
1.03916666666667e-01 3.75920860199053e+00 1.73771016081045e-02
1.11083333333333e-01 3.68749935914106e+00 1.76245861213267e-02
1.18250000000000e-01 3.61715801451459e+00 1.78381790240820e-02
1.25416666666667e-01 3.54815847516372e+00 1.80210344392986e-02
1.32583333333333e-01 3.48047514478689e+00 1.81759065292224e-02
1.39750000000000e-01 3.41408291588977e+00 1.83052197589360e-02
1.46916666666667e-01 3.34895716035488e+00 1.84111237801599e-02
1.54083333333333e-01 3.28507371898980e+00 1.84955365078633e-02
1.61250000000000e-01 3.22240889388699e+00 1.85601785524503e-02
1.68416666666667e-01 3.16093943954692e+00 1.86066013107670e-02
1.75583333333333e-01 3.10064255318023e+00 1.86362097377809e-02
1.82750000000000e-01 3.04149586732972e+00 1.86502811474253e-02
1.89916666666667e-01 2.98347744150707e+00 1.86499810845511e-02
1.97083333333333e-01 2.92656575315979e+00 1.86363764766015e-02
2.04250000000000e-01 2.87073969058713e+00 1.86104467613030e-02
2.11416666666667e-01 2.81597854505659e+00 1.85730935544181e-02
2.18583333333333e-01 2.76226200236742e+00 1.85251487776198e-02
2.25750000000000e-01 2.70957013607476e+00 1.84673816686869e-02
2.32916666666667e-01 2.65788340005585e+00 1.84005050286651e-02
2.40083333333333e-01 2.60718262061540e+00 1.83251805206405e-02
2.47250000000000e-01 2.55744899002181e+00 1.82420233107550e-02
2.54416666666667e-01 2.50866405949586e+00 1.81516063020521e-02
2.61583333333333e-01 2.46080973181241e+00 1.80544637411156e-02
2.68750000000000e-01 2.41386825514626e+00 1.79510944170271e-02
2.75916666666667e-01 2.36782221645829e+00 1.78419646453418e-02
2.83083333333333e-01 2.32265453455459e+00 1.77275108114917e-02
2.90250000000000e-01 2.27834845423559e+00 1.76081416504033e-02
2.97416666666667e-01 2.23488754005642e+00 1.74842404193744e-02
3.04583333333333e-01 2.19225566980951e+00 1.73561667453878e-02
3.11750000000000e-01 2.15043702896826e+00 1.72242582954443e-02
3.18916666666667e-01 2.10941610479997e+00 1.70888324029671e-02
3.26083333333333e-01 2.06917768024179e+00 1.69501874432755e-02
3.33250000000000e-01 2.02970682862873e+00 1.68086040865864e-02
3.40416666666667e-01 1.99098890813887e+00 1.66643465442111e-02
3.47583333333333e-01 1.95300955603569e+00 1.65176636145320e-02
3.54750000000000e-01 1.91575468366938e+00 1.63687896419395e-02
3.61916666666667e-01 1.87921047123530e+00 1.62179454910292e-02
3.69083333333333e-01 1.84336336235826e+00 1.60653393564863e-02
3.76250000000000e-01 1.80820005935568e+00 1.59111675096577e-02
3.83416666666667e-01 1.77370751829141e+00 1.57556150733743e-02
3.90583333333333e-01 1.73987294387973e+00 1.55988566588267e-02
3.97750000000000e-01 1.70668378499869e+00 1.54410569554461e-02
4.04916666666667e-01 1.67412773002253e+00 1.52823713564203e-02
4.12083333333333e-01 1.64219270202498e+00 1.51229464662706e-02
4.19250000000000e-01 1.61086685453120e+00 1.49629205729129e-02
4.26416666666667e-01 1.58013856711302e+00 1.48024241592277e-02
4.33583333333333e-01 1.54999644087270e+00 1.46415803123052e-02
4.40750000000000e-01 1.52042929442210e+00 1.44805051054271e-02
4.47916666666667e-01 1.49142615972590e+00 1.43193080211985e-02
4.55083333333333e-01 1.46297627784832e+00 1.41580922848533e-02
4.62250000000000e-01 1.43506909514855e+00 1.39969551763324e-02
4.69416666666667e-01 1.40769425935780e+00 1.38359883837402e-02
4.76583333333333e-01 1.38084161557298e+00 1.36752782771915e-02
4.83750000000000e-01 1.35450120265751e+00 1.35149061659237e-02
4.90916666666667e-01 1.32866324953907e+00 1.33549485961164e-02
4.98083333333333e-01 1.30331817143516e+00 1.31954775776107e-02
5.05250000000000e-01 1.27845656644896e+00 1.30365607972877e-02
5.12416666666667e-01 1.25406921207532e+00 1.28782618719233e-02
5.19583333333333e-01 1.23014706164422e+00 1.27206405371422e-02
5.26750000000000e-01 1.20668124110167e+00 1.25637528256283e-02
5.33916666666667e-01 1.18366304571219e+00 1.24076512832478e-02
5.41083333333333e-01 1.16108393670719e+00 1.22523851274389e-02
5.48250000000000e-01 1.13893553824128e+00 1.20980003968755e-02
5.55416666666667e-01 1.11720963428018e+00 1.19445401372856e-02
5.62583333333333e-01 1.09589816544179e+00 1.17920445348898e-02
5.69750000000000e-01 1.07499322611882e+00 1.16405510426914e-02
5.76916666666667e-01 1.05448706154165e+00 1.14900945410770e-02
5.84083333333333e-01 1.03437206480067e+00 1.13407074507196e-02
5.91250000000000e-01 1.01464077412653e+00 1.11924198395856e-02
5.98416666666667e-01 9.95285870118004e-01 1.10452595623824e-02
6.05583333333333e-01 9.76300172935058e-01 1.08992523564420e-02
6.12750000000000e-01 9.57676639728226e-01 1.07544219327076e-02
6.19916666666667e-01 9.39408362022325e-01 1.06107900973116e-02
6.27083333333333e-01 9.21488563070122e-01 1.04683768332604e-02
6.34250000000000e-01 9.03910595422979e-01 1.03272003780297e-02
6.41416666666667e-01 8.86667938461593e-01 1.01872773299487e-02
6.48583333333333e-01 8.69754195900912e-01 1.00486227179718e-02
6.55750000000000e-01 8.53163093494468e-01 9.91125006801821e-03
6.62916666666667e-01 8.36888476703872e-01 9.77517149635994e-03
6.70083333333333e-01 8.20924308346179e-01 9.64039776934598e-03
6.77250000000000e-01 8.05264666424711e-01 9.50693836023288e-03
6.84416666666667e-01 7.89903741929513e-01 9.37480153139900e-03
6.91583333333333e-01 7.74835836618880e-01 9.24399438555512e-03
6.98750000000000e-01 7.60055360969861e-01 9.11452291450419e-03
7.05916666666667e-01 7.45556832102297e-01 8.98639207170290e-03
7.13083333333333e-01 7.31334871686751e-01 8.85960581622761e-03
7.20250000000000e-01 7.17384204008204e-01 8.73416715465743e-03
7.27416666666667e-01 7.03699654006730e-01 8.61007820526024e-03
7.34583333333333e-01 6.90276145304520e-01 8.48734023577061e-03
7.41750000000000e-01 6.77108698376630e-01 8.36595369939167e-03
7.48916666666667e-01 6.64192428701735e-01 8.24591829168526e-03
7.56083333333333e-01 6.51522544901373e-01 8.12723298304695e-03
7.63250000000000e-01 6.39094347011925e-01 8.00989604966212e-03
7.70416666666667e-01 6.26903224739250e-01 7.89390512401742e-03
7.77583333333333e-01 6.14944655703701e-01 7.77925722281822e-03
7.84750000000000e-01 6.03214203807803e-01 7.66594877360263e-03
7.91916666666667e-01 5.91707517588942e-01 7.55397565965909e-03
7.99083333333333e-01 5.80420328564058e-01 7.44333324401477e-03
8.06250000000000e-01 5.69348449687807e-01 7.33401639230482e-03
8.13416666666667e-01 5.58487773797775e-01 7.22601951276954e-03
8.20583333333333e-01 5.47834272053150e-01 7.11933657684889e-03
8.27750000000000e-01 5.37383992478387e-01 7.01396113881367e-03
8.34916666666667e-01 5.27133058495769e-01 6.90988637142278e-03
8.42083333333333e-01 5.17077667452655e-01 6.80710508358010e-03
8.49250000000000e-01 5.07214089245977e-01 6.70560973716093e-03
8.56416666666667e-01 4.97538664937221e-01 6.60539247883241e-03
8.63583333333333e-01 4.88047805363191e-01 6.50644515516323e-03
8.70750000000000e-01 4.78737989836891e-01 6.40875932701650e-03
8.77916666666667e-01 4.69605764840303e-01 6.31232629797011e-03
8.85083333333333e-01 4.60647742713888e-01 6.21713712721457e-03
8.92250000000000e-01 4.51860600429653e-01 6.12318264183170e-03
8.99416666666667e-01 4.43241078357345e-01 6.03045346219646e-03
9.06583333333333e-01 4.34785979028206e-01 5.93894001295145e-03
9.13750000000000e-01 4.26492165976238e-01 5.84863253344673e-03
9.20916666666667e-01 4.18356562573701e-01 5.75952110045666e-03
9.28083333333333e-01 4.10376150864870e-01 5.67159563748094e-03
9.35250000000000e-01 4.02547970471748e-01 5.58484592358320e-03
9.42416666666667e-01 3.94869117494970e-01 5.49926161371638e-03
9.49583333333333e-01 3.87336743413573e-01 5.41483224656613e-03
9.56750000000000e-01 3.79948054051599e-01 5.33154725199410e-03
9.63916666666667e-01 3.72700308540730e-01 5.24939596922989e-03
9.71083333333333e-01 3.65590818282311e-01 5.16836765344446e-03
9.78250000000000e-01 3.58616945971483e-01 5.08845148197788e-03
9.85416666666667e-01 3.51776104618071e-01 5.00963657062452e-03
9.92583333333333e-01 3.45065756567331e-01 4.93191197910033e-03
9.99750000000000e-01 3.38483412578415e-01 4.85526671322421e-03
1.00691666666667e+00 3.32026630917956e-01 4.77968975150415e-03
1.01408333333333e+00 3.25693016365048e-01 4.70517003754530e-03
1.02125000000000e+00 3.19480219431297e-01 4.63169646949653e-03
1.02841666666667e+00 3.13385935501337e-01 4.55925795463947e-03
1.03558333333333e+00 3.07407903810685e-01 4.48784338948997e-03
1.04275000000000e+00 3.01543906776298e-01 4.41744163728571e-03
1.04991666666667e+00 2.95791769167818e-01 4.34804159069771e-03
1.05708333333333e+00 2.90149357146070e-01 4.27963214968022e-03
1.06425000000000e+00 2.84614577627914e-01 4.21220219996867e-03
1.07141666666667e+00 2.79185377504147e-01 4.14574067120449e-03
1.07858333333333e+00 2.73859742734940e-01 4.08023651579795e-03
1.08575000000000e+00 2.68635697747359e-01 4.01567868841025e-03
1.09291666666667e+00 2.63511304697307e-01 3.95205619984740e-03
1.10008333333333e+00 2.58484662618410e-01 3.88935809690673e-03
1.10725000000000e+00 2.53553906850668e-01 3.82757344281377e-03
1.11441666666667e+00 2.48717208343936e-01 3.76669136721148e-03
1.12158333333333e+00 2.43972772857028e-01 3.70670104695851e-03
1.12875000000000e+00 2.39318840415983e-01 3.64759168749030e-03
1.13591666666667e+00 2.34753684656760e-01 3.58935256920205e-03
1.14308333333333e+00 2.30275612071497e-01 3.53197302916579e-03
1.15025000000000e+00 2.25882961494977e-01 3.47544244338354e-03
1.15741666666667e+00 2.21574103484306e-01 3.41975026983771e-03
1.16458333333333e+00 2.17347439609496e-01 3.36488603109347e-03
1.17175000000000e+00 2.13201401966735e-01 3.31083929741100e-03
1.17891666666667e+00 2.09134452592976e-01 3.25759972671484e-03
1.18608333333333e+00 2.05145082798164e-01 3.20515704804717e-03
1.19325000000000e+00 2.01231812703996e-01 3.15350104550585e-03
1.20041666666667e+00 1.97393190691450e-01 3.10262159536365e-03
1.20758333333333e+00 1.93627792772158e-01 3.05250865033877e-03
1.21475000000000e+00 1.89934222151382e-01 3.00315222432521e-03
1.22191666666667e+00 1.86311108706634e-01 2.95454242687411e-03
1.22908333333333e+00 1.82757108395845e-01 2.90666944824747e-03
1.23625000000000e+00 1.79270902843355e-01 2.85952354490798e-03
1.24341666666667e+00 1.75851198847861e-01 2.81309507155822e-03
1.25058333333333e+00 1.72496727825191e-01 2.76737446694366e-03
1.25775000000000e+00 1.69206245416145e-01 2.72235224006976e-03
1.26491666666667e+00 1.65978531022126e-01 2.67801899997888e-03
1.27208333333333e+00 1.62812387280446e-01 2.63436544226989e-03
1.27925000000000e+00 1.59706639692922e-01 2.59138233601040e-03
1.28641666666667e+00 1.56660136187627e-01 2.54906055141756e-03
1.29358333333333e+00 1.53671746624792e-01 2.50739104706200e-03
1.30075000000000e+00 1.50740362445103e-01 2.46636485744409e-03
1.30791666666667e+00 1.47864896256099e-01 2.42597311873154e-03
1.31508333333333e+00 1.45044281366858e-01 2.38620705661670e-03
1.32225000000000e+00 1.42277471454983e-01 2.34705797452637e-03
1.32941666666667e+00 1.39563440176265e-01 2.30851727755760e-03
1.33658333333333e+00 1.36901180726442e-01 2.27057646095787e-03
1.34375000000000e+00 1.34289705525921e-01 2.23322709893906e-03
1.35091666666667e+00 1.31728045851390e-01 2.19646086694193e-03
1.35808333333333e+00 1.29215251423052e-01 2.16026953070982e-03
1.36525000000000e+00 1.26750390106170e-01 2.12464493567842e-03
1.37241666666667e+00 1.24332547563392e-01 2.08957902768931e-03
1.37958333333333e+00 1.21960826865958e-01 2.05506384262892e-03
1.38675000000000e+00 1.19634348211189e-01 2.02109149636669e-03
1.39391666666667e+00 1.17352248594375e-01 1.98765420402907e-03
1.40108333333333e+00 1.15113681442521e-01 1.95474427017651e-03
1.40825000000000e+00 1.12917816346977e-01 1.92235407926349e-03
1.41541666666667e+00 1.10763838753763e-01 1.89047611357593e-03
1.42258333333333e+00 1.08650949618554e-01 1.85910294392009e-03
1.42975000000000e+00 1.06578365153637e-01 1.82822722057905e-03
1.43691666666667e+00 1.04545316535656e-01 1.79784169000893e-03
1.44408333333333e+00 1.02551049580569e-01 1.76793918601437e-03
1.45125000000000e+00 1.00594824504204e-01 1.73851262117716e-03
1.45841666666667e+00 9.86759156464263e-02 1.70955500239955e-03
1.46558333333333e+00 9.67936111649101e-02 1.68105942254209e-03
1.47275000000000e+00 9.49472128085666e-02 1.65301905230105e-03
1.47991666666667e+00 9.31360356572253e-02 1.62542715468042e-03
1.48708333333333e+00 9.13594078331022e-02 1.59827707706923e-03
1.49425000000000e+00 8.96166702864368e-02 1.57156224354525e-03
1.50141666666667e+00 8.79071765498049e-02 1.54527616835145e-03
1.50858333333333e+00 8.62302924662556e-02 1.51941244839051e-03
1.51575000000000e+00 8.45853959865084e-02 1.49396475593354e-03
1.52291666666667e+00 8.29718769370786e-02 1.46892685117108e-03
1.53008333333333e+00 8.13891367641056e-02 1.44429257510374e-03
1.53725000000000e+00 7.98365883415024e-02 1.42005584263547e-03
1.54441666666667e+00 7.83136557521149e-02 1.39621065426413e-03
1.55158333333333e+00 7.68197740463263e-02 1.37275108934817e-03
1.55875000000000e+00 7.53543890605792e-02 1.34967129956474e-03
1.56591666666667e+00 7.39169572108365e-02 1.32696551980014e-03
1.57308333333333e+00 7.25069452650993e-02 1.30462806177343e-03
1.58025000000000e+00 7.11238301717524e-02 1.28265330784085e-03
1.58741666666667e+00 6.97670988646339e-02 1.26103572114195e-03
1.59458333333333e+00 6.84362480486572e-02 1.23976983956176e-03
1.60175000000000e+00 6.71307840374572e-02 1.21885026986371e-03
1.60891666666667e+00 6.58502225694170e-02 1.19827169714352e-03
1.61608333333333e+00 6.45940886056300e-02 1.17802887911237e-03
1.62325000000000e+00 6.33619161763526e-02 1.15811664054155e-03
1.63041666666667e+00 6.21532482073714e-02 1.13852988207201e-03
1.63758333333333e+00 6.09676363295882e-02 1.11926357480207e-03
1.64475000000000e+00 5.98046407338100e-02 1.10031275502766e-03
1.65191666666667e+00 5.86638300068747e-02 1.08167253245236e-03
1.65908333333333e+00 5.75447809521842e-02 1.06333808506374e-03
1.66625000000000e+00 5.64470784523859e-02 1.04530465415378e-03
1.67341666666667e+00 5.53703153147090e-02 1.02756755197102e-03
1.68058333333333e+00 5.43140921018097e-02 1.01012215687051e-03
1.68775000000000e+00 5.32780170019226e-02 9.92963908599807e-04
1.69491666666667e+00 5.22617056828892e-02 9.76088315431837e-04
1.70208333333333e+00 5.12647811327175e-02 9.59490949574056e-04
1.70925000000000e+00 5.02868735368033e-02 9.43167442706289e-04
1.71641666666667e+00 4.93276201401619e-02 9.27113492629976e-04
1.72358333333333e+00 4.83866650971393e-02 9.11324858923158e-04
1.73075000000000e+00 4.74636593553244e-02 8.95797358716863e-04
1.73791666666667e+00 4.65582605255223e-02 8.80526872894126e-04
1.74508333333333e+00 4.56701327400875e-02 8.65509341977773e-04
1.75225000000000e+00 4.47989465431675e-02 8.50740762132866e-04
1.75941666666667e+00 4.39443787679822e-02 8.36217190946468e-04
1.76658333333333e+00 4.31061124032816e-02 8.21934743535988e-04
1.77375000000000e+00 4.22838364895781e-02 8.07889588765858e-04
1.78091666666667e+00 4.14772460033233e-02 7.94077954636695e-04
1.78808333333333e+00 4.06860417310187e-02 7.80496124602615e-04
1.79525000000000e+00 3.99099301711159e-02 7.67140433990853e-04
1.80241666666667e+00 3.91486234247021e-02 7.54007275027141e-04
1.80958333333333e+00 3.84018390768217e-02 7.41093093350886e-04
1.81675000000000e+00 3.76693001037390e-02 7.28394384626987e-04
1.82391666666667e+00 3.69507347697662e-02 7.15907699232320e-04
1.83108333333333e+00 3.62458765153804e-02 7.03629638958380e-04
1.83825000000000e+00 3.55544638695587e-02 6.91556853805110e-04
1.84541666666667e+00 3.48762403524029e-02 6.79686046351623e-04
1.85258333333333e+00 3.42109543696611e-02 6.68013968636300e-04
1.85975000000000e+00 3.35583591298602e-02 6.56537419123042e-04
1.86691666666667e+00 3.29182125524018e-02 6.45253246777773e-04
1.87408333333333e+00 3.22902771681190e-02 6.34158348116575e-04
1.88125000000000e+00 3.16743200409464e-02 6.23249664335167e-04
1.88841666666667e+00 3.10701126811811e-02 6.12524185111243e-04
1.89558333333333e+00 3.04774309517247e-02 6.01978945811725e-04
1.90275000000000e+00 2.98960549940476e-02 5.91611024776777e-04
1.90991666666667e+00 2.93257691463220e-02 5.81417546866644e-04
1.91708333333333e+00 2.87663618550248e-02 5.71395680819505e-04
1.92425000000000e+00 2.82176256049603e-02 5.61542636681820e-04
1.93141666666667e+00 2.76793568419941e-02 5.51855669117028e-04
1.93858333333333e+00 2.71513558897063e-02 5.42332074905958e-04
1.94575000000000e+00 2.66334268832541e-02 5.32969190515742e-04
1.95291666666667e+00 2.61253776964461e-02 5.23764395186446e-04
1.96008333333333e+00 2.56270198631574e-02 5.14715108566485e-04
1.96725000000000e+00 2.51381685148218e-02 5.05818788412738e-04
1.97441666666667e+00 2.46586423116036e-02 4.97072933470113e-04
1.98158333333333e+00 2.41882633683004e-02 4.88475081234752e-04
1.98875000000000e+00 2.37268571952678e-02 4.80022805778293e-04
1.99591666666667e+00 2.32742526334586e-02 4.71713720434469e-04
2.00308333333333e+00 2.28302817845547e-02 4.63545475683227e-04
2.01025000000000e+00 2.23947799551387e-02 4.55515757092479e-04
2.01741666666667e+00 2.19675855953818e-02 4.47622287824805e-04
2.02458333333333e+00 2.15485402331635e-02 4.39862826635991e-04
2.03175000000000e+00 2.11374884213114e-02 4.32235165927993e-04
2.03891666666667e+00 2.07342776797349e-02 4.24737134087848e-04
2.04608333333333e+00 2.03387584333017e-02 4.17366593594549e-04
2.05325000000000e+00 1.99507839619809e-02 4.10121439177263e-04
2.06041666666667e+00 1.95702103462263e-02 4.02999599997769e-04
2.06758333333333e+00 1.91968964083966e-02 3.95999037859803e-04
2.07475000000000e+00 1.88307036656411e-02 3.89117745466903e-04
2.08191666666667e+00 1.84714962783523e-02 3.82353748458940e-04
2.08908333333333e+00 1.81191409949248e-02 3.75705103718435e-04
2.09625000000000e+00 1.77735071072356e-02 3.69169897722683e-04
2.10341666666667e+00 1.74344664019912e-02 3.62746248444190e-04
2.11058333333333e+00 1.71018931086366e-02 3.56432303748740e-04
2.11775000000000e+00 1.67756638572857e-02 3.50226239836719e-04
2.12491666666667e+00 1.64556576328031e-02 3.44126263016640e-04
2.13208333333333e+00 1.61417557256801e-02 3.38130608190031e-04
2.13925000000000e+00 1.58338416922833e-02 3.32237537377151e-04
2.14641666666667e+00 1.55318013115162e-02 3.26445341372113e-04
2.15358333333333e+00 1.52355225384928e-02 3.20752338309954e-04
2.16075000000000e+00 1.49448954669776e-02 3.15156872272202e-04
2.16791666666667e+00 1.46598122884819e-02 3.09657314831532e-04
2.17508333333333e+00 1.43801672485750e-02 3.04252063696559e-04
2.18225000000000e+00 1.41058566113957e-02 2.98939541392982e-04
2.18941666666667e+00 1.38367786210462e-02 2.93718196705222e-04
2.19658333333333e+00 1.35728334603905e-02 2.88586503394727e-04
2.20375000000000e+00 1.33139232175236e-02 2.83542958952611e-04
2.21091666666667e+00 1.30599518493336e-02 2.78586085945169e-04
2.21808333333333e+00 1.28108251426459e-02 2.73714430801748e-04
2.22525000000000e+00 1.25664506825420e-02 2.68926562635020e-04
2.23241666666667e+00 1.23267378179688e-02 2.64221074496830e-04
2.23958333333333e+00 1.20915976250936e-02 2.59596582231852e-04
2.24675000000000e+00 1.18609428773717e-02 2.55051723361876e-04
2.25391666666667e+00 1.16346880130877e-02 2.50585158257960e-04
2.26108333333333e+00 1.14127491007947e-02 2.46195569056349e-04
