Energy (eV)          EEDF (eV^-(3/2))     First Anisotropy
2.84615384615385e-04 1.25914542606400e+02 5.82794511714935e-02
8.53846153846154e-04 1.24256792972495e+02 9.59249140020317e-02
1.42307692307692e-03 1.22620868725887e+02 1.25810464906080e-01
1.99230769230769e-03 1.21006482522492e+02 1.48021117225135e-01
2.56153846153846e-03 1.19413350799296e+02 1.66141041117112e-01
3.13076923076923e-03 1.17841193726723e+02 1.81538370927677e-01
3.70000000000000e-03 1.16289735159367e+02 1.94927564723720e-01
4.26923076923077e-03 1.14758702589030e+02 2.06743878457804e-01
4.83846153846154e-03 1.13247827091965e+02 2.17278483289329e-01
5.40769230769231e-03 1.11756843286785e+02 2.26738925138796e-01
5.97692307692308e-03 1.10285489286016e+02 2.35280124559198e-01
6.54615384615385e-03 1.08833506650100e+02 2.43021855396397e-01
7.11538461538462e-03 1.07400640342007e+02 2.50059319147522e-01
7.68461538461539e-03 1.05986638682436e+02 2.56469901154329e-01
8.25384615384615e-03 1.04591253305607e+02 2.62317679835161e-01
8.82307692307692e-03 1.03214239115648e+02 2.67656545829976e-01
9.39230769230769e-03 1.01855354243534e+02 2.72532425054376e-01
9.96153846153846e-03 1.00514360004610e+02 2.76984903897592e-01
1.05307692307692e-02 9.91910208591322e+01 2.81048443265277e-01
1.11000000000000e-02 9.78851043619249e+01 2.84753303443176e-01
1.16692307692308e-02 9.65963811322406e+01 2.88126260319658e-01
1.22384615384615e-02 9.53246248092735e+01 2.91191167932025e-01
1.28076923076923e-02 9.40696120164833e+01 2.93969406364637e-01
1.33769230769231e-02 9.28311223099538e+01 2.96480243079229e-01
1.39461538461538e-02 9.16089381522171e+01 2.98741127486849e-01
1.45153846153846e-02 9.04028448732711e+01 3.00767932203823e-01
1.50846153846154e-02 8.92126306224672e+01 3.02575154152315e-01
1.56538461538462e-02 8.80380863417657e+01 3.04176082916294e-01
1.62230769230769e-02 8.68790057284625e+01 3.05582941727186e-01
1.67923076923077e-02 8.57351851900706e+01 3.06807007946338e-01
1.73615384615385e-02 8.46064238174887e+01 3.07858716066464e-01
1.79307692307692e-02 8.34925233492393e+01 3.08747745385947e-01
1.85000000000000e-02 8.23932881290126e+01 3.09483096520414e-01
1.90692307692308e-02 8.13085250790035e+01 3.10073157835558e-01
1.96384615384615e-02 8.02380436634037e+01 3.10525763065841e-01
2.02076923076923e-02 7.91816558570706e+01 3.10848241850142e-01
2.07769230769231e-02 7.81391761060217e+01 3.11047464514230e-01
2.13461538461538e-02 7.71104213013873e+01 3.11129881780131e-01
2.19153846153846e-02 7.60952107469364e+01 3.11101559314823e-01
2.24846153846154e-02 7.50933661216277e+01 3.10968209135761e-01
2.30538461538462e-02 7.41047114540369e+01 3.10735217708592e-01
2.36230769230769e-02 7.31290730912015e+01 3.10407670501513e-01
2.41923076923077e-02 7.21662796630486e+01 3.09990374654983e-01
2.47615384615385e-02 7.12161620573978e+01 3.09487879451411e-01
2.53307692307692e-02 7.02785533900343e+01 3.08904494240573e-01
2.59000000000000e-02 6.93532889708849e+01 3.08244305241253e-01
2.64692307692308e-02 6.84402062796439e+01 3.07511190771112e-01
2.70384615384615e-02 6.75391449356938e+01 3.06708834873714e-01
2.76076923076923e-02 6.66499466712389e+01 3.05840739766541e-01
2.81769230769231e-02 6.57724552995527e+01 3.04910237451347e-01
2.87461538461538e-02 6.49065166915358e+01 3.03920500430070e-01
2.93153846153846e-02 6.40519787484805e+01 3.02874551055305e-01
2.98846153846154e-02 6.32086913717894e+01 3.01775270611545e-01
3.04538461538462e-02 6.23765064402026e+01 3.00625407700969e-01
3.10230769230769e-02 6.15552777836456e+01 2.99427585529655e-01
3.15923076923077e-02 6.07448611543246e+01 2.98184309092653e-01
3.21615384615385e-02 5.99451142046431e+01 2.96897971841719e-01
3.27307692307692e-02 5.91558964620732e+01 2.95570861445816e-01
3.33000000000000e-02 5.83770693015553e+01 2.94205165561202e-01
3.38692307692308e-02 5.76084959241024e+01 2.92802977163396e-01
3.44384615384615e-02 5.68500413317781e+01 2.91366299338563e-01
3.50076923076923e-02 5.61015723048451e+01 2.89897049757058e-01
3.55769230769231e-02 5.53629573757560e+01 2.88397065024772e-01
3.61461538461538e-02 5.46340668086959e+01 2.86868104800168e-01
3.67153846153846e-02 5.39147725766976e+01 2.85311855282081e-01
3.72846153846154e-02 5.32049483367684e+01 2.83729932842112e-01
3.78538461538462e-02 5.25044694101020e+01 2.82123887437664e-01
3.84230769230769e-02 5.18132127600959e+01 2.80495205474070e-01
3.89923076923077e-02 5.11310569685539e+01 2.78845312836643e-01
3.95615384615385e-02 5.04578822165623e+01 2.77175577747621e-01
4.01307692307692e-02 4.97935702633658e+01 2.75487313135371e-01
4.07000000000000e-02 4.91380044235951e+01 2.73781779188878e-01
4.12692307692308e-02 4.84910695487938e+01 2.72060185735666e-01
4.18384615384615e-02 4.78526520065120e+01 2.70323694355325e-01
4.24076923076923e-02 4.72226396609437e+01 2.68573420378218e-01
4.29769230769231e-02 4.66009218514230e+01 2.66810434910992e-01
4.35461538461538e-02 4.59873893748115e+01 2.65035766786879e-01
4.41153846153846e-02 4.53819344662540e+01 2.63250404132829e-01
4.46846153846154e-02 4.47844507785839e+01 2.61455296135973e-01
4.52538461538462e-02 4.41948333653227e+01 2.59651354719792e-01
4.58230769230769e-02 4.36129786621924e+01 2.57839455871344e-01
4.63923076923077e-02 4.30387844673849e+01 2.56020441166513e-01
4.69615384615385e-02 4.24721499251617e+01 2.54195119219496e-01
4.75307692307692e-02 4.19129755080880e+01 2.52364266812997e-01
4.81000000000000e-02 4.13611629981285e+01 2.50528630223243e-01
4.86692307692308e-02 4.08166154708309e+01 2.48688926453717e-01
4.92384615384615e-02 4.02792372778181e+01 2.46845844309077e-01
4.98076923076923e-02 3.97489340304150e+01 2.45000045418414e-01
5.03769230769231e-02 3.92256125817763e+01 2.43152165317152e-01
5.09461538461538e-02 3.87091810118308e+01 2.41302814502713e-01
5.15153846153846e-02 3.81995486110924e+01 2.39452579224371e-01
5.20846153846154e-02 3.76966258635295e+01 2.37602022457198e-01
5.26538461538462e-02 3.72003244320494e+01 2.35751684831020e-01
5.32230769230769e-02 3.67105571429450e+01 2.33902085312758e-01
5.37923076923077e-02 3.62272379694694e+01 2.32053722066295e-01
5.43615384615385e-02 3.57502820178478e+01 2.30207073273266e-01
5.49307692307692e-02 3.52796055123306e+01 2.28362597724513e-01
5.55000000000000e-02 3.48151257794443e+01 2.26520735582442e-01
5.60692307692308e-02 3.43567612345140e+01 2.24681909087848e-01
5.66384615384615e-02 3.39044313669813e+01 2.22846523158195e-01
5.72076923076923e-02 3.34580567265759e+01 2.21014965960100e-01
5.77769230769231e-02 3.30175589084145e+01 2.19187609542247e-01
5.83461538461538e-02 3.25828605401830e+01 2.17364810459514e-01
5.89153846153846e-02 3.21538852685173e+01 2.15546910200704e-01
5.94846153846154e-02 3.17305577447107e+01 2.13734235772313e-01
6.00538461538462e-02 3.13128036123671e+01 2.11927100256591e-01
6.06230769230769e-02 3.09005494943142e+01 2.10125803185545e-01
6.11923076923077e-02 3.04937229788930e+01 2.08330631064155e-01
6.17615384615385e-02 3.00922526080676e+01 2.06541857870676e-01
6.23307692307692e-02 2.96960678648482e+01 2.04759745384341e-01
6.29000000000000e-02 2.93050991601388e+01 2.02984543655688e-01
6.34692307692308e-02 2.89192778212874e+01 2.01216491439467e-01
6.40384615384615e-02 2.85385360797637e+01 1.99455816548957e-01
6.46076923076923e-02 2.81628070594876e+01 1.97702736195585e-01
6.51769230769231e-02 2.77920247643797e+01 1.95957457382679e-01
6.57461538461538e-02 2.74261240674786e+01 1.94220177297296e-01
6.63153846153846e-02 2.70650406994807e+01 1.92491083551875e-01
6.68846153846154e-02 2.67087112367935e+01 1.90770354554613e-01
6.74538461538462e-02 2.63570730910585e+01 1.89058159863632e-01
6.80230769230769e-02 2.60100644981386e+01 1.87354660399679e-01
6.85923076923077e-02 2.56676245066536e+01 1.85660008781556e-01
6.91615384615385e-02 2.53296929678953e+01 1.83974349646803e-01
6.97307692307692e-02 2.49962105252439e+01 1.82297819839081e-01
7.03000000000000e-02 2.46671186031660e+01 1.80630548712578e-01
7.08692307692308e-02 2.43423593975079e+01 1.78972658409527e-01
7.14384615384615e-02 2.40218758651459e+01 1.77324264078634e-01
7.20076923076923e-02 2.37056117141429e+01 1.75685474084426e-01
7.25769230769231e-02 2.33935113933297e+01 1.74056390262811e-01
7.31461538461538e-02 2.30855200830834e+01 1.72437108177387e-01
7.37153846153846e-02 2.27815836856827e+01 1.70827717258699e-01
7.42846153846154e-02 2.24816488153081e+01 1.69228301048646e-01
7.48538461538462e-02 2.21856627891667e+01 1.67638937433898e-01
7.54230769230769e-02 2.18935736182244e+01 1.66059698768688e-01
7.59923076923077e-02 2.16053299976072e+01 1.64490652097737e-01
7.65615384615385e-02 2.13208812980602e+01 1.62931859369093e-01
7.71307692307692e-02 2.10401775570418e+01 1.61383377542340e-01
7.77000000000000e-02 2.07631694695091e+01 1.59845258792262e-01
7.82692307692308e-02 2.04898083797002e+01 1.58317550692413e-01
7.88384615384615e-02 2.02200462724388e+01 1.56800296353173e-01
7.94076923076923e-02 1.99538357648345e+01 1.55293534553868e-01
7.99769230769231e-02 1.96911300975550e+01 1.53797299913531e-01
8.05461538461539e-02 1.94318831270217e+01 1.52311623063403e-01
8.11153846153846e-02 1.91760493172928e+01 1.50836530727049e-01
8.16846153846154e-02 1.89235837316850e+01 1.49372045886066e-01
8.22538461538461e-02 1.86744420252637e+01 1.47918187938019e-01
8.28230769230769e-02 1.84285804370433e+01 1.46474972766800e-01
8.33923076923077e-02 1.81859557819433e+01 1.45042412894550e-01
8.39615384615385e-02 1.79465254435634e+01 1.43620517626332e-01
8.45307692307692e-02 1.77102473666880e+01 1.42209293111832e-01
8.51000000000000e-02 1.74770800495630e+01 1.40808742484783e-01
8.56692307692308e-02 1.72469825369453e+01 1.39418865986955e-01
8.62384615384615e-02 1.70199144127953e+01 1.38039661056594e-01
8.68076923076923e-02 1.67958357932803e+01 1.36671122412777e-01
8.73769230769231e-02 1.65747073194582e+01 1.35313242171758e-01
8.79461538461539e-02 1.63564901506777e+01 1.33966009965359e-01
8.85153846153846e-02 1.61411459577480e+01 1.32629412985765e-01
8.90846153846154e-02 1.59286369159128e+01 1.31303436100021e-01
8.96538461538462e-02 1.57189256985020e+01 1.29988061958772e-01
9.02230769230769e-02 1.55119754703676e+01 1.28683271035160e-01
9.07923076923077e-02 1.53077498811375e+01 1.27389041730136e-01
9.13615384615385e-02 1.51062130591091e+01 1.26105350472399e-01
9.19307692307692e-02 1.49073296049407e+01 1.24832171752038e-01
9.25000000000000e-02 1.47110645851736e+01 1.23569478217449e-01
9.30692307692308e-02 1.45173835263590e+01 1.22317240760242e-01
9.36384615384615e-02 1.43262524089140e+01 1.21075428572039e-01
9.42076923076923e-02 1.41376376612261e+01 1.19844009198359e-01
9.47769230769231e-02 1.39515061535152e+01 1.18622948618910e-01
9.53461538461538e-02 1.37678251922576e+01 1.17412211329877e-01
9.59153846153846e-02 1.35865625144372e+01 1.16211760367221e-01
9.64846153846154e-02 1.34076862816508e+01 1.15021557386742e-01
9.70538461538462e-02 1.32311650747452e+01 1.13841562739830e-01
9.76230769230769e-02 1.30569678882926e+01 1.12671735493154e-01
9.81923076923077e-02 1.28850641249295e+01 1.11512033502457e-01
9.87615384615385e-02 1.27154235901994e+01 1.10362413482301e-01
9.93307692307692e-02 1.25480164872428e+01 1.09222831022520e-01
9.99000000000000e-02 1.23828134113612e+01 1.08093240679154e-01
1.00469230769231e-01 1.22197853453129e+01 1.06973595952857e-01
1.01038461538462e-01 1.20589036532446e+01 1.05863849390690e-01
1.01607692307692e-01 1.19001400767046e+01 1.04763952675016e-01
1.02176923076923e-01 1.17434667292819e+01 1.03673856637992e-01
1.02746153846154e-01 1.15888560923067e+01 1.02593511173488e-01
1.03315384615385e-01 1.14362810082070e+01 1.01522865392300e-01
1.03884615384615e-01 1.12857146775651e+01 1.00461867754946e-01
1.04453846153846e-01 1.11371306537948e+01 9.94104659630025e-02
1.05023076923077e-01 1.09905028384979e+01 9.83686070959903e-02
1.05592307692308e-01 1.08458054774232e+01 9.73362374977019e-02
1.06161538461538e-01 1.07030131542937e+01 9.63133029170261e-02
1.06730769230769e-01 1.05621007880077e+01 9.52997486279401e-02
1.07300000000000e-01 1.04230436276731e+01 9.42955193729900e-02
1.07869230769231e-01 1.02858172487653e+01 9.33005593003532e-02
1.08438461538462e-01 1.01503975473064e+01 9.23148120939090e-02
1.09007692307692e-01 1.00167607371767e+01 9.13382210836729e-02
1.09576923076923e-01 9.88488334541648e+00 9.03707291910412e-02
1.10146153846154e-01 9.75474220857219e+00 8.94122788678965e-02
1.10715384615385e-01 9.62631446720779e+00 8.84628122168298e-02
1.11284615384615e-01 9.49957756332340e+00 8.75222710928464e-02
1.11853846153846e-01 9.37450923590952e+00 8.65905970092995e-02
1.12423076923077e-01 9.25108751703847e+00 8.56677312434675e-02
1.12992307692308e-01 9.12929072843304e+00 8.47536147384209e-02
1.13561538461538e-01 9.00909747636198e+00 8.38481882123642e-02
1.14130769230769e-01 8.89048664919144e+00 8.29513922507360e-02
1.14700000000000e-01 8.77343741323660e+00 8.20631672552313e-02
1.15269230769231e-01 8.65792920949992e+00 8.11834533873823e-02
1.15838461538462e-01 8.54394174885499e+00 8.03121906697265e-02
1.16407692307692e-01 8.43145500969932e+00 7.94493190707306e-02
1.16976923076923e-01 8.32044923402801e+00 7.85947784556689e-02
1.17546153846154e-01 8.21090492433351e+00 7.77485085323294e-02
1.18115384615385e-01 8.10280283906080e+00 7.69104489446622e-02
1.18684615384615e-01 7.99612399035848e+00 7.60805393511261e-02
1.19253846153846e-01 7.89084964036232e+00 7.52587193438898e-02
1.19823076923077e-01 7.78696129790519e+00 7.44449285307316e-02
1.20392307692308e-01 7.68444071560657e+00 7.36391064509129e-02
1.20961538461538e-01 7.58326988564333e+00 7.28411926605062e-02
1.21530769230769e-01 7.48343103762064e+00 7.20511268034885e-02
1.22100000000000e-01 7.38490663510297e+00 7.12688485665161e-02
1.22669230769231e-01 7.28767937284831e+00 7.04942976290991e-02
1.23238461538462e-01 7.19173217281577e+00 6.97274137426744e-02
1.23807692307692e-01 7.09704818212769e+00 6.89681367962350e-02
1.24376923076923e-01 7.00361076978569e+00 6.82164067729184e-02
1.24946153846154e-01 6.91140352404253e+00 6.74721637022246e-02
1.25515384615385e-01 6.82041024863267e+00 6.67353477332977e-02
1.26084615384615e-01 6.73061496082261e+00 6.60058991955581e-02
1.26653846153846e-01 6.64200188830180e+00 6.52837585296580e-02
1.27223076923077e-01 6.55455546641316e+00 6.45688663512864e-02
1.27792307692308e-01 6.46826033568672e+00 6.38611633793997e-02
1.28361538461538e-01 6.38310133832988e+00 6.31605905030844e-02
1.28930769230769e-01 6.29906351638463e+00 6.24670888366482e-02
1.29500000000000e-01 6.21613210882464e+00 6.17805996799523e-02
1.30069230769231e-01 6.13429254921206e+00 6.11010644748625e-02
1.30638461538462e-01 6.05353046238278e+00 6.04284248672769e-02
1.31207692307692e-01 5.97383166268486e+00 5.97626227580487e-02
1.31776923076923e-01 5.89518215122985e+00 5.91036002649941e-02
1.32346153846154e-01 5.81756811366675e+00 5.84512996812240e-02
1.32915384615385e-01 5.74097591705104e+00 5.78056635326970e-02
1.33484615384615e-01 5.66539210816131e+00 5.71666346253001e-02
1.34053846153846e-01 5.59080341089645e+00 5.65341559860583e-02
1.34623076923077e-01 5.51719672394446e+00 5.59081709130191e-02
1.35192307692308e-01 5.44455911869407e+00 5.52886229142184e-02
1.35761538461538e-01 5.37287783631804e+00 5.46754557602475e-02
1.36330769230769e-01 5.30214028618406e+00 5.40686135270823e-02
1.36900000000000e-01 5.23233404342403e+00 5.34680405615509e-02
1.37469230769231e-01 5.16344684695040e+00 5.28736814435447e-02
1.38038461538462e-01 5.09546659670040e+00 5.22854810348261e-02
1.38607692307692e-01 5.02838135211853e+00 5.17033845186474e-02
1.39176923076923e-01 4.96217932985461e+00 5.11273373667359e-02
1.39746153846154e-01 4.89684890187965e+00 5.05572853031965e-02
1.40315384615385e-01 4.83237859288187e+00 4.99931743498360e-02
1.40884615384615e-01 4.76875707881796e+00 4.94349508628182e-02
1.41453846153846e-01 4.70597318473296e+00 4.88825614827332e-02
1.42023076923077e-01 4.64401588279792e+00 4.83359531736951e-02
1.42592307692308e-01 4.58287429054276e+00 4.77950731715655e-02
1.43161538461538e-01 4.52253766842949e+00 4.72598690253844e-02
1.43730769230769e-01 4.46299541848600e+00 4.67302886307461e-02
1.44300000000000e-01 4.40423708226967e+00 4.62062801999037e-02
1.44869230769231e-01 4.34625233918907e+00 4.56877922291486e-02
1.45438461538462e-01 4.28903100421032e+00 4.51747735373079e-02
1.46007692307692e-01 4.23256302655352e+00 4.46671732966296e-02
1.46576923076923e-01 4.17683848776396e+00 4.41649410042503e-02
1.47146153846154e-01 4.12184760011827e+00 4.36680264510638e-02
1.47715384615385e-01 4.06758070445645e+00 4.31763797574918e-02
1.48284615384615e-01 4.01402826893829e+00 4.26899514020837e-02
1.48853846153846e-01 3.96118088721644e+00 4.22086921791842e-02
1.49423076923077e-01 3.90902927678462e+00 4.17325532296392e-02
1.49992307692308e-01 3.85756427748305e+00 4.12614859969421e-02
1.50561538461538e-01 3.80677684947725e+00 4.07954422599561e-02
1.51130769230769e-01 3.75665807208636e+00 4.03343741589690e-02
1.51700000000000e-01 3.70719914207633e+00 3.98782341699225e-02
1.52269230769231e-01 3.65839137224072e+00 3.94269750763540e-02
1.52838461538462e-01 3.61022618948982e+00 3.89805499998203e-02
1.53407692307692e-01 3.56269513373342e+00 3.85389124240201e-02
1.53976923076923e-01 3.51578985626405e+00 3.81020161702152e-02
1.54546153846154e-01 3.46950211840933e+00 3.76698153704857e-02
1.55115384615385e-01 3.42382378972529e+00 3.72422644960073e-02
1.55684615384615e-01 3.37874684693127e+00 3.68193183793952e-02
1.56253846153846e-01 3.33426337237835e+00 3.64009321788633e-02
1.56823076923077e-01 3.29036555265888e+00 3.59870614023765e-02
1.57392307692308e-01 3.24704567734312e+00 3.55776618705514e-02
1.57961538461538e-01 3.20429613729430e+00 3.51726897425415e-02
1.58530769230769e-01 3.16210942366580e+00 3.47721015364001e-02
1.59100000000000e-01 3.12047812647007e+00 3.43758541069314e-02
1.59669230769231e-01 3.07939493337903e+00 3.39839046216360e-02
1.60238461538462e-01 3.03885262813073e+00 3.35962105847852e-02
1.60807692307692e-01 2.99884408957369e+00 3.32127298562767e-02
1.61376923076923e-01 2.95936229031114e+00 3.28334206305264e-02
1.61946153846154e-01 2.92040029556211e+00 3.24582414135545e-02
1.62515384615385e-01 2.88195126165450e+00 3.20871510453731e-02
1.63084615384615e-01 2.84400843511460e+00 3.17201087174528e-02
1.63653846153846e-01 2.80656515138257e+00 3.13570739424063e-02
1.64223076923077e-01 2.76961483364209e+00 3.09980065730062e-02
1.64792307692308e-01 2.73315099175277e+00 3.06428667708315e-02
1.65361538461538e-01 2.69716722084443e+00 3.02916150267670e-02
1.65930769230769e-01 2.66165720046035e+00 2.99442121769264e-02
1.66500000000000e-01 2.62661469335687e+00 2.96006193836689e-02
1.67069230769231e-01 2.59203354448993e+00 2.92607981150182e-02
1.67638461538462e-01 2.55790767968538e+00 2.89247101637324e-02
1.68207692307692e-01 2.52423110482294e+00 2.85923176620531e-02
1.68776923076923e-01 2.49099790469891e+00 2.82635830636226e-02
1.69346153846154e-01 2.45820224206400e+00 2.79384691238894e-02
1.69915384615385e-01 2.42583835636559e+00 2.76169389178463e-02
1.70484615384615e-01 2.39390056297051e+00 2.72989558536957e-02
1.71053846153846e-01 2.36238325208750e+00 2.69844836472233e-02
1.71623076923077e-01 2.33128088778208e+00 2.66734863367835e-02
1.72192307692308e-01 2.30058800707470e+00 2.63659282568175e-02
1.72761538461538e-01 2.27029921876717e+00 2.60617740541032e-02
1.73330769230769e-01 2.24040920271178e+00 2.57609887002101e-02
1.73900000000000e-01 2.21091270880412e+00 2.54635374752579e-02
1.74469230769231e-01 2.18180455612711e+00 2.51693859503390e-02
1.75038461538462e-01 2.15307963184063e+00 2.48785000026371e-02
1.75607692307692e-01 2.12473289048567e+00 2.45908458269674e-02
1.76176923076923e-01 2.09675935303002e+00 2.43063899203093e-02
1.76746153846154e-01 2.06915410605573e+00 2.40250990650805e-02
1.77315384615385e-01 2.04191230070856e+00 2.37469403432027e-02
1.77884615384615e-01 2.01502915203554e+00 2.34718811467896e-02
1.78453846153846e-01 1.98849993808072e+00 2.31998891564987e-02
1.79023076923077e-01 1.96231999905596e+00 2.29309323533442e-02
1.79592307692308e-01 1.93648473657938e+00 2.26649789963383e-02
