Energy (eV)          EEDF (eV^-(3/2))     First Anisotropy
3.21739130434783e-04 1.25803875912445e+02 6.18562517676421e-02
9.65217391304348e-04 1.23933151371959e+02 1.01724795762356e-01
1.60869565217391e-03 1.22090244817267e+02 1.33186865691563e-01
2.25217391304348e-03 1.20274742589355e+02 1.56429094960097e-01
2.89565217391304e-03 1.18486237181293e+02 1.75275012095178e-01
3.53913043478261e-03 1.16724327145868e+02 1.91188046298319e-01
4.18260869565217e-03 1.14988617003662e+02 2.04934360869601e-01
4.82608695652174e-03 1.13278717160017e+02 2.16981849695035e-01
5.46956521739130e-03 1.11594243811412e+02 2.27644253726824e-01
6.11304347826087e-03 1.09934818861583e+02 2.37145712939732e-01
6.75652173913043e-03 1.08300069836639e+02 2.45653897636475e-01
7.40000000000000e-03 1.06689629801449e+02 2.53298707272571e-01
8.04347826086957e-03 1.05103137277272e+02 2.60183594196762e-01
8.68695652173913e-03 1.03540236160621e+02 2.66392805821169e-01
9.33043478260870e-03 1.02000575643337e+02 2.71996223041455e-01
9.97391304347826e-03 1.00483810133837e+02 2.77052710435606e-01
1.06173913043478e-02 9.89895991777610e+01 2.81612506669813e-01
1.12608695652174e-02 9.75176073902430e+01 2.85718973314876e-01
1.19043478260870e-02 9.60675043632162e+01 2.89409903252144e-01
1.25478260869565e-02 9.46389646073054e+01 2.92718518544089e-01
1.31913043478261e-02 9.32316674777661e+01 2.95674242839048e-01
1.38347826086957e-02 9.18452970887611e+01 2.98303310109951e-01
1.44782608695652e-02 9.04795422601764e+01 3.00629249617646e-01
1.51217391304348e-02 8.91340964314033e+01 3.02673276975467e-01
1.57652173913043e-02 8.78086576043123e+01 3.04454613718799e-01
1.64086956521739e-02 8.65029282748810e+01 3.05990749443032e-01
1.70521739130435e-02 8.52166153563357e+01 3.07297660496484e-01
1.76956521739130e-02 8.39494301264046e+01 3.08389992831280e-01
1.83391304347826e-02 8.27010881503127e+01 3.09281216209069e-01
1.89826086956522e-02 8.14713092258018e+01 3.09983755769855e-01
1.96260869565217e-02 8.02598173198168e+01 3.10509103708506e-01
2.02695652173913e-02 7.90663404988454e+01 3.10867916136175e-01
2.09130434782609e-02 7.78906108778973e+01 3.11070096567275e-01
2.15565217391304e-02 7.67323645509175e+01 3.11124868457084e-01
2.22000000000000e-02 7.55913415384658e+01 3.11040839015714e-01
2.28434782608696e-02 7.44672857290469e+01 3.10826054502170e-01
2.34869565217391e-02 7.33599448155478e+01 3.10488049579327e-01
2.41304347826087e-02 7.22690702447277e+01 3.10033891038802e-01
2.47739130434783e-02 7.11944171611570e+01 3.09470216044517e-01
2.54173913043478e-02 7.01357443468530e+01 3.08803266866114e-01
2.60608695652174e-02 6.90928141742118e+01 3.08038921676369e-01
2.67043478260870e-02 6.80653925459311e+01 3.07182722161323e-01
2.73478260869565e-02 6.70532488474069e+01 3.06239898702070e-01
2.79913043478261e-02 6.60561558947704e+01 3.05215392527339e-01
2.86347826086957e-02 6.50738898794841e+01 3.04113876323809e-01
2.92782608695652e-02 6.41062303238839e+01 3.02939772692358e-01
2.99217391304348e-02 6.31529600261672e+01 3.01697270922154e-01
3.05652173913043e-02 6.22138650156985e+01 3.00390342567493e-01
3.12086956521739e-02 6.12887345048302e+01 2.99022755177515e-01
3.18521739130435e-02 6.03773608379362e+01 2.97598085363398e-01
3.24956521739130e-02 5.94795394495897e+01 2.96119730566654e-01
3.31391304347826e-02 5.85950688140560e+01 2.94590919871892e-01
3.37826086956522e-02 5.77237504034401e+01 2.93014724209663e-01
3.44260869565217e-02 5.68653886429997e+01 2.91394065327395e-01
3.50695652173913e-02 5.60197908641916e+01 2.89731724519233e-01
3.57130434782609e-02 5.51867672654369e+01 2.88030350506789e-01
3.63565217391304e-02 5.43661308656611e+01 2.86292466744883e-01
3.70000000000000e-02 5.35576974651727e+01 2.84520478416944e-01
3.76434782608696e-02 5.27612856042123e+01 2.82716678548467e-01
3.82869565217391e-02 5.19767165196422e+01 2.80883254051330e-01
3.89304347826087e-02 5.12038141074235e+01 2.79022291365980e-01
3.95739130434783e-02 5.04424048829929e+01 2.77135781398448e-01
4.02173913043478e-02 4.96923179399612e+01 2.75225624502347e-01
4.08608695652174e-02 4.89533849148612e+01 2.73293634968110e-01
4.15043478260870e-02 4.82254399463577e+01 2.71341545232056e-01
4.21478260869565e-02 4.75083196402342e+01 2.69371009996934e-01
4.27913043478261e-02 4.68018630326407e+01 2.67383609773407e-01
4.34347826086956e-02 4.61059115519437e+01 2.65380854536175e-01
4.40782608695652e-02 4.54203089857937e+01 2.63364187007012e-01
4.47217391304348e-02 4.47449014434922e+01 2.61334985750680e-01
4.53652173913043e-02 4.40795373233491e+01 2.59294568245144e-01
4.60086956521739e-02 4.34240672785917e+01 2.57244193485555e-01
4.66521739130435e-02 4.27783441821033e+01 2.55185064735910e-01
4.72956521739130e-02 4.21422230956894e+01 2.53118331987405e-01
4.79391304347826e-02 4.15155612353294e+01 2.51045094288418e-01
4.85826086956522e-02 4.08982179407679e+01 2.48966402084113e-01
4.92260869565217e-02 4.02900546438877e+01 2.46883259170667e-01
4.98695652173913e-02 3.96909348361033e+01 2.44796624810309e-01
5.05130434782609e-02 3.91007240397018e+01 2.42707415608618e-01
5.11565217391304e-02 3.85192897757395e+01 2.40616507301973e-01
5.18000000000000e-02 3.79465015357277e+01 2.38524736574292e-01
5.24434782608696e-02 3.73822307522915e+01 2.36432902548698e-01
5.30869565217391e-02 3.68263507690067e+01 2.34341768418840e-01
5.37304347826087e-02 3.62787368132873e+01 2.32252062999076e-01
5.43739130434783e-02 3.57392659683352e+01 2.30164482000958e-01
5.50173913043478e-02 3.52078171443417e+01 2.28079689472286e-01
5.56608695652174e-02 3.46842710529040e+01 2.25998319057435e-01
5.63043478260870e-02 3.41685101787009e+01 2.23920975205019e-01
5.69478260869565e-02 3.36604187542639e+01 2.21848234419863e-01
5.75913043478261e-02 3.31598827339550e+01 2.19780646258376e-01
5.82347826086956e-02 3.26667897673109e+01 2.17718734480072e-01
5.88782608695652e-02 3.21810291752211e+01 2.15662998046813e-01
5.95217391304348e-02 3.17024919237294e+01 2.13613912083690e-01
6.01652173913043e-02 3.12310706005650e+01 2.11571928887101e-01
6.08086956521739e-02 3.07666593910025e+01 2.09537478709092e-01
6.14521739130435e-02 3.03091540531820e+01 2.07510970689322e-01
6.20956521739130e-02 2.98584518959367e+01 2.05492793655664e-01
6.27391304347826e-02 2.94144517545524e+01 2.03483316896617e-01
6.33826086956522e-02 2.89770539689437e+01 2.01482890981312e-01
6.40260869565217e-02 2.85461603612565e+01 1.99491848382952e-01
6.46695652173913e-02 2.81216742130156e+01 1.97510504240415e-01
6.53130434782609e-02 2.77035002444926e+01 1.95539157005346e-01
6.59565217391304e-02 2.72915445922719e+01 1.93578089068481e-01
6.66000000000000e-02 2.68857147889606e+01 1.91627567432493e-01
6.72434782608696e-02 2.64859197424084e+01 1.89687844211016e-01
6.78869565217391e-02 2.60920697145427e+01 1.87759157241508e-01
6.85304347826087e-02 2.57040763019508e+01 1.85841730670662e-01
6.91739130434783e-02 2.53218524160154e+01 1.83935775391863e-01
6.98173913043478e-02 2.49453122626950e+01 1.82041489606098e-01
7.04608695652174e-02 2.45743713241541e+01 1.80159059289060e-01
7.11043478260869e-02 2.42089463389290e+01 1.78288658645453e-01
7.17478260869565e-02 2.38489552838801e+01 1.76430450606952e-01
7.23913043478261e-02 2.34943173557618e+01 1.74584587185331e-01
7.30347826086956e-02 2.31449529524911e+01 1.72751209939543e-01
7.36782608695652e-02 2.28007836560661e+01 1.70930450359644e-01
7.43217391304348e-02 2.24617322141989e+01 1.69122430241279e-01
7.49652173913043e-02 2.21277225235442e+01 1.67327262101308e-01
7.56086956521739e-02 2.17986796126003e+01 1.65545049463883e-01
7.62521739130435e-02 2.14745296243537e+01 1.63775887251493e-01
7.68956521739130e-02 2.11551998003984e+01 1.62019862101976e-01
7.75391304347826e-02 2.08406184639255e+01 1.60277052678586e-01
7.81826086956522e-02 2.05307150041392e+01 1.58547530018553e-01
7.88260869565217e-02 2.02254198603928e+01 1.56831357765443e-01
7.94695652173913e-02 1.99246645061065e+01 1.55128592498059e-01
8.01130434782609e-02 1.96283814340056e+01 1.53439283993133e-01
8.07565217391304e-02 1.93365041403642e+01 1.51763475483010e-01
8.14000000000000e-02 1.90489671105263e+01 1.50101203949123e-01
8.20434782608696e-02 1.87657058041878e+01 1.48452500311023e-01
8.26869565217391e-02 1.84866566404920e+01 1.46817389694632e-01
8.33304347826087e-02 1.82117569841799e+01 1.45195891688238e-01
8.39739130434783e-02 1.79409451315180e+01 1.43588020509332e-01
8.46173913043478e-02 1.76741602960577e+01 1.41993785256039e-01
8.52608695652174e-02 1.74113425955085e+01 1.40413190102601e-01
8.59043478260870e-02 1.71524330377925e+01 1.38846234492055e-01
8.65478260869565e-02 1.68973735081779e+01 1.37292913360802e-01
8.71913043478261e-02 1.66461067562239e+01 1.35753217274314e-01
8.78347826086956e-02 1.63985763825812e+01 1.34227132640451e-01
8.84782608695652e-02 1.61547268267948e+01 1.32714641872401e-01
8.91217391304348e-02 1.59145033543819e+01 1.31215723549744e-01
8.97652173913043e-02 1.56778520448815e+01 1.29730352609002e-01
9.04086956521739e-02 1.54447197797420e+01 1.28258500453880e-01
9.10521739130435e-02 1.52150542300861e+01 1.26800135136661e-01
9.16956521739130e-02 1.49888038453779e+01 1.25355221494149e-01
9.23391304347826e-02 1.47659178414491e+01 1.23923721282462e-01
9.29826086956522e-02 1.45463461893997e+01 1.22505593339034e-01
9.36260869565217e-02 1.43300396043599e+01 1.21100793671910e-01
9.42695652173913e-02 1.41169495341488e+01 1.19709275614295e-01
9.49130434782609e-02 1.39070281487452e+01 1.18330989938004e-01
9.55565217391304e-02 1.37002283291918e+01 1.16965884966335e-01
9.62000000000000e-02 1.34965036572868e+01 1.15613906711973e-01
9.68434782608696e-02 1.32958084051574e+01 1.14274998949049e-01
9.74869565217391e-02 1.30980975247456e+01 1.12949103338810e-01
9.81304347826087e-02 1.29033266379492e+01 1.11636159548954e-01
9.87739130434783e-02 1.27114520266531e+01 1.10336105316671e-01
9.94173913043478e-02 1.25224306226819e+01 1.09048876568656e-01
1.00060869565217e-01 1.23362199984435e+01 1.07774407488627e-01
1.00704347826087e-01 1.21527783568846e+01 1.06512630671404e-01
1.01347826086957e-01 1.19720645232089e+01 1.05263477152648e-01
1.01991304347826e-01 1.17940379344505e+01 1.04026876449228e-01
1.02634782608696e-01 1.16186586308230e+01 1.02802756669306e-01
1.03278260869565e-01 1.14458872460878e+01 1.01591044718852e-01
1.03921739130435e-01 1.12756850007276e+01 1.00391666262169e-01
1.04565217391304e-01 1.11080136912041e+01 9.92045456537347e-02
1.05208695652174e-01 1.09428356814518e+01 9.80296063053909e-02
1.05852173913043e-01 1.07801138963188e+01 9.68667705963320e-02
1.06495652173913e-01 1.06198118113298e+01 9.57159598527243e-02
1.07139130434783e-01 1.04618934451338e+01 9.45770945008341e-02
1.07782608695652e-01 1.03063233508583e+01 9.34500942233321e-02
1.08426086956522e-01 1.01530666098883e+01 9.23348779164757e-02
1.09069565217391e-01 1.00020888222692e+01 9.12313636671774e-02
1.09713043478261e-01 9.85335609957926e+00 9.01394688913445e-02
1.10356521739130e-01 9.70683505679835e+00 8.90591104754555e-02
1.11000000000000e-01 9.56249280641089e+00 8.79902047329209e-02
1.11643478260870e-01 9.42029694940571e+00 8.69326673792136e-02
1.12286956521739e-01 9.28021556855055e+00 8.58864136569223e-02
1.12930434782609e-01 9.14221722074483e+00 8.48513584640893e-02
1.13573913043478e-01 9.00627093143048e+00 8.38274163101959e-02
1.14217391304348e-01 8.87234618615089e+00 8.28145012898633e-02
1.14860869565217e-01 8.74041292420504e+00 8.18125271959547e-02
1.15504347826087e-01 8.61044153145489e+00 8.08214076359910e-02
1.16147826086957e-01 8.48240283503002e+00 7.98410559881375e-02
1.16791304347826e-01 8.35626809540944e+00 7.88713853738769e-02
1.17434782608696e-01 8.23200900043440e+00 7.79123087603740e-02
1.18078260869565e-01 8.10959765854300e+00 7.69637390661317e-02
1.18721739130435e-01 7.98900659375472e+00 7.60255891172692e-02
1.19365217391304e-01 7.87020873824142e+00 7.50977715859244e-02
1.20008695652174e-01 7.75317742629275e+00 7.41801992173601e-02
1.20652173913043e-01 7.63788638950323e+00 7.32727847542296e-02
1.21295652173913e-01 7.52430974968787e+00 7.23754409080318e-02
1.21939130434783e-01 7.41242201347421e+00 7.14880804454315e-02
1.22582608695652e-01 7.30219806622519e+00 7.06106162777492e-02
1.23226086956522e-01 7.19361316748269e+00 6.97429614180618e-02
1.23869565217391e-01 7.08664294431909e+00 6.88850289525020e-02
1.24513043478261e-01 6.98126338623616e+00 6.80367321184584e-02
1.25156521739130e-01 6.87745083944802e+00 6.71979843858883e-02
1.25800000000000e-01 6.77518200256850e+00 6.63686994153079e-02
1.26443478260870e-01 6.67443392037100e+00 6.55487910291168e-02
1.27086956521739e-01 6.57518397897710e+00 6.47381732824766e-02
1.27730434782609e-01 6.47740990047803e+00 6.39367605372235e-02
1.28373913043478e-01 6.38108973885370e+00 6.31444674208531e-02
1.29017391304348e-01 6.28620187411507e+00 6.23612087980611e-02
1.29660869565217e-01 6.19272500776624e+00 6.15868998349917e-02
1.30304347826087e-01 6.10063815774423e+00 6.08214560664405e-02
1.30947826086957e-01 6.00992065455806e+00 6.00647933559364e-02
1.31591304347826e-01 5.92055213578941e+00 5.93168278676333e-02
1.32234782608696e-01 5.83251254181299e+00 5.85774761245635e-02
1.32878260869565e-01 5.74578211103554e+00 5.78466550697564e-02
1.33521739130435e-01 5.66034137624381e+00 5.71242820274829e-02
1.34165217391304e-01 5.57617115944107e+00 5.64102746531318e-02
1.34808695652174e-01 5.49325256756757e+00 5.57045510759967e-02
1.35452173913043e-01 5.41156698899898e+00 5.50070298398411e-02
1.36095652173913e-01 5.33109608862001e+00 5.43176298755202e-02
1.36739130434783e-01 5.25182180396135e+00 5.36362705502315e-02
1.37382608695652e-01 5.17372634092102e+00 5.29628717194310e-02
1.38026086956522e-01 5.09679217045326e+00 5.22973536900906e-02
1.38669565217391e-01 5.02100202394212e+00 5.16396371939412e-02
1.39313043478261e-01 4.94633888955878e+00 5.09896434321381e-02
1.39956521739130e-01 4.87278600823551e+00 5.03472941224981e-02
1.40600000000000e-01 4.80032687053511e+00 4.97125114640409e-02
1.41243478260870e-01 4.72894521230590e+00 4.90852181109101e-02
1.41886956521739e-01 4.65862501124686e+00 4.84653372128795e-02
1.42530434782609e-01 4.58935048311925e+00 4.78527924583383e-02
1.43173913043478e-01 4.52110607878724e+00 4.72475080401215e-02
1.43817391304348e-01 4.45387648013667e+00 4.66494086301598e-02
1.44460869565217e-01 4.38764659683645e+00 4.60584194162147e-02
1.45104347826087e-01 4.32240156277354e+00 4.54744661409874e-02
1.45747826086957e-01 4.25812673325594e+00 4.48974750692458e-02
1.46391304347826e-01 4.19480768117882e+00 4.43273729632289e-02
1.47034782608696e-01 4.13243019397105e+00 4.37640871159619e-02
1.47678260869565e-01 4.07098027024037e+00 4.32075453868426e-02
1.48321739130435e-01 4.01044411713009e+00 4.26576761700483e-02
1.48965217391304e-01 3.95080814671733e+00 4.21144083555950e-02
1.49608695652174e-01 3.89205897297873e+00 4.15776714201025e-02
1.50252173913043e-01 3.83418340925756e+00 4.10473953816695e-02
1.50895652173913e-01 3.77716846482610e+00 4.05235107765722e-02
1.51539130434783e-01 3.72100134213079e+00 4.00059486874226e-02
1.52182608695652e-01 3.66566943377616e+00 3.94946407734113e-02
1.52826086956522e-01 3.61116032013165e+00 3.89895192408323e-02
1.53469565217391e-01 3.55746176610170e+00 3.84905168205927e-02
1.54113043478261e-01 3.50456171852861e+00 3.79975667937297e-02
1.54756521739130e-01 3.45244830335408e+00 3.75106030189289e-02
1.55400000000000e-01 3.40110982335832e+00 3.70295599042816e-02
1.56043478260870e-01 3.35053475512503e+00 3.65543723856051e-02
1.56686956521739e-01 3.30071174659307e+00 3.60849759495699e-02
1.57330434782609e-01 3.25162961438507e+00 3.56213066587270e-02
1.57973913043478e-01 3.20327734167171e+00 3.51633011244732e-02
1.58617391304348e-01 3.15564407531968e+00 3.47108964861831e-02
1.59260869565217e-01 3.10871912358368e+00 3.42640304321540e-02
1.59904347826087e-01 3.06249195359220e+00 3.38226412223696e-02
1.60547826086957e-01 3.01695218933030e+00 3.33866676626429e-02
1.61191304347826e-01 2.97208960895929e+00 3.29560490845461e-02
1.61834782608696e-01 2.92789414264107e+00 3.25307253643801e-02
1.62478260869565e-01 2.88435587017183e+00 3.21106369438713e-02
1.63121739130435e-01 2.84146501907690e+00 3.16957248054562e-02
1.63765217391304e-01 2.79921196209168e+00 3.12859304427730e-02
1.64408695652174e-01 2.75758721501054e+00 3.08811959187922e-02
1.65052173913043e-01 2.71658143486210e+00 3.04814638321672e-02
1.65695652173913e-01 2.67618541750419e+00 3.00866772984863e-02
1.66339130434783e-01 2.63639009566173e+00 2.96967799662584e-02
1.66982608695652e-01 2.59718653679875e+00 2.93117160344754e-02
1.67626086956522e-01 2.55856594139530e+00 2.89314302297591e-02
1.68269565217391e-01 2.52051964068692e+00 2.85558677883806e-02
1.68913043478261e-01 2.48303909481509e+00 2.81849744707181e-02
1.69556521739130e-01 2.44611589082437e+00 2.78186965772139e-02
1.70200000000000e-01 2.40974174103545e+00 2.74569809265701e-02
1.70843478260870e-01 2.37390848092019e+00 2.70997748385214e-02
1.71486956521739e-01 2.33860806735841e+00 2.67470261469014e-02
1.72130434782609e-01 2.30383257675262e+00 2.63986832141338e-02
1.72773913043478e-01 2.26957420349197e+00 2.60546949104421e-02
1.73417391304348e-01 2.23582525795478e+00 2.57150105973552e-02
1.74060869565217e-01 2.20257816486535e+00 2.53795801395086e-02
1.74704347826087e-01 2.16982546151953e+00 2.50483539178010e-02
1.75347826086957e-01 2.13755979633459e+00 2.47212828095783e-02
1.75991304347826e-01 2.10577392697135e+00 2.43983181728503e-02
1.76634782608696e-01 2.07446071878551e+00 2.40794118569448e-02
1.77278260869565e-01 2.04361314315734e+00 2.37645162144456e-02
1.77921739130435e-01 2.01322427612285e+00 2.34535840823133e-02
1.78565217391304e-01 1.98328729660828e+00 2.31465687598472e-02
1.79208695652174e-01 1.95379548490533e+00 2.28434240461097e-02
1.79852173913043e-01 1.92474222136049e+00 2.25441042151094e-02
1.80495652173913e-01 1.89612098468912e+00 2.22485640011763e-02
1.81139130434783e-01 1.86792535057915e+00 2.19567586078896e-02
1.81782608695652e-01 1.84014899018870e+00 2.16686437181692e-02
1.82426086956522e-01 1.81278566890899e+00 2.13841754769118e-02
1.83069565217391e-01 1.78582924477920e+00 2.11033104770246e-02
1.83713043478261e-01 1.75927366717047e+00 2.08260057674653e-02
1.84356521739130e-01 1.73311297537175e+00 2.05522188623855e-02
1.85000000000000e-01 1.70734129742213e+00 2.02819077246070e-02
1.85643478260870e-01 1.68195284862047e+00 2.00150307522891e-02
1.86286956521739e-01 1.65694193028509e+00 1.97515467861612e-02
1.86930434782609e-01 1.63230292842258e+00 1.94914151178024e-02
1.87573913043478e-01 1.60803031262587e+00 1.92345954739233e-02
1.88217391304348e-01 1.58411863467273e+00 1.89810480036434e-02
1.88860869565217e-01 1.56056252735694e+00 1.87307332849910e-02
1.89504347826087e-01 1.53735670323516e+00 1.84836123323958e-02
1.90147826086957e-01 1.51449595358699e+00 1.82396465817414e-02
1.90791304347826e-01 1.49197514709716e+00 1.79987978782271e-02
1.91434782608696e-01 1.46978922875396e+00 1.77610284822056e-02
1.92078260869565e-01 1.44793321866959e+00 1.75263010759576e-02
1.92721739130435e-01 1.42640221109886e+00 1.72945787494799e-02
1.93365217391304e-01 1.40519137319990e+00 1.70658249841839e-02
1.94008695652174e-01 1.38429594395346e+00 1.68400036770774e-02
1.94652173913043e-01 1.36371123322350e+00 1.66170791225840e-02
1.95295652173913e-01 1.34343262057366e+00 1.63970160013611e-02
1.95939130434783e-01 1.32345555427417e+00 1.61797793851384e-02
1.96582608695652e-01 1.30377555024070e+00 1.59653347424060e-02
1.97226086956522e-01 1.28438819114801e+00 1.57536479253943e-02
1.97869565217391e-01 1.26528912531680e+00 1.55446851594181e-02
1.98513043478261e-01 1.24647406577797e+00 1.53384130472036e-02
1.99156521739130e-01 1.22793878927360e+00 1.51347985740200e-02
1.99800000000000e-01 1.20967913542065e+00 1.49338090953111e-02
2.00443478260870e-01 1.19169100566413e+00 1.47354123265453e-02
2.01086956521739e-01 1.17397036239524e+00 1.45395763470800e-02
2.01730434782609e-01 1.15651322801092e+00 1.43462696047848e-02
2.02373913043478e-01 1.13931568412483e+00 1.41554609042942e-02
2.03017391304348e-01 1.12237387058278e+00 1.39671193973444e-02
