Energy (eV)          EEDF (eV^-(3/2))     First Anisotropy
1.74545454545455e-02 8.56564175732051e-02 4.32748478038609e-05
5.23636363636364e-02 8.51208779393403e-02 7.14759743508805e-05
8.72727272727273e-02 8.45886865974439e-02 9.44011691035659e-05
1.22181818181818e-01 8.40598226114714e-02 1.11844909647438e-04
1.57090909090909e-01 8.35342651802998e-02 1.26415815904889e-04
1.92000000000000e-01 8.30119936306711e-02 1.39099271965720e-04
2.26909090909091e-01 8.24929874211529e-02 1.50404773115458e-04
2.61818181818182e-01 8.19772261333467e-02 1.60639728087009e-04
2.96727272727273e-01 8.14646894794792e-02 1.70007844654207e-04
3.31636363636364e-01 8.09553572985979e-02 1.78652979370711e-04
3.66545454545455e-01 8.04492095557858e-02 1.86681533809042e-04
4.01454545454545e-01 7.99462263413789e-02 1.94175034323497e-04
4.36363636363636e-01 7.94463878701721e-02 2.01197714012690e-04
4.71272727272727e-01 7.89496744806744e-02 2.07801338842789e-04
5.06181818181818e-01 7.84560666343171e-02 2.14028416625909e-04
5.41090909090909e-01 7.79655449146873e-02 2.19914408385457e-04
5.76000000000000e-01 7.74780900267644e-02 2.25489298359126e-04
6.10909090909091e-01 7.69936827969770e-02 2.30778737701453e-04
6.45818181818182e-01 7.65123041699545e-02 2.35804895332929e-04
6.80727272727273e-01 7.60339352103264e-02 2.40587103311932e-04
7.15636363636364e-01 7.55585571011086e-02 2.45142355055474e-04
7.50545454545455e-01 7.50861511429626e-02 2.49485695000173e-04
7.85454545454546e-01 7.46166987534611e-02 2.53630527738193e-04
8.20363636363636e-01 7.41501814663531e-02 2.57588866120191e-04
8.55272727272727e-01 7.36865809308454e-02 2.61371532514068e-04
8.90181818181818e-01 7.32258789108765e-02 2.64988323654217e-04
9.25090909090909e-01 7.27680572843998e-02 2.68448146864459e-04
9.60000000000000e-01 7.23130980426704e-02 2.71759133473116e-04
9.94909090909091e-01 7.18609832899976e-02 2.74928734541573e-04
1.02981818181818e+00 7.14116952398398e-02 2.77963800317109e-04
1.06472727272727e+00 7.09652162214420e-02 2.80870649245071e-04
1.09963636363636e+00 7.05215286721873e-02 2.83655127298045e-04
1.13454545454545e+00 7.00806151392666e-02 2.86322657290987e-04
1.16945454545455e+00 6.96424582789921e-02 2.88878282796134e-04
1.20436363636364e+00 6.92070408561001e-02 2.91326705977235e-04
1.23927272727273e+00 6.87743457431034e-02 2.93672320611638e-04
1.27418181818182e+00 6.83443559196011e-02 2.95919241035007e-04
1.30909090909091e+00 6.79170544716085e-02 2.98071327601578e-04
1.34400000000000e+00 6.74924245908916e-02 3.00132209714294e-04
1.37890909090909e+00 6.70704495712348e-02 3.02105304114569e-04
1.41381818181818e+00 6.66511128171220e-02 3.03993833715449e-04
1.44872727272727e+00 6.62343978336138e-02 3.05800844517613e-04
1.48363636363636e+00 6.58202882289015e-02 3.07529218079562e-04
1.51854545454545e+00 6.54087677136624e-02 3.09181684778911e-04
1.55345454545455e+00 6.49998201004186e-02 3.10760835238097e-04
1.58836363636364e+00 6.45934293028930e-02 3.12269130627592e-04
1.62327272727273e+00 6.41895793353920e-02 3.13708911986777e-04
1.65818181818182e+00 6.37882543121684e-02 3.15082408676585e-04
1.69309090909091e+00 6.33894384467964e-02 3.16391746054869e-04
1.72800000000000e+00 6.29931160515506e-02 3.17638952913413e-04
1.76290909090909e+00 6.25992715345522e-02 3.18825966504187e-04
1.79781818181818e+00 6.22078894059424e-02 3.19954639281262e-04
1.83272727272727e+00 6.18189542704062e-02 3.21026745152375e-04
1.86763636363636e+00 6.14324508288831e-02 3.22043982999799e-04
1.90254545454545e+00 6.10483638779661e-02 3.23007981650220e-04
1.93745454545455e+00 6.06666783093031e-02 3.23920304024784e-04
1.97236363636364e+00 6.02873791089982e-02 3.24782450963812e-04
2.00727272727273e+00 5.99104513570305e-02 3.25595864761981e-04
2.04218181818182e+00 5.95358802266625e-02 3.26361932441026e-04
2.07709090909091e+00 5.91636509838562e-02 3.27081988779004e-04
2.11200000000000e+00 5.87937489866943e-02 3.27757319499618e-04
2.14690909090909e+00 5.84261596830924e-02 3.28389162742982e-04
2.18181818181818e+00 5.80608686154129e-02 3.28978712263953e-04
2.21672727272727e+00 5.76978614146559e-02 3.29527120465469e-04
2.25163636363636e+00 5.73371238016593e-02 3.30035499345049e-04
2.28654545454545e+00 5.69786415865374e-02 3.30504922857747e-04
2.32145454545455e+00 5.66224006681228e-02 3.30936428759964e-04
2.35636363636364e+00 5.62683870334079e-02 3.31331020332915e-04
2.39127272727273e+00 5.59165867570012e-02 3.31689667998806e-04
2.42618181818182e+00 5.55669860005750e-02 3.32013310838108e-04
2.46109090909091e+00 5.52195710123219e-02 3.32302858011819e-04
2.49600000000000e+00 5.48743281264136e-02 3.32559190423285e-04
2.53090909090909e+00 5.45312437611098e-02 3.32783160995989e-04
2.56581818181818e+00 5.41903044223219e-02 3.32975596516876e-04
2.60072727272727e+00 5.38514966989455e-02 3.33137299413832e-04
2.63563636363636e+00 5.35148072637252e-02 3.33269047808894e-04
2.67054545454545e+00 5.31802228727300e-02 3.33371596848011e-04
2.70545454545455e+00 5.28477303648329e-02 3.33445679640880e-04
2.74036363636364e+00 5.25173166611904e-02 3.33492008148077e-04
2.77527272727273e+00 5.21889687647331e-02 3.33511274021649e-04
2.81018181818182e+00 5.18626737596515e-02 3.33504149402369e-04
2.84509090909091e+00 5.15384188108886e-02 3.33471287673750e-04
2.88000000000000e+00 5.12161911636344e-02 3.33413324459856e-04
2.91490909090909e+00 5.08959781417288e-02 3.33330877452755e-04
2.94981818181818e+00 5.05777671504786e-02 3.33224547629951e-04
2.98472727272727e+00 5.02615456728172e-02 3.33094920442593e-04
3.01963636363636e+00 4.99473012699370e-02 3.32942565530347e-04
3.05454545454545e+00 4.96350215808003e-02 3.32768037568141e-04
3.08945454545455e+00 4.93246943216530e-02 3.32571876795432e-04
3.12436363636364e+00 4.90163072855399e-02 3.32354609519303e-04
3.15927272727273e+00 4.87098483418278e-02 3.32116748594987e-04
3.19418181818182e+00 4.84053054357263e-02 3.31858793885261e-04
3.22909090909091e+00 4.81026665878139e-02 3.31581232697600e-04
3.26400000000000e+00 4.78019198935670e-02 3.31284540449672e-04
3.29890909090909e+00 4.75030535219879e-02 3.30969180321892e-04
3.33381818181818e+00 4.72060557178714e-02 3.30635604140729e-04
3.36872727272727e+00 4.69109147985881e-02 3.30284253248516e-04
3.40363636363636e+00 4.66176191545507e-02 3.29915558091920e-04
3.43854545454545e+00 4.63261572487570e-02 3.29529938812475e-04
3.47345454545455e+00 4.60365176163368e-02 3.29127805567976e-04
3.50836363636364e+00 4.57486888640990e-02 3.28709558839648e-04
3.54327272727273e+00 4.54626596700861e-02 3.28275589727381e-04
3.57818181818182e+00 4.51784187831278e-02 3.27826280233596e-04
3.61309090909091e+00 4.48959550223982e-02 3.27362003534930e-04
3.64800000000000e+00 4.46152572769759e-02 3.26883124461830e-04
3.68290909090909e+00 4.43363145046526e-02 3.26389999089947e-04
3.71781818181818e+00 4.40591157337800e-02 3.25882975423806e-04
3.75272727272727e+00 4.37836500605389e-02 3.25362394073997e-04
3.78763636363636e+00 4.35099066492828e-02 3.24828587808273e-04
3.82254545454545e+00 4.32378747321117e-02 3.24281881991771e-04
3.85745454545455e+00 4.29675436084488e-02 3.23722594794042e-04
3.89236363636364e+00 4.26989026446182e-02 3.23151037387688e-04
3.92727272727273e+00 4.24319412734287e-02 3.22567514140318e-04
3.96218181818182e+00 4.21666489937573e-02 3.21972322800033e-04
3.99709090909091e+00 4.19030153701359e-02 3.21365754673508e-04
4.03200000000000e+00 4.16410300323409e-02 3.20748094992125e-04
4.06690909090909e+00 4.13806826743477e-02 3.20119622492385e-04
4.10181818181818e+00 4.11219630558524e-02 3.19480609968803e-04
4.13672727272727e+00 4.08648609999271e-02 3.18831324824112e-04
4.17163636363636e+00 4.06093663932723e-02 3.18172028622145e-04
4.20654545454545e+00 4.03554691858187e-02 3.17502977432362e-04
4.24145454545455e+00 4.01031593903317e-02 3.16824421969623e-04
4.27636363636364e+00 3.98524270820185e-02 3.16136607728756e-04
4.31127272727273e+00 3.96032623981382e-02 3.15439775115119e-04
4.34618181818182e+00 3.93556555376140e-02 3.14734159571308e-04
4.38109090909091e+00 3.91095967606471e-02 3.14019991699145e-04
4.41600000000000e+00 3.88650763883338e-02 3.13297497551101e-04
4.45090909090909e+00 3.86220848017409e-02 3.12566898222550e-04
4.48581818181818e+00 3.83806124431704e-02 3.11828410312846e-04
4.52072727272727e+00 3.81406498141284e-02 3.11082246385562e-04
4.55563636363636e+00 3.79021874755076e-02 3.10328614540613e-04
4.59054545454546e+00 3.76652160472158e-02 3.09567718693692e-04
4.62545454545455e+00 3.74297262078068e-02 3.08799758674367e-04
4.66036363636364e+00 3.71957086941133e-02 3.08024930320687e-04
4.69527272727273e+00 3.69631543008838e-02 3.07243425571328e-04
4.73018181818182e+00 3.67320538804194e-02 3.06455432555385e-04
4.76509090909091e+00 3.65023983422146e-02 3.05661135678985e-04
4.80000000000000e+00 3.62741786525993e-02 3.04860715864462e-04
4.83490909090909e+00 3.60473858339167e-02 3.04054350164587e-04
4.86981818181818e+00 3.58220109655807e-02 3.03242212155435e-04
4.90472727272727e+00 3.55980451823044e-02 3.02424472329431e-04
4.93963636363636e+00 3.53754796742283e-02 3.01601297694085e-04
4.97454545454545e+00 3.51543056865739e-02 3.00772852004593e-04
5.00945454545455e+00 3.49345145192994e-02 2.99939295834921e-04
5.04436363636364e+00 3.47160975267565e-02 2.99100786646457e-04
5.07927272727273e+00 3.44990461173517e-02 2.98257478854966e-04
5.11418181818182e+00 3.42833517532078e-02 2.97409523896201e-04
5.14909090909091e+00 3.40690059498279e-02 2.96557070289243e-04
5.18400000000000e+00 3.38560002757619e-02 2.95700263837380e-04
5.21890909090909e+00 3.36443263518709e-02 2.94839247268300e-04
5.25381818181818e+00 3.34339758522167e-02 2.93974160573992e-04
5.28872727272727e+00 3.32249405025075e-02 2.93105141351457e-04
5.32363636363636e+00 3.30172120801835e-02 2.92232324430542e-04
5.35854545454545e+00 3.28107824140940e-02 2.91355842071389e-04
5.39345454545455e+00 3.26056433841760e-02 2.90475824017218e-04
5.42836363636364e+00 3.24017869211342e-02 2.89592397545433e-04
5.46327272727273e+00 3.21992050061243e-02 2.88705687517701e-04
5.49818181818182e+00 3.19978896704375e-02 2.87815816429004e-04
5.53309090909091e+00 3.17978329951867e-02 2.86922904455003e-04
5.56800000000000e+00 3.15990271109951e-02 2.86027069623839e-04
5.60290909090909e+00 3.14014641973361e-02 2.85128427483180e-04
5.63781818181818e+00 3.12051364832846e-02 2.84227091397685e-04
5.67272727272727e+00 3.10100362461452e-02 2.83323172847591e-04
5.70763636363636e+00 3.08161558115065e-02 2.82416781085608e-04
5.74254545454545e+00 3.06234875529386e-02 2.81508023307017e-04
5.77745454545455e+00 3.04320238916936e-02 2.80597004689790e-04
5.81236363636364e+00 3.02417572964071e-02 2.79683828433495e-04
5.84727272727273e+00 3.00526802828024e-02 2.78768595797417e-04
5.88218181818182e+00 2.98647854133961e-02 2.77851406138044e-04
5.91709090909091e+00 2.96780652972049e-02 2.76932356945401e-04
5.95200000000000e+00 2.94925125894558e-02 2.76011543991747e-04
5.98690909090909e+00 2.93081199909898e-02 2.75089061024836e-04
6.02181818181818e+00 2.91248802489007e-02 2.74165000030620e-04
6.05672727272727e+00 2.89427861553183e-02 2.73239451497078e-04
6.09163636363636e+00 2.87618305474372e-02 2.72312504098967e-04
6.12654545454545e+00 2.85820063072354e-02 2.71384244846075e-04
6.16145454545455e+00 2.84033063611939e-02 2.70454759114226e-04
6.19636363636364e+00 2.82257236800187e-02 2.69524130675439e-04
6.23127272727273e+00 2.80492512783642e-02 2.68592441727557e-04
6.26618181818182e+00 2.78738822145586e-02 2.67659772923373e-04
6.30109090909091e+00 2.76996095903308e-02 2.66726203398874e-04
6.33600000000000e+00 2.75264265505387e-02 2.65791810903421e-04
6.37090909090909e+00 2.73543262826314e-02 2.64856671517950e-04
6.40581818181818e+00 2.71833020171921e-02 2.63920859888337e-04
6.44072727272727e+00 2.70133470268551e-02 2.62984449460126e-04
6.47563636363636e+00 2.68444546263161e-02 2.62047512189453e-04
6.51054545454546e+00 2.66766181720679e-02 2.61110118673339e-04
6.54545454545455e+00 2.65098310621403e-02 2.60172338174081e-04
6.58036363636364e+00 2.63440867358393e-02 2.59234238642977e-04
6.61527272727273e+00 2.61793786734899e-02 2.58295886743676e-04
6.65018181818182e+00 2.60157003961793e-02 2.57357347875200e-04
6.68509090909091e+00 2.58530454655020e-02 2.56418686194258e-04
6.72000000000000e+00 2.56914074833067e-02 2.55479964730003e-04
6.75490909090909e+00 2.55307800912079e-02 2.54541245125579e-04
6.78981818181818e+00 2.53711569710500e-02 2.53602587846569e-04
6.82472727272727e+00 2.52125318439400e-02 2.52664052390847e-04
6.85963636363636e+00 2.50548984702418e-02 2.51725697023780e-04
6.89454545454545e+00 2.48982506493307e-02 2.50787578893527e-04
6.92945454545455e+00 2.47425822193495e-02 2.49849754050494e-04
6.96436363636364e+00 2.45878870569658e-02 2.48912277466255e-04
6.99927272727273e+00 2.44341590771315e-02 2.47975203052192e-04
7.03418181818182e+00 2.42813922328436e-02 2.47038583677896e-04
7.06909090909091e+00 2.41295805149059e-02 2.46102471189042e-04
7.10400000000000e+00 2.39787179516929e-02 2.45166916509211e-04
7.13890909090909e+00 2.38287986087058e-02 2.44231969403012e-04
7.17381818181818e+00 2.36798165889697e-02 2.43297678663079e-04
7.20872727272727e+00 2.35317660321672e-02 2.42364092298425e-04
7.24363636363636e+00 2.33846411146209e-02 2.41431257291985e-04
7.27854545454545e+00 2.32384360490638e-02 2.40499219703225e-04
7.31345454545455e+00 2.30931450844123e-02 2.39568024683852e-04
7.34836363636364e+00 2.29487625055392e-02 2.38637716493061e-04
7.38327272727273e+00 2.28052826330497e-02 2.37708338512605e-04
7.41818181818182e+00 2.26626998230575e-02 2.36779933261667e-04
7.45309090909091e+00 2.25210084669630e-02 2.35852542411272e-04
7.48800000000000e+00 2.23802029912324e-02 2.34926206875163e-04
7.52290909090909e+00 2.22402778569941e-02 2.34000966592740e-04
7.55781818181818e+00 2.21012275603781e-02 2.33076860697379e-04
7.59272727272727e+00 2.19630466317389e-02 2.32153927686064e-04
7.62763636363636e+00 2.18257296356281e-02 2.31232205197420e-04
7.66254545454546e+00 2.16892711705806e-02 2.30311730103445e-04
7.69745454545455e+00 2.15536658689024e-02 2.29392538522320e-04
7.73236363636364e+00 2.14189083964592e-02 2.28474665830816e-04
7.76727272727273e+00 2.12849934524667e-02 2.27558146676545e-04
7.80218181818182e+00 2.11519157692822e-02 2.26643014990129e-04
7.83709090909091e+00 2.10196701121973e-02 2.25729303996972e-04
7.87200000000000e+00 2.08882512792319e-02 2.24817046298654e-04
7.90690909090909e+00 2.07576541007653e-02 2.23906273674025e-04
7.94181818181818e+00 2.06278734398287e-02 2.22997017231170e-04
7.97672727272727e+00 2.04989041914043e-02 2.22089307560617e-04
8.01163636363636e+00 2.03707412823921e-02 2.21183174532046e-04
8.04654545454546e+00 2.02433796714097e-02 2.20278647376636e-04
8.08145454545455e+00 2.01168143485947e-02 2.19375754697626e-04
8.11636363636364e+00 1.99910403354069e-02 2.18474524480453e-04
8.15127272727273e+00 1.98660526844331e-02 2.17574984102828e-04
8.18618181818182e+00 1.97418464791922e-02 2.16677160344744e-04
8.22109090909091e+00 1.96184168339420e-02 2.15781079398174e-04
8.25600000000000e+00 1.94957588934865e-02 2.14886766940235e-04
8.29090909090909e+00 1.93738678328395e-02 2.13994247950878e-04
8.32581818181818e+00 1.92527388574753e-02 2.13103546850444e-04
8.36072727272727e+00 1.91323672026965e-02 2.12214687638317e-04
8.39563636363636e+00 1.90127481335956e-02 2.11327693706753e-04
8.43054545454545e+00 1.88938769448688e-02 2.10442587915036e-04
8.46545454545454e+00 1.87757489606305e-02 2.09559392598129e-04
8.50036363636364e+00 1.86583595342295e-02 2.08678129575121e-04
8.53527272727273e+00 1.85417040480665e-02 2.07798820157569e-04
8.57018181818182e+00 1.84257779134123e-02 2.06921485157738e-04
8.60509090909091e+00 1.83105765702271e-02 2.06046144896696e-04
8.64000000000000e+00 1.81960954869817e-02 2.05172819270233e-04
8.67490909090909e+00 1.80823301603480e-02 2.04301527581756e-04
8.70981818181818e+00 1.79692761154161e-02 2.03432288667004e-04
8.74472727272727e+00 1.78569289051220e-02 2.02565121019823e-04
8.77963636363636e+00 1.77452841102056e-02 2.01700042621603e-04
8.81454545454545e+00 1.76343373390370e-02 2.00837071008192e-04
8.84945454545455e+00 1.75240842274433e-02 1.99976223277097e-04
8.88436363636364e+00 1.74145204385374e-02 1.99117516094513e-04
8.91927272727273e+00 1.73056416625472e-02 1.98260965702246e-04
8.95418181818182e+00 1.71974436166461e-02 1.97406587924647e-04
8.98909090909091e+00 1.70899220447845e-02 1.96554398175297e-04
9.02400000000000e+00 1.69830727175224e-02 1.95704411516550e-04
9.05890909090909e+00 1.68768914317465e-02 1.94856642506378e-04
9.09381818181818e+00 1.67713740108564e-02 1.94011105311637e-04
9.12872727272727e+00 1.66665163042470e-02 1.93167813822339e-04
9.16363636363636e+00 1.65623141872633e-02 1.92326781495268e-04
9.19854545454545e+00 1.64587635610384e-02 1.91488021414552e-04
9.23345454545455e+00 1.63558603523325e-02 1.90651546297718e-04
9.26836363636364e+00 1.62536005133723e-02 1.89817368501518e-04
9.30327272727273e+00 1.61519800216918e-02 1.88985500027746e-04
9.33818181818182e+00 1.60509948799744e-02 1.88155952529037e-04
9.37309090909091e+00 1.59506411158955e-02 1.87328737314459e-04
9.40800000000000e+00 1.58509147819659e-02 1.86503865403445e-04
9.44290909090909e+00 1.57518119552729e-02 1.85681347385302e-04
9.47781818181818e+00 1.56533287376401e-02 1.84861193522272e-04
9.51272727272727e+00 1.55554612551577e-02 1.84043413853447e-04
9.54763636363636e+00 1.54582056581365e-02 1.83228018051433e-04
9.58254545454546e+00 1.53615581209561e-02 1.82415015477258e-04
9.61745454545455e+00 1.52655148419148e-02 1.81604415185384e-04
9.65236363636364e+00 1.51700720430795e-02 1.80796225928676e-04
9.68727272727273e+00 1.50752259701377e-02 1.79990456163278e-04
9.72218181818182e+00 1.49809728922495e-02 1.79187114053426e-04
9.75709090909091e+00 1.48873091019009e-02 1.78386207476205e-04
9.79200000000000e+00 1.47942309147579e-02 1.77587744070516e-04
9.82690909090909e+00 1.47017346694281e-02 1.76791731108067e-04
9.86181818181818e+00 1.46098167275990e-02 1.75998175587259e-04
9.89672727272727e+00 1.45184734736108e-02 1.75207084327962e-04
9.93163636363636e+00 1.44277013144095e-02 1.74418463839954e-04
9.96654545454546e+00 1.43374966794057e-02 1.73632320372735e-04
1.00014545454545e+01 1.42478560203338e-02 1.72848659962166e-04
1.00363636363636e+01 1.41587758110242e-02 1.72067488349000e-04
1.00712727272727e+01 1.40702525474437e-02 1.71288810983408e-04
1.01061818181818e+01 1.39822827474670e-02 1.70512633115793e-04
1.01410909090909e+01 1.38948629507397e-02 1.69738959756892e-04
1.01760000000000e+01 1.38079897185421e-02 1.68967795275862e-04
1.02109090909091e+01 1.37216596344944e-02 1.68199144627340e-04
1.02458181818182e+01 1.36358693018880e-02 1.67433012537445e-04
1.02807272727273e+01 1.35506153460994e-02 1.66669402680337e-04
1.03156363636364e+01 1.34658944136038e-02 1.65908318926354e-04
1.03505454545455e+01 1.33817031718432e-02 1.65149764928919e-04
1.03854545454545e+01 1.32980383090954e-02 1.64393744128279e-04
1.04203636363636e+01 1.32148965343433e-02 1.63640259754718e-04
1.04552727272727e+01 1.31322745771463e-02 1.62889314832035e-04
1.04901818181818e+01 1.30501691875109e-02 1.62140912181331e-04
1.05250909090909e+01 1.29685771357634e-02 1.61395054424226e-04
1.05600000000000e+01 1.28874952124224e-02 1.60651743614313e-04
1.05949090909091e+01 1.28069202288289e-02 1.59910982361112e-04
1.06298181818182e+01 1.27268490147411e-02 1.59172773084059e-04
1.06647272727273e+01 1.26472784205008e-02 1.58437117257785e-04
1.06996363636364e+01 1.25682053161423e-02 1.57704016555372e-04
1.07345454545455e+01 1.24896265912689e-02 1.56973472469671e-04
1.07694545454545e+01 1.24115391549306e-02 1.56245486316489e-04
1.08043636363636e+01 1.23339399355023e-02 1.55520059237237e-04
1.08392727272727e+01 1.22568258805635e-02 1.54797192201918e-04
1.08741818181818e+01 1.21801939567781e-02 1.54076886012363e-04
1.09090909090909e+01 1.21040411497749e-02 1.53359141304929e-04
1.09440000000000e+01 1.20283644640291e-02 1.52643958212372e-04
1.09789090909091e+01 1.19531609234252e-02 1.51931337394102e-04
1.10138181818182e+01 1.18784275690872e-02 1.51221279352039e-04
