Energy (eV)          EEDF (eV^-(3/2))     First Anisotropy
1.36486486486486e-02 2.25578430377072e-01 1.38732539869477e-04
4.09459459459459e-02 2.23476326788907e-01 2.28788598910829e-04
6.82432432432432e-02 2.21393812128021e-01 3.01237776468457e-04
9.55405405405405e-02 2.19330703850721e-01 3.55800086619785e-04
1.22837837837838e-01 2.17286821117409e-01 4.00911952974148e-04
1.50135135135135e-01 2.15261984770547e-01 4.39774675755575e-04
1.77432432432432e-01 2.13256017309630e-01 4.74050649822225e-04
2.04729729729730e-01 2.11268742913623e-01 5.04747124846794e-04
2.32027027027027e-01 2.09299987385557e-01 5.32534344188869e-04
2.59324324324324e-01 2.07349578144998e-01 5.57887576069285e-04
2.86621621621622e-01 2.05417344236340e-01 5.81159783586882e-04
3.13918918918919e-01 2.03503116287874e-01 6.02622510122115e-04
3.41216216216216e-01 2.01606726500965e-01 6.22490557590046e-04
3.68513513513513e-01 1.99728008652787e-01 6.40937723858481e-04
3.95810810810811e-01 1.97866798062988e-01 6.58107283510736e-04
4.23108108108108e-01 1.96022931585940e-01 6.74119220268137e-04
4.50405405405405e-01 1.94196247592405e-01 6.89075370583255e-04
4.77702702702703e-01 1.92386585967778e-01 7.03063176754830e-04
5.05000000000000e-01 1.90593788085029e-01 7.16158485412694e-04
5.32297297297297e-01 1.88817696792102e-01 7.28427670798742e-04
5.59594594594595e-01 1.87058156408372e-01 7.39929278013198e-04
5.86891891891892e-01 1.85315012700278e-01 7.50715311526272e-04
6.14189189189189e-01 1.83588112868752e-01 7.60832256105707e-04
6.41486486486486e-01 1.81877305544515e-01 7.70321900211512e-04
6.68783783783784e-01 1.80182440765784e-01 7.79222004861267e-04
6.96081081081081e-01 1.78503369968247e-01 7.87566851225932e-04
7.23378378378378e-01 1.76839945969772e-01 7.95387694043354e-04
7.50675675675676e-01 1.75192022964491e-01 8.02713140978703e-04
7.77972972972973e-01 1.73559456502801e-01 8.09569471900639e-04
8.05270270270270e-01 1.71942103479222e-01 8.15980906921540e-04
8.32567567567568e-01 1.70339822125966e-01 8.21969836948277e-04
8.59864864864865e-01 1.68752471994194e-01 8.27557021314746e-04
8.87162162162162e-01 1.67179913942117e-01 8.32761755991094e-04
9.14459459459459e-01 1.65622010128227e-01 8.37602021332922e-04
9.41756756756757e-01 1.64078623993644e-01 8.42094610505648e-04
9.69054054054054e-01 1.62549620252040e-01 8.46255240840094e-04
9.96351351351351e-01 1.61034864876295e-01 8.50098651689781e-04
1.02364864864865e+00 1.59534225091341e-01 8.53638692082790e-04
1.05094594594595e+00 1.58047569353494e-01 8.56888394576567e-04
1.07824324324324e+00 1.56574767363201e-01 8.59860048605676e-04
1.10554054054054e+00 1.55115690007428e-01 8.62565258678761e-04
1.13283783783784e+00 1.53670209390271e-01 8.65014993915128e-04
1.16013513513513e+00 1.52238198807591e-01 8.67219640900355e-04
1.18743243243243e+00 1.50819532748028e-01 8.69189050815622e-04
1.21472972972973e+00 1.49414086845576e-01 8.70932575243608e-04
1.24202702702703e+00 1.48021737905349e-01 8.72459098076637e-04
1.26932432432432e+00 1.46642363880496e-01 8.73777071719493e-04
1.29662162162162e+00 1.45275843872095e-01 8.74894549598258e-04
1.32391891891892e+00 1.43922058086444e-01 8.75819209528804e-04
1.35121621621622e+00 1.42580887856902e-01 8.76558373092201e-04
1.37851351351351e+00 1.41252215632316e-01 8.77119037778475e-04
1.40581081081081e+00 1.39935924937543e-01 8.77507892562679e-04
1.43310810810811e+00 1.38631900392628e-01 8.77731333447834e-04
1.46040540540541e+00 1.37340027692766e-01 8.77795484069354e-04
1.48770270270270e+00 1.36060193606965e-01 8.77706214338349e-04
1.51500000000000e+00 1.34792285942042e-01 8.77469152202155e-04
1.54229729729730e+00 1.33536193559043e-01 8.77089694210009e-04
1.56959459459459e+00 1.32291806354682e-01 8.76573021188763e-04
1.59689189189189e+00 1.31059015259438e-01 8.75924112454940e-04
1.62418918918919e+00 1.29837712204587e-01 8.75147753910624e-04
1.65148648648649e+00 1.28627790136292e-01 8.74248545305961e-04
1.67878378378378e+00 1.27429142998351e-01 8.73230912511412e-04
1.70608108108108e+00 1.26241665729842e-01 8.72099118655118e-04
1.73337837837838e+00 1.25065254234800e-01 8.70857269730679e-04
1.76067567567568e+00 1.23899805394369e-01 8.69509318425324e-04
1.78797297297297e+00 1.22745217057093e-01 8.68059078730711e-04
1.81527027027027e+00 1.21601388010454e-01 8.66510228930342e-04
1.84256756756757e+00 1.20468217991638e-01 8.64866315412342e-04
1.86986486486486e+00 1.19345607672144e-01 8.63130761112084e-04
1.89716216216216e+00 1.18233458654949e-01 8.61306873172516e-04
1.92445945945946e+00 1.17131673448166e-01 8.59397845909399e-04
1.95175675675676e+00 1.16040155474336e-01 8.57406763413593e-04
1.97905405405405e+00 1.14958809055989e-01 8.55336606571733e-04
2.00635135135135e+00 1.13887539412583e-01 8.53190259430048e-04
2.03364864864865e+00 1.12826252636055e-01 8.50970511209326e-04
2.06094594594595e+00 1.11774855698840e-01 8.48680057050199e-04
2.08824324324324e+00 1.10733256445254e-01 8.46321507919204e-04
2.11554054054054e+00 1.09701363568386e-01 8.43897391025002e-04
2.14283783783784e+00 1.08679086617221e-01 8.41410151082541e-04
2.17013513513514e+00 1.07666335983622e-01 8.38862155578369e-04
2.19743243243243e+00 1.06663022899044e-01 8.36255699532403e-04
2.22472972972973e+00 1.05669059412985e-01 8.33593006451794e-04
2.25202702702703e+00 1.04684358399139e-01 8.30876229095965e-04
2.27932432432432e+00 1.03708833543106e-01 8.28107454037162e-04
2.30662162162162e+00 1.02742399339008e-01 8.25288705777627e-04
2.33391891891892e+00 1.01784971069355e-01 8.22421947300615e-04
2.36121621621622e+00 1.00836464810341e-01 8.19509079633592e-04
2.38851351351351e+00 9.98967974241408e-02 8.16551949187991e-04
2.41581081081081e+00 9.89658865397964e-02 8.13552347180900e-04
2.44310810810811e+00 9.80436505579056e-02 8.10512009836523e-04
2.47040540540541e+00 9.71300086394573e-02 8.07432622011466e-04
2.49770270270270e+00 9.62248807023699e-02 8.04315820458131e-04
2.52500000000000e+00 9.53281874035652e-02 8.01163193918537e-04
2.55229729729730e+00 9.44398501429908e-02 7.97976283105364e-04
2.57959459459459e+00 9.35597910530460e-02 7.94756583929820e-04
2.60689189189189e+00 9.26879329950891e-02 7.91505550401776e-04
2.63418918918919e+00 9.18241995426070e-02 7.88224594543763e-04
2.66148648648649e+00 9.09685149846511e-02 7.84915086209993e-04
2.68878378378378e+00 9.01208043158099e-02 7.81578355981925e-04
2.71608108108108e+00 8.92809932327059e-02 7.78215697765724e-04
2.74337837837838e+00 8.84490081181693e-02 7.74828368571497e-04
2.77067567567568e+00 8.76247760441637e-02 7.71417587543642e-04
2.79797297297297e+00 8.68082247651555e-02 7.67984541262084e-04
2.82527027027027e+00 8.59992827030101e-02 7.64530382727186e-04
2.85256756756757e+00 8.51978789495452e-02 7.61056230999626e-04
2.87986486486486e+00 8.44039432573497e-02 7.57563173621895e-04
2.90716216216216e+00 8.36174060363217e-02 7.54052268784238e-04
2.93445945945946e+00 8.28381983394350e-02 7.50524544959013e-04
2.96175675675676e+00 8.20662518648817e-02 7.46981000470401e-04
2.98905405405405e+00 8.13014989473436e-02 7.43422605702596e-04
3.01635135135135e+00 8.05438725545560e-02 7.39850305071714e-04
3.04364864864865e+00 7.97933062738778e-02 7.36265016602164e-04
3.07094594594595e+00 7.90497343140740e-02 7.32667630872536e-04
3.09824324324324e+00 7.83130914993656e-02 7.29059015339444e-04
3.12554054054054e+00 7.75833132565794e-02 7.25440013266659e-04
3.15283783783784e+00 7.68603356166706e-02 7.21811443225097e-04
3.18013513513514e+00 7.61440952067007e-02 7.18174100983603e-04
3.20743243243243e+00 7.54345292464868e-02 7.14528761193665e-04
3.23472972972973e+00 7.47315755364543e-02 7.10876176910031e-04
3.26202702702703e+00 7.40351724588717e-02 7.07217079064543e-04
3.28932432432432e+00 7.33452589702075e-02 7.03552178210004e-04
3.31662162162162e+00 7.26617745978268e-02 6.99882166071725e-04
3.34391891891892e+00 7.19846594284999e-02 6.96207715047076e-04
3.37121621621622e+00 7.13138541093816e-02 6.92529477168965e-04
3.39851351351351e+00 7.06492998426618e-02 6.88848087700268e-04
3.42581081081081e+00 6.99909383745494e-02 6.85164164092856e-04
3.45310810810811e+00 6.93387119960677e-02 6.81478305444673e-04
3.48040540540541e+00 6.86925635360099e-02 6.77791094018111e-04
3.50770270270270e+00 6.80524363577459e-02 6.74103096588469e-04
3.53500000000000e+00 6.74182743487824e-02 6.70414863931513e-04
3.56229729729730e+00 6.67900219213548e-02 6.66726930275285e-04
3.58959459459459e+00 6.61676240057050e-02 6.63039814711877e-04
3.61689189189189e+00 6.55510260469492e-02 6.59354022449730e-04
3.64418918918919e+00 6.49401739951785e-02 6.55670044298345e-04
3.67148648648649e+00 6.43350143058710e-02 6.51988356120588e-04
3.69878378378378e+00 6.37354939334744e-02 6.48309420148184e-04
3.72608108108108e+00 6.31415603283366e-02 6.44633686147593e-04
3.75337837837838e+00 6.25531614273134e-02 6.40961590905626e-04
3.78067567567568e+00 6.19702456540233e-02 6.37293557280984e-04
3.80797297297297e+00 6.13927619142176e-02 6.33629997059358e-04
3.83527027027027e+00 6.08206595867548e-02 6.29971310008260e-04
3.86256756756757e+00 6.02538885237392e-02 6.26317883343104e-04
3.88986486486486e+00 5.96923990445884e-02 6.22670092890768e-04
3.91716216216216e+00 5.91361419330902e-02 6.19028304119177e-04
3.94445945945946e+00 5.85850684288291e-02 6.15392871637692e-04
3.97175675675676e+00 5.80391302271992e-02 6.11764138671765e-04
3.99905405405405e+00 5.74982794737329e-02 6.08142438152969e-04
4.02635135135135e+00 5.69624687612267e-02 6.04528093682517e-04
4.05364864864865e+00 5.64316511215930e-02 6.00921419040034e-04
4.08094594594595e+00 5.59057800257616e-02 5.97322717316554e-04
4.10824324324324e+00 5.53848093795128e-02 5.93732283349382e-04
4.13554054054054e+00 5.48686935156379e-02 5.90150402861035e-04
4.16283783783784e+00 5.43573871937599e-02 5.86577351956605e-04
4.19013513513513e+00 5.38508455950827e-02 5.83013398095685e-04
4.21743243243243e+00 5.33490243196457e-02 5.79458800950359e-04
4.24472972972973e+00 5.28518793788653e-02 5.75913811935925e-04
4.27202702702703e+00 5.23593671952680e-02 5.72378673720641e-04
4.29932432432432e+00 5.18714445974676e-02 5.68853621139609e-04
4.32662162162162e+00 5.13880688174888e-02 5.65338882001097e-04
4.35391891891892e+00 5.09091974836689e-02 5.61834676628831e-04
4.38121621621622e+00 5.04347886203150e-02 5.58341217078339e-04
4.40851351351351e+00 4.99648006439515e-02 5.54858709226735e-04
4.43581081081081e+00 4.94991923564837e-02 5.51387351995478e-04
4.46310810810811e+00 4.90379229447989e-02 5.47927336886643e-04
4.49040540540541e+00 4.85809519761090e-02 5.44478848802738e-04
4.51770270270270e+00 4.81282393954023e-02 5.41042066769306e-04
4.54500000000000e+00 4.76797455189309e-02 5.37617163501915e-04
4.57229729729730e+00 4.72354310337526e-02 5.34204304955869e-04
4.59959459459459e+00 4.67952569932720e-02 5.30803651099547e-04
4.62689189189189e+00 4.63591848147611e-02 5.27415356595546e-04
4.65418918918919e+00 4.59271762731537e-02 5.24039570380436e-04
4.68148648648649e+00 4.54991935005366e-02 5.20676435228497e-04
4.70878378378378e+00 4.50751989818787e-02 5.17326088481732e-04
4.73608108108108e+00 4.46551555526206e-02 5.13988662692642e-04
4.76337837837838e+00 4.42390263927590e-02 5.10664285216761e-04
4.79067567567568e+00 4.38267750262950e-02 5.07353077535742e-04
4.81797297297297e+00 4.34183653179806e-02 5.04055156969367e-04
4.84527027027027e+00 4.30137614676130e-02 5.00770636005244e-04
4.87256756756757e+00 4.26129280094505e-02 4.97499621889164e-04
4.89986486486487e+00 4.22158298082468e-02 4.94242217284114e-04
4.92716216216216e+00 4.18224320569629e-02 4.90998520850013e-04
4.95445945945946e+00 4.14327002713254e-02 4.87768626861481e-04
4.98175675675676e+00 4.10466002892099e-02 4.84552624812130e-04
5.00905405405405e+00 4.06640982668399e-02 4.81350600037973e-04
5.03635135135135e+00 4.02851606765663e-02 4.78162634265663e-04
5.06364864864865e+00 3.99097543016735e-02 4.74988805243060e-04
5.09094594594595e+00 3.95378462357373e-02 4.71829186134078e-04
5.11824324324324e+00 3.91694038796929e-02 4.68683847003394e-04
5.14554054054054e+00 3.88043949368239e-02 4.65552854217782e-04
5.17283783783784e+00 3.84427874120987e-02 4.62436270075954e-04
5.20013513513513e+00 3.80845496086380e-02 4.59334153373314e-04
5.22743243243243e+00 3.77296501256102e-02 4.56246559898200e-04
5.25472972972973e+00 3.73780578534463e-02 4.53173542086287e-04
5.28202702702703e+00 3.70297419731590e-02 4.50115148663623e-04
5.30932432432432e+00 3.66846719529546e-02 4.47071425181870e-04
5.33662162162162e+00 3.63428175461918e-02 4.44042414488330e-04
5.36391891891892e+00 3.60041487868124e-02 4.41028156392635e-04
5.39121621621622e+00 3.56686359886452e-02 4.38028687127043e-04
5.41851351351351e+00 3.53362497427635e-02 4.35044040637978e-04
5.44581081081081e+00 3.50069609130738e-02 4.32074248052138e-04
5.47310810810811e+00 3.46807406356076e-02 4.29119337343456e-04
5.50040540540541e+00 3.43575603153711e-02 4.26179333819330e-04
5.52770270270270e+00 3.40373916244135e-02 4.23254260547370e-04
5.55500000000000e+00 3.37202064976108e-02 4.20344138044301e-04
5.58229729729730e+00 3.34059771319499e-02 4.17448983954883e-04
5.60959459459459e+00 3.30946759835062e-02 4.14568813513441e-04
5.63689189189189e+00 3.27862757655718e-02 4.11703639948815e-04
5.66418918918919e+00 3.24807494446257e-02 4.08853474184411e-04
5.69148648648649e+00 3.21780702396127e-02 4.06018324529193e-04
5.71878378378378e+00 3.18782116190431e-02 4.03198197115844e-04
5.74608108108108e+00 3.15811472991796e-02 4.00393096285085e-04
5.77337837837838e+00 3.12868512401846e-02 3.97603024296770e-04
5.80067567567568e+00 3.09952976453967e-02 3.94827980868616e-04
5.82797297297297e+00 3.07064609590373e-02 3.92067964249537e-04
5.85527027027027e+00 3.04203158624887e-02 3.89322970763523e-04
5.88256756756757e+00 3.01368372735661e-02 3.86592994521739e-04
5.90986486486486e+00 2.98560003438186e-02 3.83878027821804e-04
5.93716216216216e+00 2.95777804568155e-02 3.81178061497830e-04
5.96445945945946e+00 2.93021532245866e-02 3.78493084651373e-04
5.99175675675676e+00 2.90290944868951e-02 3.75823084374348e-04
6.01905405405405e+00 2.87585803086474e-02 3.73168046128625e-04
6.04635135135135e+00 2.84905869782333e-02 3.70527954078605e-04
6.07364864864865e+00 2.82250910041218e-02 3.67902790832217e-04
6.10094594594595e+00 2.79620691141359e-02 3.65292537030330e-04
6.12824324324324e+00 2.77014982533874e-02 3.62697172285556e-04
6.15554054054054e+00 2.74433555809839e-02 3.60116674776411e-04
6.18283783783784e+00 2.71876184693064e-02 3.57551020989462e-04
6.21013513513514e+00 2.69342645015960e-02 3.55000186065846e-04
6.23743243243243e+00 2.66832714703882e-02 3.52464144104792e-04
6.26472972972973e+00 2.64346173743627e-02 3.49942867922536e-04
6.29202702702703e+00 2.61882804176257e-02 3.47436328804320e-04
6.31932432432432e+00 2.59442390073938e-02 3.44944496834077e-04
6.34662162162162e+00 2.57024717524779e-02 3.42467341183129e-04
6.37391891891892e+00 2.54629574602688e-02 3.40004829878221e-04
6.40121621621622e+00 2.52256751360264e-02 3.37556929436164e-04
6.42851351351351e+00 2.49906039810171e-02 3.35123605686557e-04
6.45581081081081e+00 2.47577233895974e-02 3.32704823410580e-04
6.48310810810811e+00 2.45270129485078e-02 3.30300546110396e-04
6.51040540540540e+00 2.42984524347141e-02 3.27910736310614e-04
6.53770270270270e+00 2.40720218139781e-02 3.25535355822163e-04
6.56500000000000e+00 2.38477012380656e-02 3.23174365526460e-04
6.59229729729730e+00 2.36254710440494e-02 3.20827725153652e-04
6.61959459459459e+00 2.34053117522354e-02 3.18495393569682e-04
6.64689189189189e+00 2.31872040647804e-02 3.16177329027415e-04
6.67418918918919e+00 2.29711288630194e-02 3.13873488959101e-04
6.70148648648649e+00 2.27570672067769e-02 3.11583829763263e-04
6.72878378378378e+00 2.25450003323761e-02 3.09308307078038e-04
6.75608108108108e+00 2.23349096513017e-02 3.07046876020317e-04
6.78337837837838e+00 2.21267767476402e-02 3.04799490986137e-04
6.81067567567568e+00 2.19205833774020e-02 3.02566105338941e-04
6.83797297297297e+00 2.17163114669041e-02 3.00346672098895e-04
6.86527027027027e+00 2.15139431102928e-02 2.98141143634694e-04
6.89256756756757e+00 2.13134605688731e-02 2.95949471465390e-04
6.91986486486486e+00 2.11148462692515e-02 2.93771606510810e-04
6.94716216216216e+00 2.09180828020769e-02 2.91607499310501e-04
6.97445945945946e+00 2.07231529196673e-02 2.89457099838184e-04
7.00175675675676e+00 2.05300395353503e-02 2.87320357311257e-04
7.02905405405405e+00 2.03387257216797e-02 2.85197220429422e-04
7.05635135135135e+00 2.01491947092175e-02 2.83087637583346e-04
7.08364864864865e+00 1.99614298842605e-02 2.80991556676248e-04
7.11094594594595e+00 1.97754147881929e-02 2.78908924846409e-04
7.13824324324324e+00 1.95911331160276e-02 2.76839689073313e-04
7.16554054054054e+00 1.94085687142057e-02 2.74783795903409e-04
7.19283783783784e+00 1.92277055799570e-02 2.72741191273002e-04
7.22013513513514e+00 1.90485278596369e-02 2.70711820727156e-04
7.24743243243243e+00 1.88710198475784e-02 2.68695629610972e-04
7.27472972972973e+00 1.86951659839846e-02 2.66692562903659e-04
7.30202702702703e+00 1.85209508543005e-02 2.64702565048315e-04
7.32932432432432e+00 1.83483591876154e-02 2.62725580160698e-04
7.35662162162162e+00 1.81773758555539e-02 2.60761552211531e-04
7.38391891891892e+00 1.80079858702554e-02 2.58810424867022e-04
7.41121621621622e+00 1.78401743837592e-02 2.56872141241926e-04
7.43851351351351e+00 1.76739266866899e-02 2.54946644433140e-04
7.46581081081081e+00 1.75092282063003e-02 2.53033877275578e-04
7.49310810810811e+00 1.73460645058663e-02 2.51133782183989e-04
7.52040540540541e+00 1.71844212831951e-02 2.49246301344590e-04
7.54770270270270e+00 1.70242843695823e-02 2.47371376882355e-04
7.57500000000000e+00 1.68656397279358e-02 2.45508950712753e-04
7.60229729729730e+00 1.67084734521832e-02 2.43658964389704e-04
7.62959459459459e+00 1.65527717658392e-02 2.41821359288380e-04
7.65689189189189e+00 1.63985210209970e-02 2.39996076764777e-04
7.68418918918919e+00 1.62457076965301e-02 2.38183058013227e-04
7.71148648648649e+00 1.60943183975130e-02 2.36382243920320e-04
7.73878378378378e+00 1.59443398538439e-02 2.34593575239279e-04
7.76608108108108e+00 1.57957589192710e-02 2.32816992742266e-04
7.79337837837838e+00 1.56485625696678e-02 2.31052437083357e-04
7.82067567567568e+00 1.55027379024674e-02 2.29299848587623e-04
7.84797297297297e+00 1.53582721355205e-02 2.27559167700687e-04
7.87527027027027e+00 1.52151526054252e-02 2.25830334780270e-04
7.90256756756757e+00 1.50733667669703e-02 2.24113289960364e-04
7.92986486486486e+00 1.49329021918498e-02 2.22407973311546e-04
7.95716216216216e+00 1.47937465677469e-02 2.20714324980881e-04
7.98445945945946e+00 1.46558876967320e-02 2.19032285064541e-04
8.01175675675676e+00 1.45193134947193e-02 2.17361793477290e-04
8.03905405405405e+00 1.43840119902315e-02 2.15702790105541e-04
8.06635135135135e+00 1.42499713235146e-02 2.14055214940829e-04
8.09364864864865e+00 1.41171797450017e-02 2.12419007957433e-04
8.12094594594595e+00 1.39856256147829e-02 2.10794108924491e-04
8.14824324324324e+00 1.38552974015759e-02 2.09180457802694e-04
8.17554054054054e+00 1.37261836812370e-02 2.07577994558644e-04
8.20283783783784e+00 1.35982731362410e-02 2.05986659043487e-04
8.23013513513513e+00 1.34715545545274e-02 2.04406391133716e-04
8.25743243243243e+00 1.33460168286683e-02 2.02837130853910e-04
8.28472972972973e+00 1.32216489544407e-02 2.01278818262888e-04
8.31202702702703e+00 1.30984400303184e-02 1.99731393337134e-04
8.33932432432432e+00 1.29763792563640e-02 1.98194796105209e-04
8.36662162162162e+00 1.28554559334246e-02 1.96668966764943e-04
8.39391891891892e+00 1.27356594617621e-02 1.95153845574056e-04
8.42121621621622e+00 1.26169793405591e-02 1.93649372682773e-04
8.44851351351351e+00 1.24994051669899e-02 1.92155488484183e-04
8.47581081081081e+00 1.23829266348934e-02 1.90672133448817e-04
8.50310810810811e+00 1.22675335342879e-02 1.89199248016239e-04
8.53040540540541e+00 1.21532157503353e-02 1.87736772718790e-04
8.55770270270270e+00 1.20399632625862e-02 1.86284648289440e-04
8.58500000000000e+00 1.19277661437056e-02 1.84842815560018e-04
8.61229729729730e+00 1.18166145590012e-02 1.83411215357027e-04
