Energy (eV)          EEDF (eV^-(3/2))     First Anisotropy
2.15000000000000e-03 4.94198560723235e+00 3.26821392682886e-03
6.45000000000000e-03 4.88520611635567e+00 5.38384737089885e-03
1.07500000000000e-02 4.82907897675173e+00 7.07318888616967e-03
1.50500000000000e-02 4.77359669341979e+00 8.33603125304908e-03
1.93500000000000e-02 4.71875185747279e+00 9.37237704553999e-03
2.36500000000000e-02 4.66453714514621e+00 1.02583715704557e-02
2.79500000000000e-02 4.61094531681988e+00 1.10336808175211e-02
3.22500000000000e-02 4.55796921605114e+00 1.17224121395774e-02
3.65500000000000e-02 4.50560176861920e+00 1.23406551321473e-02
4.08500000000000e-02 4.45383598158046e+00 1.28998525460546e-02
4.51500000000000e-02 4.40266494233467e+00 1.34085270251299e-02
4.94500000000000e-02 4.35208181770191e+00 1.38732537612989e-02
5.37500000000000e-02 4.30207985301006e+00 1.42992483817551e-02
5.80500000000000e-02 4.25265237119279e+00 1.46907422069479e-02
6.23500000000000e-02 4.20379277189801e+00 1.50512324671760e-02
6.66500000000000e-02 4.15549453060639e+00 1.53836552170395e-02
7.09500000000000e-02 4.10775119776019e+00 1.56905084539822e-02
7.52500000000000e-02 4.06055639790194e+00 1.59739420337903e-02
7.95500000000000e-02 4.01390382882312e+00 1.62358247867300e-02
8.38500000000000e-02 3.96778726072260e+00 1.64777955762615e-02
8.81500000000000e-02 3.92220053537468e+00 1.67013027958178e-02
9.24500000000000e-02 3.87713756530683e+00 1.69076353769467e-02
9.67500000000000e-02 3.83259233298671e+00 1.70979474566121e-02
1.01050000000000e-01 3.78855889001867e+00 1.72732782343068e-02
1.05350000000000e-01 3.74503135634939e+00 1.74345681291069e-02
1.09650000000000e-01 3.70200391948271e+00 1.75826720546072e-02
1.13950000000000e-01 3.65947083370342e+00 1.77183704230742e-02
1.18250000000000e-01 3.61742641931002e+00 1.78423783417198e-02
1.22550000000000e-01 3.57586506185628e+00 1.79553533557970e-02
1.26850000000000e-01 3.53478121140149e+00 1.80579020133054e-02
1.31150000000000e-01 3.49416938176935e+00 1.81505854663163e-02
1.35450000000000e-01 3.45402414981537e+00 1.82339242787479e-02
1.39750000000000e-01 3.41434015470271e+00 1.83084025758848e-02
1.44050000000000e-01 3.37511209718625e+00 1.83744716442933e-02
1.48350000000000e-01 3.33633473890501e+00 1.84325530700429e-02
1.52650000000000e-01 3.29800290168263e+00 1.84830414868657e-02
1.56950000000000e-01 3.26011146683585e+00 1.85263069929993e-02
1.61250000000000e-01 3.22265537449106e+00 1.85626972851862e-02
1.65550000000000e-01 3.18562962290854e+00 1.85925395500699e-02
1.69850000000000e-01 3.14902926781461e+00 1.86161421465655e-02
1.74150000000000e-01 3.11284942174137e+00 1.86337961073663e-02
1.78450000000000e-01 3.07708525337404e+00 1.86457764833282e-02
1.82750000000000e-01 3.04173198690580e+00 1.86523435508428e-02
1.87050000000000e-01 3.00678490140009e+00 1.86537438992916e-02
1.91350000000000e-01 2.97223933016014e+00 1.86502114131925e-02
1.95650000000000e-01 2.93809066010581e+00 1.86419681615546e-02
1.99950000000000e-01 2.90433433115762e+00 1.86292252052252e-02
2.04250000000000e-01 2.87096583562775e+00 1.86121833315375e-02
2.08550000000000e-01 2.83798071761815e+00 1.85910337243270e-02
2.12850000000000e-01 2.80537457242551e+00 1.85659585763369e-02
2.17150000000000e-01 2.77314304595305e+00 1.85371316501326e-02
2.21450000000000e-01 2.74128183412910e+00 1.85047187928777e-02
2.25750000000000e-01 2.70978668233238e+00 1.84688784096778e-02
2.30050000000000e-01 2.67865338482380e+00 1.84297618996233e-02
2.34350000000000e-01 2.64787778418490e+00 1.83875140581790e-02
2.38650000000000e-01 2.61745577076264e+00 1.83422734491490e-02
2.42950000000000e-01 2.58738328212064e+00 1.82941727490787e-02
2.47250000000000e-01 2.55765630249668e+00 1.82433390666346e-02
2.51550000000000e-01 2.52827086226646e+00 1.81898942392259e-02
2.55850000000000e-01 2.49922303741353e+00 1.81339551088939e-02
2.60150000000000e-01 2.47050894900525e+00 1.80756337792747e-02
2.64450000000000e-01 2.44212476267485e+00 1.80150378552596e-02
2.68750000000000e-01 2.41406668810937e+00 1.79522706668055e-02
2.73050000000000e-01 2.38633097854357e+00 1.78874314782101e-02
2.77350000000000e-01 2.35891393025954e+00 1.78206156840343e-02
2.81650000000000e-01 2.33181188209217e+00 1.77519149927334e-02
2.85950000000000e-01 2.30502121494020e+00 1.76814175989688e-02
2.90250000000000e-01 2.27853835128300e+00 1.76092083454712e-02
2.94550000000000e-01 2.25235975470280e+00 1.75353688752538e-02
2.98850000000000e-01 2.22648192941245e+00 1.74599777748943e-02
3.03150000000000e-01 2.20090141978865e+00 1.73831107095444e-02
3.07450000000000e-01 2.17561480991044e+00 1.73048405502666e-02
3.11750000000000e-01 2.15061872310308e+00 1.72252374942452e-02
3.16050000000000e-01 2.12590982148717e+00 1.71443691783767e-02
3.20350000000000e-01 2.10148480553285e+00 1.70623007866903e-02
3.24650000000000e-01 2.07734041361929e+00 1.69790951520246e-02
3.28950000000000e-01 2.05347342159904e+00 1.68948128523460e-02
3.33250000000000e-01 2.02988064236760e+00 1.68095123020648e-02
3.37550000000000e-01 2.00655892543771e+00 1.67232498386708e-02
3.41850000000000e-01 1.98350515651877e+00 1.66360798049925e-02
3.46150000000000e-01 1.96071625710085e+00 1.65480546273616e-02
3.50450000000000e-01 1.93818918404369e+00 1.64592248899316e-02
3.54750000000000e-01 1.91592092917029e+00 1.63696394053926e-02
3.59050000000000e-01 1.89390851886521e+00 1.62793452822999e-02
3.63350000000000e-01 1.87214901367748e+00 1.61883879892224e-02
3.67650000000000e-01 1.85063950792811e+00 1.60968114158957e-02
3.71950000000000e-01 1.82937712932204e+00 1.60046579315571e-02
3.76250000000000e-01 1.80835903856460e+00 1.59119684406257e-02
3.80550000000000e-01 1.78758242898237e+00 1.58187824358776e-02
3.84850000000000e-01 1.76704452614837e+00 1.57251380492566e-02
3.89150000000000e-01 1.74674258751160e+00 1.56310721004562e-02
3.93450000000000e-01 1.72667390203076e+00 1.55366201433899e-02
3.97750000000000e-01 1.70683578981230e+00 1.54418165106649e-02
4.02050000000000e-01 1.68722560175249e+00 1.53466943561711e-02
4.06350000000000e-01 1.66784071918372e+00 1.52512856958799e-02
4.10650000000000e-01 1.64867855352478e+00 1.51556214469479e-02
4.14950000000000e-01 1.62973654593520e+00 1.50597314652143e-02
4.19250000000000e-01 1.61101216697356e+00 1.49636445811722e-02
4.23550000000000e-01 1.59250291625972e+00 1.48673886344934e-02
4.27850000000000e-01 1.57420632214092e+00 1.47709905071756e-02
4.32150000000000e-01 1.55611994136171e+00 1.46744761553834e-02
4.36450000000000e-01 1.53824135873774e+00 1.45778706400434e-02
4.40750000000000e-01 1.52056818683317e+00 1.44811981562573e-02
4.45050000000000e-01 1.50309806564193e+00 1.43844820615862e-02
4.49350000000000e-01 1.48582866227255e+00 1.42877449032604e-02
4.53650000000000e-01 1.46875767063661e+00 1.41910084443673e-02
4.57950000000000e-01 1.45188281114082e+00 1.40942936890598e-02
4.62250000000000e-01 1.43520183038261e+00 1.39976209068345e-02
4.66550000000000e-01 1.41871250084923e+00 1.39010096559208e-02
4.70850000000000e-01 1.40241262062027e+00 1.38044788058190e-02
4.75150000000000e-01 1.38630001307362e+00 1.37080465590256e-02
4.79450000000000e-01 1.37037252659487e+00 1.36117304719839e-02
4.83750000000000e-01 1.35462803428992e+00 1.35155474752913e-02
4.88050000000000e-01 1.33906443370100e+00 1.34195138931954e-02
4.92350000000000e-01 1.32367964652591e+00 1.33236454624098e-02
4.96650000000000e-01 1.30847161834051e+00 1.32279573502793e-02
5.00950000000000e-01 1.29343831832435e+00 1.31324641723208e-02
5.05250000000000e-01 1.27857773898948e+00 1.30371800091631e-02
5.09550000000000e-01 1.26388789591241e+00 1.29421184229166e-02
5.13850000000000e-01 1.24936682746910e+00 1.28472924729911e-02
5.18150000000000e-01 1.23501259457301e+00 1.27527147313841e-02
5.22450000000000e-01 1.22082328041615e+00 1.26583972974631e-02
5.26750000000000e-01 1.20679699021316e+00 1.25643518122621e-02
5.31050000000000e-01 1.19293185094825e+00 1.24705894723081e-02
5.35350000000000e-01 1.17922601112507e+00 1.23771210429990e-02
5.39650000000000e-01 1.16567764051953e+00 1.22839568715489e-02
5.43950000000000e-01 1.15228492993534e+00 1.21911068995190e-02
5.48250000000000e-01 1.13904609096244e+00 1.20985806749466e-02
5.52550000000000e-01 1.12595935573818e+00 1.20063873640902e-02
5.56850000000000e-01 1.11302297671126e+00 1.19145357628046e-02
5.61150000000000e-01 1.10023522640835e+00 1.18230343075589e-02
5.65450000000000e-01 1.08759439720341e+00 1.17318910861107e-02
5.69750000000000e-01 1.07509880108969e+00 1.16411138478492e-02
5.74050000000000e-01 1.06274676945426e+00 1.15507100138201e-02
5.78350000000000e-01 1.05053665285526e+00 1.14606866864422e-02
5.82650000000000e-01 1.03846682080160e+00 1.13710506589279e-02
5.86950000000000e-01 1.02653566153524e+00 1.12818084244161e-02
5.91250000000000e-01 1.01474158181594e+00 1.11929661848316e-02
5.95550000000000e-01 1.00308300670854e+00 1.11045298594760e-02
5.99850000000000e-01 9.91558379372650e-01 1.10165050933620e-02
6.04150000000000e-01 9.80166160854715e-01 1.09288972652998e-02
6.08450000000000e-01 9.68904829882547e-01 1.08417114957436e-02
6.12750000000000e-01 9.57772882662164e-01 1.07549526544061e-02
6.17050000000000e-01 9.46768832676985e-01 1.06686253676490e-02
6.21350000000000e-01 9.35891210489323e-01 1.05827340256572e-02
6.25650000000000e-01 9.25138563544163e-01 1.04972827894043e-02
6.29950000000000e-01 9.14509455975194e-01 1.04122755974156e-02
6.34250000000000e-01 9.04002468413071e-01 1.03277161723350e-02
6.38550000000000e-01 8.93616197795874e-01 1.02436080273029e-02
6.42850000000000e-01 8.83349257181749e-01 1.01599544721514e-02
6.47150000000000e-01 8.73200275563706e-01 1.00767586194216e-02
6.51450000000000e-01 8.63167897686534e-01 9.99402339021013e-03
6.55750000000000e-01 8.53250783865831e-01 9.91175151984868e-03
6.60050000000000e-01 8.43447609809102e-01 9.82994556342348e-03
6.64350000000000e-01 8.33757066438923e-01 9.74860790113890e-03
6.68650000000000e-01 8.24177859718132e-01 9.66774074352984e-03
6.72950000000000e-01 8.14708710477022e-01 9.58734613652802e-03
6.77250000000000e-01 8.05348354242535e-01 9.50742596638635e-03
6.81550000000000e-01 7.96095541069402e-01 9.42798196446739e-03
6.85850000000000e-01 7.86949035373233e-01 9.34901571189730e-03
6.90150000000000e-01 7.77907615765523e-01 9.27052864408987e-03
6.94450000000000e-01 7.68970074890549e-01 9.19252205514780e-03
6.98750000000000e-01 7.60135219264148e-01 9.11499710214126e-03
7.03050000000000e-01 7.51401869114342e-01 9.03795480926866e-03
7.07350000000000e-01 7.42768858223798e-01 8.96139607190347e-03
7.11650000000000e-01 7.34235033774092e-01 8.88532166052995e-03
7.15950000000000e-01 7.25799256191768e-01 8.80973222457110e-03
7.20250000000000e-01 7.17460398996167e-01 8.73462829611328e-03
7.24550000000000e-01 7.09217348648996e-01 8.66001029352853e-03
7.28850000000000e-01 7.01069004405633e-01 8.58587852499849e-03
7.33150000000000e-01 6.93014278168140e-01 8.51223319194300e-03
7.37450000000000e-01 6.85052094339958e-01 8.43907439235599e-03
7.41750000000000e-01 6.77181389682279e-01 8.36640212405138e-03
7.46050000000000e-01 6.69401113172066e-01 8.29421628782055e-03
7.50350000000000e-01 6.61710225861700e-01 8.22251669050578e-03
7.54650000000000e-01 6.54107700740247e-01 8.15130304799065e-03
7.58950000000000e-01 6.46592522596313e-01 8.08057498810987e-03
7.63250000000000e-01 6.39163687882477e-01 8.01033205348132e-03
7.67550000000000e-01 6.31820204581279e-01 7.94057370426246e-03
7.71850000000000e-01 6.24561092072756e-01 7.87129932083259e-03
7.76150000000000e-01 6.17385381003485e-01 7.80250820640312e-03
7.80450000000000e-01 6.10292113157149e-01 7.73419958955911e-03
7.84750000000000e-01 6.03280341326572e-01 7.66637262673188e-03
7.89050000000000e-01 5.96349129187238e-01 7.59902640460636e-03
7.93350000000000e-01 5.89497551172257e-01 7.53215994246480e-03
7.97650000000000e-01 5.82724692348765e-01 7.46577219446634e-03
8.01950000000000e-01 5.76029648295753e-01 7.39986205186762e-03
8.06250000000000e-01 5.69411524983291e-01 7.33442834518447e-03
8.10550000000000e-01 5.62869438653142e-01 7.26946984629412e-03
8.14850000000000e-01 5.56402515700748e-01 7.20498527048329e-03
8.19150000000000e-01 5.50009892558578e-01 7.14097327844217e-03
8.23450000000000e-01 5.43690715580802e-01 7.07743247820339e-03
8.27750000000000e-01 5.37444140929306e-01 7.01436142703177e-03
8.32050000000000e-01 5.31269334461004e-01 6.95175863326317e-03
8.36350000000000e-01 5.25165471616453e-01 6.88962255809332e-03
8.40650000000000e-01 5.19131737309742e-01 6.82795161732047e-03
8.44950000000000e-01 5.13167325819650e-01 6.76674418304134e-03
8.49250000000000e-01 5.07271440682056e-01 6.70599858530178e-03
8.53550000000000e-01 5.01443294583575e-01 6.64571311370435e-03
8.57850000000000e-01 4.95682109256431e-01 6.58588601897198e-03
8.62150000000000e-01 4.89987115374526e-01 6.52651551447089e-03
8.66450000000000e-01 4.84357552450707e-01 6.46759977769236e-03
8.70750000000000e-01 4.78792668735217e-01 6.40913695169560e-03
8.75050000000000e-01 4.73291721115303e-01 6.35112514651218e-03
8.79350000000000e-01 4.67853975015991e-01 6.29356244051159e-03
8.83650000000000e-01 4.62478704301988e-01 6.23644688173199e-03
8.87950000000000e-01 4.57165191180722e-01 6.17977648917549e-03
8.92250000000000e-01 4.51912726106483e-01 6.12354925406696e-03
8.96550000000000e-01 4.46720607685683e-01 6.06776314108031e-03
9.00850000000000e-01 4.41588142583185e-01 6.01241608953213e-03
9.05150000000000e-01 4.36514645429726e-01 5.95750601454270e-03
9.09450000000000e-01 4.31499438730389e-01 5.90303080816580e-03
9.13750000000000e-01 4.26541852774137e-01 5.84898834048790e-03
9.18050000000000e-01 4.21641225544381e-01 5.79537646069842e-03
9.22350000000000e-01 4.16796902630576e-01 5.74219299813023e-03
9.26650000000000e-01 4.12008237140835e-01 5.68943576327215e-03
9.30950000000000e-01 4.07274589615547e-01 5.63710254875431e-03
9.35250000000000e-01 4.02595327941981e-01 5.58519113030606e-03
9.39550000000000e-01 3.97969827269881e-01 5.53369926768832e-03
9.43850000000000e-01 3.93397469928026e-01 5.48262470560069e-03
9.48150000000000e-01 3.88877645341745e-01 5.43196517456277e-03
9.52450000000000e-01 3.84409749951385e-01 5.38171839177208e-03
9.56750000000000e-01 3.79993187131714e-01 5.33188206193785e-03
9.61050000000000e-01 3.75627367112252e-01 5.28245387809223e-03
9.65350000000000e-01 3.71311706898512e-01 5.23343152237894e-03
9.69650000000000e-01 3.67045630194152e-01 5.18481266681975e-03
9.73950000000000e-01 3.62828567324016e-01 5.13659497406010e-03
9.78250000000000e-01 3.58659955158064e-01 5.08877609809341e-03
9.82550000000000e-01 3.54539237036174e-01 5.04135368496541e-03
9.86850000000000e-01 3.50465862693805e-01 4.99432537345858e-03
9.91150000000000e-01 3.46439288188519e-01 4.94768879575734e-03
9.95450000000000e-01 3.42458975827347e-01 4.90144157809436e-03
9.99750000000000e-01 3.38524394094982e-01 4.85558134137861e-03
1.00405000000000e+00 3.34635017582808e-01 4.81010570180524e-03
1.00835000000000e+00 3.30790326918737e-01 4.76501227144847e-03
1.01265000000000e+00 3.26989808697852e-01 4.72029865883678e-03
1.01695000000000e+00 3.23232955413853e-01 4.67596246951251e-03
1.02125000000000e+00 3.19519265391284e-01 4.63200130657414e-03
1.02555000000000e+00 3.15848242718539e-01 4.58841277120294e-03
1.02985000000000e+00 3.12219397181646e-01 4.54519446317518e-03
1.03415000000000e+00 3.08632244198802e-01 4.50234398135866e-03
1.03845000000000e+00 3.05086304755663e-01 4.45985892419431e-03
1.04275000000000e+00 3.01581105341379e-01 4.41773689016341e-03
1.04705000000000e+00 2.98116177885365e-01 4.37597547824195e-03
1.05135000000000e+00 2.94691059694795e-01 4.33457228834022e-03
1.05565000000000e+00 2.91305293392816e-01 4.29352492172931e-03
1.05995000000000e+00 2.87958426857473e-01 4.25283098145564e-03
1.06425000000000e+00 2.84650013161331e-01 4.21248807274141e-03
1.06855000000000e+00 2.81379610511798e-01 4.17249380337361e-03
1.07285000000000e+00 2.78146782192129e-01 4.13284578408111e-03
1.07715000000000e+00 2.74951096503105e-01 4.09354162889945e-03
1.08145000000000e+00 2.71792126705390e-01 4.05457895552476e-03
1.08575000000000e+00 2.68669450962545e-01 4.01595538565624e-03
1.09005000000000e+00 2.65582652284695e-01 3.97766854532773e-03
1.09435000000000e+00 2.62531318472848e-01 3.93971606522899e-03
1.09865000000000e+00 2.59515042063852e-01 3.90209558101599e-03
1.10295000000000e+00 2.56533420275982e-01 3.86480473361182e-03
1.10725000000000e+00 2.53586054955157e-01 3.82784116949749e-03
1.11155000000000e+00 2.50672552521767e-01 3.79120254099315e-03
1.11585000000000e+00 2.47792523918123e-01 3.75488650652975e-03
1.12015000000000e+00 2.44945584556497e-01 3.71889073091167e-03
1.12445000000000e+00 2.42131354267770e-01 3.68321288557083e-03
1.12875000000000e+00 2.39349457250665e-01 3.64785064881152e-03
1.13305000000000e+00 2.36599522021562e-01 3.61280170604700e-03
1.13735000000000e+00 2.33881181364894e-01 3.57806375002805e-03
1.14165000000000e+00 2.31194072284108e-01 3.54363448106337e-03
1.14595000000000e+00 2.28537835953194e-01 3.50951160723168e-03
1.15025000000000e+00 2.25912117668767e-01 3.47569284458696e-03
1.15455000000000e+00 2.23316566802704e-01 3.44217591735555e-03
1.15885000000000e+00 2.20750836755321e-01 3.40895855812610e-03
1.16315000000000e+00 2.18214584909085e-01 3.37603850803288e-03
1.16745000000000e+00 2.15707472582872e-01 3.34341351693171e-03
1.17175000000000e+00 2.13229164986732e-01 3.31108134356900e-03
1.17605000000000e+00 2.10779331177186e-01 3.27903975574451e-03
1.18035000000000e+00 2.08357644013033e-01 3.24728653046819e-03
1.18465000000000e+00 2.05963780111665e-01 3.21581945410969e-03
1.18895000000000e+00 2.03597419805884e-01 3.18463632254233e-03
1.19325000000000e+00 2.01258247101212e-01 3.15373494128147e-03
1.19755000000000e+00 1.98945949633700e-01 3.12311312561637e-03
1.20185000000000e+00 1.96660218628210e-01 3.09276870073695e-03
1.20615000000000e+00 1.94400748857186e-01 3.06269950185482e-03
1.21045000000000e+00 1.92167238599895e-01 3.03290337431902e-03
1.21475000000000e+00 1.89959389602135e-01 3.00337817372663e-03
1.21905000000000e+00 1.87776907036408e-01 2.97412176602804e-03
1.22335000000000e+00 1.85619499462549e-01 2.94513202762741e-03
1.22765000000000e+00 1.83486878788812e-01 2.91640684547830e-03
1.23195000000000e+00 1.81378760233394e-01 2.88794411717453e-03
1.23625000000000e+00 1.79294862286408e-01 2.85974175103668e-03
1.24055000000000e+00 1.77234906672294e-01 2.83179766619377e-03
1.24485000000000e+00 1.75198618312657e-01 2.80410979266078e-03
1.24915000000000e+00 1.73185725289534e-01 2.77667607141189e-03
1.25345000000000e+00 1.71195958809083e-01 2.74949445444977e-03
1.25775000000000e+00 1.69229053165691e-01 2.72256290487060e-03
1.26205000000000e+00 1.67284745706490e-01 2.69587939692532e-03
1.26635000000000e+00 1.65362776796286e-01 2.66944191607694e-03
1.27065000000000e+00 1.63462889782888e-01 2.64324845905409e-03
1.27495000000000e+00 1.61584830962833e-01 2.61729703390142e-03
1.27925000000000e+00 1.59728349547511e-01 2.59158566002592e-03
1.28355000000000e+00 1.57893197629672e-01 2.56611236824007e-03
1.28785000000000e+00 1.56079130150326e-01 2.54087520080179e-03
1.29215000000000e+00 1.54285904866015e-01 2.51587221145091e-03
1.29645000000000e+00 1.52513282316465e-01 2.49110146544223e-03
1.30075000000000e+00 1.50761025792611e-01 2.46656103957637e-03
1.30505000000000e+00 1.49028901304990e-01 2.44224902222701e-03
1.30935000000000e+00 1.47316677552488e-01 2.41816351336501e-03
1.31365000000000e+00 1.45624125891459e-01 2.39430262458038e-03
1.31795000000000e+00 1.43951020305191e-01 2.37066447910104e-03
1.32225000000000e+00 1.42297137373725e-01 2.34724721180894e-03
1.32655000000000e+00 1.40662256244019e-01 2.32404896925394e-03
1.33085000000000e+00 1.39046158600457e-01 2.30106790966448e-03
1.33515000000000e+00 1.37448628635698e-01 2.27830220295648e-03
1.33945000000000e+00 1.35869453021853e-01 2.25575003073965e-03
1.34375000000000e+00 1.34308420882004e-01 2.23340958632115e-03
1.34805000000000e+00 1.32765323762039e-01 2.21127907470758e-03
1.35235000000000e+00 1.31239955602821e-01 2.18935671260425e-03
1.35665000000000e+00 1.29732112712665e-01 2.16764072841271e-03
