Energy (eV)          EEDF (eV^-(3/2))     First Anisotropy
1.23181818181818e-03 9.83262146657655e+00 6.05677303243903e-03
3.69545454545455e-03 9.73021653737891e+00 9.98293282177762e-03
6.15909090909091e-03 9.62887813636889e+00 1.31296283882673e-02
8.62272727272727e-03 9.52859515610494e+00 1.54906014979538e-02
1.10863636363636e-02 9.42935660451006e+00 1.74353419044504e-02
1.35500000000000e-02 9.33115160410548e+00 1.91042904190602e-02
1.60136363636364e-02 9.23396939033654e+00 2.05704916335698e-02
1.84772727272727e-02 9.13779931162734e+00 2.18782716429347e-02
2.09409090909091e-02 9.04263082628736e+00 2.30571704038374e-02
2.34045454545455e-02 8.94845350292717e+00 2.41281657997741e-02
2.58681818181818e-02 8.85525701915153e+00 2.51068601319680e-02
2.83318181818182e-02 8.76303115935927e+00 2.60052738257872e-02
3.07954545454545e-02 8.67176581468888e+00 2.68329289069589e-02
3.32590909090909e-02 8.58145098183007e+00 2.75975403406553e-02
3.57227272727273e-02 8.49207676112162e+00 2.83054766035537e-02
3.81863636363636e-02 8.40363335626948e+00 2.89620777615523e-02
4.06500000000000e-02 8.31611107321409e+00 2.95718819439515e-02
4.31136363636364e-02 8.22950031843815e+00 3.01387905085805e-02
4.55772727272727e-02 8.14379159872219e+00 3.06661913052648e-02
4.80409090909091e-02 8.05897551936814e+00 3.11570524022040e-02
5.05045454545455e-02 7.97504278369604e+00 3.16139944731737e-02
5.29681818181818e-02 7.89198419199467e+00 3.20393477103713e-02
5.54318181818182e-02 7.80979064007411e+00 3.24351969712997e-02
5.78954545454546e-02 7.72845311870756e+00 3.28034180919015e-02
6.03590909090909e-02 7.64796271262300e+00 3.31457075127035e-02
6.28227272727273e-02 7.56831059914958e+00 3.34636065122607e-02
6.52863636363636e-02 7.48948804762752e+00 3.37585212767018e-02
6.77500000000000e-02 7.41148641843261e+00 3.40317397518800e-02
7.02136363636364e-02 7.33429716170474e+00 3.42844457278781e-02
7.26772727272727e-02 7.25791181683268e+00 3.45177308132248e-02
7.51409090909091e-02 7.18232201112913e+00 3.47326046506784e-02
7.76045454545455e-02 7.10751945920282e+00 3.49300036305025e-02
8.00681818181818e-02 7.03349596203770e+00 3.51107984926330e-02
8.25318181818182e-02 6.96024340583956e+00 3.52758008429600e-02
8.49954545454546e-02 6.88775376140225e+00 3.54257688268903e-02
8.74590909090909e-02 6.81601908321791e+00 3.55614121674193e-02
8.99227272727273e-02 6.74503150837858e+00 3.56833965228988e-02
9.23863636363637e-02 6.67478325594265e+00 3.57923473295637e-02
9.48500000000000e-02 6.60526662607283e+00 3.58888532733762e-02
9.73136363636364e-02 6.53647399898891e+00 3.59734693032349e-02
9.97772727272727e-02 6.46839783439865e+00 3.60467193578678e-02
1.02240909090909e-01 6.40103067035701e+00 3.61090987554096e-02
1.04704545454545e-01 6.33436512304428e+00 3.61610764845543e-02
1.07168181818182e-01 6.26839388468783e+00 3.62030970014016e-02
1.09631818181818e-01 6.20310972474967e+00 3.62355820505338e-02
1.12095454545455e-01 6.13850548741595e+00 3.62589324964086e-02
1.14559090909091e-01 6.07457409091120e+00 3.62735293839629e-02
1.17022727272727e-01 6.01130852822781e+00 3.62797354570946e-02
1.19486363636364e-01 5.94870186481474e+00 3.62778965428046e-02
1.21950000000000e-01 5.88674723789799e+00 3.62683422846974e-02
1.24413636363636e-01 5.82543785709499e+00 3.62513873878395e-02
1.26877272727273e-01 5.76476700184800e+00 3.62273324894911e-02
1.29340909090909e-01 5.70472802246699e+00 3.61964649416625e-02
1.31804545454545e-01 5.64531433806962e+00 3.61590598175420e-02
1.34268181818182e-01 5.58651943592528e+00 3.61153802979533e-02
1.36731818181818e-01 5.52833687192855e+00 3.60656785031772e-02
1.39195454545455e-01 5.47076026867944e+00 3.60101962623279e-02
1.41659090909091e-01 5.41378331484463e+00 3.59491653707014e-02
1.44122727272727e-01 5.35739976554922e+00 3.58828082754891e-02
1.46586363636364e-01 5.30160344058553e+00 3.58113387126637e-02
1.49050000000000e-01 5.24638822378636e+00 3.57349618707386e-02
1.51513636363636e-01 5.19174806335012e+00 3.56538750086770e-02
1.53977272727273e-01 5.13767696985064e+00 3.55682678121364e-02
1.56440909090909e-01 5.08416901687950e+00 3.54783227125638e-02
1.58904545454545e-01 5.03121833942464e+00 3.53842154179281e-02
1.61368181818182e-01 4.97881913326988e+00 3.52861149690839e-02
1.63831818181818e-01 4.92696565523724e+00 3.51841841801727e-02
1.66295454545455e-01 4.87565222166192e+00 3.50785800514253e-02
1.68759090909091e-01 4.82487320780905e+00 3.49694537845311e-02
1.71222727272727e-01 4.77462304806688e+00 3.48569511634955e-02
1.73686363636364e-01 4.72489623451165e+00 3.47412129125758e-02
1.76150000000000e-01 4.67568731633796e+00 3.46223746812807e-02
1.78613636363636e-01 4.62699090001159e+00 3.45005674132875e-02
1.81077272727273e-01 4.57880164767859e+00 3.43759175129961e-02
1.83540909090909e-01 4.53111427756043e+00 3.42485469918231e-02
1.86004545454545e-01 4.48392356264155e+00 3.41185737978710e-02
1.88468181818182e-01 4.43722433012562e+00 3.39861117643391e-02
1.90931818181818e-01 4.39101146153786e+00 3.38512708810830e-02
1.93395454545455e-01 4.34527989148292e+00 3.37141575513813e-02
1.95859090909091e-01 4.30002460711734e+00 3.35748745270814e-02
1.98322727272727e-01 4.25524064822139e+00 3.34335211509862e-02
2.00786363636364e-01 4.21092310602334e+00 3.32901935864290e-02
2.03250000000000e-01 4.16706712268548e+00 3.31449847428504e-02
2.05713636363636e-01 4.12366789135085e+00 3.29979845237467e-02
2.08177272727273e-01 4.08072065484474e+00 3.28492799112554e-02
2.10640909090909e-01 4.03822070591079e+00 3.26989550376287e-02
2.13104545454545e-01 3.99616338612807e+00 3.25470914126364e-02
2.15568181818182e-01 3.95454408542146e+00 3.23937678373173e-02
2.18031818181818e-01 3.91335824207715e+00 3.22390605891658e-02
2.20495454545455e-01 3.87260134171340e+00 3.20830435982668e-02
2.22959090909091e-01 3.83226891680558e+00 3.19257883577490e-02
2.25422727272727e-01 3.79235654668270e+00 3.17673640925795e-02
2.27886363636364e-01 3.75285985654891e+00 3.16078379202934e-02
2.30350000000000e-01 3.71377451702160e+00 3.14472747595365e-02
2.32813636363636e-01 3.67509624411209e+00 3.12857375099109e-02
2.35277272727273e-01 3.63682079814965e+00 3.11232870970291e-02
2.37740909090909e-01 3.59894398391272e+00 3.09599825081199e-02
2.40204545454546e-01 3.56146164972301e+00 3.07958809598468e-02
2.42668181818182e-01 3.52436968700596e+00 3.06310378045802e-02
2.45131818181818e-01 3.48766403025237e+00 3.04655066654260e-02
2.47595454545455e-01 3.45134065615452e+00 3.02993395652007e-02
2.50059090909091e-01 3.41539558318006e+00 3.01325868332204e-02
2.52522727272727e-01 3.37982487152166e+00 2.99652972301174e-02
2.54986363636364e-01 3.34462462227330e+00 2.97975180671678e-02
2.57450000000000e-01 3.30979097701607e+00 2.96292951141254e-02
2.59913636363636e-01 3.27532011775822e+00 2.94606727363254e-02
2.62377272727273e-01 3.24120826603323e+00 2.92916939191220e-02
2.64840909090909e-01 3.20745168296104e+00 2.91224002850609e-02
2.67304545454546e-01 3.17404666848244e+00 2.89528322233313e-02
2.69768181818182e-01 3.14098956096520e+00 2.87830287991557e-02
2.72231818181818e-01 3.10827673713276e+00 2.86130278567949e-02
2.74695454545455e-01 3.07590461133234e+00 2.84428661182442e-02
2.77159090909091e-01 3.04386963515317e+00 2.82725790945841e-02
2.79622727272727e-01 3.01216829734787e+00 2.81022011821158e-02
2.82086363636364e-01 2.98079712313288e+00 2.79317657545417e-02
2.84550000000000e-01 2.94975267381765e+00 2.77613050764470e-02
2.87013636363636e-01 2.91903154672031e+00 2.75908504113683e-02
2.89477272727273e-01 2.88863037440503e+00 2.74204320348593e-02
2.91940909090909e-01 2.85854582469636e+00 2.72500792417411e-02
2.94404545454545e-01 2.82877460002697e+00 2.70798204489875e-02
2.96868181818182e-01 2.79931343708527e+00 2.69096831122249e-02
2.99331818181818e-01 2.77015910672481e+00 2.67396938067946e-02
3.01795454545455e-01 2.74130841333958e+00 2.65698783056139e-02
3.04259090909091e-01 2.71275819452245e+00 2.64002614980968e-02
3.06722727272727e-01 2.68450532097043e+00 2.62308674663268e-02
3.09186363636364e-01 2.65654669588635e+00 2.60617195582574e-02
3.11650000000000e-01 2.62887925464729e+00 2.58928403090763e-02
3.14113636363636e-01 2.60149996470670e+00 2.57242515283625e-02
3.16577272727273e-01 2.57440582494501e+00 2.55559743066376e-02
3.19040909090909e-01 2.54759386565273e+00 2.53880290171447e-02
3.21504545454545e-01 2.52106114797136e+00 2.52204353993169e-02
3.23968181818182e-01 2.49480476357835e+00 2.50532124836029e-02
3.26431818181818e-01 2.46882183458632e+00 2.48863786566763e-02
3.28895454545455e-01 2.44310951300676e+00 2.47199517242001e-02
3.31359090909091e-01 2.41766498044468e+00 2.45539488381023e-02
3.33822727272727e-01 2.39248544799575e+00 2.43883865581535e-02
3.36286363636364e-01 2.36756815573184e+00 2.42232809112572e-02
3.38750000000000e-01 2.34291037240476e+00 2.40586473211432e-02
3.41213636363636e-01 2.31850939534198e+00 2.38945006798184e-02
3.43677272727273e-01 2.29436254989051e+00 2.37308553502894e-02
3.46140909090909e-01 2.27046718937971e+00 2.35677251653057e-02
3.48604545454546e-01 2.24682069463959e+00 2.34051234960918e-02
3.51068181818182e-01 2.22342047371932e+00 2.32430631854895e-02
3.53531818181818e-01 2.20026396178241e+00 2.30815566012603e-02
3.55995454545455e-01 2.17734862064401e+00 2.29206156874722e-02
3.58459090909091e-01 2.15467193849820e+00 2.27602518999541e-02
3.60922727272727e-01 2.13223142981232e+00 2.26004762568097e-02
3.63386363636364e-01 2.11002463488275e+00 2.24412993871327e-02
3.65850000000000e-01 2.08804911957016e+00 2.22827314687170e-02
3.68313636363636e-01 2.06630247519381e+00 2.21247822873300e-02
3.70777272727273e-01 2.04478231805302e+00 2.19674612371646e-02
3.73240909090909e-01 2.02348628937722e+00 2.18107773179384e-02
3.75704545454546e-01 2.00241205490924e+00 2.16547391921064e-02
3.78168181818182e-01 1.98155730465395e+00 2.14993551258038e-02
3.80631818181818e-01 1.96091975277329e+00 2.13446330329363e-02
3.83095454545455e-01 1.94049713718571e+00 2.11905805177445e-02
3.85559090909091e-01 1.92028721932254e+00 2.10372048178500e-02
3.88022727272727e-01 1.90028778402322e+00 2.08845128461550e-02
3.90486363636364e-01 1.88049663915020e+00 2.07325112313025e-02
3.92950000000000e-01 1.86091161535264e+00 2.05812062627598e-02
3.95413636363636e-01 1.84153056596217e+00 2.04306039404414e-02
3.97877272727273e-01 1.82235136657977e+00 2.02807099738187e-02
4.00340909090909e-01 1.80337191501818e+00 2.01315297781793e-02
4.02804545454546e-01 1.78459013094026e+00 1.99830685226528e-02
4.05268181818182e-01 1.76600395563462e+00 1.98353310782413e-02
4.07731818181818e-01 1.74761135191316e+00 1.96883220546214e-02
4.10195454545455e-01 1.72941030376313e+00 1.95420458357143e-02
4.12659090909091e-01 1.71139881612960e+00 1.93965065295967e-02
4.15122727272727e-01 1.69357491481391e+00 1.92517080035487e-02
4.17586363636364e-01 1.67593664613880e+00 1.91076539179365e-02
4.20050000000000e-01 1.65848207673750e+00 1.89643476779402e-02
4.22513636363636e-01 1.64120929345316e+00 1.88217924753824e-02
4.24977272727273e-01 1.62411640298089e+00 1.86799912870637e-02
4.27440909090909e-01 1.60720153180639e+00 1.85389468706680e-02
4.29904545454546e-01 1.59046282589119e+00 1.83986618053341e-02
4.32368181818182e-01 1.57389845047236e+00 1.82591384460206e-02
4.34831818181818e-01 1.55750658996435e+00 1.81203789544415e-02
4.37295454545455e-01 1.54128544765586e+00 1.79823853289979e-02
4.39759090909091e-01 1.52523324551576e+00 1.78451593608094e-02
4.42222727272727e-01 1.50934822409610e+00 1.77087026632246e-02
4.44686363636364e-01 1.49362864224023e+00 1.75730167003774e-02
4.47150000000000e-01 1.47807277689460e+00 1.74381027448220e-02
4.49613636363636e-01 1.46267892301311e+00 1.73039619129860e-02
4.52077272727273e-01 1.44744539324610e+00 1.71705951630910e-02
4.54540909090909e-01 1.43237051787777e+00 1.70380032909857e-02
4.57004545454546e-01 1.41745264455157e+00 1.69061869645923e-02
4.59468181818182e-01 1.40269013809150e+00 1.67751466838836e-02
4.61931818181818e-01 1.38808138040916e+00 1.66448828070345e-02
4.64395454545455e-01 1.37362477023914e+00 1.65153955757465e-02
4.66859090909091e-01 1.35931872296585e+00 1.63866850766851e-02
4.69322727272727e-01 1.34516167053195e+00 1.62587512664612e-02
4.71786363636364e-01 1.33115206118347e+00 1.61315939958272e-02
4.74250000000000e-01 1.31728835930184e+00 1.60052129725224e-02
4.76713636363636e-01 1.30356904531386e+00 1.58796077914555e-02
4.79177272727273e-01 1.28999261542095e+00 1.57547779324329e-02
4.81640909090909e-01 1.27655758153706e+00 1.56307227560874e-02
4.84104545454546e-01 1.26326247104865e+00 1.55074415332492e-02
4.86568181818182e-01 1.25010582665522e+00 1.53849334098593e-02
4.89031818181818e-01 1.23708620628224e+00 1.52631974291771e-02
4.91495454545455e-01 1.22420218284959e+00 1.51422325533025e-02
4.93959090909091e-01 1.21145234411717e+00 1.50220376293717e-02
4.96422727272727e-01 1.19883529259920e+00 1.49026114107947e-02
4.98886363636364e-01 1.18634964534119e+00 1.47839525778394e-02
5.01350000000000e-01 1.17399403377006e+00 1.46660597050620e-02
5.03813636363636e-01 1.16176710361019e+00 1.45489312870941e-02
5.06277272727273e-01 1.14966751464708e+00 1.44325657363183e-02
5.08740909090909e-01 1.13769394066711e+00 1.43169613789889e-02
5.11204545454546e-01 1.12584506924734e+00 1.42021164803587e-02
5.13668181818182e-01 1.11411960161324e+00 1.40880292139285e-02
5.16131818181818e-01 1.10251625255765e+00 1.39746976803744e-02
5.18595454545455e-01 1.09103375023795e+00 1.38621199259037e-02
5.21059090909091e-01 1.07967083603824e+00 1.37502939126266e-02
5.23522727272727e-01 1.06842626448988e+00 1.36392175366731e-02
5.25986363636364e-01 1.05729880307586e+00 1.35288886457671e-02
5.28450000000000e-01 1.04628723209717e+00 1.34193050106741e-02
5.30913636363636e-01 1.03539034459499e+00 1.33104643473006e-02
5.33377272727273e-01 1.02460694614401e+00 1.32023643144053e-02
5.35840909090909e-01 1.01393585479487e+00 1.30950025099639e-02
5.38304545454546e-01 1.00337590088969e+00 1.29883764927245e-02
5.40768181818182e-01 9.92925926935274e-01 1.28824837552530e-02
5.43231818181818e-01 9.82584787528075e-01 1.27773217401176e-02
5.45695454545455e-01 9.72351349176239e-01 1.26728878555931e-02
5.48159090909091e-01 9.62224490176696e-01 1.25691794496858e-02
5.50622727272727e-01 9.52203100541723e-01 1.24661938256360e-02
5.53086363636364e-01 9.42286081827241e-01 1.23639282569653e-02
5.55550000000000e-01 9.32472347013653e-01 1.22623799624436e-02
5.58013636363636e-01 9.22760820434011e-01 1.21615461250752e-02
5.60477272727273e-01 9.13150437593114e-01 1.20614238898975e-02
5.62940909090909e-01 9.03640145112989e-01 1.19620103606138e-02
5.65404545454546e-01 8.94228900570899e-01 1.18633026181305e-02
5.67868181818182e-01 8.84915672386229e-01 1.17652976969243e-02
5.70331818181818e-01 8.75699439751427e-01 1.16679925989152e-02
5.72795454545455e-01 8.66579192475639e-01 1.15713843069385e-02
5.75259090909091e-01 8.57553930875097e-01 1.14754697619664e-02
5.77722727272727e-01 8.48622665705591e-01 1.13802458764079e-02
5.80186363636364e-01 8.39784418011550e-01 1.12857095470228e-02
5.82650000000000e-01 8.31038219019780e-01 1.11918576329677e-02
5.85113636363636e-01 8.22383110073479e-01 1.10986869721435e-02
5.87577272727273e-01 8.13818142473628e-01 1.10061943791143e-02
5.90040909090909e-01 8.05342377427832e-01 1.09143766420105e-02
5.92504545454546e-01 7.96954885907875e-01 1.08232305385049e-02
5.94968181818182e-01 7.88654748548844e-01 1.07327528150847e-02
5.97431818181818e-01 7.80441055585799e-01 1.06429401989711e-02
5.99895454545455e-01 7.72312906716227e-01 1.05537894097007e-02
6.02359090909091e-01 7.64269411002301e-01 1.04652971391446e-02
6.04822727272727e-01 7.56309686809000e-01 1.03774600629409e-02
6.07286363636364e-01 7.48432861671329e-01 1.02902748516042e-02
6.09750000000000e-01 7.40638072199555e-01 1.02037381512631e-02
6.12213636363636e-01 7.32924464018809e-01 1.01178465977628e-02
6.14677272727273e-01 7.25291191629853e-01 1.00325968147197e-02
6.17140909090909e-01 7.17737418361395e-01 9.94798541069158e-03
6.19604545454546e-01 7.10262316244707e-01 9.86400899296881e-03
6.22068181818182e-01 7.02865065923670e-01 9.78066414938905e-03
6.24531818181818e-01 6.95544856596876e-01 9.69794745859776e-03
6.26995454545455e-01 6.88300885896525e-01 9.61585550002293e-03
6.29459090909091e-01 6.81132359801262e-01 9.53438483634086e-03
6.31922727272727e-01 6.74038492579662e-01 9.45353202332285e-03
6.34386363636364e-01 6.67018506673281e-01 9.37329361940844e-03
6.36850000000000e-01 6.60071632612159e-01 9.29366616879964e-03
6.39313636363636e-01 6.53197108959694e-01 9.21464621364554e-03
6.41777272727273e-01 6.46394182190285e-01 9.13623029223786e-03
6.44240909090909e-01 6.39662106645130e-01 9.05841493643910e-03
6.46704545454546e-01 6.33000144421756e-01 8.98119668360637e-03
6.49168181818182e-01 6.26407565293815e-01 8.90457206062765e-03
6.51631818181818e-01 6.19883646658292e-01 8.82853759277076e-03
6.54095454545455e-01 6.13427673428780e-01 8.75308981228778e-03
6.56559090909091e-01 6.07038937957762e-01 8.67822524302197e-03
6.59022727272727e-01 6.00716739985121e-01 8.60394040890319e-03
6.61486363636364e-01 5.94460386535049e-01 8.53023184220975e-03
6.63950000000000e-01 5.88269191840710e-01 8.45709606872355e-03
6.66413636363636e-01 5.82142477294044e-01 8.38452961827474e-03
6.68877272727273e-01 5.76079571338139e-01 8.31252902307822e-03
6.71340909090909e-01 5.70079809426440e-01 8.24109081540200e-03
6.73804545454546e-01 5.64142533925342e-01 8.17021153789328e-03
6.76268181818182e-01 5.58267094042682e-01 8.09988772955770e-03
6.78731818181818e-01 5.52452845779706e-01 8.03011593340258e-03
6.81195454545455e-01 5.46699151836949e-01 7.96089270387118e-03
6.83659090909091e-01 5.41005381544939e-01 7.89221459332092e-03
6.86122727272727e-01 5.35370910817387e-01 7.82407815936524e-03
6.88586363636364e-01 5.29795122060237e-01 7.75647997201343e-03
6.91050000000000e-01 5.24277404104506e-01 7.68941660062859e-03
6.93513636363636e-01 5.18817152160672e-01 7.62288462306615e-03
6.95977272727273e-01 5.13413767723914e-01 7.55688062414880e-03
6.98440909090909e-01 5.08066658536615e-01 7.49140119355733e-03
7.00904545454546e-01 5.02775238502409e-01 7.42644293478193e-03
7.03368181818182e-01 4.97538927622423e-01 7.36200245280580e-03
7.05831818181818e-01 4.92357151951672e-01 7.29807636071393e-03
7.08295454545455e-01 4.87229343515986e-01 7.23466128612404e-03
7.10759090909091e-01 4.82154940250229e-01 7.17175385930593e-03
7.13222727272727e-01 4.77133385955818e-01 7.10935071953124e-03
7.15686363636364e-01 4.72164130220444e-01 7.04744852125335e-03
7.18150000000000e-01 4.67246628358187e-01 6.98604392264578e-03
7.20613636363637e-01 4.62380341368150e-01 6.92513359352807e-03
7.23077272727273e-01 4.57564735850962e-01 6.86471421397341e-03
7.25540909090909e-01 4.52799283974421e-01 6.80478247240567e-03
7.28004545454546e-01 4.48083463397594e-01 6.74533507336901e-03
7.30468181818182e-01 4.43416757213974e-01 6.68636872670131e-03
7.32931818181818e-01 4.38798653911959e-01 6.62788015325568e-03
7.35395454545455e-01 4.34228647301481e-01 6.56986609047147e-03
7.37859090909091e-01 4.29706236458933e-01 6.51232328192918e-03
7.40322727272727e-01 4.25230925688676e-01 6.45524848284975e-03
7.42786363636364e-01 4.20802224452129e-01 6.39863846544897e-03
7.45250000000000e-01 4.16419647314383e-01 6.34249000885984e-03
7.47713636363637e-01 4.12082713906732e-01 6.28679990601482e-03
7.50177272727273e-01 4.07790948853064e-01 6.23156496237806e-03
7.52640909090909e-01 4.03543881738449e-01 6.17678199423191e-03
7.55104545454546e-01 3.99341047042083e-01 6.12244783542635e-03
7.57568181818182e-01 3.95181984086614e-01 6.06855932785829e-03
7.60031818181818e-01 3.91066237002372e-01 6.01511332643149e-03
7.62495454545455e-01 3.86993354662532e-01 5.96210670388559e-03
7.64959090909091e-01 3.82962890634017e-01 5.90953634161017e-03
7.67422727272727e-01 3.78974403142671e-01 5.85739913441318e-03
7.69886363636364e-01 3.75027455010591e-01 5.80569199516326e-03
7.72350000000000e-01 3.71121613608531e-01 5.75441184592581e-03
7.74813636363637e-01 3.67256450822018e-01 5.70355562394498e-03
7.77277272727273e-01 3.63431542986406e-01 5.65312028049234e-03
