Energy (eV)          EEDF (eV^-(3/2))     First Anisotropy
1.45370370370370e-03 3.68483899502320e+00 1.83219289996869e-03
4.36111111111111e-03 3.66128234978061e+00 3.02597326822105e-03
7.26851851851852e-03 3.63787629881282e+00 3.99595779967858e-03
1.01759259259259e-02 3.61461987934719e+00 4.73367307651849e-03
1.30833333333333e-02 3.59151213486412e+00 5.34960809796434e-03
1.59907407407407e-02 3.56855211486542e+00 5.88550768415665e-03
1.88981481481481e-02 3.54573887496957e+00 6.36296027494621e-03
2.18055555555556e-02 3.52307147672674e+00 6.79499390556481e-03
2.47129629629630e-02 3.50054898791308e+00 7.19024337117669e-03
2.76203703703704e-02 3.47817048213967e+00 7.55480762489737e-03
3.05277777777778e-02 3.45593503894106e+00 7.89319850536531e-03
3.34351851851852e-02 3.43384174373700e+00 8.20887368438633e-03
3.63425925925926e-02 3.41188968779448e+00 8.50455789920940e-03
3.92500000000000e-02 3.39007796819025e+00 8.78244744027951e-03
4.21574074074074e-02 3.36840568777329e+00 9.04434612857525e-03
4.50648148148148e-02 3.34687195512825e+00 9.29175902695119e-03
4.79722222222222e-02 3.32547588453873e+00 9.52595898120804e-03
5.08796296296296e-02 3.30421659595071e+00 9.74803508169858e-03
5.37870370370370e-02 3.28309321493625e+00 9.95892873592383e-03
5.66944444444444e-02 3.26210487265755e+00 1.01594610336334e-02
5.96018518518519e-02 3.24125070583121e+00 1.03503538588662e-02
6.25092592592593e-02 3.22052985666089e+00 1.05322464026690e-02
6.54166666666667e-02 3.19994147289944e+00 1.07057082778370e-02
6.83240740740741e-02 3.17948470771429e+00 1.08712500465585e-02
7.12314814814815e-02 3.15915871968656e+00 1.10293317431263e-02
7.41388888888889e-02 3.13896267277646e+00 1.11803698688139e-02
7.70462962962963e-02 3.11889573628893e+00 1.13247431693143e-02
7.99537037037037e-02 3.09895708483945e+00 1.14627974481442e-02
8.28611111111111e-02 3.07914589831999e+00 1.15948496067754e-02
8.57685185185185e-02 3.05946136186546e+00 1.17211910591422e-02
8.86759259259259e-02 3.03990266582012e+00 1.18420906357949e-02
9.15833333333333e-02 3.02046900570423e+00 1.19577970685387e-02
9.44907407407407e-02 3.00115958218101e+00 1.20685411279091e-02
9.73981481481481e-02 2.98197360102372e+00 1.21745374741320e-02
1.00305555555556e-01 2.96291027306488e+00 1.22759862468856e-02
1.03212962962963e-01 2.94396881427067e+00 1.23730745118349e-02
1.06120370370370e-01 2.92514844539379e+00 1.24659774206226e-02
1.09027777777778e-01 2.90644839249518e+00 1.25548593209727e-02
1.11935185185185e-01 2.88786788640550e+00 1.26398747933992e-02
1.14842592592593e-01 2.86940616272443e+00 1.27211693461387e-02
1.17750000000000e-01 2.85106246224559e+00 1.27988802688768e-02
1.20657407407407e-01 2.83283603031666e+00 1.28731372815333e-02
1.23564814814815e-01 2.81472611740180e+00 1.29440631316409e-02
1.26472222222222e-01 2.79673197847160e+00 1.30117741370005e-02
1.29379629629630e-01 2.77885287353757e+00 1.30763806452379e-02
1.32287037037037e-01 2.76108806719926e+00 1.31379875639946e-02
1.35194444444444e-01 2.74343682863593e+00 1.31966946205993e-02
1.38101851851852e-01 2.72589843194998e+00 1.32525968106259e-02
1.41009259259259e-01 2.70847215563863e+00 1.33057847038903e-02
1.43916666666667e-01 2.69115728305178e+00 1.33563447181604e-02
1.46824074074074e-01 2.67395310199764e+00 1.34043594746565e-02
1.49731481481481e-01 2.65685890473124e+00 1.34499079211192e-02
1.52638888888889e-01 2.63987398825083e+00 1.34930656408976e-02
1.55546296296296e-01 2.62299765383453e+00 1.35339050427320e-02
1.58453703703704e-01 2.60622920743719e+00 1.35724955309622e-02
1.61361111111111e-01 2.58956795934307e+00 1.36089037595819e-02
1.64268518518519e-01 2.57301322415218e+00 1.36431936801054e-02
1.67175925925926e-01 2.55656432103857e+00 1.36754267674935e-02
1.70083333333333e-01 2.54022057333995e+00 1.37056621421096e-02
1.72990740740741e-01 2.52398130890498e+00 1.37339566789034e-02
1.75898148148148e-01 2.50784585978466e+00 1.37603651988399e-02
1.78805555555556e-01 2.49181356221682e+00 1.37849404738047e-02
1.81712962962963e-01 2.47588375685337e+00 1.38077333998764e-02
1.84620370370370e-01 2.46005578839368e+00 1.38287930778323e-02
1.87527777777778e-01 2.44432900589100e+00 1.38481668847036e-02
1.90435185185185e-01 2.42870276247603e+00 1.38659006243855e-02
1.93342592592593e-01 2.41317641534013e+00 1.38820385074518e-02
1.96250000000000e-01 2.39774932593668e+00 1.38966232894207e-02
1.99157407407407e-01 2.38242085965127e+00 1.39096963248899e-02
2.02064814814815e-01 2.36719038607383e+00 1.39212976300338e-02
2.04972222222222e-01 2.35205727867955e+00 1.39314659452243e-02
2.07879629629630e-01 2.33702091509119e+00 1.39402387752492e-02
2.10787037037037e-01 2.32208067683789e+00 1.39476525038076e-02
2.13694444444444e-01 2.30723594933761e+00 1.39537423539422e-02
2.16601851851852e-01 2.29248612206988e+00 1.39585424948082e-02
2.19509259259259e-01 2.27783058828670e+00 1.39620860730848e-02
2.22416666666667e-01 2.26326874524724e+00 1.39644052397484e-02
2.25324074074074e-01 2.24879999399863e+00 1.39655312469876e-02
2.28231481481481e-01 2.23442373935819e+00 1.39654944019115e-02
2.31138888888889e-01 2.22013939006817e+00 1.39643241577481e-02
2.34046296296296e-01 2.20594635853250e+00 1.39620491351799e-02
2.36953703703704e-01 2.19184406102781e+00 1.39586971399604e-02
2.39861111111111e-01 2.17783191750322e+00 1.39542952466862e-02
2.42768518518518e-01 2.16390935156257e+00 1.39488697489358e-02
2.45675925925926e-01 2.15007579060357e+00 1.39424462386827e-02
2.48583333333333e-01 2.13633066557705e+00 1.39350496206355e-02
2.51490740740741e-01 2.12267341117752e+00 1.39267041234678e-02
2.54398148148148e-01 2.10910346565962e+00 1.39174333735108e-02
2.57305555555556e-01 2.09562027082027e+00 1.39072603433063e-02
2.60212962962963e-01 2.08222327212442e+00 1.38962074218012e-02
2.63120370370370e-01 2.06891191848404e+00 1.38842964237771e-02
2.66027777777778e-01 2.05568566243072e+00 1.38715485965712e-02
2.68935185185185e-01 2.04254395994691e+00 1.38579846857897e-02
2.71842592592593e-01 2.02948627044808e+00 1.38436248835487e-02
2.74750000000000e-01 2.01651205689665e+00 1.38284888913110e-02
2.77657407407407e-01 2.00362078559848e+00 1.38125959257904e-02
2.80564814814815e-01 1.99081192635977e+00 1.37959647331738e-02
2.83472222222222e-01 1.97808495228888e+00 1.37786136054372e-02
2.86379629629630e-01 1.96543933994854e+00 1.37605603827521e-02
2.89287037037037e-01 1.95287456920412e+00 1.37418225107268e-02
2.92194444444444e-01 1.94039012320615e+00 1.37224169891744e-02
2.95101851851852e-01 1.92798548849059e+00 1.37023604270855e-02
2.98009259259259e-01 1.91566015479567e+00 1.36816690450771e-02
3.00916666666667e-01 1.90341361520078e+00 1.36603586758066e-02
3.03824074074074e-01 1.89124536598586e+00 1.36384448161837e-02
3.06731481481481e-01 1.87915490661421e+00 1.36159425773402e-02
3.09638888888889e-01 1.86714173982387e+00 1.35928667349299e-02
3.12546296296296e-01 1.85520537145787e+00 1.35692317299165e-02
3.15453703703704e-01 1.84334531059129e+00 1.35450516675499e-02
3.18361111111111e-01 1.83156106940062e+00 1.35203403653190e-02
3.21268518518519e-01 1.81985216314687e+00 1.34951113043862e-02
3.24175925925926e-01 1.80821811025910e+00 1.34693776758990e-02
3.27083333333333e-01 1.79665843217669e+00 1.34431523805678e-02
3.29990740740741e-01 1.78517265346579e+00 1.34164480265857e-02
3.32898148148148e-01 1.77376030169780e+00 1.33892769739384e-02
3.35805555555556e-01 1.76242090743271e+00 1.33616512874600e-02
3.38712962962963e-01 1.75115400429559e+00 1.33335827796749e-02
3.41620370370370e-01 1.73995912882979e+00 1.33050830095019e-02
3.44527777777778e-01 1.72883582060386e+00 1.32761632794130e-02
3.47435185185185e-01 1.71778362209825e+00 1.32468346765677e-02
3.50342592592593e-01 1.70680207868894e+00 1.32171080275694e-02
3.53250000000000e-01 1.69589073871766e+00 1.31869939382741e-02
3.56157407407407e-01 1.68504915335488e+00 1.31565027918563e-02
3.59064814814815e-01 1.67427687669827e+00 1.31256447533951e-02
3.61972222222222e-01 1.66357346563892e+00 1.30944297762745e-02
3.64879629629630e-01 1.65293847995709e+00 1.30628675985848e-02
3.67787037037037e-01 1.64237148221875e+00 1.30309677805676e-02
3.70694444444444e-01 1.63187203775980e+00 1.29987396616068e-02
3.73601851851852e-01 1.62143971474863e+00 1.29661923965149e-02
3.76509259259259e-01 1.61107408406115e+00 1.29333349529364e-02
3.79416666666667e-01 1.60077471936909e+00 1.29001761074449e-02
3.82324074074074e-01 1.59054119704308e+00 1.28667244805809e-02
3.85231481481481e-01 1.58037309613722e+00 1.28329884955805e-02
3.88138888888889e-01 1.57026999844676e+00 1.27989764123742e-02
3.91046296296296e-01 1.56023148839096e+00 1.27646963246932e-02
3.93953703703704e-01 1.55025715309473e+00 1.27301561559706e-02
3.96861111111111e-01 1.54034658229771e+00 1.26953636922128e-02
3.99768518518518e-01 1.53049936833920e+00 1.26603265424308e-02
4.02675925925926e-01 1.52071510621134e+00 1.26250521705796e-02
4.05583333333333e-01 1.51099339344924e+00 1.25895478924619e-02
4.08490740740741e-01 1.50133383020654e+00 1.25538208714988e-02
4.11398148148148e-01 1.49173601916998e+00 1.25178781496577e-02
4.14305555555556e-01 1.48219956554472e+00 1.24817266095439e-02
4.17212962962963e-01 1.47272407710340e+00 1.24453730044489e-02
4.20120370370370e-01 1.46330916408299e+00 1.24088239551346e-02
4.23027777777778e-01 1.45395443925478e+00 1.23720859455386e-02
4.25935185185185e-01 1.44465951784403e+00 1.23351653519274e-02
4.28842592592593e-01 1.43542401751564e+00 1.22980684065931e-02
4.31750000000000e-01 1.42624755841949e+00 1.22608012261797e-02
4.34657407407407e-01 1.41712976309352e+00 1.22233698084005e-02
4.37564814814815e-01 1.40807025652852e+00 1.21857800337982e-02
4.40472222222222e-01 1.39906866607332e+00 1.21480376689316e-02
4.43379629629630e-01 1.39012462149795e+00 1.21101483620369e-02
4.46287037037037e-01 1.38123775491961e+00 1.20721176700246e-02
4.49194444444444e-01 1.37240770078892e+00 1.20339510242109e-02
4.52101851851852e-01 1.36363409593064e+00 1.19956537565653e-02
4.55009259259259e-01 1.35491657945442e+00 1.19572310963570e-02
4.57916666666667e-01 1.34625479281347e+00 1.19186881658598e-02
4.60824074074074e-01 1.33764837973474e+00 1.18800300058862e-02
4.63731481481481e-01 1.32909698620547e+00 1.18412615429869e-02
4.66638888888889e-01 1.32060026051103e+00 1.18023876142972e-02
4.69546296296296e-01 1.31215785315068e+00 1.17634129641884e-02
4.72453703703704e-01 1.30376941689216e+00 1.17243422400347e-02
4.75361111111111e-01 1.29543460670576e+00 1.16851800163951e-02
4.78268518518518e-01 1.28715307975126e+00 1.16459307636242e-02
4.81175925925926e-01 1.27892449541300e+00 1.16065988714168e-02
4.84083333333333e-01 1.27074851522034e+00 1.15671886454887e-02
4.86990740740741e-01 1.26262480289855e+00 1.15277043034169e-02
4.89898148148148e-01 1.25455302430644e+00 1.14881499975762e-02
4.92805555555555e-01 1.24653284742372e+00 1.14485297850990e-02
4.95712962962963e-01 1.23856394238343e+00 1.14088476502038e-02
4.98620370370370e-01 1.23064598139694e+00 1.13691075009281e-02
5.01527777777778e-01 1.22277863880128e+00 1.13293131650532e-02
5.04435185185185e-01 1.21496159100018e+00 1.12894684118798e-02
5.07342592592593e-01 1.20719451645172e+00 1.12495769234825e-02
5.10250000000000e-01 1.19947709569853e+00 1.12096423159027e-02
5.13157407407407e-01 1.19180901129682e+00 1.11696681359435e-02
5.16064814814815e-01 1.18418994786054e+00 1.11296578618982e-02
5.18972222222222e-01 1.17661959199179e+00 1.10896149053893e-02
5.21879629629630e-01 1.16909763232392e+00 1.10495426074114e-02
5.24787037037037e-01 1.16162375946683e+00 1.10094442586647e-02
5.27694444444444e-01 1.15419766599507e+00 1.09693230724421e-02
5.30601851851852e-01 1.14681904647521e+00 1.09291822044255e-02
5.33509259259259e-01 1.13948759740001e+00 1.08890247495583e-02
5.36416666666667e-01 1.13220301722863e+00 1.08488537382025e-02
5.39324074074074e-01 1.12496500633474e+00 1.08086721554768e-02
5.42231481481481e-01 1.11777326699507e+00 1.07684829153027e-02
5.45138888888889e-01 1.11062750341475e+00 1.07282888792399e-02
5.48046296296296e-01 1.10352742166503e+00 1.06880928534351e-02
5.50953703703704e-01 1.09647272972082e+00 1.06478975848953e-02
5.53861111111111e-01 1.08946313741145e+00 1.06077057798894e-02
5.56768518518518e-01 1.08249835640960e+00 1.05675200791016e-02
5.59675925925926e-01 1.07557810025482e+00 1.05273430755672e-02
5.62583333333333e-01 1.06870208429455e+00 1.04871773117021e-02
5.65490740740741e-01 1.06187002571914e+00 1.04470252756855e-02
5.68398148148148e-01 1.05508164351524e+00 1.04068894189934e-02
5.71305555555556e-01 1.04833665845489e+00 1.03667721326059e-02
5.74212962962963e-01 1.04163479311752e+00 1.03266757640909e-02
5.77120370370370e-01 1.03497577183398e+00 1.02866026147221e-02
5.80027777777778e-01 1.02835932071931e+00 1.02465549359722e-02
5.82935185185185e-01 1.02178516762842e+00 1.02065349462262e-02
5.85842592592593e-01 1.01525304214557e+00 1.01665448079997e-02
5.88750000000000e-01 1.00876267560481e+00 1.01265866442168e-02
5.91657407407407e-01 1.00231380103688e+00 1.00866625354175e-02
5.94564814814815e-01 9.95906153199875e-01 1.00467745200517e-02
5.97472222222222e-01 9.89539468527073e-01 1.00069245956430e-02
6.00379629629630e-01 9.83213485156959e-01 9.96711471543003e-03
6.03287037037037e-01 9.76927942891847e-01 9.92734680404483e-03
6.06194444444444e-01 9.70682583187791e-01 9.88762273601150e-03
6.09101851851852e-01 9.64477149173191e-01 9.84794435102340e-03
6.12009259259259e-01 9.58311385599269e-01 9.80831345125501e-03
6.14916666666667e-01 9.52185038868144e-01 9.76873179811812e-03
6.17824074074074e-01 9.46097856993504e-01 9.72920112722069e-03
6.20731481481481e-01 9.40049589590812e-01 9.68972312777111e-03
6.23638888888889e-01 9.34039987894647e-01 9.65029945715956e-03
6.26546296296296e-01 9.28068804711644e-01 9.61093173835289e-03
6.29453703703704e-01 9.22135794446796e-01 9.57162155676474e-03
6.32361111111111e-01 9.16240713066028e-01 9.53237047453793e-03
6.35268518518519e-01 9.10383318086699e-01 9.49318001080806e-03
6.38175925925926e-01 9.04563368593766e-01 9.45405165562567e-03
6.41083333333333e-01 8.98780625195047e-01 9.41498686744010e-03
6.43990740740741e-01 8.93034850045868e-01 9.37598707007696e-03
6.46898148148148e-01 8.87325806813435e-01 9.33705366637898e-03
6.49805555555556e-01 8.81653260667615e-01 9.29818801929343e-03
6.52712962962963e-01 8.76016978296017e-01 9.25939146517102e-03
6.55620370370370e-01 8.70416727861434e-01 9.22066531133396e-03
6.58527777777778e-01 8.64852279024953e-01 9.18201083315779e-03
6.61435185185185e-01 8.59323402912024e-01 9.14342928710890e-03
6.64342592592593e-01 8.53829872103506e-01 9.10492189261667e-03
6.67250000000000e-01 8.48371460649750e-01 9.06648984477984e-03
6.70157407407407e-01 8.42947944030089e-01 9.02813431201989e-03
6.73064814814815e-01 8.37559099174515e-01 8.98985643617967e-03
6.75972222222222e-01 8.32204704423892e-01 8.95165733330722e-03
6.78879629629630e-01 8.26884539551153e-01 8.91353809087169e-03
6.81787037037037e-01 8.21598385729536e-01 8.87549978003366e-03
6.84694444444444e-01 8.16346025524006e-01 8.83754343851878e-03
6.87601851851852e-01 8.11127242904081e-01 8.79967008257748e-03
6.90509259259259e-01 8.05941823205946e-01 8.76188070474141e-03
6.93416666666667e-01 8.00789553152348e-01 8.72417627113985e-03
6.96324074074074e-01 7.95670220822305e-01 8.68655773323313e-03
6.99231481481481e-01 7.90583615642791e-01 8.64902601139304e-03
7.02138888888889e-01 7.85529528400707e-01 8.61158200634082e-03
7.05046296296296e-01 7.80507751206788e-01 8.57422659698027e-03
7.07953703703704e-01 7.75518077514282e-01 8.53696063781537e-03
7.10861111111111e-01 7.70560302090053e-01 8.49978497017155e-03
7.13768518518518e-01 7.65634221006520e-01 8.46270040644981e-03
7.16675925925926e-01 7.60739631652834e-01 8.42570774107275e-03
7.19583333333333e-01 7.55876332700478e-01 8.38880774839231e-03
7.22490740740741e-01 7.51044124120807e-01 8.35200118019955e-03
7.25398148148148e-01 7.46242807157476e-01 8.31528877646564e-03
7.28305555555556e-01 7.41472184318621e-01 8.27867125023966e-03
7.31212962962963e-01 7.36732059387297e-01 8.24214929812113e-03
7.34120370370370e-01 7.32022237388678e-01 8.20572359824442e-03
7.37027777777778e-01 7.27342524606537e-01 8.16939480787852e-03
7.39935185185185e-01 7.22692728556926e-01 8.13316357371069e-03
7.42842592592593e-01 7.18072657980588e-01 8.09703051735774e-03
7.45750000000000e-01 7.13482122852710e-01 8.06099624539035e-03
7.48657407407407e-01 7.08920934351638e-01 8.02506134739155e-03
7.51564814814815e-01 7.04388904874365e-01 7.98922639596257e-03
7.54472222222222e-01 6.99885848005771e-01 7.95349194727481e-03
7.57379629629630e-01 6.95411578533784e-01 7.91785853878389e-03
7.60287037037037e-01 6.90965912424665e-01 7.88232669892659e-03
7.63194444444444e-01 6.86548666815742e-01 7.84689693342199e-03
7.66101851851852e-01 6.82159660024309e-01 7.81156973472593e-03
7.69009259259259e-01 6.77798711518280e-01 7.77634558017839e-03
7.71916666666667e-01 6.73465641930437e-01 7.74122492980420e-03
7.74824074074074e-01 6.69160273034815e-01 7.70620823560076e-03
7.77731481481481e-01 6.64882427739660e-01 7.67129592839117e-03
7.80638888888889e-01 6.60631930095745e-01 7.63648842688233e-03
7.83546296296296e-01 6.56408605268349e-01 7.60178613587781e-03
7.86453703703704e-01 6.52212279550665e-01 7.56718944416066e-03
7.89361111111111e-01 6.48042780341216e-01 7.53269873339170e-03
7.92268518518518e-01 6.43899936137042e-01 7.49831436549089e-03
7.95175925925926e-01 6.39783576541461e-01 7.46403669131631e-03
7.98083333333333e-01 6.35693532237316e-01 7.42986604894305e-03
8.00990740740741e-01 6.31629634999578e-01 7.39580276162290e-03
8.03898148148148e-01 6.27591717673767e-01 7.36184714631143e-03
8.06805555555555e-01 6.23579614169333e-01 7.32799950155681e-03
8.09712962962963e-01 6.19593159466920e-01 7.29426011581600e-03
8.12620370370370e-01 6.15632189592802e-01 7.26062926579710e-03
8.15527777777778e-01 6.11696541630743e-01 7.22710721449374e-03
8.18435185185185e-01 6.07786053701358e-01 7.19369421935865e-03
8.21342592592593e-01 6.03900564955700e-01 7.16039052067729e-03
8.24250000000000e-01 6.00039915582042e-01 7.12719634953843e-03
8.27157407407407e-01 5.96203946781454e-01 7.09411192623591e-03
8.30064814814815e-01 5.92392500778964e-01 7.06113746023443e-03
8.32972222222222e-01 5.88605420799531e-01 7.02827315056696e-03
8.35879629629630e-01 5.84842551078975e-01 6.99551918396390e-03
8.38787037037037e-01 5.81103736844554e-01 6.96287574257596e-03
8.41694444444444e-01 5.77388824308823e-01 6.93034299296896e-03
8.44601851851852e-01 5.73697660675827e-01 6.89792109365312e-03
8.47509259259259e-01 5.70030094118137e-01 6.86561019356146e-03
8.50416666666667e-01 5.66385973787139e-01 6.83341043025205e-03
8.53324074074074e-01 5.62765149794438e-01 6.80132193731136e-03
8.56231481481481e-01 5.59167473205916e-01 6.76934483378508e-03
8.59138888888889e-01 5.55592796047513e-01 6.73747923140039e-03
8.62046296296296e-01 5.52040971283268e-01 6.70572523309988e-03
8.64953703703704e-01 5.48511852825010e-01 6.67408293131002e-03
8.67861111111111e-01 5.45005295514554e-01 6.64255241504197e-03
8.70768518518518e-01 5.41521155117938e-01 6.61113375974081e-03
8.73675925925926e-01 5.38059288330832e-01 6.57982703421263e-03
8.76583333333333e-01 5.34619552757530e-01 6.54863229921232e-03
8.79490740740741e-01 5.31201806920076e-01 6.51754960577635e-03
8.82398148148148e-01 5.27805910241216e-01 6.48657900203471e-03
8.85305555555555e-01 5.24431723038816e-01 6.45572052346042e-03
8.88212962962963e-01 5.21079106530910e-01 6.42497419951579e-03
8.91120370370370e-01 5.17747922815604e-01 6.39434005229075e-03
8.94027777777778e-01 5.14438034879670e-01 6.36381809489692e-03
8.96935185185185e-01 5.11149306582224e-01 6.33340833800576e-03
8.99842592592592e-01 5.07881602649303e-01 6.30311078048082e-03
9.02750000000000e-01 5.04634788678593e-01 6.27292541575374e-03
9.05657407407407e-01 5.01408731120193e-01 6.24285223051368e-03
9.08564814814815e-01 4.98203297284709e-01 6.21289120465263e-03
9.11472222222222e-01 4.95018355324328e-01 6.18304231155964e-03
9.14379629629630e-01 4.91853774240746e-01 6.15330551659323e-03
9.17287037037037e-01 4.88709423869777e-01 6.12368078326331e-03
