Energy (eV)          EEDF (eV^-(3/2))     First Anisotropy
5.00000000000000e-03 4.91979783945354e-01 2.37050952061699e-04
1.50000000000000e-02 4.89153596208551e-01 3.91630771478673e-04
2.50000000000000e-02 4.86343643566290e-01 5.17506610611893e-04
3.50000000000000e-02 4.83549832753926e-01 6.13446308676636e-04
4.50000000000000e-02 4.80772071044042e-01 6.93718940906181e-04
5.50000000000000e-02 4.78010266242128e-01 7.63710574113275e-04
6.50000000000000e-02 4.75264326683353e-01 8.26204149828058e-04
7.50000000000000e-02 4.72534161229481e-01 8.82877642709276e-04
8.50000000000000e-02 4.69819679265836e-01 9.34842237310389e-04
9.50000000000000e-02 4.67120790698283e-01 9.82882117789237e-04
1.05000000000000e-01 4.64437405950240e-01 1.02757690951636e-03
1.15000000000000e-01 4.61769435959699e-01 1.06937043441001e-03
1.25000000000000e-01 4.59116792176274e-01 1.10861213964696e-03
1.35000000000000e-01 4.56479386558259e-01 1.14558346126660e-03
1.45000000000000e-01 4.53857131569704e-01 1.18051534926287e-03
1.55000000000000e-01 4.51249940177515e-01 1.21360034134683e-03
1.65000000000000e-01 4.48657725848558e-01 1.24500113325583e-03
1.75000000000000e-01 4.46080402546793e-01 1.27485681841833e-03
1.85000000000000e-01 4.43517884730414e-01 1.30328753094050e-03
1.95000000000000e-01 4.40970087349014e-01 1.33039796665841e-03
2.05000000000000e-01 4.38436925840758e-01 1.35628009822347e-03
2.15000000000000e-01 4.35918316129578e-01 1.38101529982801e-03
2.25000000000000e-01 4.33414174622386e-01 1.40467603196960e-03
2.35000000000000e-01 4.30924418206291e-01 1.42732719323917e-03
2.45000000000000e-01 4.28448964245851e-01 1.44902721658065e-03
2.55000000000000e-01 4.25987730580321e-01 1.46982896698018e-03
2.65000000000000e-01 4.23540635520931e-01 1.48978048307586e-03
2.75000000000000e-01 4.21107597848176e-01 1.50892559480310e-03
2.85000000000000e-01 4.18688536809117e-01 1.52730444163763e-03
2.95000000000000e-01 4.16283372114699e-01 1.54495391042671e-03
3.05000000000000e-01 4.13892023937094e-01 1.56190800764324e-03
3.15000000000000e-01 4.11514412907042e-01 1.57819817775558e-03
3.25000000000000e-01 4.09150460111225e-01 1.59385357701120e-03
3.35000000000000e-01 4.06800087089641e-01 1.60890131008692e-03
3.45000000000000e-01 4.04463215833006e-01 1.62336663562484e-03
3.55000000000000e-01 4.02139768780159e-01 1.63727314554787e-03
3.65000000000000e-01 3.99829668815494e-01 1.65064292216089e-03
3.75000000000000e-01 3.97532839266393e-01 1.66349667633814e-03
3.85000000000000e-01 3.95249203900690e-01 1.67585386952927e-03
3.95000000000000e-01 3.92978686924132e-01 1.68773282186070e-03
4.05000000000000e-01 3.90721212977870e-01 1.69915080823806e-03
4.15000000000000e-01 3.88476707135956e-01 1.71012414405301e-03
4.25000000000000e-01 3.86245094902853e-01 1.72066826184962e-03
4.35000000000000e-01 3.84026302210967e-01 1.73079778009951e-03
4.45000000000000e-01 3.81820255418187e-01 1.74052656506681e-03
4.55000000000000e-01 3.79626881305440e-01 1.74986778660182e-03
4.65000000000000e-01 3.77446107074261e-01 1.75883396858315e-03
4.75000000000000e-01 3.75277860344378e-01 1.76743703462984e-03
4.85000000000000e-01 3.73122069151308e-01 1.77568834962037e-03
4.95000000000000e-01 3.70978661943970e-01 1.78359875748515e-03
5.05000000000000e-01 3.68847567582311e-01 1.79117861567810e-03
5.15000000000000e-01 3.66728715334940e-01 1.79843782668079e-03
5.25000000000000e-01 3.64622034876788e-01 1.80538586685025e-03
5.35000000000000e-01 3.62527456286767e-01 1.81203181288298e-03
5.45000000000000e-01 3.60444910045453e-01 1.81838436613378e-03
5.55000000000000e-01 3.58374327032777e-01 1.82445187500188e-03
5.65000000000000e-01 3.56315638525733e-01 1.83024235557141e-03
5.75000000000000e-01 3.54268776196095e-01 1.83576351067189e-03
5.85000000000000e-01 3.52233672108149e-01 1.84102274750668e-03
5.95000000000000e-01 3.50210258716440e-01 1.84602719398042e-03
6.05000000000000e-01 3.48198468863529e-01 1.85078371384267e-03
6.15000000000000e-01 3.46198235777765e-01 1.85529892075354e-03
6.25000000000000e-01 3.44209493071067e-01 1.85957919136405e-03
6.35000000000000e-01 3.42232174736722e-01 1.86363067749635e-03
6.45000000000000e-01 3.40266215147194e-01 1.86745931749967e-03
6.55000000000000e-01 3.38311549051945e-01 1.87107084685004e-03
6.65000000000000e-01 3.36368111575272e-01 1.87447080805636e-03
6.75000000000000e-01 3.34435838214150e-01 1.87766455992751e-03
6.85000000000000e-01 3.32514664836092e-01 1.88065728625137e-03
6.95000000000000e-01 3.30604527677025e-01 1.88345400393235e-03
7.05000000000000e-01 3.28705363339165e-01 1.88605957062834e-03
7.15000000000000e-01 3.26817108788924e-01 1.88847869192485e-03
7.25000000000000e-01 3.24939701354805e-01 1.89071592808143e-03
7.35000000000000e-01 3.23073078725334e-01 1.89277570038141e-03
7.45000000000000e-01 3.21217178946984e-01 1.89466229711354e-03
7.55000000000000e-01 3.19371940422121e-01 1.89637987921215e-03
7.65000000000000e-01 3.17537301906962e-01 1.89793248558057e-03
7.75000000000000e-01 3.15713202509538e-01 1.89932403811807e-03
7.85000000000000e-01 3.13899581687675e-01 1.90055834647207e-03
7.95000000000000e-01 3.12096379246987e-01 1.90163911253425e-03
8.05000000000000e-01 3.10303535338874e-01 1.90256993469664e-03
8.15000000000000e-01 3.08520990458537e-01 1.90335431188446e-03
8.25000000000000e-01 3.06748685443006e-01 1.90399564737969e-03
8.35000000000000e-01 3.04986561469171e-01 1.90449725244924e-03
8.45000000000000e-01 3.03234560051834e-01 1.90486234978990e-03
8.55000000000000e-01 3.01492623041767e-01 1.90509407680137e-03
8.65000000000000e-01 2.99760692623780e-01 1.90519548869833e-03
8.75000000000000e-01 2.98038711314805e-01 1.90516956147121e-03
8.85000000000000e-01 2.96326621961985e-01 1.90501919470499e-03
8.95000000000000e-01 2.94624367740780e-01 1.90474721426409e-03
9.05000000000000e-01 2.92931892153079e-01 1.90435637485165e-03
9.15000000000000e-01 2.91249139025325e-01 1.90384936245034e-03
9.25000000000000e-01 2.89576052506653e-01 1.90322879665213e-03
9.35000000000000e-01 2.87912577067033e-01 1.90249723288186e-03
9.45000000000000e-01 2.86258657495428e-01 1.90165716452208e-03
9.55000000000000e-01 2.84614238897964e-01 1.90071102494437e-03
9.65000000000000e-01 2.82979266696103e-01 1.89966118945159e-03
9.75000000000000e-01 2.81353686624837e-01 1.89850997713627e-03
9.85000000000000e-01 2.79737444730884e-01 1.89725965266013e-03
9.95000000000000e-01 2.78130487370896e-01 1.89591242795837e-03
1.00500000000000e+00 2.76532761209682e-01 1.89447046387278e-03
1.01500000000000e+00 2.74944213218435e-01 1.89293587171805e-03
1.02500000000000e+00 2.73364790672975e-01 1.89131071478331e-03
1.03500000000000e+00 2.71794441151994e-01 1.88959700977345e-03
1.04500000000000e+00 2.70233112535322e-01 1.88779672819335e-03
1.05500000000000e+00 2.68680753002194e-01 1.88591179767654e-03
1.06500000000000e+00 2.67137311029528e-01 1.88394410326239e-03
1.07500000000000e+00 2.65602735390220e-01 1.88189548862397e-03
1.08500000000000e+00 2.64076975151440e-01 1.87976775724877e-03
1.09500000000000e+00 2.62559979672943e-01 1.87756267357462e-03
1.10500000000000e+00 2.61051698605389e-01 1.87528196408285e-03
1.11500000000000e+00 2.59552081888668e-01 1.87292731835109e-03
1.12500000000000e+00 2.58061079750243e-01 1.87050039006744e-03
1.13500000000000e+00 2.56578642703498e-01 1.86800279800742e-03
1.14500000000000e+00 2.55104721546090e-01 1.86543612697533e-03
1.15500000000000e+00 2.53639267358323e-01 1.86280192871288e-03
1.16500000000000e+00 2.52182231501520e-01 1.86010172277534e-03
1.17500000000000e+00 2.50733565616410e-01 1.85733699737662e-03
1.18500000000000e+00 2.49293221621523e-01 1.85450921020531e-03
1.19500000000000e+00 2.47861151711593e-01 1.85161978921264e-03
1.20500000000000e+00 2.46437308355974e-01 1.84867013337373e-03
1.21500000000000e+00 2.45021644297060e-01 1.84566161342293e-03
1.22500000000000e+00 2.43614112548715e-01 1.84259557256466e-03
1.23500000000000e+00 2.42214666394721e-01 1.83947332716052e-03
1.24500000000000e+00 2.40823259387216e-01 1.83629616739436e-03
1.25500000000000e+00 2.39439845345164e-01 1.83306535791505e-03
1.26500000000000e+00 2.38064378352814e-01 1.82978213845897e-03
1.27500000000000e+00 2.36696812758180e-01 1.82644772445245e-03
1.28500000000000e+00 2.35337103171523e-01 1.82306330759481e-03
1.29500000000000e+00 2.33985204463850e-01 1.81963005642377e-03
1.30500000000000e+00 2.32641071765408e-01 1.81614911686260e-03
1.31500000000000e+00 2.31304660464202e-01 1.81262161275034e-03
1.32500000000000e+00 2.29975926204511e-01 1.80904864635662e-03
1.33500000000000e+00 2.28654824885416e-01 1.80543129887997e-03
1.34500000000000e+00 2.27341312659336e-01 1.80177063093130e-03
1.35500000000000e+00 2.26035345930575e-01 1.79806768300297e-03
1.36500000000000e+00 2.24736881353872e-01 1.79432347592453e-03
1.37500000000000e+00 2.23445875832964e-01 1.79053901130422e-03
1.38500000000000e+00 2.22162286519156e-01 1.78671527195768e-03
1.39500000000000e+00 2.20886070809896e-01 1.78285322232476e-03
1.40500000000000e+00 2.19617186347367e-01 1.77895380887432e-03
1.41500000000000e+00 2.18355591017074e-01 1.77501796049726e-03
1.42500000000000e+00 2.17101242946451e-01 1.77104658888821e-03
1.43500000000000e+00 2.15854100503469e-01 1.76704058891687e-03
1.44500000000000e+00 2.14614122295256e-01 1.76300083898908e-03
1.45500000000000e+00 2.13381267166722e-01 1.75892820139789e-03
1.46500000000000e+00 2.12155494199192e-01 1.75482352266478e-03
1.47500000000000e+00 2.10936762709051e-01 1.75068763387174e-03
1.48500000000000e+00 2.09725032246391e-01 1.74652135098425e-03
1.49500000000000e+00 2.08520262593669e-01 1.74232547516606e-03
1.50500000000000e+00 2.07322413764372e-01 1.73810079308509e-03
1.51500000000000e+00 2.06131446001692e-01 1.73384807721130e-03
1.52500000000000e+00 2.04947319777204e-01 1.72956808610734e-03
1.53500000000000e+00 2.03769995789554e-01 1.72526156471088e-03
1.54500000000000e+00 2.02599434963157e-01 1.72092924460967e-03
1.55500000000000e+00 2.01435598446896e-01 1.71657184431029e-03
1.56500000000000e+00 2.00278447612838e-01 1.71219006949951e-03
1.57500000000000e+00 1.99127944054947e-01 1.70778461329892e-03
1.58500000000000e+00 1.97984049587812e-01 1.70335615651364e-03
1.59500000000000e+00 1.96846726245378e-01 1.69890536787421e-03
1.60500000000000e+00 1.95715936279689e-01 1.69443290427300e-03
1.61500000000000e+00 1.94591642159630e-01 1.68993941099459e-03
1.62500000000000e+00 1.93473806569685e-01 1.68542552194043e-03
1.63500000000000e+00 1.92362392408699e-01 1.68089185984825e-03
1.64500000000000e+00 1.91257362788645e-01 1.67633903650608e-03
1.65500000000000e+00 1.90158681033400e-01 1.67176765296105e-03
1.66500000000000e+00 1.89066310677526e-01 1.66717829972336e-03
1.67500000000000e+00 1.87980215465063e-01 1.66257155696520e-03
1.68500000000000e+00 1.86900359348324e-01 1.65794799471520e-03
1.69500000000000e+00 1.85826706486699e-01 1.65330817304856e-03
1.70500000000000e+00 1.84759221245465e-01 1.64865264227192e-03
1.71500000000000e+00 1.83697868194601e-01 1.64398194310489e-03
1.72500000000000e+00 1.82642612107619e-01 1.63929660685711e-03
1.73500000000000e+00 1.81593417960386e-01 1.63459715560102e-03
1.74500000000000e+00 1.80550250929968e-01 1.62988410234084e-03
1.75500000000000e+00 1.79513076393472e-01 1.62515795117778e-03
1.76500000000000e+00 1.78481859926896e-01 1.62041919747192e-03
1.77500000000000e+00 1.77456567303988e-01 1.61566832799981e-03
1.78500000000000e+00 1.76437164495110e-01 1.61090582110889e-03
1.79500000000000e+00 1.75423617666106e-01 1.60613214686881e-03
1.80500000000000e+00 1.74415893177183e-01 1.60134776721884e-03
1.81500000000000e+00 1.73413957581792e-01 1.59655313611251e-03
1.82500000000000e+00 1.72417777625517e-01 1.59174869965911e-03
1.83500000000000e+00 1.71427320244974e-01 1.58693489626180e-03
1.84500000000000e+00 1.70442552566713e-01 1.58211215675320e-03
1.85500000000000e+00 1.69463441906124e-01 1.57728090452785e-03
1.86500000000000e+00 1.68489955766356e-01 1.57244155567187e-03
1.87500000000000e+00 1.67522061837236e-01 1.56759451909010e-03
1.88500000000000e+00 1.66559727994198e-01 1.56274019663003e-03
1.89500000000000e+00 1.65602922297216e-01 1.55787898320389e-03
1.90500000000000e+00 1.64651612989744e-01 1.55301126690790e-03
1.91500000000000e+00 1.63705768497663e-01 1.54813742913887e-03
1.92500000000000e+00 1.62765357428231e-01 1.54325784470856e-03
1.93500000000000e+00 1.61830348569043e-01 1.53837288195581e-03
1.94500000000000e+00 1.60900710886993e-01 1.53348290285612e-03
1.95500000000000e+00 1.59976413527247e-01 1.52858826312930e-03
1.96500000000000e+00 1.59057425812216e-01 1.52368931234498e-03
1.97500000000000e+00 1.58143717240539e-01 1.51878639402595e-03
1.98500000000000e+00 1.57235257486073e-01 1.51387984574915e-03
1.99500000000000e+00 1.56332016396880e-01 1.50896999924488e-03
2.00500000000000e+00 1.55433963994235e-01 1.50405718049438e-03
2.01500000000000e+00 1.54541070471622e-01 1.49914170982500e-03
2.02500000000000e+00 1.53653306193753e-01 1.49422390200373e-03
2.03500000000000e+00 1.52770641695578e-01 1.48930406632898e-03
2.04500000000000e+00 1.51893047681309e-01 1.48438250672056e-03
2.05500000000000e+00 1.51020495023452e-01 1.47945952180761e-03
2.06500000000000e+00 1.50152954761832e-01 1.47453540501540e-03
2.07500000000000e+00 1.49290398102639e-01 1.46961044465016e-03
2.08500000000000e+00 1.48432796417469e-01 1.46468492398229e-03
2.09500000000000e+00 1.47580121242375e-01 1.45975912132821e-03
2.10500000000000e+00 1.46732344276920e-01 1.45483331013016e-03
2.11500000000000e+00 1.45889437383240e-01 1.44990775903525e-03
2.12500000000000e+00 1.45051372585112e-01 1.44498273197253e-03
2.13500000000000e+00 1.44218122067020e-01 1.44005848822867e-03
2.14500000000000e+00 1.43389658173236e-01 1.43513528252257e-03
2.15500000000000e+00 1.42565953406900e-01 1.43021336507797e-03
2.16500000000000e+00 1.41746980429110e-01 1.42529298169555e-03
2.17500000000000e+00 1.40932712058011e-01 1.42037437382306e-03
2.18500000000000e+00 1.40123121267896e-01 1.41545777862443e-03
2.19500000000000e+00 1.39318181188307e-01 1.41054342904783e-03
2.20500000000000e+00 1.38517865103144e-01 1.40563155389190e-03
2.21500000000000e+00 1.37722146449779e-01 1.40072237787152e-03
2.22500000000000e+00 1.36930998818172e-01 1.39581612168187e-03
2.23500000000000e+00 1.36144395949997e-01 1.39091300206163e-03
2.24500000000000e+00 1.35362311737770e-01 1.38601323185517e-03
2.25500000000000e+00 1.34584720223981e-01 1.38111702007311e-03
2.26500000000000e+00 1.33811595600234e-01 1.37622457195236e-03
2.27500000000000e+00 1.33042912206388e-01 1.37133608901498e-03
2.28500000000000e+00 1.32278644529711e-01 1.36645176912581e-03
2.29500000000000e+00 1.31518767204026e-01 1.36157180654939e-03
2.30500000000000e+00 1.30763255008875e-01 1.35669639200561e-03
2.31500000000000e+00 1.30012082868676e-01 1.35182571272454e-03
2.32500000000000e+00 1.29265225851897e-01 1.34695995250027e-03
2.33500000000000e+00 1.28522659170226e-01 1.34209929174411e-03
2.34500000000000e+00 1.27784358177746e-01 1.33724390753647e-03
2.35500000000000e+00 1.27050298370120e-01 1.33239397367813e-03
2.36500000000000e+00 1.26320455383778e-01 1.32754966074044e-03
2.37500000000000e+00 1.25594804995103e-01 1.32271113611480e-03
2.38500000000000e+00 1.24873323119636e-01 1.31787856406136e-03
2.39500000000000e+00 1.24155985811267e-01 1.31305210575695e-03
2.40500000000000e+00 1.23442769261450e-01 1.30823191934189e-03
2.41500000000000e+00 1.22733649798403e-01 1.30341815996623e-03
2.42500000000000e+00 1.22028603886329e-01 1.29861097983536e-03
2.43500000000000e+00 1.21327608124633e-01 1.29381052825471e-03
2.44500000000000e+00 1.20630639247145e-01 1.28901695167374e-03
2.45500000000000e+00 1.19937674121348e-01 1.28423039372900e-03
2.46500000000000e+00 1.19248689747611e-01 1.27945099528695e-03
2.47500000000000e+00 1.18563663258422e-01 1.27467889448584e-03
2.48500000000000e+00 1.17882571917635e-01 1.26991422677677e-03
2.49500000000000e+00 1.17205393119712e-01 1.26515712496405e-03
2.50500000000000e+00 1.16532104388970e-01 1.26040771924527e-03
2.51500000000000e+00 1.15862683378842e-01 1.25566613725059e-03
2.52500000000000e+00 1.15197107871128e-01 1.25093250408124e-03
2.53500000000000e+00 1.14535355775263e-01 1.24620694234744e-03
2.54500000000000e+00 1.13877405127581e-01 1.24148957220576e-03
2.55500000000000e+00 1.13223234090586e-01 1.23678051139605e-03
2.56500000000000e+00 1.12572820952230e-01 1.23207987527749e-03
2.57500000000000e+00 1.11926144125188e-01 1.22738777686413e-03
2.58500000000000e+00 1.11283182146144e-01 1.22270432686015e-03
2.59500000000000e+00 1.10643913675080e-01 1.21802963369435e-03
2.60500000000000e+00 1.10008317494566e-01 1.21336380355390e-03
2.61500000000000e+00 1.09376372509054e-01 1.20870694041791e-03
2.62500000000000e+00 1.08748057744182e-01 1.20405914609044e-03
2.63500000000000e+00 1.08123352346075e-01 1.19942052023281e-03
2.64500000000000e+00 1.07502235580652e-01 1.19479116039551e-03
2.65500000000000e+00 1.06884686832942e-01 1.19017116204952e-03
2.66500000000000e+00 1.06270685606395e-01 1.18556061861732e-03
2.67500000000000e+00 1.05660211522204e-01 1.18095962150334e-03
2.68500000000000e+00 1.05053244318631e-01 1.17636826012392e-03
2.69500000000000e+00 1.04449763850327e-01 1.17178662193677e-03
2.70500000000000e+00 1.03849750087674e-01 1.16721479247017e-03
2.71500000000000e+00 1.03253183116111e-01 1.16265285535148e-03
2.72500000000000e+00 1.02660043135476e-01 1.15810089233527e-03
2.73500000000000e+00 1.02070310459353e-01 1.15355898333134e-03
2.74500000000000e+00 1.01483965514412e-01 1.14902720643182e-03
2.75500000000000e+00 1.00900988839764e-01 1.14450563793816e-03
2.76500000000000e+00 1.00321361086312e-01 1.13999435238774e-03
2.77500000000000e+00 9.97450630161105e-02 1.13549342257997e-03
2.78500000000000e+00 9.91720755017285e-02 1.13100291960193e-03
2.79500000000000e+00 9.86023795256113e-02 1.12652291285391e-03
2.80500000000000e+00 9.80359561794511e-02 1.12205347007405e-03
2.81500000000000e+00 9.74727866635598e-02 1.11759465736319e-03
2.82500000000000e+00 9.69128522862441e-02 1.11314653920938e-03
2.83500000000000e+00 9.63561344631856e-02 1.10870917851119e-03
2.84500000000000e+00 9.58026147168237e-02 1.10428263660146e-03
2.85500000000000e+00 9.52522746757428e-02 1.09986697327064e-03
2.86500000000000e+00 9.47050960740623e-02 1.09546224678946e-03
2.87500000000000e+00 9.41610607508300e-02 1.09106851393155e-03
2.88500000000000e+00 9.36201506494200e-02 1.08668582999548e-03
2.89500000000000e+00 9.30823478169327e-02 1.08231424882669e-03
2.90500000000000e+00 9.25476344035996e-02 1.07795382283902e-03
2.91500000000000e+00 9.20159926621904e-02 1.07360460303584e-03
2.92500000000000e+00 9.14874049474242e-02 1.06926663903114e-03
2.93500000000000e+00 9.09618537153836e-02 1.06493997906995e-03
2.94500000000000e+00 9.04393215229329e-02 1.06062467004877e-03
2.95500000000000e+00 8.99197910271384e-02 1.05632075753558e-03
2.96500000000000e+00 8.94032449846935e-02 1.05202828578933e-03
2.97500000000000e+00 8.88896662513462e-02 1.04774729777964e-03
2.98500000000000e+00 8.83790377813299e-02 1.04347783520598e-03
2.99500000000000e+00 8.78713426267977e-02 1.03921993851644e-03
3.00500000000000e+00 8.73665639372600e-02 1.03497364692627e-03
3.01500000000000e+00 8.68646849590252e-02 1.03073899843644e-03
3.02500000000000e+00 8.63656890346434e-02 1.02651602985163e-03
3.03500000000000e+00 8.58695596023542e-02 1.02230477679794e-03
3.04500000000000e+00 8.53762801955361e-02 1.01810527374063e-03
3.05500000000000e+00 8.48858344421606e-02 1.01391755400136e-03
3.06500000000000e+00 8.43982060642489e-02 1.00974164977531e-03
3.07500000000000e+00 8.39133788773311e-02 1.00557759214805e-03
3.08500000000000e+00 8.34313367899092e-02 1.00142541111207e-03
3.09500000000000e+00 8.29520638029236e-02 9.97285135583161e-04
3.10500000000000e+00 8.24755440092211e-02 9.93156793416668e-04
3.11500000000000e+00 8.20017615930277e-02 9.89040411423174e-04
3.12500000000000e+00 8.15307008294234e-02 9.84936015384305e-04
3.13500000000000e+00 8.10623460838205e-02 9.80843630068285e-04
3.14500000000000e+00 8.05966818114442e-02 9.76763279245029e-04
3.15500000000000e+00 8.01336925568171e-02 9.72694985701306e-04
