Energy (eV)          EEDF (eV^-(3/2))     First Anisotropy
4.87142857142857e-03 1.14381815382468e+00 7.15556482639346e-04
1.46142857142857e-02 1.13259060045316e+00 1.17975409412728e-03
2.43571428571429e-02 1.12147325510368e+00 1.55256060334869e-03
3.41000000000000e-02 1.11046503602756e+00 1.83285113167018e-03
4.38428571428571e-02 1.09956487201784e+00 2.06420184364928e-03
5.35857142857143e-02 1.08877170245190e+00 2.26316067229529e-03
6.33285714285714e-02 1.07808447706419e+00 2.43832690367410e-03
7.30714285714286e-02 1.06750215594206e+00 2.59491449674771e-03
8.28142857142857e-02 1.05702370935686e+00 2.73639528750319e-03
9.25571428571429e-02 1.04664811767917e+00 2.86523281304540e-03
1.02300000000000e-01 1.03637437131151e+00 2.98325786457417e-03
1.12042857142857e-01 1.02620147050553e+00 3.09187982230843e-03
1.21785714285714e-01 1.01612842543771e+00 3.19221428427555e-03
1.31528571428571e-01 1.00615425593559e+00 3.28516446240086e-03
1.41271428571429e-01 9.96277991448634e-01 3.37147538825674e-03
1.51014285714286e-01 9.86498670952640e-01 3.45177135084782e-03
1.60757142857143e-01 9.76815342858211e-01 3.52658252494903e-03
1.70500000000000e-01 9.67227064916825e-01 3.59636440482020e-03
1.80242857142857e-01 9.57732904076848e-01 3.66151227782138e-03
1.89985714285714e-01 9.48331936553763e-01 3.72237224599755e-03
1.99728571428571e-01 9.39023247574408e-01 3.77924974558107e-03
2.09471428571429e-01 9.29805931345065e-01 3.83241620585344e-03
2.19214285714286e-01 9.20679090962879e-01 3.88211435826490e-03
2.28957142857143e-01 9.11641838329447e-01 3.92856250178818e-03
2.38700000000000e-01 9.02693294063885e-01 3.97195797380223e-03
2.48442857142857e-01 8.93832587382110e-01 4.01247998396363e-03
2.58185714285714e-01 8.85058856119810e-01 4.05029197843186e-03
2.67928571428571e-01 8.76371246538333e-01 4.08554361475669e-03
2.77671428571429e-01 8.67768913279260e-01 4.11837240427439e-03
2.87414285714286e-01 8.59251019281923e-01 4.14890511722413e-03
2.97157142857143e-01 8.50816735702416e-01 4.17725897688767e-03
3.06900000000000e-01 8.42465241832673e-01 4.20354268659142e-03
3.16642857142857e-01 8.34195724994980e-01 4.22785730271428e-03
3.26385714285714e-01 8.26007380541220e-01 4.25029700601873e-03
3.36128571428571e-01 8.17899411694712e-01 4.27094977407890e-03
3.45871428571429e-01 8.09871029499846e-01 4.28989795388640e-03
3.55614285714286e-01 8.01921452745184e-01 4.30721877681857e-03
3.65357142857143e-01 7.94049907887713e-01 4.32298480987317e-03
3.75100000000000e-01 7.86255628977427e-01 4.33726435781598e-03
3.84842857142857e-01 7.78537857563150e-01 4.35012180994261e-03
3.94585714285714e-01 7.70895842678625e-01 4.36161796188839e-03
4.04328571428571e-01 7.63328840708518e-01 4.37181030398540e-03
4.14071428571429e-01 7.55836115336733e-01 4.38075326665314e-03
4.23814285714286e-01 7.48416937474673e-01 4.38849845144132e-03
4.33557142857143e-01 7.41070585190481e-01 4.39509483691654e-03
4.43300000000000e-01 7.33796343638683e-01 4.40058896717549e-03
4.53042857142857e-01 7.26593504975098e-01 4.40502511370156e-03
4.62785714285714e-01 7.19461368335280e-01 4.40844543348310e-03
4.72528571428571e-01 7.12399239718256e-01 4.41089011347202e-03
4.82271428571429e-01 7.05406431935278e-01 4.41239749099449e-03
4.92014285714286e-01 6.98482264542890e-01 4.41300417284785e-03
5.01757142857143e-01 6.91626063776845e-01 4.41274514226575e-03
5.11500000000000e-01 6.84837162486476e-01 4.41165385915802e-03
5.21242857142857e-01 6.78114900057182e-01 4.40976234444113e-03
5.30985714285714e-01 6.71458622384455e-01 4.40710126741210e-03
5.40728571428571e-01 6.64867681771372e-01 4.40370002675152e-03
5.50471428571429e-01 6.58341436878718e-01 4.39958681542230e-03
5.60214285714286e-01 6.51879252662532e-01 4.39478868862523e-03
5.69957142857143e-01 6.45480500312404e-01 4.38933162490321e-03
5.79700000000000e-01 6.39144557190243e-01 4.38324058466573e-03
5.89442857142857e-01 6.32870806759302e-01 4.37653955769553e-03
5.99185714285714e-01 6.26658638555747e-01 4.36925161591049e-03
6.08928571428571e-01 6.20507448097272e-01 4.36139896284669e-03
6.18671428571429e-01 6.14416636835082e-01 4.35300297106393e-03
6.28414285714286e-01 6.08385612095628e-01 4.34408422405014e-03
6.38157142857143e-01 6.02413787022992e-01 4.33466255374320e-03
6.47900000000000e-01 5.96500580521755e-01 4.32475707725329e-03
6.57642857142857e-01 5.90645417191769e-01 4.31438622518571e-03
6.67385714285714e-01 5.84847727298531e-01 4.30356777578960e-03
6.77128571428571e-01 5.79106946691045e-01 4.29231888728532e-03
6.86871428571429e-01 5.73422516755943e-01 4.28065612049310e-03
6.96614285714286e-01 5.67793884363104e-01 4.26859546630076e-03
7.06357142857143e-01 5.62220501811879e-01 4.25615237004814e-03
7.16100000000000e-01 5.56701826777774e-01 4.24334175592414e-03
7.25842857142857e-01 5.51237322252341e-01 4.23017804456212e-03
7.35585714285714e-01 5.45826456513189e-01 4.21667517639977e-03
7.45328571428571e-01 5.40468703049708e-01 4.20284663396650e-03
7.55071428571429e-01 5.35163540519442e-01 4.18870545605002e-03
7.64814285714286e-01 5.29910452697345e-01 4.17426425660841e-03
7.74557142857143e-01 5.24708928425577e-01 4.15953524135365e-03
7.84300000000000e-01 5.19558461563755e-01 4.14453022472489e-03
7.94042857142857e-01 5.14458550933442e-01 4.12926064114419e-03
8.03785714285714e-01 5.09408700288362e-01 4.11373756172932e-03
8.13528571428571e-01 5.04408418246907e-01 4.09797171034492e-03
8.23271428571429e-01 4.99457218250803e-01 4.08197347267843e-03
8.33014285714286e-01 4.94554618517749e-01 4.06575290979302e-03
8.42757142857143e-01 4.89700141994565e-01 4.04931976983051e-03
8.52500000000000e-01 4.84893316310758e-01 4.03268350027577e-03
8.62242857142857e-01 4.80133673727183e-01 4.01585325529672e-03
8.71985714285714e-01 4.75420751106828e-01 3.99883790814907e-03
8.81728571428572e-01 4.70754089853267e-01 3.98164606315673e-03
8.91471428571429e-01 4.66133235871591e-01 3.96428606160078e-03
9.01214285714286e-01 4.61557739524208e-01 3.94676599175907e-03
9.10957142857143e-01 4.57027155587119e-01 3.92909369742128e-03
9.20700000000000e-01 4.52541043206582e-01 3.91127678703127e-03
9.30442857142857e-01 4.48098965851564e-01 3.89332263852292e-03
9.40185714285714e-01 4.43700491285355e-01 3.87523840880977e-03
9.49928571428571e-01 4.39345191509267e-01 3.85703104299457e-03
9.59671428571429e-01 4.35032642725784e-01 3.83870727820036e-03
9.69414285714286e-01 4.30762425297318e-01 3.82027365121416e-03
9.79157142857143e-01 4.26534123705396e-01 3.80173650484197e-03
9.88900000000000e-01 4.22347326510211e-01 3.78310199490434e-03
9.98642857142857e-01 4.18201626306553e-01 3.76437609694194e-03
1.00838571428571e+00 4.14096619680438e-01 3.74556459698801e-03
1.01812857142857e+00 4.10031907233107e-01 3.72667312673100e-03
1.02787142857143e+00 4.06007093403570e-01 3.70770715587525e-03
1.03761428571429e+00 4.02021786553036e-01 3.68867196645445e-03
1.04735714285714e+00 3.98075598923855e-01 3.66957271028700e-03
1.05710000000000e+00 3.94168146490534e-01 3.65041438807973e-03
1.06684285714286e+00 3.90299049034323e-01 3.63120183687797e-03
1.07658571428571e+00 3.86467930068635e-01 3.61193975216404e-03
1.08632857142857e+00 3.82674416836570e-01 3.59263270703249e-03
1.09607142857143e+00 3.78918140171450e-01 3.57328514051727e-03
1.10581428571429e+00 3.75198734564756e-01 3.55390133788819e-03
1.11555714285714e+00 3.71515838128033e-01 3.53448548111924e-03
1.12530000000000e+00 3.67869092460251e-01 3.51504162941280e-03
1.13504285714286e+00 3.64258142710974e-01 3.49557370729685e-03
1.14478571428571e+00 3.60682637512918e-01 3.47608552406706e-03
1.15452857142857e+00 3.57142228977742e-01 3.45658079063687e-03
1.16427142857143e+00 3.53636572571631e-01 3.43706310848792e-03
1.17401428571429e+00 3.50165327172917e-01 3.41753595137426e-03
1.18375714285714e+00 3.46728155036714e-01 3.39800271057505e-03
1.19350000000000e+00 3.43324721676408e-01 3.37846667683531e-03
1.20324285714286e+00 3.39954695917301e-01 3.35893102918382e-03
1.21298571428571e+00 3.36617749835446e-01 3.33939885215671e-03
1.22272857142857e+00 3.33313558752156e-01 3.31987315071085e-03
1.23247142857143e+00 3.30041801122631e-01 3.30035683985348e-03
1.24221428571429e+00 3.26802158584961e-01 3.28085272771711e-03
1.25195714285714e+00 3.23594315927259e-01 3.26136355628013e-03
1.26170000000000e+00 3.20417960981453e-01 3.24189198467590e-03
1.27144285714286e+00 3.17272784668929e-01 3.22244057875387e-03
1.28118571428571e+00 3.14158480944939e-01 3.20301182642142e-03
1.29092857142857e+00 3.11074746792151e-01 3.18360815091836e-03
1.30067142857143e+00 3.08021282120687e-01 3.16423190113936e-03
1.31041428571429e+00 3.04997789809853e-01 3.14488533601437e-03
1.32015714285714e+00 3.02003975677596e-01 3.12557066125918e-03
1.32990000000000e+00 2.99039548385041e-01 3.10629001398061e-03
1.33964285714286e+00 2.96104219475406e-01 3.08704545297181e-03
1.34938571428571e+00 2.93197703323351e-01 3.06783897243942e-03
1.35912857142857e+00 2.90319717127865e-01 3.04867251387385e-03
1.36887142857143e+00 2.87469980822296e-01 3.02954795705352e-03
1.37861428571429e+00 2.84648217109948e-01 3.01046710565155e-03
1.38835714285714e+00 2.81854151435675e-01 2.99143172048413e-03
1.39810000000000e+00 2.79087511899876e-01 2.97244350533059e-03
1.40784285714286e+00 2.76348029291705e-01 2.95350409793649e-03
1.41758571428571e+00 2.73635437042844e-01 2.93461508234132e-03
1.42732857142857e+00 2.70949471219938e-01 2.91577799953393e-03
1.43707142857143e+00 2.68289870443424e-01 2.89699433911103e-03
1.44681428571429e+00 2.65656375917946e-01 2.87826552602740e-03
1.45655714285714e+00 2.63048731405909e-01 2.85959295073917e-03
1.46630000000000e+00 2.60466683149832e-01 2.84097795615210e-03
1.47604285714286e+00 2.57909979900709e-01 2.82242182929714e-03
1.48578571428571e+00 2.55378372875756e-01 2.80392581243597e-03
1.49552857142857e+00 2.52871615750556e-01 2.78549111265554e-03
1.50527142857143e+00 2.50389464585691e-01 2.76711889414806e-03
1.51501428571429e+00 2.47931677852720e-01 2.74881026601970e-03
1.52475714285714e+00 2.45498016409584e-01 2.73056630966755e-03
1.53450000000000e+00 2.43088243430336e-01 2.71238806677312e-03
1.54424285714286e+00 2.40702124429395e-01 2.69427653160927e-03
1.55398571428571e+00 2.38339427222854e-01 2.67623266107054e-03
1.56372857142857e+00 2.35999921920478e-01 2.65825738333595e-03
1.57347142857143e+00 2.33683380859258e-01 2.64035159073266e-03
1.58321428571429e+00 2.31389578625621e-01 2.62251612852237e-03
1.59295714285714e+00 2.29118292032527e-01 2.60475181980414e-03
1.60270000000000e+00 2.26869300055779e-01 2.58705945447158e-03
1.61244285714286e+00 2.24642383854759e-01 2.56943978211010e-03
1.62218571428571e+00 2.22437326736954e-01 2.55189352107581e-03
1.63192857142857e+00 2.20253914149915e-01 2.53442136633495e-03
1.64167142857143e+00 2.18091933620978e-01 2.51702398287248e-03
1.65141428571429e+00 2.15951174776247e-01 2.49970199537903e-03
1.66115714285714e+00 2.13831429319265e-01 2.48245601093445e-03
1.67090000000000e+00 2.11732490973198e-01 2.46528660885101e-03
1.68064285714286e+00 2.09654155498553e-01 2.44819433411994e-03
1.69038571428571e+00 2.07596220660619e-01 2.43117970564512e-03
1.70012857142857e+00 2.05558486221476e-01 2.41424322335093e-03
1.70987142857143e+00 2.03540753885214e-01 2.39738536209800e-03
1.71961428571429e+00 2.01542827314161e-01 2.38060656219731e-03
1.72935714285714e+00 1.99564512109017e-01 2.36390725009753e-03
1.73910000000000e+00 1.97605615756283e-01 2.34728782904339e-03
1.74884285714286e+00 1.95665947643400e-01 2.33074867303040e-03
1.75858571428571e+00 1.93745319028832e-01 2.31429013428434e-03
1.76832857142857e+00 1.91843543034182e-01 2.29791254971741e-03
1.77807142857143e+00 1.89960434594348e-01 2.28161623531356e-03
1.78781428571429e+00 1.88095810471381e-01 2.26540147740241e-03
1.79755714285714e+00 1.86249489235979e-01 2.24926855154682e-03
1.80730000000000e+00 1.84421291219618e-01 2.23321771394942e-03
1.81704285714286e+00 1.82611038527479e-01 2.21724919587745e-03
1.82678571428571e+00 1.80818555010930e-01 2.20136321046724e-03
1.83652857142857e+00 1.79043666259807e-01 2.18555995859652e-03
1.84627142857143e+00 1.77286199556992e-01 2.16983962370447e-03
1.85601428571429e+00 1.75545983890240e-01 2.15420236376364e-03
1.86575714285714e+00 1.73822849934937e-01 2.13864832854044e-03
1.87550000000000e+00 1.72116630010460e-01 2.12317765168876e-03
1.88524285714286e+00 1.70427158091198e-01 2.10779044560852e-03
1.89498571428571e+00 1.68754269781221e-01 2.09248680764417e-03
1.90472857142857e+00 1.67097802306759e-01 2.07726682543344e-03
1.91447142857143e+00 1.65457594474768e-01 2.06213057212825e-03
1.92421428571429e+00 1.63833486683005e-01 2.04707809900716e-03
1.93395714285714e+00 1.62225320903959e-01 2.03210945126336e-03
1.94370000000000e+00 1.60632940645024e-01 2.01722466072842e-03
1.95344285714286e+00 1.59056190957880e-01 2.00242374113087e-03
1.96318571428571e+00 1.57494918415156e-01 1.98770669374911e-03
1.97292857142857e+00 1.55948971103132e-01 1.97307351228918e-03
1.98267142857143e+00 1.54418198583906e-01 1.95852417847553e-03
1.99241428571429e+00 1.52902451903956e-01 1.94405865525083e-03
2.00215714285714e+00 1.51401583579168e-01 1.92967690122912e-03
2.01190000000000e+00 1.49915447558445e-01 1.91537886399756e-03
2.02164285714286e+00 1.48443899231676e-01 1.90116447574389e-03
2.03138571428571e+00 1.46986795408223e-01 1.88703365841676e-03
2.04112857142857e+00 1.45543994309866e-01 1.87298632817848e-03
2.05087142857143e+00 1.44115355536221e-01 1.85902239133738e-03
2.06061428571429e+00 1.42700740072002e-01 1.84514173808645e-03
2.07035714285714e+00 1.41300010273065e-01 1.83134425574418e-03
2.08010000000000e+00 1.39913029833126e-01 1.81762982258658e-03
2.08984285714286e+00 1.38539663790516e-01 1.80399830381420e-03
2.09958571428571e+00 1.37179778508330e-01 1.79044955626781e-03
2.10932857142857e+00 1.35833241667635e-01 1.77698343249680e-03
2.11907142857143e+00 1.34499922235827e-01 1.76359977700596e-03
2.12881428571429e+00 1.33179690472773e-01 1.75029842048904e-03
2.13855714285714e+00 1.31872417917801e-01 1.73707919196667e-03
2.14830000000000e+00 1.30577977359235e-01 1.72394191310558e-03
2.15804285714286e+00 1.29296242840099e-01 1.71088639449829e-03
2.16778571428571e+00 1.28027089639792e-01 1.69791243997588e-03
2.17752857142857e+00 1.26770394267569e-01 1.68501985032833e-03
2.18727142857143e+00 1.25526034433557e-01 1.67220841984103e-03
2.19701428571429e+00 1.24293889053933e-01 1.65947793098258e-03
2.20675714285714e+00 1.23073838238798e-01 1.64682816553909e-03
2.21650000000000e+00 1.21865763264263e-01 1.63425889938022e-03
2.22624285714286e+00 1.20669546577250e-01 1.62176989902652e-03
2.23598571428571e+00 1.19485071778562e-01 1.60936092559699e-03
2.24572857142857e+00 1.18312223616645e-01 1.59703173821380e-03
2.25547142857143e+00 1.17150887961015e-01 1.58478209080589e-03
2.26521428571429e+00 1.16000951806608e-01 1.57261172721370e-03
2.27495714285714e+00 1.14862303262474e-01 1.56052039140832e-03
2.28470000000000e+00 1.13734831526181e-01 1.54850782266817e-03
2.29444285714286e+00 1.12618426887835e-01 1.53657375241145e-03
2.30418571428571e+00 1.11512980714441e-01 1.52471790781158e-03
2.31392857142857e+00 1.10418385443929e-01 1.51294001491549e-03
2.32367142857143e+00 1.09334534560789e-01 1.50123979569308e-03
2.33341428571429e+00 1.08261322599698e-01 1.48961696352477e-03
2.34315714285714e+00 1.07198645134980e-01 1.47807123258600e-03
2.35290000000000e+00 1.06146398757119e-01 1.46660231340112e-03
2.36264285714286e+00 1.05104481076107e-01 1.45520990991978e-03
2.37238571428571e+00 1.04072790706982e-01 1.44389372283023e-03
2.38212857142857e+00 1.03051227264136e-01 1.43265345241744e-03
2.39187142857143e+00 1.02039691338938e-01 1.42148879583862e-03
2.40161428571429e+00 1.01038084502753e-01 1.41039944296281e-03
2.41135714285714e+00 1.00046309297108e-01 1.39938508499333e-03
2.42110000000000e+00 9.90642692121284e-02 1.38844541036784e-03
2.43084285714286e+00 9.80918686893082e-02 1.37758010205937e-03
2.44058571428571e+00 9.71290131081282e-02 1.36678884061499e-03
2.45032857142857e+00 9.61756087806363e-02 1.35607130677653e-03
2.46007142857143e+00 9.52315629308956e-02 1.34542717896484e-03
2.46981428571429e+00 9.42967836974669e-02 1.33485612944260e-03
2.47955714285714e+00 9.33711801242410e-02 1.32435783224027e-03
2.48930000000000e+00 9.24546621406246e-02 1.31393195937448e-03
2.49904285714286e+00 9.15471405638109e-02 1.30357817835595e-03
2.50878571428571e+00 9.06485270863982e-02 1.29329615497778e-03
2.51852857142857e+00 8.97587342712342e-02 1.28308555571992e-03
2.52827142857143e+00 8.88776755325262e-02 1.27294604542548e-03
2.53801428571429e+00 8.80052651378654e-02 1.26287728376086e-03
2.54775714285714e+00 8.71414181996782e-02 1.25287893250470e-03
2.55750000000000e+00 8.62860506570086e-02 1.24295065205902e-03
2.56724285714286e+00 8.54390792773607e-02 1.23309209914757e-03
2.57698571428571e+00 8.46004216452365e-02 1.22330292937566e-03
2.58672857142857e+00 8.37699961572391e-02 1.21358279943734e-03
2.59647142857143e+00 8.29477220046999e-02 1.20393136496881e-03
2.60621428571429e+00 8.21335191753092e-02 1.19434827728205e-03
2.61595714285714e+00 8.13273084451445e-02 1.18483319007059e-03
2.62570000000000e+00 8.05290113619110e-02 1.17538575618976e-03
2.63544285714286e+00 7.97385502464170e-02 1.16600562553071e-03
2.64518571428571e+00 7.89558481819580e-02 1.15669244737150e-03
2.65492857142857e+00 7.81808290096719e-02 1.14744587240428e-03
2.66467142857143e+00 7.74134173125522e-02 1.13826555075187e-03
2.67441428571429e+00 7.66535384167414e-02 1.12915112895286e-03
2.68415714285714e+00 7.59011183840962e-02 1.12010225613328e-03
2.69390000000000e+00 7.51560839967618e-02 1.11111858103478e-03
2.70364285714286e+00 7.44183627583319e-02 1.10219975005006e-03
2.71338571428571e+00 7.36878828840141e-02 1.09334540938342e-03
2.72312857142857e+00 7.29645732962284e-02 1.08455520691361e-03
2.73287142857143e+00 7.22483636098877e-02 1.07582879036049e-03
2.74261428571429e+00 7.15391841334032e-02 1.06716580450168e-03
2.75235714285714e+00 7.08369658617497e-02 1.05856589685498e-03
2.76210000000000e+00 7.01416404622604e-02 1.05002871493425e-03
2.77184285714286e+00 6.94531402755171e-02 1.04155390443405e-03
2.78158571428571e+00 6.87713983062363e-02 1.03314111121590e-03
2.79132857142857e+00 6.80963482191024e-02 1.02478998302044e-03
2.80107142857143e+00 6.74279243252087e-02 1.01650016777295e-03
2.81081428571429e+00 6.67660615828162e-02 1.00827131101296e-03
2.82055714285714e+00 6.61106955908854e-02 1.00010306112788e-03
2.83030000000000e+00 6.54617625759886e-02 9.91995066818860e-04
2.84004285714286e+00 6.48191993929700e-02 9.83946975422741e-04
2.84978571428571e+00 6.41829435164973e-02 9.75958434738678e-04
2.85952857142857e+00 6.35529330371201e-02 9.68029094602720e-04
2.86927142857143e+00 6.29291066487746e-02 9.60158605321230e-04
2.87901428571429e+00 6.23114036493317e-02 9.52346615296709e-04
2.88875714285714e+00 6.16997639345641e-02 9.44592775849455e-04
2.89850000000000e+00 6.10941279860829e-02 9.36896738876891e-04
2.90824285714286e+00 6.04944368718012e-02 9.29258155302237e-04
2.91798571428571e+00 5.99006322381012e-02 9.21676676754846e-04
2.92772857142857e+00 5.93126563061080e-02 9.14151957018920e-04
2.93747142857143e+00 5.87304518601699e-02 9.06683650584698e-04
2.94721428571429e+00 5.81539622482271e-02 8.99271410455010e-04
2.95695714285714e+00 5.75831313761854e-02 8.91914892589126e-04
2.96670000000000e+00 5.70179036967909e-02 8.84613753740028e-04
2.97644285714286e+00 5.64582242099285e-02 8.77367650019881e-04
2.98618571428571e+00 5.59040384553561e-02 8.70176238446617e-04
2.99592857142857e+00 5.53552925091861e-02 8.63039178276962e-04
3.00567142857143e+00 5.48119329732596e-02 8.55956129666594e-04
3.01541428571429e+00 5.42739069753644e-02 8.48926751643247e-04
3.02515714285714e+00 5.37411621639861e-02 8.41950706203261e-04
3.03490000000000e+00 5.32136466980455e-02 8.35027656312984e-04
3.04464285714286e+00 5.26913092470564e-02 8.28157264582137e-04
3.05438571428571e+00 5.21740989843851e-02 8.21339194687574e-04
3.06412857142857e+00 5.16619655839295e-02 8.14573112600431e-04
3.07387142857143e+00 5.11548592103145e-02 8.07858685346702e-04
