Energy (eV)          EEDF (eV^-(3/2))     First Anisotropy
7.56779661016949e-05 2.70664465230986e+02 0.00000000000000e+00
2.27033898305085e-04 2.69084428379157e+02 0.00000000000000e+00
3.78389830508475e-04 2.67513615185736e+02 0.00000000000000e+00
5.29745762711864e-04 2.65951971806161e+02 0.00000000000000e+00
6.81101694915254e-04 2.64399444710464e+02 0.00000000000000e+00
8.32457627118644e-04 2.62855980681202e+02 0.00000000000000e+00
9.83813559322034e-04 2.61321526811609e+02 0.00000000000000e+00
1.13516949152542e-03 2.59796030503774e+02 0.00000000000000e+00
1.28652542372881e-03 2.58279439466833e+02 0.00000000000000e+00
1.43788135593220e-03 2.56771701715180e+02 0.00000000000000e+00
1.58923728813559e-03 2.55272765566680e+02 0.00000000000000e+00
1.74059322033898e-03 2.53782579640898e+02 0.00000000000000e+00
1.89194915254237e-03 2.52301092857342e+02 0.00000000000000e+00
2.04330508474576e-03 2.50828254433707e+02 0.00000000000000e+00
2.19466101694915e-03 2.49364013884135e+02 0.00000000000000e+00
2.34601694915254e-03 2.47908321017488e+02 0.00000000000000e+00
2.49737288135593e-03 2.46461125935622e+02 0.00000000000000e+00
2.64872881355932e-03 2.45022379031681e+02 0.00000000000000e+00
2.80008474576271e-03 2.43592030988396e+02 0.00000000000000e+00
2.95144067796610e-03 2.42170032776393e+02 0.00000000000000e+00
3.10279661016949e-03 2.40756335652511e+02 0.00000000000000e+00
3.25415254237288e-03 2.39350891158137e+02 0.00000000000000e+00
3.40550847457627e-03 2.37953651117537e+02 0.00000000000000e+00
3.55686440677966e-03 2.36564567636212e+02 0.00000000000000e+00
3.70822033898305e-03 2.35183593099252e+02 0.00000000000000e+00
3.85957627118644e-03 2.33810680169703e+02 0.00000000000000e+00
4.01093220338983e-03 2.32445781786948e+02 0.00000000000000e+00
4.16228813559322e-03 2.31088851165093e+02 0.00000000000000e+00
4.31364406779661e-03 2.29739841791360e+02 0.00000000000000e+00
4.46500000000000e-03 2.28398707424498e+02 0.00000000000000e+00
4.61635593220339e-03 2.27065402093191e+02 0.00000000000000e+00
4.76771186440678e-03 2.25739880094489e+02 0.00000000000000e+00
4.91906779661017e-03 2.24422095992239e+02 0.00000000000000e+00
5.07042372881356e-03 2.23112004615526e+02 0.00000000000000e+00
5.22177966101695e-03 2.21809561057124e+02 0.00000000000000e+00
5.37313559322034e-03 2.20514720671962e+02 0.00000000000000e+00
5.52449152542373e-03 2.19227439075587e+02 0.00000000000000e+00
5.67584745762712e-03 2.17947672142647e+02 0.00000000000000e+00
5.82720338983051e-03 2.16675376005378e+02 0.00000000000000e+00
5.97855932203390e-03 2.15410507052098e+02 0.00000000000000e+00
6.12991525423729e-03 2.14153021925713e+02 0.00000000000000e+00
6.28127118644068e-03 2.12902877522234e+02 0.00000000000000e+00
6.43262711864407e-03 2.11660030989293e+02 0.00000000000000e+00
6.58398305084746e-03 2.10424439724681e+02 0.00000000000000e+00
6.73533898305085e-03 2.09196061374885e+02 0.00000000000000e+00
6.88669491525424e-03 2.07974853833632e+02 0.00000000000000e+00
7.03805084745763e-03 2.06760775240453e+02 0.00000000000000e+00
7.18940677966102e-03 2.05553783979244e+02 0.00000000000000e+00
7.34076271186441e-03 2.04353838676839e+02 0.00000000000000e+00
7.49211864406780e-03 2.03160898201594e+02 0.00000000000000e+00
7.64347457627119e-03 2.01974921661974e+02 0.00000000000000e+00
7.79483050847458e-03 2.00795868405157e+02 0.00000000000000e+00
7.94618644067797e-03 1.99623698015633e+02 0.00000000000000e+00
8.09754237288136e-03 1.98458370313825e+02 0.00000000000000e+00
8.24889830508474e-03 1.97299845354707e+02 0.00000000000000e+00
8.40025423728813e-03 1.96148083426440e+02 0.00000000000000e+00
8.55161016949153e-03 1.95003045049005e+02 0.00000000000000e+00
8.70296610169492e-03 1.93864690972854e+02 0.00000000000000e+00
8.85432203389831e-03 1.92732982177561e+02 0.00000000000000e+00
9.00567796610170e-03 1.91607879870489e+02 0.00000000000000e+00
9.15703389830509e-03 1.90489345485457e+02 0.00000000000000e+00
9.30838983050847e-03 1.89377340681418e+02 0.00000000000000e+00
9.45974576271186e-03 1.88271827341146e+02 0.00000000000000e+00
9.61110169491525e-03 1.87172767569928e+02 0.00000000000000e+00
9.76245762711864e-03 1.86080123694269e+02 0.00000000000000e+00
9.91381355932203e-03 1.84993858260594e+02 0.00000000000000e+00
1.00651694915254e-02 1.83913934033970e+02 0.00000000000000e+00
1.02165254237288e-02 1.82840313996827e+02 0.00000000000000e+00
1.03678813559322e-02 1.81772961347689e+02 0.00000000000000e+00
1.05192372881356e-02 1.80711839499913e+02 0.00000000000000e+00
1.06705932203390e-02 1.79656912080437e+02 0.00000000000000e+00
1.08219491525424e-02 1.78608142928530e+02 0.00000000000000e+00
1.09733050847458e-02 1.77565496094551e+02 0.00000000000000e+00
1.11246610169492e-02 1.76528935838724e+02 0.00000000000000e+00
1.12760169491525e-02 1.75498426629906e+02 0.00000000000000e+00
1.14273728813559e-02 1.74473933144371e+02 0.00000000000000e+00
1.15787288135593e-02 1.73455420264600e+02 0.00000000000000e+00
1.17300847457627e-02 1.72442853078077e+02 0.00000000000000e+00
1.18814406779661e-02 1.71436196876092e+02 0.00000000000000e+00
1.20327966101695e-02 1.70435417152551e+02 0.00000000000000e+00
1.21841525423729e-02 1.69440479602795e+02 0.00000000000000e+00
1.23355084745763e-02 1.68451350122420e+02 0.00000000000000e+00
1.24868644067797e-02 1.67467994806113e+02 0.00000000000000e+00
1.26382203389831e-02 1.66490379946487e+02 0.00000000000000e+00
1.27895762711864e-02 1.65518472032924e+02 0.00000000000000e+00
1.29409322033898e-02 1.64552237750430e+02 0.00000000000000e+00
1.30922881355932e-02 1.63591643978493e+02 0.00000000000000e+00
1.32436440677966e-02 1.62636657789942e+02 0.00000000000000e+00
1.33950000000000e-02 1.61687246449826e+02 0.00000000000000e+00
1.35463559322034e-02 1.60743377414286e+02 0.00000000000000e+00
1.36977118644068e-02 1.59805018329443e+02 0.00000000000000e+00
1.38490677966102e-02 1.58872137030287e+02 0.00000000000000e+00
1.40004237288136e-02 1.57944701539576e+02 0.00000000000000e+00
1.41517796610169e-02 1.57022680066738e+02 0.00000000000000e+00
1.43031355932203e-02 1.56106041006783e+02 0.00000000000000e+00
1.44544915254237e-02 1.55194752939219e+02 0.00000000000000e+00
1.46058474576271e-02 1.54288784626975e+02 0.00000000000000e+00
1.47572033898305e-02 1.53388105015329e+02 0.00000000000000e+00
1.49085593220339e-02 1.52492683230847e+02 0.00000000000000e+00
1.50599152542373e-02 1.51602488580320e+02 0.00000000000000e+00
1.52112711864407e-02 1.50717490549717e+02 0.00000000000000e+00
1.53626271186441e-02 1.49837658803134e+02 0.00000000000000e+00
1.55139830508475e-02 1.48962963181758e+02 0.00000000000000e+00
1.56653389830508e-02 1.48093373702831e+02 0.00000000000000e+00
1.58166949152542e-02 1.47228860558622e+02 0.00000000000000e+00
1.59680508474576e-02 1.46369394115410e+02 0.00000000000000e+00
1.61194067796610e-02 1.45514944912459e+02 0.00000000000000e+00
1.62707627118644e-02 1.44665483661019e+02 0.00000000000000e+00
1.64221186440678e-02 1.43820981243314e+02 0.00000000000000e+00
1.65734745762712e-02 1.42981408711546e+02 0.00000000000000e+00
1.67248305084746e-02 1.42146737286904e+02 0.00000000000000e+00
1.68761864406780e-02 1.41316938358578e+02 0.00000000000000e+00
1.70275423728814e-02 1.40491983482774e+02 0.00000000000000e+00
1.71788983050847e-02 1.39671844381747e+02 0.00000000000000e+00
1.73302542372881e-02 1.38856492942822e+02 0.00000000000000e+00
1.74816101694915e-02 1.38045901217438e+02 0.00000000000000e+00
1.76329661016949e-02 1.37240041420186e+02 0.00000000000000e+00
1.77843220338983e-02 1.36438885927857e+02 0.00000000000000e+00
1.79356779661017e-02 1.35642407278499e+02 0.00000000000000e+00
1.80870338983051e-02 1.34850578170468e+02 0.00000000000000e+00
1.82383898305085e-02 1.34063371461501e+02 0.00000000000000e+00
1.83897457627119e-02 1.33280760167778e+02 0.00000000000000e+00
1.85411016949153e-02 1.32502717463002e+02 0.00000000000000e+00
1.86924576271186e-02 1.31729216677478e+02 0.00000000000000e+00
1.88438135593220e-02 1.30960231297197e+02 0.00000000000000e+00
1.89951694915254e-02 1.30195734962930e+02 0.00000000000000e+00
1.91465254237288e-02 1.29435701469324e+02 0.00000000000000e+00
1.92978813559322e-02 1.28680104764001e+02 0.00000000000000e+00
1.94492372881356e-02 1.27928918946668e+02 0.00000000000000e+00
1.96005932203390e-02 1.27182118268228e+02 0.00000000000000e+00
1.97519491525424e-02 1.26439677129897e+02 0.00000000000000e+00
1.99033050847458e-02 1.25701570082328e+02 0.00000000000000e+00
2.00546610169492e-02 1.24967771824738e+02 0.00000000000000e+00
2.02060169491525e-02 1.24238257204038e+02 0.00000000000000e+00
2.03573728813559e-02 1.23513001213977e+02 0.00000000000000e+00
2.05087288135593e-02 1.22791978994276e+02 0.00000000000000e+00
2.06600847457627e-02 1.22075165829786e+02 0.00000000000000e+00
2.08114406779661e-02 1.21362537149633e+02 0.00000000000000e+00
2.09627966101695e-02 1.20654068526379e+02 0.00000000000000e+00
2.11141525423729e-02 1.19949735675183e+02 0.00000000000000e+00
2.12655084745763e-02 1.19249514452973e+02 0.00000000000000e+00
2.14168644067797e-02 1.18553380857610e+02 0.00000000000000e+00
2.15682203389830e-02 1.17861311027076e+02 0.00000000000000e+00
2.17195762711864e-02 1.17173281238647e+02 0.00000000000000e+00
2.18709322033898e-02 1.16489267908084e+02 0.00000000000000e+00
2.20222881355932e-02 1.15809247588823e+02 0.00000000000000e+00
2.21736440677966e-02 1.15133196971175e+02 0.00000000000000e+00
2.23250000000000e-02 1.14461092881521e+02 0.00000000000000e+00
2.24763559322034e-02 1.13792912281523e+02 0.00000000000000e+00
2.26277118644068e-02 1.13128632267330e+02 0.00000000000000e+00
2.27790677966102e-02 1.12468230068798e+02 0.00000000000000e+00
2.29304237288136e-02 1.11811683048703e+02 0.00000000000000e+00
2.30817796610169e-02 1.11158968701972e+02 0.00000000000000e+00
2.32331355932203e-02 1.10510064654905e+02 0.00000000000000e+00
2.33844915254237e-02 1.09864948664414e+02 0.00000000000000e+00
2.35358474576271e-02 1.09223598617255e+02 0.00000000000000e+00
2.36872033898305e-02 1.08585992529276e+02 0.00000000000000e+00
2.38385593220339e-02 1.07952108544657e+02 0.00000000000000e+00
2.39899152542373e-02 1.07321924935165e+02 0.00000000000000e+00
2.41412711864407e-02 1.06695420099409e+02 0.00000000000000e+00
2.42926271186441e-02 1.06072572562099e+02 0.00000000000000e+00
2.44439830508475e-02 1.05453360973308e+02 0.00000000000000e+00
2.45953389830508e-02 1.04837764107743e+02 0.00000000000000e+00
2.47466949152542e-02 1.04225760864017e+02 0.00000000000000e+00
2.48980508474576e-02 1.03617330263922e+02 0.00000000000000e+00
2.50494067796610e-02 1.03012451451716e+02 0.00000000000000e+00
2.52007627118644e-02 1.02411103693403e+02 0.00000000000000e+00
2.53521186440678e-02 1.01813266376026e+02 0.00000000000000e+00
2.55034745762712e-02 1.01218919006957e+02 0.00000000000000e+00
2.56548305084746e-02 1.00628041213197e+02 0.00000000000000e+00
2.58061864406780e-02 1.00040612740676e+02 0.00000000000000e+00
2.59575423728814e-02 9.94566134535601e+01 0.00000000000000e+00
2.61088983050847e-02 9.88760233335620e+01 0.00000000000000e+00
2.62602542372881e-02 9.82988224792521e+01 0.00000000000000e+00
2.64116101694915e-02 9.77249911053782e+01 0.00000000000000e+00
2.65629661016949e-02 9.71545095421870e+01 0.00000000000000e+00
2.67143220338983e-02 9.65873582347499e+01 0.00000000000000e+00
2.68656779661017e-02 9.60235177422923e+01 0.00000000000000e+00
2.70170338983051e-02 9.54629687375279e+01 0.00000000000000e+00
2.71683898305085e-02 9.49056920059953e+01 0.00000000000000e+00
2.73197457627119e-02 9.43516684454003e+01 0.00000000000000e+00
2.74711016949153e-02 9.38008790649604e+01 0.00000000000000e+00
2.76224576271186e-02 9.32533049847542e+01 0.00000000000000e+00
2.77738135593220e-02 9.27089274350742e+01 0.00000000000000e+00
2.79251694915254e-02 9.21677277557833e+01 0.00000000000000e+00
2.80765254237288e-02 9.16296873956752e+01 0.00000000000000e+00
2.82278813559322e-02 9.10947879118387e+01 0.00000000000000e+00
2.83792372881356e-02 9.05630109690250e+01 0.00000000000000e+00
2.85305932203390e-02 9.00343383390199e+01 0.00000000000000e+00
2.86819491525424e-02 8.95087519000185e+01 0.00000000000000e+00
2.88333050847458e-02 8.89862336360040e+01 0.00000000000000e+00
2.89846610169492e-02 8.84667656361307e+01 0.00000000000000e+00
2.91360169491525e-02 8.79503300941091e+01 0.00000000000000e+00
2.92873728813559e-02 8.74369093075965e+01 0.00000000000000e+00
2.94387288135593e-02 8.69264856775896e+01 0.00000000000000e+00
2.95900847457627e-02 8.64190417078216e+01 0.00000000000000e+00
2.97414406779661e-02 8.59145600041621e+01 0.00000000000000e+00
2.98927966101695e-02 8.54130232740211e+01 0.00000000000000e+00
3.00441525423729e-02 8.49144143257563e+01 0.00000000000000e+00
3.01955084745763e-02 8.44187160680836e+01 0.00000000000000e+00
3.03468644067797e-02 8.39259115094915e+01 0.00000000000000e+00
3.04982203389830e-02 8.34359837576583e+01 0.00000000000000e+00
3.06495762711864e-02 8.29489160188735e+01 0.00000000000000e+00
3.08009322033898e-02 8.24646915974619e+01 0.00000000000000e+00
3.09522881355932e-02 8.19832938952113e+01 0.00000000000000e+00
3.11036440677966e-02 8.15047064108035e+01 0.00000000000000e+00
3.12550000000000e-02 8.10289127392489e+01 0.00000000000000e+00
3.14063559322034e-02 8.05558965713240e+01 0.00000000000000e+00
3.15577118644068e-02 8.00856416930123e+01 0.00000000000000e+00
3.17090677966102e-02 7.96181319849487e+01 0.00000000000000e+00
3.18604237288136e-02 7.91533514218668e+01 0.00000000000000e+00
3.20117796610169e-02 7.86912840720497e+01 0.00000000000000e+00
3.21631355932203e-02 7.82319140967838e+01 0.00000000000000e+00
3.23144915254237e-02 7.77752257498160e+01 0.00000000000000e+00
3.24658474576271e-02 7.73212033768136e+01 0.00000000000000e+00
3.26172033898305e-02 7.68698314148284e+01 0.00000000000000e+00
3.27685593220339e-02 7.64210943917625e+01 0.00000000000000e+00
3.29199152542373e-02 7.59749769258384e+01 0.00000000000000e+00
3.30712711864407e-02 7.55314637250716e+01 0.00000000000000e+00
3.32226271186441e-02 7.50905395867462e+01 0.00000000000000e+00
3.33739830508475e-02 7.46521893968944e+01 0.00000000000000e+00
3.35253389830508e-02 7.42163981297778e+01 0.00000000000000e+00
3.36766949152542e-02 7.37831508473725e+01 0.00000000000000e+00
3.38280508474576e-02 7.33524326988573e+01 0.00000000000000e+00
3.39794067796610e-02 7.29242289201045e+01 0.00000000000000e+00
3.41307627118644e-02 7.24985248331736e+01 0.00000000000000e+00
3.42821186440678e-02 7.20753058458086e+01 0.00000000000000e+00
3.44334745762712e-02 7.16545574509374e+01 0.00000000000000e+00
3.45848305084746e-02 7.12362652261748e+01 0.00000000000000e+00
3.47361864406780e-02 7.08204148333280e+01 0.00000000000000e+00
3.48875423728814e-02 7.04069920179052e+01 0.00000000000000e+00
3.50388983050847e-02 6.99959826086268e+01 0.00000000000000e+00
3.51902542372881e-02 6.95873725169400e+01 0.00000000000000e+00
3.53416101694915e-02 6.91811477365354e+01 0.00000000000000e+00
3.54929661016949e-02 6.87772943428673e+01 0.00000000000000e+00
3.56443220338983e-02 6.83757984926761e+01 0.00000000000000e+00
3.57956779661017e-02 6.79766464235142e+01 0.00000000000000e+00
3.59470338983051e-02 6.75798244532736e+01 0.00000000000000e+00
3.60983898305085e-02 6.71853189797176e+01 0.00000000000000e+00
3.62497457627119e-02 6.67931164800140e+01 0.00000000000000e+00
3.64011016949153e-02 6.64032035102719e+01 0.00000000000000e+00
3.65524576271186e-02 6.60155667050806e+01 0.00000000000000e+00
3.67038135593220e-02 6.56301927770518e+01 0.00000000000000e+00
3.68551694915254e-02 6.52470685163639e+01 0.00000000000000e+00
3.70065254237288e-02 6.48661807903091e+01 0.00000000000000e+00
3.71578813559322e-02 6.44875165428436e+01 0.00000000000000e+00
3.73092372881356e-02 6.41110627941397e+01 0.00000000000000e+00
3.74605932203390e-02 6.37368066401411e+01 0.00000000000000e+00
3.76119491525424e-02 6.33647352521205e+01 0.00000000000000e+00
3.77633050847458e-02 6.29948358762398e+01 0.00000000000000e+00
3.79146610169492e-02 6.26270958331132e+01 0.00000000000000e+00
3.80660169491525e-02 6.22615025173720e+01 0.00000000000000e+00
3.82173728813559e-02 6.18980433972332e+01 0.00000000000000e+00
3.83687288135593e-02 6.15367060140694e+01 0.00000000000000e+00
3.85200847457627e-02 6.11774779819821e+01 0.00000000000000e+00
3.86714406779661e-02 6.08203469873769e+01 0.00000000000000e+00
3.88227966101695e-02 6.04653007885415e+01 0.00000000000000e+00
3.89741525423729e-02 6.01123272152263e+01 0.00000000000000e+00
3.91255084745763e-02 5.97614141682267e+01 0.00000000000000e+00
3.92768644067797e-02 5.94125496189689e+01 0.00000000000000e+00
3.94282203389830e-02 5.90657216090974e+01 0.00000000000000e+00
3.95795762711864e-02 5.87209182500648e+01 0.00000000000000e+00
3.97309322033898e-02 5.83781277227248e+01 0.00000000000000e+00
3.98822881355932e-02 5.80373382769267e+01 0.00000000000000e+00
4.00336440677966e-02 5.76985382311127e+01 0.00000000000000e+00
4.01850000000000e-02 5.73617159719178e+01 0.00000000000000e+00
4.03363559322034e-02 5.70268599537710e+01 0.00000000000000e+00
4.04877118644068e-02 5.66939586985002e+01 0.00000000000000e+00
4.06390677966102e-02 5.63630007949387e+01 0.00000000000000e+00
4.07904237288136e-02 5.60339748985335e+01 0.00000000000000e+00
4.09417796610169e-02 5.57068697309572e+01 0.00000000000000e+00
4.10931355932203e-02 5.53816740797207e+01 0.00000000000000e+00
4.12444915254237e-02 5.50583767977893e+01 0.00000000000000e+00
4.13958474576271e-02 5.47369668032006e+01 0.00000000000000e+00
4.15472033898305e-02 5.44174330786843e+01 0.00000000000000e+00
4.16985593220339e-02 5.40997646712849e+01 0.00000000000000e+00
4.18499152542373e-02 5.37839506919860e+01 0.00000000000000e+00
4.20012711864407e-02 5.34699803153373e+01 0.00000000000000e+00
4.21526271186441e-02 5.31578427790832e+01 0.00000000000000e+00
4.23039830508475e-02 5.28475273837943e+01 0.00000000000000e+00
4.24553389830508e-02 5.25390234925002e+01 0.00000000000000e+00
4.26066949152542e-02 5.22323205303254e+01 0.00000000000000e+00
4.27580508474576e-02 5.19274079841262e+01 0.00000000000000e+00
4.29094067796610e-02 5.16242754021309e+01 0.00000000000000e+00
4.30607627118644e-02 5.13229123935811e+01 0.00000000000000e+00
4.32121186440678e-02 5.10233086283760e+01 0.00000000000000e+00
4.33634745762712e-02 5.07254538367178e+01 0.00000000000000e+00
4.35148305084746e-02 5.04293378087599e+01 0.00000000000000e+00
4.36661864406780e-02 5.01349503942570e+01 0.00000000000000e+00
4.38175423728814e-02 4.98422815022171e+01 0.00000000000000e+00
4.39688983050847e-02 4.95513211005556e+01 0.00000000000000e+00
4.41202542372881e-02 4.92620592157513e+01 0.00000000000000e+00
4.42716101694915e-02 4.89744859325048e+01 0.00000000000000e+00
4.44229661016949e-02 4.86885913933983e+01 0.00000000000000e+00
4.45743220338983e-02 4.84043657985582e+01 0.00000000000000e+00
4.47256779661017e-02 4.81217994053185e+01 0.00000000000000e+00
4.48770338983051e-02 4.78408825278874e+01 0.00000000000000e+00
4.50283898305085e-02 4.75616055370149e+01 0.00000000000000e+00
4.51797457627119e-02 4.72839588596633e+01 0.00000000000000e+00
4.53311016949153e-02 4.70079329786782e+01 0.00000000000000e+00
4.54824576271186e-02 4.67335184324632e+01 0.00000000000000e+00
4.56338135593220e-02 4.64607058146547e+01 0.00000000000000e+00
4.57851694915254e-02 4.61894857738003e+01 0.00000000000000e+00
4.59365254237288e-02 4.59198490130375e+01 0.00000000000000e+00
4.60878813559322e-02 4.56517862897756e+01 0.00000000000000e+00
4.62392372881356e-02 4.53852884153786e+01 0.00000000000000e+00
4.63905932203390e-02 4.51203462548502e+01 0.00000000000000e+00
4.65419491525424e-02 4.48569507265209e+01 0.00000000000000e+00
4.66933050847458e-02 4.45950928017363e+01 0.00000000000000e+00
4.68446610169492e-02 4.43347635045482e+01 0.00000000000000e+00
4.69960169491525e-02 4.40759539114063e+01 0.00000000000000e+00
4.71473728813559e-02 4.38186551508529e+01 0.00000000000000e+00
4.72987288135593e-02 4.35628584032182e+01 0.00000000000000e+00
4.74500847457627e-02 4.33085549003186e+01 0.00000000000000e+00
4.76014406779661e-02 4.30557359251556e+01 0.00000000000000e+00
4.77527966101695e-02 4.28043928116174e+01 0.00000000000000e+00
