Energy (eV)          EEDF (eV^-(3/2))     First Anisotropy
2.63265306122449e-03 1.73699320857614e+00 9.15087586541007e-04
7.89795918367347e-03 1.72481396197383e+00 1.51085131509309e-03
1.31632653061224e-02 1.71272011242028e+00 1.99391649759592e-03
1.84285714285714e-02 1.70071106104172e+00 2.36055306672885e-03
2.36938775510204e-02 1.68878621335515e+00 2.66604151585769e-03
2.89591836734694e-02 1.67694497893744e+00 2.93128674748155e-03
3.42244897959184e-02 1.66518677151389e+00 3.16710905732978e-03
3.94897959183673e-02 1.65351100889344e+00 3.38004366664103e-03
4.47551020408163e-02 1.64191711303366e+00 3.57442560934270e-03
5.00204081632653e-02 1.63040450990848e+00 3.75331933289939e-03
5.52857142857143e-02 1.61897262951692e+00 3.91899368855313e-03
6.05510204081633e-02 1.60762090585593e+00 4.07318884199425e-03
6.58163265306122e-02 1.59634877687447e+00 4.21727720055163e-03
7.10816326530612e-02 1.58515568449798e+00 4.35236589395089e-03
7.63469387755102e-02 1.57404107454591e+00 4.47936494314044e-03
8.16122448979592e-02 1.56300439672374e+00 4.59903424957272e-03
8.68775510204082e-02 1.55204510458324e+00 4.71201697150487e-03
9.21428571428572e-02 1.54116265553369e+00 4.81886384390366e-03
9.74081632653061e-02 1.53035651077522e+00 4.92005128413924e-03
1.02673469387755e-01 1.51962613531560e+00 5.01599513709289e-03
1.07938775510204e-01 1.50897099786222e+00 5.10706128464301e-03
1.13204081632653e-01 1.49839057077723e+00 5.19357390859294e-03
1.18469387755102e-01 1.48788433031148e+00 5.27582210854114e-03
1.23734693877551e-01 1.47745175629054e+00 5.35406521040762e-03
1.29000000000000e-01 1.46709233218745e+00 5.42853702518509e-03
1.34265306122449e-01 1.45680554509684e+00 5.49944937741236e-03
1.39530612244898e-01 1.44659088570986e+00 5.56699501273967e-03
1.44795918367347e-01 1.43644784828916e+00 5.63135002129160e-03
1.50061224489796e-01 1.42637593064355e+00 5.69267588102005e-03
1.55326530612245e-01 1.41637463404019e+00 5.75112115170561e-03
1.60591836734694e-01 1.40644346337197e+00 5.80682295636172e-03
1.65857142857143e-01 1.39658192693734e+00 5.85990825142627e-03
1.71122448979592e-01 1.38678953648246e+00 5.91049487792611e-03
1.76387755102041e-01 1.37706580717696e+00 5.95869250302472e-03
1.81653061224490e-01 1.36741025758991e+00 6.00460343043995e-03
1.86918367346939e-01 1.35782240966626e+00 6.04832330808805e-03
1.92183673469388e-01 1.34830178870300e+00 6.08994175575867e-03
1.97448979591837e-01 1.33884792327895e+00 6.12954288932972e-03
2.02714285714286e-01 1.32946034537346e+00 6.16720581814928e-03
2.07979591836735e-01 1.32013859019904e+00 6.20300508763959e-03
2.13244897959184e-01 1.31088219622714e+00 6.23701103756656e-03
2.18510204081633e-01 1.30169070516532e+00 6.26929014939785e-03
2.23775510204082e-01 1.29256366193444e+00 6.29990535043466e-03
2.29040816326531e-01 1.28350061464644e+00 6.32891628691690e-03
2.34306122448980e-01 1.27450111458175e+00 6.35637957610958e-03
2.39571428571429e-01 1.26556471613083e+00 6.38234900942569e-03
2.44836734693878e-01 1.25669097688237e+00 6.40687576588253e-03
2.50102040816327e-01 1.24787945748959e+00 6.43000860683810e-03
2.55367346938775e-01 1.23912972168631e+00 6.45179402233199e-03
2.60632653061225e-01 1.23044133626531e+00 6.47227638838476e-03
2.65897959183673e-01 1.22181387105679e+00 6.49149810462761e-03
2.71163265306122e-01 1.21324689890731e+00 6.50949972023555e-03
2.76428571428571e-01 1.20473999565848e+00 6.52632004938512e-03
2.81693877551020e-01 1.19629274012603e+00 6.54199628248469e-03
2.86959183673469e-01 1.18790471405056e+00 6.55656406762888e-03
2.92224489795918e-01 1.17957550216282e+00 6.57005761118829e-03
2.97489795918367e-01 1.17130469207616e+00 6.58250977146911e-03
3.02755102040816e-01 1.16309187429546e+00 6.59395211893760e-03
3.08020408163265e-01 1.15493664219679e+00 6.60441501260639e-03
3.13285714285714e-01 1.14683859200742e+00 6.61392766575656e-03
3.18551020408163e-01 1.13879732278576e+00 6.62251820698124e-03
3.23816326530612e-01 1.13081243640149e+00 6.63021374156857e-03
3.29081632653061e-01 1.12288353749258e+00 6.63704039017149e-03
3.34346938775510e-01 1.11501023351634e+00 6.64302334753163e-03
3.39612244897959e-01 1.10719213465859e+00 6.64818693793497e-03
3.44877551020408e-01 1.09942885383836e+00 6.65255464367598e-03
3.50142857142857e-01 1.09172000668878e+00 6.65614915003438e-03
3.55408163265306e-01 1.08406521153803e+00 6.65899238284716e-03
3.60673469387755e-01 1.07646408939050e+00 6.66110554375468e-03
3.65938775510204e-01 1.06891626390797e+00 6.66250914741606e-03
3.71204081632653e-01 1.06142136137147e+00 6.66322303999102e-03
3.76469387755102e-01 1.05397901072195e+00 6.66326643679866e-03
3.81734693877551e-01 1.04658884348211e+00 6.66265795829169e-03
3.87000000000000e-01 1.03925049375829e+00 6.66141564310325e-03
3.92265306122449e-01 1.03196359822236e+00 6.65955697677805e-03
3.97530612244898e-01 1.02472779609372e+00 6.65709891480853e-03
4.02795918367347e-01 1.01754272912150e+00 6.65405790441364e-03
4.08061224489796e-01 1.01040804156674e+00 6.65044990884615e-03
4.13326530612245e-01 1.00332338016825e+00 6.64629041560156e-03
4.18591836734694e-01 9.96288394175345e-01 6.64159446242598e-03
4.23857142857143e-01 9.89302735279706e-01 6.63637666239491e-03
4.29122448979592e-01 9.82366057615263e-01 6.63065120897940e-03
4.34387755102041e-01 9.75478017741038e-01 6.62443189563858e-03
4.39653061224490e-01 9.68638274624147e-01 6.61773213074516e-03
4.44918367346939e-01 9.61846489622943e-01 6.61056495178662e-03
4.50183673469388e-01 9.55102326470234e-01 6.60294304222727e-03
4.55448979591837e-01 9.48405451242405e-01 6.59487873421497e-03
4.60714285714286e-01 9.41755532385947e-01 6.58638402762630e-03
4.65979591836735e-01 9.35152240657577e-01 6.57747060857602e-03
4.71244897959184e-01 9.28595249122570e-01 6.56814985017727e-03
4.76510204081633e-01 9.22084233138555e-01 6.55843282662861e-03
4.81775510204082e-01 9.15618870339440e-01 6.54833032332754e-03
4.87040816326531e-01 9.09198840619485e-01 6.53785284654369e-03
4.92306122448980e-01 9.02823826117436e-01 6.52701063570358e-03
4.97571428571429e-01 8.96493511188474e-01 6.51581366305807e-03
5.02836734693878e-01 8.90207582425833e-01 6.50427164829152e-03
5.08102040816327e-01 8.83965728607708e-01 6.49239407281322e-03
5.13367346938776e-01 8.77767640694487e-01 6.48019017814461e-03
5.18632653061225e-01 8.71613011813445e-01 6.46766897649604e-03
5.23897959183673e-01 8.65501537243533e-01 6.45483925787663e-03
5.29163265306122e-01 8.59432914400334e-01 6.44170959692521e-03
5.34428571428571e-01 8.53406842821058e-01 6.42828835947446e-03
5.39693877551020e-01 8.47423024149667e-01 6.41458371155314e-03
5.44959183673469e-01 8.41481162111578e-01 6.40060361722584e-03
5.50224489795918e-01 8.35580962530835e-01 6.38635584990590e-03
5.55489795918367e-01 8.29722133283428e-01 6.37184800348733e-03
5.60755102040816e-01 8.23904384293631e-01 6.35708748933569e-03
5.66020408163265e-01 8.18127427519626e-01 6.34208154425993e-03
5.71285714285714e-01 8.12390976939264e-01 6.32683723548209e-03
5.76551020408163e-01 8.06694748535898e-01 6.31136146543254e-03
5.81816326530612e-01 8.01038460284318e-01 6.29566097883222e-03
5.87081632653061e-01 7.95421832127549e-01 6.27974235966301e-03
5.92346938775510e-01 7.89844585990921e-01 6.26361204046504e-03
5.97612244897959e-01 7.84306445740138e-01 6.24727631152225e-03
6.02877551020408e-01 7.78807137177068e-01 6.23074131721723e-03
6.08142857142857e-01 7.73346388026163e-01 6.21401306243413e-03
6.13408163265306e-01 7.67923927920994e-01 6.19709741626933e-03
6.18673469387755e-01 7.62539488390857e-01 6.18000011562105e-03
6.23938775510204e-01 7.57192802847482e-01 6.16272677091081e-03
6.29204081632653e-01 7.51883606563690e-01 6.14528286260680e-03
6.34469387755102e-01 7.46611636684910e-01 6.12767374903451e-03
6.39734693877551e-01 7.41376632191340e-01 6.10990467412186e-03
6.45000000000000e-01 7.36178333893370e-01 6.09198076345738e-03
6.50265306122449e-01 7.31016484418738e-01 6.07390702955411e-03
6.55530612244898e-01 7.25890828199797e-01 6.05568837467917e-03
6.60795918367347e-01 7.20801111460867e-01 6.03732959360025e-03
6.66061224489796e-01 7.15747082205660e-01 6.01883537830964e-03
6.71326530612245e-01 7.10728490197596e-01 6.00021031435280e-03
6.76591836734694e-01 7.05745086969221e-01 5.98145888750701e-03
6.81857142857143e-01 7.00796625787922e-01 5.96258549042271e-03
6.87122448979592e-01 6.95882861651098e-01 5.94359441859062e-03
6.92387755102041e-01 6.91003551274027e-01 5.92448987475123e-03
6.97653061224490e-01 6.86158453077818e-01 5.90527597109426e-03
7.02918367346939e-01 6.81347327177466e-01 5.88595673139811e-03
7.08183673469388e-01 6.76569935369961e-01 5.86653609500154e-03
7.13448979591837e-01 6.71826041116079e-01 5.84701791308998e-03
7.18714285714286e-01 6.67115409548075e-01 5.82740595448835e-03
7.23979591836735e-01 6.62437807438499e-01 5.80770391143422e-03
7.29244897959184e-01 6.57793003195221e-01 5.78791539557475e-03
7.34510204081633e-01 6.53180766849959e-01 5.76804394172051e-03
7.39775510204082e-01 6.48600870046893e-01 5.74809300958257e-03
7.45040816326531e-01 6.44053086031368e-01 5.72806598546447e-03
7.50306122448980e-01 6.39537189638661e-01 5.70796618565233e-03
7.55571428571429e-01 6.35052957277105e-01 5.68779685275328e-03
7.60836734693878e-01 6.30600166934334e-01 5.66756116077626e-03
7.66102040816327e-01 6.26178598148842e-01 5.64726222020500e-03
7.71367346938776e-01 6.21788032004933e-01 5.62690307410045e-03
7.76632653061225e-01 6.17428251121876e-01 5.60648670133739e-03
7.81897959183673e-01 6.13099039643142e-01 5.58601601799433e-03
7.87163265306122e-01 6.08800183225724e-01 5.56549387871154e-03
7.92428571428571e-01 6.04531469029524e-01 5.54492307801747e-03
7.97693877551020e-01 6.00292685706808e-01 5.52430635319801e-03
8.02959183673469e-01 5.96083623386694e-01 5.50364638076898e-03
8.08224489795918e-01 5.91904073680033e-01 5.48294578090280e-03
8.13489795918367e-01 5.87753829653701e-01 5.46220712185749e-03
8.18755102040816e-01 5.83632685825526e-01 5.44143291625517e-03
8.24020408163265e-01 5.79540438154110e-01 5.42062562384858e-03
8.29285714285714e-01 5.75476884028729e-01 5.39978765262408e-03
8.34551020408163e-01 5.71441822259306e-01 5.37892135987967e-03
8.39816326530612e-01 5.67435053066442e-01 5.35802905473189e-03
8.45081632653061e-01 5.63456378066993e-01 5.33711299473336e-03
8.50346938775510e-01 5.59505600277957e-01 5.31617538982249e-03
8.55612244897959e-01 5.55582524092908e-01 5.29521840628111e-03
8.60877551020408e-01 5.51686955276953e-01 5.27424416318744e-03
8.66142857142857e-01 5.47818700957107e-01 5.25325473485012e-03
8.71408163265306e-01 5.43977569612755e-01 5.23225215171272e-03
8.76673469387755e-01 5.40163371066164e-01 5.21123840123984e-03
8.81938775510204e-01 5.36375916473065e-01 5.19021543012641e-03
8.87204081632653e-01 5.32615018309222e-01 5.16918514107501e-03
8.92469387755102e-01 5.28880490373491e-01 5.14814939634253e-03
8.97734693877551e-01 5.25172147766164e-01 5.12711002129723e-03
9.03000000000000e-01 5.21489806883994e-01 5.10606880105389e-03
9.08265306122449e-01 5.17833285411099e-01 5.08502748263365e-03
9.13530612244898e-01 5.14202402309939e-01 5.06398777571162e-03
9.18795918367347e-01 5.10596977812354e-01 5.04295135335097e-03
9.24061224489796e-01 5.07016833410662e-01 5.02191985396573e-03
9.29326530612245e-01 5.03461791845132e-01 5.00089487826346e-03
9.34591836734694e-01 4.99931677106349e-01 4.97987799244625e-03
9.39857142857143e-01 4.96426314415282e-01 4.95887073142393e-03
9.45122448979592e-01 4.92945530218396e-01 4.93787459563398e-03
9.50387755102041e-01 4.89489152179056e-01 4.91689105296896e-03
9.55653061224490e-01 4.86057009168997e-01 4.89592153940105e-03
9.60918367346939e-01 4.82648931259853e-01 4.87496745959485e-03
9.66183673469388e-01 4.79264749714744e-01 4.85403018865857e-03
9.71448979591837e-01 4.75904296976581e-01 4.83311106925780e-03
9.76714285714286e-01 4.72567406669851e-01 4.81221141451431e-03
9.81979591836735e-01 4.69253913582234e-01 4.79133251092068e-03
9.87244897959184e-01 4.65963653659822e-01 4.77047561534474e-03
9.92510204081633e-01 4.62696463999006e-01 4.74964195675702e-03
9.97775510204082e-01 4.59452182838400e-01 4.72883273351182e-03
1.00304081632653e+00 4.56230649560100e-01 4.70804912793885e-03
1.00830612244898e+00 4.53031704641567e-01 4.68729229163561e-03
1.01357142857143e+00 4.49855189700584e-01 4.66656332874989e-03
1.01883673469388e+00 4.46700947495476e-01 4.64586334716186e-03
1.02410204081633e+00 4.43568821826879e-01 4.62519341953088e-03
1.02936734693878e+00 4.40458657650051e-01 4.60455459329248e-03
1.03463265306122e+00 4.37370300948800e-01 4.58394790283034e-03
1.03989795918367e+00 4.34303598816195e-01 4.56337432774143e-03
1.04516326530612e+00 4.31258399445682e-01 4.54283485545129e-03
1.05042857142857e+00 4.28234552038506e-01 4.52233044089496e-03
1.05569387755102e+00 4.25231906909116e-01 4.50186201601005e-03
1.06095918367347e+00 4.22250315366412e-01 4.48143050129115e-03
1.06622448979592e+00 4.19289629789493e-01 4.46103676603046e-03
1.07148979591837e+00 4.16349703619087e-01 4.44068168794499e-03
1.07675510204082e+00 4.13430391270282e-01 4.42036612413925e-03
1.08202040816327e+00 4.10531548205675e-01 4.40009088245843e-03
1.08728571428571e+00 4.07653030926963e-01 4.37985677954303e-03
1.09255102040816e+00 4.04794696890519e-01 4.35966460336306e-03
1.09781632653061e+00 4.01956404603006e-01 4.33951512202236e-03
1.10308163265306e+00 3.99138013513059e-01 4.31940909444659e-03
1.10834693877551e+00 3.96339384079943e-01 4.29934723344745e-03
1.11361224489796e+00 3.93560377765517e-01 4.27933026103573e-03
1.11887755102041e+00 3.90800856954530e-01 4.25935887270710e-03
1.12414285714286e+00 3.88060685044507e-01 4.23943374581044e-03
1.12940816326531e+00 3.85339726343558e-01 4.21955554971698e-03
1.13467346938776e+00 3.82637846134893e-01 4.19972491059386e-03
1.13993877551020e+00 3.79954910669103e-01 4.17994246412359e-03
1.14520408163265e+00 3.77290787088890e-01 4.16020882144336e-03
1.15046938775510e+00 3.74645343513608e-01 4.14052457710953e-03
1.15573469387755e+00 3.72018448942797e-01 4.12089031876689e-03
1.16100000000000e+00 3.69409973316861e-01 4.10130659355501e-03
1.16626530612245e+00 3.66819787509614e-01 4.08177395837287e-03
1.17153061224490e+00 3.64247763257180e-01 4.06229295531602e-03
1.17679591836735e+00 3.61693773216630e-01 4.04286408744086e-03
1.18206122448980e+00 3.59157690958702e-01 4.02348786772880e-03
1.18732653061224e+00 3.56639390898921e-01 4.00416478740011e-03
1.19259183673469e+00 3.54138748374538e-01 3.98489532331106e-03
1.19785714285714e+00 3.51655639556265e-01 3.96567994692420e-03
1.20312244897959e+00 3.49189941503434e-01 3.94651909305415e-03
1.20838775510204e+00 3.46741532157016e-01 3.92741320657103e-03
1.21365306122449e+00 3.44310290274474e-01 3.90836271216662e-03
1.21891836734694e+00 3.41896095502236e-01 3.88936802139729e-03
1.22418367346939e+00 3.39498828292253e-01 3.87042954122685e-03
1.22944897959184e+00 3.37118369953940e-01 3.85154764419664e-03
1.23471428571429e+00 3.34754602647454e-01 3.83272271298661e-03
1.23997959183673e+00 3.32407409322060e-01 3.81395511155045e-03
1.24524489795918e+00 3.30076673784423e-01 3.79524519183093e-03
1.25051020408163e+00 3.27762280619698e-01 3.77659330189359e-03
1.25577551020408e+00 3.25464115240461e-01 3.75799975745477e-03
1.26104081632653e+00 3.23182063880224e-01 3.73946488440904e-03
1.26630612244898e+00 3.20916013535113e-01 3.72098899799064e-03
1.27157142857143e+00 3.18665852011187e-01 3.70257238221269e-03
1.27683673469388e+00 3.16431467918114e-01 3.68421533131066e-03
1.28210204081633e+00 3.14212750612612e-01 3.66591812286481e-03
1.28736734693878e+00 3.12009590260762e-01 3.64768102404375e-03
1.29263265306122e+00 3.09821877765615e-01 3.62950429916683e-03
1.29789795918367e+00 3.07649504811793e-01 3.61138818318171e-03
1.30316326530612e+00 3.05492363859408e-01 3.59333292123211e-03
1.30842857142857e+00 3.03350348090486e-01 3.57533874299022e-03
1.31369387755102e+00 3.01223351467754e-01 3.55740586860925e-03
1.31895918367347e+00 2.99111268666096e-01 3.53953451593127e-03
1.32422448979592e+00 2.97013995114622e-01 3.52172487515670e-03
1.32948979591837e+00 2.94931426990801e-01 3.50397714663089e-03
1.33475510204082e+00 2.92863461169696e-01 3.48629152230007e-03
1.34002040816327e+00 2.90809995264685e-01 3.46866816741520e-03
1.34528571428571e+00 2.88770927621713e-01 3.45110725736486e-03
1.35055102040816e+00 2.86746157270055e-01 3.43360895375018e-03
1.35581632653061e+00 2.84735583976049e-01 3.41617340993088e-03
1.36108163265306e+00 2.82739108180105e-01 3.39880077772702e-03
1.36634693877551e+00 2.80756631035120e-01 3.38149118381397e-03
1.37161224489796e+00 2.78788054400963e-01 3.36424476490788e-03
1.37687755102041e+00 2.76833280797771e-01 3.34706164490622e-03
1.38214285714286e+00 2.74892213456704e-01 3.32994194017751e-03
1.38740816326531e+00 2.72964756260244e-01 3.31288576595958e-03
1.39267346938776e+00 2.71050813778448e-01 3.29589321379637e-03
1.39793877551020e+00 2.69150291263648e-01 3.27896438515787e-03
1.40320408163265e+00 2.67263094606144e-01 3.26209936959205e-03
1.40846938775510e+00 2.65389130382160e-01 3.24529824977464e-03
1.41373469387755e+00 2.63528305797230e-01 3.22856110761249e-03
1.41900000000000e+00 2.61680528720450e-01 3.21188800268005e-03
1.42426530612245e+00 2.59845707679349e-01 3.19527900434997e-03
1.42953061224490e+00 2.58023751817867e-01 3.17873417599466e-03
1.43479591836735e+00 2.56214570929518e-01 3.16225355939926e-03
1.44006122448980e+00 2.54418075452382e-01 3.14583720609087e-03
1.44532653061224e+00 2.52634176428301e-01 3.12948515695737e-03
1.45059183673469e+00 2.50862785546803e-01 3.11319744695628e-03
1.45585714285714e+00 2.49103815092966e-01 3.09697411079931e-03
1.46112244897959e+00 2.47357177978756e-01 3.08081516283599e-03
1.46638775510204e+00 2.45622787738212e-01 3.06472062700344e-03
1.47165306122449e+00 2.43900558488699e-01 3.04869051734113e-03
1.47691836734694e+00 2.42190404972440e-01 3.03272484248574e-03
1.48218367346939e+00 2.40492242507050e-01 3.01682361109973e-03
1.48744897959184e+00 2.38805987015144e-01 3.00098681263522e-03
1.49271428571429e+00 2.37131555019706e-01 2.98521444597006e-03
1.49797959183673e+00 2.35468863607283e-01 2.96950650076988e-03
1.50324489795918e+00 2.33817830467283e-01 2.95386296178495e-03
1.50851020408163e+00 2.32178373845001e-01 2.93828381403314e-03
1.51377551020408e+00 2.30550412569627e-01 2.92276902440339e-03
1.51904081632653e+00 2.28933866049771e-01 2.90731856904168e-03
1.52430612244898e+00 2.27328654238509e-01 2.89193241986433e-03
1.52957142857143e+00 2.25734697660516e-01 2.87661053125064e-03
1.53483673469388e+00 2.24151917407697e-01 2.86135286675361e-03
1.54010204081633e+00 2.22580235105224e-01 2.84615938170200e-03
1.54536734693878e+00 2.21019572947594e-01 2.83103002720756e-03
1.55063265306122e+00 2.19469853655295e-01 2.81596475500055e-03
1.55589795918367e+00 2.17931000500478e-01 2.80096350025202e-03
1.56116326530612e+00 2.16402937302751e-01 2.78602620712356e-03
1.56642857142857e+00 2.14885588396889e-01 2.77115281212407e-03
1.57169387755102e+00 2.13378878666977e-01 2.75634324793911e-03
1.57695918367347e+00 2.11882733505235e-01 2.74159744805026e-03
1.58222448979592e+00 2.10397078836312e-01 2.72691533030101e-03
1.58748979591837e+00 2.08921841113230e-01 2.71229682134112e-03
1.59275510204082e+00 2.07456947286686e-01 2.69774184457799e-03
1.59802040816327e+00 2.06002324828612e-01 2.68325030828745e-03
1.60328571428571e+00 2.04557901728190e-01 2.66882212945891e-03
1.60855102040816e+00 2.03123606462039e-01 2.65445721824793e-03
1.61381632653061e+00 2.01699368025564e-01 2.64015548155377e-03
1.61908163265306e+00 2.00285115894944e-01 2.62591682732758e-03
1.62434693877551e+00 1.98880780049415e-01 2.61174114922335e-03
1.62961224489796e+00 1.97486290967450e-01 2.59762834941652e-03
1.63487755102041e+00 1.96101579598387e-01 2.58357832372475e-03
1.64014285714286e+00 1.94726577392139e-01 2.56959096502707e-03
1.64540816326531e+00 1.93361216263043e-01 2.55566616738508e-03
1.65067346938776e+00 1.92005428610967e-01 2.54180381134917e-03
1.65593877551020e+00 1.90659147317626e-01 2.52800378579800e-03
1.66120408163265e+00 1.89322305719589e-01 2.51426597369553e-03
