Energy (eV)          EEDF (eV^-(3/2))     First Anisotropy
2.52542372881356e-03 1.40156510539162e+00 6.75137927938845e-04
7.57627118644068e-03 1.39339296354062e+00 1.11534400430042e-03
1.26271186440678e-02 1.38526847121985e+00 1.47370404180118e-03
1.76779661016949e-02 1.37719135055789e+00 1.74676014262368e-03
2.27288135593220e-02 1.36916132540037e+00 1.97516150054793e-03
2.77796610169492e-02 1.36117812110351e+00 2.17425364372877e-03
3.28305084745763e-02 1.35324146469658e+00 2.35196642699512e-03
3.78813559322034e-02 1.34535108474737e+00 2.51308170752294e-03
4.29322033898305e-02 1.33750671143147e+00 2.66076647072364e-03
4.79830508474576e-02 1.32970807651652e+00 2.79725597479167e-03
5.30338983050848e-02 1.32195491329685e+00 2.92420258381425e-03
5.80847457627119e-02 1.31424695665420e+00 3.04287166287249e-03
6.31355932203390e-02 1.30658394298799e+00 3.15425962093650e-03
6.81864406779661e-02 1.29896561025975e+00 3.25916903069847e-03
7.32372881355932e-02 1.29139169793629e+00 3.35825856850166e-03
7.82881355932203e-02 1.28386194701470e+00 3.45207741574077e-03
8.33389830508475e-02 1.27637610001172e+00 3.54108968890152e-03
8.83898305084746e-02 1.26893390092647e+00 3.62569221787414e-03
9.34406779661017e-02 1.26153509526819e+00 3.70622777928916e-03
9.84915254237288e-02 1.25417943001389e+00 3.78299513162449e-03
1.03542372881356e-01 1.24686665363760e+00 3.85625676053186e-03
1.08593220338983e-01 1.23959651601825e+00 3.92624491702649e-03
1.13644067796610e-01 1.23236876860896e+00 3.99316644159403e-03
1.18694915254237e-01 1.22518316417964e+00 4.05720660639524e-03
1.23745762711864e-01 1.21803945706795e+00 4.11853223364150e-03
1.28796610169492e-01 1.21093740297806e+00 4.17729428765420e-03
1.33847457627119e-01 1.20387675898959e+00 4.23362994132230e-03
1.38898305084746e-01 1.19685728370304e+00 4.28766436837343e-03
1.43949152542373e-01 1.18987873702589e+00 4.33951221428734e-03
1.49000000000000e-01 1.18294088036230e+00 4.38927884333714e-03
1.54050847457627e-01 1.17604347641435e+00 4.43706140147313e-03
1.59101694915254e-01 1.16918628935764e+00 4.48294972289012e-03
1.64152542372881e-01 1.16236908465598e+00 4.52702711211477e-03
1.69203389830509e-01 1.15559162922459e+00 4.56937101766975e-03
1.74254237288136e-01 1.14885369125656e+00 4.61005361951343e-03
1.79305084745763e-01 1.14215504037513e+00 4.64914233331330e-03
1.84355932203390e-01 1.13549544750622e+00 4.68670028374801e-03
1.89406779661017e-01 1.12887468487857e+00 4.72278666169961e-03
1.94457627118644e-01 1.12229252611758e+00 4.75745709650828e-03
1.99508474576271e-01 1.11574874610195e+00 4.79076395903738e-03
2.04559322033898e-01 1.10924312108775e+00 4.82275663489361e-03
2.09610169491525e-01 1.10277542857267e+00 4.85348176989475e-03
2.14661016949153e-01 1.09634544741299e+00 4.88298348790672e-03
2.19711864406780e-01 1.08995295769480e+00 4.91130358798418e-03
2.24762711864407e-01 1.08359774084449e+00 4.93848172003121e-03
2.29813559322034e-01 1.07727957950636e+00 4.96455554488130e-03
2.34864406779661e-01 1.07099825764712e+00 4.98956087741128e-03
2.39915254237288e-01 1.06475356043941e+00 5.01353181783701e-03
2.44966101694915e-01 1.05854527436081e+00 5.03650086462444e-03
2.50016949152542e-01 1.05237318710707e+00 5.05849904228552e-03
2.55067796610170e-01 1.04623708758895e+00 5.07955597044617e-03
2.60118644067797e-01 1.04013676599522e+00 5.09969997301226e-03
2.65169491525424e-01 1.03407201369186e+00 5.11895815623154e-03
2.70220338983051e-01 1.02804262330641e+00 5.13735648355720e-03
2.75271186440678e-01 1.02204838863151e+00 5.15491984576199e-03
2.80322033898305e-01 1.01608910470517e+00 5.17167212419106e-03
2.85372881355932e-01 1.01016456771838e+00 5.18763625035617e-03
2.90423728813559e-01 1.00427457509168e+00 5.20283425972083e-03
2.95474576271186e-01 9.98418925386452e-01 5.21728734267935e-03
3.00525423728814e-01 9.92597418378125e-01 5.23101588653355e-03
3.05576271186441e-01 9.86809854989375e-01 5.24403953551771e-03
3.10627118644068e-01 9.81056037286018e-01 5.25637720622215e-03
3.15677966101695e-01 9.75335768524172e-01 5.26804714121182e-03
3.20728813559322e-01 9.69648853071624e-01 5.27906694016401e-03
3.25779661016949e-01 9.63995096471629e-01 5.28945359176254e-03
3.30830508474576e-01 9.58374305367150e-01 5.29922350452206e-03
3.35881355932203e-01 9.52786287562017e-01 5.30839253455782e-03
3.40932203389831e-01 9.47230851947884e-01 5.31697601259193e-03
3.45983050847458e-01 9.41707808562901e-01 5.32498876823715e-03
3.51033898305085e-01 9.36216968521240e-01 5.33244515376100e-03
3.56084745762712e-01 9.30758144069416e-01 5.33935906193659e-03
3.61135593220339e-01 9.25331148532895e-01 5.34574396095694e-03
3.66186440677966e-01 9.19935796311521e-01 5.35161289243951e-03
3.71237288135593e-01 9.14571902916060e-01 5.35697850354940e-03
3.76288135593220e-01 9.09239284904765e-01 5.36185306094698e-03
3.81338983050848e-01 9.03937759933207e-01 5.36624846645884e-03
3.86389830508475e-01 8.98667146692920e-01 5.37017627274096e-03
3.91440677966102e-01 8.93427264959363e-01 5.37364769721293e-03
3.96491525423729e-01 8.88217935532526e-01 5.37667363608130e-03
4.01542372881356e-01 8.83038980283125e-01 5.37926467676666e-03
4.06593220338983e-01 8.77890222095075e-01 5.38143111049869e-03
4.11644067796610e-01 8.72771484910000e-01 5.38318294343124e-03
4.16694915254237e-01 8.67682593671495e-01 5.38452990799341e-03
4.21745762711864e-01 8.62623374368027e-01 5.38548146989406e-03
4.26796610169492e-01 8.57593653990392e-01 5.38604685024860e-03
4.31847457627119e-01 8.52593260527072e-01 5.38623501680524e-03
4.36898305084746e-01 8.47622022992094e-01 5.38605470477132e-03
4.41949152542373e-01 8.42679771374221e-01 5.38551442257800e-03
4.47000000000000e-01 8.37766336675391e-01 5.38462245957369e-03
4.52050847457627e-01 8.32881550861379e-01 5.38338689407440e-03
4.57101694915254e-01 8.28025246898928e-01 5.38181560032466e-03
4.62152542372881e-01 8.23197258707827e-01 5.37991625584121e-03
4.67203389830509e-01 8.18397421196790e-01 5.37769634772457e-03
4.72254237288136e-01 8.13625570216891e-01 5.37516317937594e-03
4.77305084745763e-01 8.08881542596242e-01 5.37232387362332e-03
4.82355932203390e-01 8.04165176104250e-01 5.36918538933085e-03
4.87406779661017e-01 7.99476309447028e-01 5.36575451099518e-03
4.92457627118644e-01 7.94814782289894e-01 5.36203786456372e-03
4.97508474576271e-01 7.90180435214569e-01 5.35804192014224e-03
5.02559322033898e-01 7.85573109750489e-01 5.35377299655511e-03
5.07610169491525e-01 7.80992648333162e-01 5.34923726633710e-03
5.12661016949153e-01 7.76438894334479e-01 5.34444075990610e-03
5.17711864406780e-01 7.71911692022172e-01 5.33938937017268e-03
5.22762711864407e-01 7.67410886589167e-01 5.33408885636258e-03
5.27813559322034e-01 7.62936324114114e-01 5.32854484828203e-03
5.32864406779661e-01 7.58487851589806e-01 5.32276284982691e-03
5.37915254237288e-01 7.54065316884746e-01 5.31674824293679e-03
5.42966101694915e-01 7.49668568770670e-01 5.31050628854618e-03
5.48016949152542e-01 7.45297456892881e-01 5.30404213935512e-03
5.53067796610170e-01 7.40951831765810e-01 5.29736082920026e-03
5.58118644067797e-01 7.36631544790820e-01 5.29046728531883e-03
5.63169491525424e-01 7.32336448220600e-01 5.28336632928306e-03
5.68220338983051e-01 7.28066395184215e-01 5.27606267963546e-03
5.73271186440678e-01 7.23821239652396e-01 5.26856095495557e-03
5.78322033898305e-01 7.19600836461831e-01 5.26086567629467e-03
5.83372881355932e-01 7.15405041281306e-01 5.25298127004117e-03
5.88423728813559e-01 7.11233710635283e-01 5.24491207017070e-03
5.93474576271186e-01 7.07086701870858e-01 5.23666232092769e-03
5.98525423728814e-01 7.02963873180643e-01 5.22823617688445e-03
6.03576271186441e-01 6.98865083577126e-01 5.21963771356794e-03
6.08627118644068e-01 6.94790192888431e-01 5.21087091725533e-03
6.13677966101695e-01 6.90739061773022e-01 5.20193969523451e-03
6.18728813559322e-01 6.86711551688959e-01 5.19284787597968e-03
6.23779661016949e-01 6.82707524914800e-01 5.18359921088481e-03
6.28830508474576e-01 6.78726844519583e-01 5.17419737640419e-03
6.33881355932203e-01 6.74769374383129e-01 5.16464597566428e-03
6.38932203389831e-01 6.70834979166721e-01 5.15494854047868e-03
6.43983050847458e-01 6.66923524332825e-01 5.14510853284700e-03
6.49033898305085e-01 6.63034876116451e-01 5.13512934685523e-03
6.54084745762712e-01 6.59168901544313e-01 5.12501430825522e-03
6.59135593220339e-01 6.55325468412510e-01 5.11476668353450e-03
6.64186440677966e-01 6.51504445282456e-01 5.10438967033705e-03
6.69237288135593e-01 6.47705701493143e-01 5.09388640624267e-03
6.74288135593220e-01 6.43929107134359e-01 5.08325996852927e-03
6.79338983050848e-01 6.40174533064278e-01 5.07251337534923e-03
6.84389830508475e-01 6.36441850883283e-01 5.06164958728174e-03
6.89440677966102e-01 6.32730932951067e-01 5.05067150843463e-03
6.94491525423729e-01 6.29041652361043e-01 5.03958198791646e-03
6.99542372881356e-01 6.25373882956971e-01 5.02838382086424e-03
7.04593220338983e-01 6.21727499307926e-01 5.01707974983961e-03
7.09644067796610e-01 6.18102376724480e-01 5.00567246579161e-03
7.14694915254237e-01 6.14498391234216e-01 4.99416460938055e-03
7.19745762711865e-01 6.10915419597461e-01 4.98255877027446e-03
7.24796610169492e-01 6.07353339288117e-01 4.97085749484306e-03
7.29847457627119e-01 6.03812028489836e-01 4.95906327737815e-03
7.34898305084746e-01 6.00291366105994e-01 4.94717856756331e-03
7.39949152542373e-01 5.96791231736714e-01 4.93520576997293e-03
7.45000000000000e-01 5.93311505693360e-01 4.92314724484335e-03
7.50050847457627e-01 5.89852068976055e-01 4.91100530918122e-03
7.55101694915254e-01 5.86412803287782e-01 4.89878223748633e-03
7.60152542372881e-01 5.82993591012382e-01 4.88648026280835e-03
7.65203389830509e-01 5.79594315228280e-01 4.87410157742645e-03
7.70254237288136e-01 5.76214859686943e-01 4.86164833385748e-03
7.75305084745763e-01 5.72855108826248e-01 4.84912264404314e-03
7.80355932203390e-01 5.69514947753539e-01 4.83652658612439e-03
7.85406779661017e-01 5.66194262242002e-01 4.82386219635088e-03
7.90457627118644e-01 5.62892938739071e-01 4.81113147566525e-03
7.95508474576271e-01 5.59610864346147e-01 4.79833638909777e-03
8.00559322033898e-01 5.56347926830946e-01 4.78547886631585e-03
8.05610169491526e-01 5.53104014607634e-01 4.77256080248202e-03
8.10661016949153e-01 5.49879016748862e-01 4.75958405877105e-03
8.15711864406780e-01 5.46672822966296e-01 4.74655046319135e-03
8.20762711864407e-01 5.43485323622348e-01 4.73346181107302e-03
8.25813559322034e-01 5.40316409711098e-01 4.72031986585284e-03
8.30864406779661e-01 5.37165972869722e-01 4.70712635953506e-03
8.35915254237288e-01 5.34033905359803e-01 4.69388299344520e-03
8.40966101694915e-01 5.30920100078460e-01 4.68059143737009e-03
8.46016949152542e-01 5.27824450543591e-01 4.66725333545765e-03
8.51067796610170e-01 5.24746850890483e-01 4.65387029888507e-03
8.56118644067797e-01 5.21687195878726e-01 4.64044391159969e-03
8.61169491525424e-01 5.18645380874579e-01 4.62697572965916e-03
8.66220338983051e-01 5.15621301861277e-01 4.61346728160753e-03
8.71271186440678e-01 5.12614855421736e-01 4.59992006912670e-03
8.76322033898305e-01 5.09625938748607e-01 4.58633556739135e-03
8.81372881355932e-01 5.06654449627317e-01 4.57271522569566e-03
8.86423728813559e-01 5.03700286445871e-01 4.55906046778805e-03
8.91474576271187e-01 5.00763348178224e-01 4.54537269247300e-03
8.96525423728814e-01 4.97843534393838e-01 4.53165327275634e-03
9.01576271186441e-01 4.94940745244500e-01 4.51790356112222e-03
9.06627118644068e-01 4.92054881461121e-01 4.50412488280560e-03
9.11677966101695e-01 4.89185844359616e-01 4.49031854093348e-03
9.16728813559322e-01 4.86333535825173e-01 4.47648581585679e-03
9.21779661016949e-01 4.83497858321120e-01 4.46262796542643e-03
9.26830508474576e-01 4.80678714873501e-01 4.44874622551991e-03
9.31881355932203e-01 4.77876009079718e-01 4.43484181030273e-03
9.36932203389831e-01 4.75089645093403e-01 4.42091591273481e-03
9.41983050847458e-01 4.72319527632848e-01 4.40696970481848e-03
9.47033898305085e-01 4.69565561966161e-01 4.39300433808756e-03
9.52084745762712e-01 4.66827653919490e-01 4.37902094277406e-03
9.57135593220339e-01 4.64105709865218e-01 4.36502063255451e-03
9.62186440677966e-01 4.61399636718937e-01 4.35100449838000e-03
9.67237288135593e-01 4.58709341944456e-01 4.33697361310000e-03
9.72288135593220e-01 4.56034733539726e-01 4.32292903080587e-03
9.77338983050848e-01 4.53375720044492e-01 4.30887178703528e-03
9.82389830508475e-01 4.50732210526480e-01 4.29480289920405e-03
9.87440677966102e-01 4.48104114588859e-01 4.28072336679970e-03
9.92491525423729e-01 4.45491342356689e-01 4.26663417179841e-03
9.97542372881356e-01 4.42893804484203e-01 4.25253628182664e-03
1.00259322033898e+00 4.40311412133979e-01 4.23843063472808e-03
1.00764406779661e+00 4.37744077024021e-01 4.22431816735464e-03
1.01269491525424e+00 4.35191711334882e-01 4.21019980525055e-03
1.01774576271186e+00 4.32654227784089e-01 4.19607643681551e-03
1.02279661016949e+00 4.30131539598079e-01 4.18194893512214e-03
1.02784745762712e+00 4.27623560532947e-01 4.16781817673134e-03
1.03289830508475e+00 4.25130204800081e-01 4.15368502286865e-03
1.03794915254237e+00 4.22651387134949e-01 4.13955030032870e-03
1.04300000000000e+00 4.20187022770165e-01 4.12541482158339e-03
1.04805084745763e+00 4.17737027455310e-01 4.11127940297810e-03
1.05310169491525e+00 4.15301317385628e-01 4.09714484650719e-03
1.05815254237288e+00 4.12879809267871e-01 4.08301192132640e-03
1.06320338983051e+00 4.10472420294453e-01 4.06888138319886e-03
1.06825423728814e+00 4.08079068162376e-01 4.05475399209558e-03
1.07330508474576e+00 4.05699671004848e-01 4.04063049454896e-03
1.07835593220339e+00 4.03334147454331e-01 4.02651160575065e-03
1.08340677966102e+00 4.00982416617725e-01 4.01239802836051e-03
1.08845762711864e+00 3.98644398094457e-01 3.99829046953649e-03
1.09350847457627e+00 3.96320011910868e-01 3.98418962384387e-03
1.09855932203390e+00 3.94009178580609e-01 3.97009615591871e-03
1.10361016949153e+00 3.91711819080804e-01 3.95601071866452e-03
1.10866101694915e+00 3.89427854869345e-01 3.94193396973242e-03
1.11371186440678e+00 3.87157207821913e-01 3.92786655496600e-03
1.11876271186441e+00 3.84899800289856e-01 3.91380909161182e-03
1.12381355932203e+00 3.82655555077284e-01 3.89976218592624e-03
1.12886440677966e+00 3.80424395457607e-01 3.88572644912564e-03
1.13391525423729e+00 3.78206245113070e-01 3.87170248135108e-03
1.13896610169492e+00 3.76001028190231e-01 3.85769085540336e-03
1.14401694915254e+00 3.73808669277944e-01 3.84369213378306e-03
1.14906779661017e+00 3.71629093423186e-01 3.82970688413234e-03
1.15411864406780e+00 3.69462226072978e-01 3.81573566369849e-03
1.15916949152542e+00 3.67307993127581e-01 3.80177900357693e-03
1.16422033898305e+00 3.65166320919335e-01 3.78783742520603e-03
1.16927118644068e+00 3.63037136227796e-01 3.77391145531839e-03
1.17432203389831e+00 3.60920366223939e-01 3.76000161088616e-03
1.17937288135593e+00 3.58815938521188e-01 3.74610838385379e-03
1.18442372881356e+00 3.56723781155055e-01 3.73223225710784e-03
1.18947457627119e+00 3.54643822597638e-01 3.71837371895563e-03
1.19452542372881e+00 3.52575991703992e-01 3.70453324853660e-03
1.19957627118644e+00 3.50520217761094e-01 3.69071129388981e-03
1.20462711864407e+00 3.48476430484702e-01 3.67690831601164e-03
1.20967796610169e+00 3.46444559967347e-01 3.66312476714980e-03
1.21472881355932e+00 3.44424536725758e-01 3.64936107639648e-03
1.21977966101695e+00 3.42416291681775e-01 3.63561766473910e-03
1.22483050847458e+00 3.40419756175841e-01 3.62189495870970e-03
1.22988135593220e+00 3.38434861916995e-01 3.60819337661729e-03
1.23493220338983e+00 3.36461541028393e-01 3.59451331458429e-03
1.23998305084746e+00 3.34499726028943e-01 3.58085516112429e-03
1.24503389830508e+00 3.32549349846226e-01 3.56721931036656e-03
1.25008474576271e+00 3.30610345768399e-01 3.55360614870961e-03
1.25513559322034e+00 3.28682647487908e-01 3.54001604128461e-03
1.26018644067797e+00 3.26766189083805e-01 3.52644934607808e-03
1.26523728813559e+00 3.24860905034126e-01 3.51290642674611e-03
1.27028813559322e+00 3.22966730169625e-01 3.49938763967534e-03
1.27533898305085e+00 3.21083599715757e-01 3.48589332085799e-03
1.28038983050847e+00 3.19211449275647e-01 3.47242379957633e-03
1.28544067796610e+00 3.17350214841954e-01 3.45897941082157e-03
1.29049152542373e+00 3.15499832752352e-01 3.44556048274616e-03
1.29554237288136e+00 3.13660239729861e-01 3.43216732393936e-03
1.30059322033898e+00 3.11831372866442e-01 3.41880023668777e-03
1.30564406779661e+00 3.10013169634374e-01 3.40545952901157e-03
1.31069491525424e+00 3.08205567843397e-01 3.39214550249722e-03
1.31574576271186e+00 3.06408505679475e-01 3.37885843995834e-03
1.32079661016949e+00 3.04621921688983e-01 3.36559861828734e-03
1.32584745762712e+00 3.02845754789623e-01 3.35236632012335e-03
1.33089830508475e+00 3.01079944229157e-01 3.33916182205212e-03
1.33594915254237e+00 2.99324429622666e-01 3.32598538263866e-03
1.34100000000000e+00 2.97579150937320e-01 3.31283725488480e-03
1.34605084745763e+00 2.95844048502831e-01 3.29971769754092e-03
1.35110169491525e+00 2.94119062971727e-01 3.28662696366102e-03
1.35615254237288e+00 2.92404135355169e-01 3.27356528899542e-03
1.36120338983051e+00 2.90699207008269e-01 3.26053290406691e-03
1.36625423728814e+00 2.89004219640115e-01 3.24753004514000e-03
1.37130508474576e+00 2.87319115275515e-01 3.23455694311711e-03
1.37635593220339e+00 2.85643836289434e-01 3.22161381228096e-03
1.38140677966102e+00 2.83978325392832e-01 3.20870086200301e-03
1.38645762711864e+00 2.82322525642298e-01 3.19581830737884e-03
1.39150847457627e+00 2.80676380403180e-01 3.18296635845792e-03
1.39655932203390e+00 2.79039833382714e-01 3.17014520932184e-03
1.40161016949153e+00 2.77412828616368e-01 3.15735504943748e-03
1.40666101694915e+00 2.75795310477082e-01 3.14459607397184e-03
1.41171186440678e+00 2.74187223639744e-01 3.13186847334248e-03
1.41676271186441e+00 2.72588513113061e-01 3.11917242262145e-03
1.42181355932203e+00 2.70999124226383e-01 3.10650809254505e-03
1.42686440677966e+00 2.69419002638577e-01 3.09387565951800e-03
1.43191525423729e+00 2.67848094303788e-01 3.08127529547530e-03
1.43696610169492e+00 2.66286345502102e-01 3.06870715760087e-03
1.44201694915254e+00 2.64733702826841e-01 3.05617139900514e-03
1.44706779661017e+00 2.63190113193074e-01 3.04366817843029e-03
1.45211864406780e+00 2.61655523804618e-01 3.03119765041070e-03
1.45716949152542e+00 2.60129882183545e-01 3.01875995529773e-03
1.46222033898305e+00 2.58613136157926e-01 3.00635522961650e-03
1.46727118644068e+00 2.57105233869997e-01 2.99398361548105e-03
1.47232203389831e+00 2.55606123744347e-01 2.98164525104587e-03
1.47737288135593e+00 2.54115754516323e-01 2.96934026082501e-03
1.48242372881356e+00 2.52634075220193e-01 2.95706876573889e-03
1.48747457627119e+00 2.51161035196999e-01 2.94483089224871e-03
1.49252542372881e+00 2.49696584063869e-01 2.93262676309032e-03
1.49757627118644e+00 2.48240671741375e-01 2.92045648335305e-03
1.50262711864407e+00 2.46793248451429e-01 2.90832016835391e-03
1.50767796610170e+00 2.45354264687446e-01 2.89621792985095e-03
1.51272881355932e+00 2.43923671240907e-01 2.88414986687835e-03
1.51777966101695e+00 2.42501419190204e-01 2.87211607525189e-03
1.52283050847458e+00 2.41087459907983e-01 2.86011665621228e-03
1.52788135593220e+00 2.39681745032360e-01 2.84815170765231e-03
1.53293220338983e+00 2.38284226492500e-01 2.83622131522071e-03
1.53798305084746e+00 2.36894856497847e-01 2.82432556154522e-03
1.54303389830508e+00 2.35513587545183e-01 2.81246453462121e-03
1.54808474576271e+00 2.34140372390853e-01 2.80063831929540e-03
1.55313559322034e+00 2.32775164075402e-01 2.78884698862960e-03
1.55818644067797e+00 2.31417915913181e-01 2.77709061285103e-03
1.56323728813559e+00 2.30068581499122e-01 2.76536926749469e-03
1.56828813559322e+00 2.28727114681936e-01 2.75368302513461e-03
1.57333898305085e+00 2.27393469587861e-01 2.74203194699948e-03
1.57838983050847e+00 2.26067600610602e-01 2.73041609165974e-03
1.58344067796610e+00 2.24749462417860e-01 2.71883552293058e-03
1.58849152542373e+00 2.23439009925456e-01 2.70729030184379e-03
1.59354237288136e+00 2.22136198320213e-01 2.69578047850704e-03
