Energy (eV)          EEDF (eV^-(3/2))     First Anisotropy
3.07142857142857e-02 1.01279382736734e-01 7.16101864680293e-05
9.21428571428571e-02 1.00034666385560e-01 1.17918556337928e-04
1.53571428571429e-01 9.88052475063716e-02 1.54793505762831e-04
2.15000000000000e-01 9.75909381008805e-02 1.82282459991287e-04
2.76428571428571e-01 9.63915524677035e-02 2.04778031995222e-04
3.37857142857143e-01 9.52069072001349e-02 2.23954660881171e-04
3.99285714285714e-01 9.40368211359429e-02 2.40685630449365e-04
4.60714285714286e-01 9.28811153471182e-02 2.55502290928881e-04
5.22142857142857e-01 9.17396131004681e-02 2.68759667075432e-04
5.83571428571429e-01 9.06121398333620e-02 2.80710521534925e-04
6.45000000000000e-01 8.94985231326537e-02 2.91543311955125e-04
7.06428571428571e-01 8.83985927003743e-02 3.01403581103637e-04
7.67857142857143e-01 8.73121803349264e-02 3.10406891207310e-04
8.29285714285714e-01 8.62391198987478e-02 3.18647083945358e-04
8.90714285714286e-01 8.51792472989901e-02 3.26201790420974e-04
9.52142857142857e-01 8.41324004579434e-02 3.33136241098139e-04
1.01357142857143e+00 8.30984192888942e-02 3.39505978649009e-04
1.07500000000000e+00 8.20771456783961e-02 3.45358842658786e-04
1.13642857142857e+00 8.10684234393364e-02 3.50736447698289e-04
1.19785714285714e+00 8.00720983257874e-02 3.55675311035838e-04
1.25928571428571e+00 7.90880179777775e-02 3.60207727343458e-04
1.32071428571429e+00 7.81160319078565e-02 3.64362451115029e-04
1.38214285714286e+00 7.71559914780087e-02 3.68165242765454e-04
1.44357142857143e+00 7.62077498770696e-02 3.71639307802764e-04
1.50500000000000e+00 7.52711620981864e-02 3.74805654957984e-04
1.56642857142857e+00 7.43460849107052e-02 3.77683388267357e-04
1.62785714285714e+00 7.34323768564927e-02 3.80289952063506e-04
1.68928571428571e+00 7.25298982096224e-02 3.82641336023235e-04
1.75071428571429e+00 7.16385109614002e-02 3.84752244987146e-04
1.81214285714286e+00 7.07580787992220e-02 3.86636245247093e-04
1.87357142857143e+00 6.98884670858054e-02 3.88305888895165e-04
1.93500000000000e+00 6.90295428385565e-02 3.89772821105306e-04
1.99642857142857e+00 6.81811747049781e-02 3.91047870886455e-04
2.05785714285714e+00 6.73432329556067e-02 3.92141132132742e-04
2.11928571428571e+00 6.65155894508729e-02 3.93062034448960e-04
2.18071428571429e+00 6.56981176260382e-02 3.93819402811629e-04
2.24214285714286e+00 6.48906924718188e-02 3.94421511920589e-04
2.30357142857143e+00 6.40931905153146e-02 3.94876133766648e-04
2.36500000000000e+00 6.33054898011013e-02 3.95190580221771e-04
2.42642857142857e+00 6.25274698693782e-02 3.95371739365105e-04
2.48785714285714e+00 6.17590117473305e-02 3.95426109836519e-04
2.54928571428571e+00 6.09999979209671e-02 3.95359831704717e-04
2.61071428571429e+00 6.02503123205381e-02 3.95178712197873e-04
2.67214285714286e+00 5.95098403027710e-02 3.94888250455257e-04
2.73357142857143e+00 5.87784686333690e-02 3.94493659512264e-04
2.79500000000000e+00 5.80560854696784e-02 3.93999886561916e-04
2.85642857142857e+00 5.73425803410940e-02 3.93411630020321e-04
2.91785714285714e+00 5.66378441397648e-02 3.92733356695518e-04
2.97928571428571e+00 5.59417690961786e-02 3.91969317522330e-04
3.04071428571429e+00 5.52542487653046e-02 3.91123560246899e-04
3.10214285714286e+00 5.45751780103059e-02 3.90199942385463e-04
3.16357142857143e+00 5.39044529864815e-02 3.89202142795934e-04
3.22500000000000e+00 5.32419711253757e-02 3.88133672615552e-04
3.28642857142857e+00 5.25876311171093e-02 3.86997884195784e-04
3.34785714285714e+00 5.19413329009306e-02 3.85797980755260e-04
3.40928571428571e+00 5.13029776437733e-02 3.84537025359004e-04
3.47071428571429e+00 5.06724677272237e-02 3.83217947773054e-04
3.53214285714286e+00 5.00497067325855e-02 3.81843551973405e-04
3.59357142857143e+00 4.94345994261498e-02 3.80416522840109e-04
3.65500000000000e+00 4.88270517446236e-02 3.78939432637597e-04
3.71642857142857e+00 4.82269707791391e-02 3.77414746063380e-04
3.77785714285714e+00 4.76342647659376e-02 3.75844826174662e-04
3.83928571428571e+00 4.70488430673709e-02 3.74231939965867e-04
3.90071428571429e+00 4.64706161597215e-02 3.72578262320504e-04
3.96214285714286e+00 4.58994956195080e-02 3.70885880709032e-04
4.02357142857143e+00 4.53353941099732e-02 3.69156799347592e-04
4.08500000000000e+00 4.47782253677227e-02 3.67392943319627e-04
4.14642857142857e+00 4.42279041882138e-02 3.65596161588740e-04
4.20785714285714e+00 4.36843464167414e-02 3.63768230892146e-04
4.26928571428571e+00 4.31474689314953e-02 3.61910859439292e-04
4.33071428571429e+00 4.26171896322269e-02 3.60025689296799e-04
4.39214285714286e+00 4.20934274276905e-02 3.58114299507646e-04
4.45357142857143e+00 4.15761022232505e-02 3.56178208821523e-04
4.51500000000000e+00 4.10651349086291e-02 3.54218878465378e-04
4.57642857142857e+00 4.05604473447122e-02 3.52237714012576e-04
4.63785714285714e+00 4.00619623549335e-02 3.50236068079809e-04
4.69928571428571e+00 3.95696037100936e-02 3.48215242908780e-04
4.76071428571429e+00 3.90832961178445e-02 3.46176491851173e-04
4.82214285714286e+00 3.86029652111736e-02 3.44121021539131e-04
4.88357142857143e+00 3.81285375370367e-02 3.42049993757731e-04
4.94500000000000e+00 3.76599405451227e-02 3.39964527390773e-04
5.00642857142857e+00 3.71971025758404e-02 3.37865699611673e-04
5.06785714285714e+00 3.67399528521518e-02 3.35754547831585e-04
5.12928571428571e+00 3.62884214659197e-02 3.33632071576146e-04
5.19071428571429e+00 3.58424393681736e-02 3.31499233428082e-04
5.25214285714286e+00 3.54019383585475e-02 3.29356960595235e-04
5.31357142857143e+00 3.49668510748561e-02 3.27206146240232e-04
5.37500000000000e+00 3.45371109827904e-02 3.25047650895942e-04
5.43642857142857e+00 3.41126523649681e-02 3.22882303236557e-04
5.49785714285714e+00 3.36934103132401e-02 3.20710901532788e-04
5.55928571428571e+00 3.32793207163777e-02 3.18534215061300e-04
5.62071428571429e+00 3.28703202510751e-02 3.16352984707799e-04
5.68214285714286e+00 3.24663463722637e-02 3.14167924134595e-04
5.74357142857143e+00 3.20673373035515e-02 3.11979720751795e-04
5.80500000000000e+00 3.16732320277738e-02 3.09789036776684e-04
5.86642857142857e+00 3.12839702770043e-02 3.07596509736073e-04
5.92785714285714e+00 3.08994925253389e-02 3.05402753583025e-04
5.98928571428571e+00 3.05197399777673e-02 3.03208359783402e-04
6.05071428571429e+00 3.01446545618658e-02 3.01013897700085e-04
6.11214285714286e+00 2.97741789189155e-02 2.98819915483994e-04
6.17357142857143e+00 2.94082563951337e-02 2.96626940799931e-04
6.23500000000000e+00 2.90468310330086e-02 2.94435481637979e-04
6.29642857142857e+00 2.86898475621798e-02 2.92246026639226e-04
6.35785714285714e+00 2.83372513926944e-02 2.90059045971740e-04
6.41928571428571e+00 2.79889886049301e-02 2.87874992186119e-04
6.48071428571429e+00 2.76450059419326e-02 2.85694300455429e-04
6.54214285714286e+00 2.73052508012712e-02 2.83517389268960e-04
6.60357142857143e+00 2.69696712269964e-02 2.81344660984931e-04
6.66500000000000e+00 2.66382159016936e-02 2.79176502463973e-04
6.72642857142857e+00 2.63108341381529e-02 2.77013285276289e-04
6.78785714285714e+00 2.59874758730835e-02 2.74855366401140e-04
6.84928571428571e+00 2.56680916579749e-02 2.72703088912332e-04
6.91071428571429e+00 2.53526326520351e-02 2.70556782121332e-04
6.97214285714286e+00 2.50410506147212e-02 2.68416762126475e-04
7.03357142857143e+00 2.47332978983642e-02 2.66283332240363e-04
7.09500000000000e+00 2.44293274408815e-02 2.64156783492225e-04
7.15642857142857e+00 2.41290927581642e-02 2.62037394754335e-04
7.21785714285714e+00 2.38325479382315e-02 2.59925433308830e-04
7.27928571428571e+00 2.35396476329317e-02 2.57821155404746e-04
7.34071428571429e+00 2.32503470514391e-02 2.55724806335497e-04
7.40214285714286e+00 2.29646019534031e-02 2.53636620879643e-04
7.46357142857143e+00 2.26823686421847e-02 2.51556823635575e-04
7.52500000000000e+00 2.24036039581736e-02 2.49485629425151e-04
7.58642857142857e+00 2.21282652718281e-02 2.47423243364516e-04
7.64785714285714e+00 2.18563104782485e-02 2.45369861328947e-04
7.70928571428571e+00 2.15876979896331e-02 2.43325670410921e-04
7.77071428571429e+00 2.13223867292916e-02 2.41290848952783e-04
7.83214285714286e+00 2.10603361253627e-02 2.39265566904514e-04
7.89357142857143e+00 2.08015061046109e-02 2.37249986088577e-04
7.95500000000000e+00 2.05458570862981e-02 2.35244260527737e-04
8.01642857142857e+00 2.02933499758184e-02 2.33248536477404e-04
8.07785714285714e+00 2.00439461596671e-02 2.31262952810710e-04
8.13928571428571e+00 1.97976074985776e-02 2.29287641398871e-04
8.20071428571429e+00 1.95542963220123e-02 2.27322727113263e-04
8.26214285714286e+00 1.93139754224013e-02 2.25368328118596e-04
8.32357142857143e+00 1.90766080494537e-02 2.23424556084305e-04
8.38500000000000e+00 1.88421579045370e-02 2.21491516453171e-04
8.44642857142857e+00 1.86105891348544e-02 2.19569308447023e-04
8.50785714285714e+00 1.83818663287872e-02 2.17658025388456e-04
8.56928571428571e+00 1.81559545096450e-02 2.15757755019225e-04
8.63071428571429e+00 1.79328191305986e-02 2.13868579481573e-04
8.69214285714286e+00 1.77124260693964e-02 2.11990575560404e-04
8.75357142857143e+00 1.74947416231474e-02 2.10123814853185e-04
8.81500000000000e+00 1.72797325031667e-02 2.08268363991709e-04
8.87642857142857e+00 1.70673658296479e-02 2.06424284629458e-04
8.93785714285714e+00 1.68576091273542e-02 2.04591633712282e-04
8.99928571428571e+00 1.66504303199252e-02 2.02770463746749e-04
9.06071428571429e+00 1.64457977252164e-02 2.00960822767645e-04
9.12214285714286e+00 1.62436800504546e-02 1.99162754539351e-04
9.18357142857143e+00 1.60440463874528e-02 1.97376298693103e-04
9.24500000000000e+00 1.58468662078834e-02 1.95601490911303e-04
9.30642857142857e+00 1.56521093584025e-02 1.93838362902411e-04
9.36785714285714e+00 1.54597460566675e-02 1.92086942630006e-04
9.42928571428572e+00 1.52697468861471e-02 1.90347254540295e-04
9.49071428571429e+00 1.50820827918373e-02 1.88619319520628e-04
9.55214285714286e+00 1.48967250758173e-02 1.86903155067899e-04
9.61357142857143e+00 1.47136453928625e-02 1.85198775399952e-04
9.67500000000000e+00 1.45328157461087e-02 1.83506191609539e-04
9.73642857142857e+00 1.43542084825897e-02 1.81825411630953e-04
9.79785714285714e+00 1.41777962895594e-02 1.80156440434860e-04
9.85928571428571e+00 1.40035521897579e-02 1.78499280222111e-04
9.92071428571429e+00 1.38314495374738e-02 1.76853930376763e-04
9.98214285714286e+00 1.36614620144697e-02 1.75220387439171e-04
1.00435714285714e+01 1.34935636266175e-02 1.73598645830881e-04
1.01050000000000e+01 1.33277286974370e-02 1.71988697347379e-04
1.01664285714286e+01 1.31639318671842e-02 1.70390530895808e-04
1.02278571428571e+01 1.30021480877841e-02 1.68804132966660e-04
1.02892857142857e+01 1.28423526205454e-02 1.67229488610283e-04
1.03507142857143e+01 1.26845210277028e-02 1.65666580709824e-04
1.04121428571429e+01 1.25286291733929e-02 1.64115388847720e-04
1.04735714285714e+01 1.23746532198423e-02 1.62575891775479e-04
1.05350000000000e+01 1.22225696193015e-02 1.61048066299512e-04
1.05964285714286e+01 1.20723551149008e-02 1.59531886560513e-04
1.06578571428571e+01 1.19239867355957e-02 1.58027324931067e-04
1.07192857142857e+01 1.17774417940131e-02 1.56534352765772e-04
1.07807142857143e+01 1.16326978788690e-02 1.55052939741677e-04
1.08421428571429e+01 1.14897328556879e-02 1.53583052833704e-04
1.09035714285714e+01 1.13485248633135e-02 1.52124658527787e-04
1.09650000000000e+01 1.12090523066715e-02 1.50677721813769e-04
1.10264285714286e+01 1.10712938573926e-02 1.49242205532115e-04
1.10878571428571e+01 1.09352284492314e-02 1.47818071174963e-04
1.11492857142857e+01 1.08008352760435e-02 1.46405279555311e-04
1.12107142857143e+01 1.06680937849774e-02 1.45003790208708e-04
1.12721428571429e+01 1.05369836769875e-02 1.43613560466928e-04
1.13335714285714e+01 1.04074849036377e-02 1.42234547443217e-04
1.13950000000000e+01 1.02795776606015e-02 1.40866707121691e-04
1.14564285714286e+01 1.01532423880955e-02 1.39509993765108e-04
1.15178571428571e+01 1.00284597667243e-02 1.38164360630721e-04
1.15792857142857e+01 9.90521071558467e-03 1.36829760568027e-04
1.16407142857143e+01 9.78347638614564e-03 1.35506145476085e-04
1.17021428571429e+01 9.66323816259426e-03 1.34193465465767e-04
1.17635714285714e+01 9.54447765890799e-03 1.32891670642223e-04
1.18250000000000e+01 9.42717671300899e-03 1.31600710281332e-04
1.18864285714286e+01 9.31131738704550e-03 1.30320532292763e-04
1.19478571428571e+01 9.19688196362048e-03 1.29051083860454e-04
1.20092857142857e+01 9.08385294401773e-03 1.27792311977209e-04
1.20707142857143e+01 8.97221304269559e-03 1.26544162952418e-04
1.21321428571429e+01 8.86194518749716e-03 1.25306581654219e-04
1.21935714285714e+01 8.75303251696871e-03 1.24079513111255e-04
1.22550000000000e+01 8.64545837509728e-03 1.22862901767590e-04
1.23164285714286e+01 8.53920631146939e-03 1.21656690995881e-04
1.23778571428571e+01 8.43426007784576e-03 1.20460823671005e-04
1.24392857142857e+01 8.33060362650478e-03 1.19275242648690e-04
1.25007142857143e+01 8.22822110528296e-03 1.18099890318933e-04
1.25621428571429e+01 8.12709685767680e-03 1.16934707920214e-04
1.26235714285714e+01 8.02721542038623e-03 1.15779636979990e-04
1.26850000000000e+01 7.92856151857280e-03 1.14634618640394e-04
1.27464285714286e+01 7.83112006592031e-03 1.13499593216763e-04
1.28078571428571e+01 7.73487616152216e-03 1.12374500711885e-04
1.28692857142857e+01 7.63981508833661e-03 1.11259281244950e-04
1.29307142857143e+01 7.54592230871571e-03 1.10153874646360e-04
1.29921428571429e+01 7.45318346442091e-03 1.09058219836933e-04
1.30535714285714e+01 7.36158437437246e-03 1.07972256124314e-04
1.31150000000000e+01 7.27111103037290e-03 1.06895922592542e-04
1.31764285714286e+01 7.18174959709002e-03 1.05829157701608e-04
1.32378571428571e+01 7.09348640922669e-03 1.04771899748905e-04
1.32992857142857e+01 7.00630797008238e-03 1.03724087253956e-04
1.33607142857143e+01 6.92020094751905e-03 1.02685658590734e-04
1.34221428571429e+01 6.83515217390868e-03 1.01656551425548e-04
1.34835714285714e+01 6.75114864407124e-03 1.00636703884506e-04
1.35450000000000e+01 6.66817751141475e-03 9.96260540007323e-05
1.36064285714286e+01 6.58622608785718e-03 9.86245393510968e-05
1.36678571428571e+01 6.50528184125197e-03 9.76320974705826e-05
1.37292857142857e+01 6.42533239405009e-03 9.66486661976532e-05
1.37907142857143e+01 6.34636551965721e-03 9.56741833405424e-05
1.38521428571429e+01 6.26836914232834e-03 9.47085861680914e-05
1.39135714285714e+01 6.19133133527838e-03 9.37518124617585e-05
1.39750000000000e+01 6.11524031719552e-03 9.28038000148757e-05
1.40364285714286e+01 6.04008445211592e-03 9.18644863030206e-05
1.40978571428571e+01 5.96585224708078e-03 9.09338088563837e-05
1.41592857142857e+01 5.89253235089314e-03 9.00117055700224e-05
1.42207142857143e+01 5.82011355082610e-03 8.90981144009239e-05
1.42821428571429e+01 5.74858477247685e-03 8.81929729066694e-05
1.43435714285714e+01 5.67793507803523e-03 8.72962191939341e-05
1.44050000000000e+01 5.60815366313222e-03 8.64077914647484e-05
1.44664285714286e+01 5.53922985667867e-03 8.55276277173275e-05
1.45278571428571e+01 5.47115311873228e-03 8.46556660809178e-05
1.45892857142857e+01 5.40391303934345e-03 8.37918450947051e-05
1.46507142857143e+01 5.33749933557880e-03 8.29361034327451e-05
1.47121428571429e+01 5.27190185134458e-03 8.20883794858319e-05
1.47735714285714e+01 5.20711055580017e-03 8.12486122171368e-05
1.48350000000000e+01 5.14311554050736e-03 8.04167407509307e-05
1.48964285714286e+01 5.07990701924261e-03 7.95927041009914e-05
1.49578571428571e+01 5.01747532605430e-03 7.87764414719011e-05
1.50192857142857e+01 4.95581091419222e-03 7.79678925099233e-05
1.50807142857143e+01 4.89490435341440e-03 7.71669970531924e-05
1.51421428571429e+01 4.83474632978843e-03 7.63736947526304e-05
1.52035714285714e+01 4.77532764423740e-03 7.55879258441868e-05
1.52650000000000e+01 4.71663920995999e-03 7.48096307759409e-05
1.53264285714286e+01 4.65867205222363e-03 7.40387499614898e-05
1.53878571428571e+01 4.60141730659455e-03 7.32752240512115e-05
1.54492857142857e+01 4.54486621794552e-03 7.25189941580610e-05
1.55107142857143e+01 4.48901013801769e-03 7.17700016306513e-05
1.55721428571429e+01 4.43384052520643e-03 7.10281877094682e-05
1.56335714285714e+01 4.37934894322878e-03 7.02934942241625e-05
1.56950000000000e+01 4.32552705878715e-03 6.95658632553496e-05
1.57564285714286e+01 4.27236664134972e-03 6.88452369106395e-05
1.58178571428571e+01 4.21985956153727e-03 6.81315575689884e-05
1.58792857142857e+01 4.16799779020418e-03 6.74247680840193e-05
1.59407142857143e+01 4.11677339622985e-03 6.67248115778541e-05
1.60021428571429e+01 4.06617854629466e-03 6.60316311292530e-05
1.60635714285714e+01 4.01620550365869e-03 6.53451704035133e-05
1.61250000000000e+01 3.96684662604489e-03 6.46653733456540e-05
1.61864285714286e+01 3.91809436541174e-03 6.39921839769492e-05
1.62478571428571e+01 3.86994126648254e-03 6.33255466151508e-05
1.63092857142857e+01 3.82237996589483e-03 6.26654060576663e-05
1.63707142857143e+01 3.77540319019865e-03 6.20117073942050e-05
1.64321428571429e+01 3.72900375562715e-03 6.13643957238075e-05
1.64935714285714e+01 3.68317456697722e-03 6.07234167240762e-05
1.65550000000000e+01 3.63790861569056e-03 6.00887163727638e-05
1.66164285714286e+01 3.59319897962264e-03 5.94602407629046e-05
1.66778571428571e+01 3.54903882170155e-03 5.88379363013755e-05
1.67392857142857e+01 3.50542138914105e-03 5.82217498739993e-05
1.68007142857143e+01 3.46234001162558e-03 5.76116286752547e-05
1.68621428571429e+01 3.41978810107901e-03 5.70075199514445e-05
1.69235714285714e+01 3.37775915063860e-03 5.64093715153151e-05
1.69850000000000e+01 3.33624673291477e-03 5.58171314933475e-05
1.70464285714286e+01 3.29524449975948e-03 5.52307481577392e-05
1.71078571428571e+01 3.25474618104298e-03 5.46501701055187e-05
1.71692857142857e+01 3.21474558392606e-03 5.40753464074235e-05
1.72307142857143e+01 3.17523659121371e-03 5.35062264530871e-05
1.72921428571429e+01 3.13621316112476e-03 5.29427597178782e-05
1.73535714285714e+01 3.09766932635147e-03 5.23848962283020e-05
1.74150000000000e+01 3.05959919248058e-03 5.18325863325689e-05
1.74764285714286e+01 3.02199693776376e-03 5.12857805478695e-05
1.75378571428571e+01 2.98485681200153e-03 5.07444297220005e-05
1.75992857142857e+01 2.94817313587073e-03 5.02084851676718e-05
1.76607142857143e+01 2.91194029943034e-03 4.96778985217368e-05
1.77221428571429e+01 2.87615276189443e-03 4.91526215334543e-05
1.77835714285714e+01 2.84080505077011e-03 4.86326064855427e-05
1.78450000000000e+01 2.80589176042436e-03 4.81178059858259e-05
1.79064285714286e+01 2.77140755185857e-03 4.76081728283714e-05
1.79678571428571e+01 2.73734715169000e-03 4.71036601394033e-05
1.80292857142857e+01 2.70370535153052e-03 4.66042214985023e-05
1.80907142857143e+01 2.67047700663005e-03 4.61098108105756e-05
1.81521428571429e+01 2.63765703565447e-03 4.56203821135455e-05
1.82135714285714e+01 2.60524041989545e-03 4.51358899593916e-05
1.82750000000000e+01 2.57322220196905e-03 4.46562892248916e-05
1.83364285714286e+01 2.54159748559590e-03 4.41815349853482e-05
1.83978571428571e+01 2.51036143467154e-03 4.37115826463577e-05
1.84592857142857e+01 2.47950927269266e-03 4.32463880532226e-05
1.85207142857143e+01 2.44903628152507e-03 4.27859073744885e-05
1.85821428571429e+01 2.41893780118792e-03 4.23300969272305e-05
1.86435714285714e+01 2.38920922912934e-03 4.18789135219958e-05
1.87050000000000e+01 2.35984601904431e-03 4.14323142908542e-05
1.87664285714286e+01 2.33084368066166e-03 4.09902565725443e-05
1.88278571428571e+01 2.30219777889530e-03 4.05526980315096e-05
1.88892857142857e+01 2.27390393331460e-03 4.01195967567043e-05
1.89507142857143e+01 2.24595781702498e-03 3.96909111556336e-05
1.90121428571429e+01 2.21835515645951e-03 3.92665997955933e-05
1.90735714285714e+01 2.19109173071483e-03 3.88466217160213e-05
1.91350000000000e+01 2.16416337047696e-03 3.84309362722412e-05
1.91964285714286e+01 2.13756595781600e-03 3.80195030309749e-05
1.92578571428571e+01 2.11129542541109e-03 3.76122818779131e-05
1.93192857142857e+01 2.08534775606164e-03 3.72092331069713e-05
1.93807142857143e+01 2.05971898167001e-03 3.68103173238653e-05
