Energy (eV)          EEDF (eV^-(3/2))     First Anisotropy
5.21153846153846e-03 5.72183247336315e-01 2.95675168519957e-04
1.56346153846154e-02 5.68394911059614e-01 4.88268914560300e-04
2.60576923076923e-02 5.64631656770947e-01 6.44636986068249e-04
3.64807692307692e-02 5.60893318393110e-01 7.63471667307284e-04
4.69038461538462e-02 5.57179730976385e-01 8.62614927030026e-04
5.73269230769231e-02 5.53490730646159e-01 9.48810036131804e-04
6.77500000000000e-02 5.49826154614395e-01 1.02554539215279e-03
7.81730769230769e-02 5.46185841166481e-01 1.09492679619788e-03
8.85961538461539e-02 5.42569629669077e-01 1.15835036723562e-03
9.90192307692308e-02 5.38977360546512e-01 1.21680251177337e-03
1.09442307692308e-01 5.35408875285995e-01 1.27101316778893e-03
1.19865384615385e-01 5.31864016408488e-01 1.32154189485114e-03
1.30288461538462e-01 5.28342627487855e-01 1.36882977129761e-03
1.40711538461538e-01 5.24844553133532e-01 1.41323243735260e-03
1.51134615384615e-01 5.21369638983499e-01 1.45504206787044e-03
1.61557692307692e-01 5.17917731697938e-01 1.49450251766579e-03
1.71980769230769e-01 5.14488678952207e-01 1.53182007695691e-03
1.82403846153846e-01 5.11082329430142e-01 1.56717130537917e-03
1.92826923076923e-01 5.07698532817388e-01 1.60070886397521e-03
2.03250000000000e-01 5.04337139794769e-01 1.63256593803096e-03
2.13673076923077e-01 5.00998002047482e-01 1.66285965630619e-03
2.24096153846154e-01 4.97680972210359e-01 1.69169375959243e-03
2.34519230769231e-01 4.94385903910508e-01 1.71916071690094e-03
2.44942307692308e-01 4.91112651744133e-01 1.74534343320132e-03
2.55365384615385e-01 4.87861071270116e-01 1.77031662820993e-03
2.65788461538462e-01 4.84631019003651e-01 1.79414796759215e-03
2.76211538461538e-01 4.81422352409909e-01 1.81689899793281e-03
2.86634615384615e-01 4.78234929897706e-01 1.83862592577208e-03
2.97057692307692e-01 4.75068610813360e-01 1.85938027159130e-03
3.07480769230769e-01 4.71923255434425e-01 1.87920942260693e-03
3.17903846153846e-01 4.68798724963527e-01 1.89815710297773e-03
3.28326923076923e-01 4.65694881522245e-01 1.91626377615397e-03
3.38750000000000e-01 4.62611588145023e-01 1.93356698969675e-03
3.49173076923077e-01 4.59548708781875e-01 1.95010167874939e-03
3.59596153846154e-01 4.56506108265796e-01 1.96590042341887e-03
3.70019230769231e-01 4.53483652333746e-01 1.98099367308724e-03
3.80442307692308e-01 4.50481207611613e-01 1.99540994964279e-03
3.90865384615385e-01 4.47498641608334e-01 2.00917602124457e-03
4.01288461538462e-01 4.44535822710042e-01 2.02231705706358e-03
4.11711538461539e-01 4.41592620174265e-01 2.03485676446436e-03
4.22134615384615e-01 4.38668904124131e-01 2.04681751101503e-03
4.32557692307692e-01 4.35764545542683e-01 2.05822043336461e-03
4.42980769230769e-01 4.32879416267164e-01 2.06908553469565e-03
4.53403846153846e-01 4.30013388983360e-01 2.07943177218373e-03
4.63826923076923e-01 4.27166337219980e-01 2.08927713571644e-03
4.74250000000000e-01 4.24338135343082e-01 2.09863871787500e-03
4.84673076923077e-01 4.21528658556274e-01 2.10753278136814e-03
4.95096153846154e-01 4.18737782877770e-01 2.11597481515970e-03
5.05519230769231e-01 4.15965385152552e-01 2.12397958527425e-03
5.15942307692308e-01 4.13211343040990e-01 2.13156118626477e-03
5.26365384615385e-01 4.10475535013443e-01 2.13873308413568e-03
5.36788461538462e-01 4.07757840344898e-01 2.14550815659083e-03
5.47211538461538e-01 4.05058139109644e-01 2.15189872991110e-03
5.57634615384615e-01 4.02376312175966e-01 2.15791661279802e-03
5.68057692307692e-01 3.99712241200912e-01 2.16357312749751e-03
5.78480769230769e-01 3.97065808625060e-01 2.16887913847097e-03
5.88903846153846e-01 3.94436897667328e-01 2.17384507884033e-03
5.99326923076923e-01 3.91825392319826e-01 2.17848097482629e-03
6.09750000000000e-01 3.89231177342728e-01 2.18279646751216e-03
6.20173076923077e-01 3.86654138263310e-01 2.18680083637446e-03
6.30596153846154e-01 3.84094161358437e-01 2.19050301700912e-03
6.41019230769231e-01 3.81551133662122e-01 2.19391161747310e-03
6.51442307692308e-01 3.79024942956305e-01 2.19703493772974e-03
6.61865384615385e-01 3.76515477765904e-01 2.19988098444296e-03
6.72288461538462e-01 3.74022627353897e-01 2.20245748560086e-03
6.82711538461539e-01 3.71546281716434e-01 2.20477190417482e-03
6.93134615384615e-01 3.69086331577974e-01 2.20683145088877e-03
7.03557692307692e-01 3.66642668386482e-01 2.20864309617574e-03
7.13980769230769e-01 3.64215184308625e-01 2.21021358138523e-03
7.24403846153846e-01 3.61803772225020e-01 2.21154942929398e-03
7.34826923076923e-01 3.59408325725503e-01 2.21265695397765e-03
7.45250000000000e-01 3.57028739104435e-01 2.21354226938401e-03
7.55673076923077e-01 3.54664907359127e-01 2.21421130019885e-03
7.66096153846154e-01 3.52316726175858e-01 2.21466978863854e-03
7.76519230769231e-01 3.49984091934701e-01 2.21492330076093e-03
7.86942307692308e-01 3.47666901701781e-01 2.21497723595605e-03
7.97365384615385e-01 3.45365053224730e-01 2.21483683312342e-03
8.07788461538462e-01 3.43078444928178e-01 2.21450717720075e-03
8.18211538461538e-01 3.40806975909269e-01 2.21399320533969e-03
8.28634615384615e-01 3.38550545933204e-01 2.21329971274999e-03
8.39057692307692e-01 3.36309055428828e-01 2.21243135823718e-03
8.49480769230769e-01 3.34082405484231e-01 2.21139266945517e-03
8.59903846153846e-01 3.31870497842381e-01 2.21018804788729e-03
8.70326923076923e-01 3.29673234896794e-01 2.20882177357559e-03
8.80750000000000e-01 3.27490519687218e-01 2.20729800901828e-03
8.91173076923077e-01 3.25322255897766e-01 2.20562080524330e-03
9.01596153846154e-01 3.23168347845396e-01 2.20379410466667e-03
9.12019230769231e-01 3.21028700483014e-01 2.20182174374490e-03
9.22442307692308e-01 3.18903219392816e-01 2.19970745849766e-03
9.32865384615385e-01 3.16791810782123e-01 2.19745488740627e-03
9.43288461538462e-01 3.14694381479244e-01 2.19506757476565e-03
9.53711538461539e-01 3.12610838929363e-01 2.19254897388384e-03
9.64134615384615e-01 3.10541091190451e-01 2.18990245013507e-03
9.74557692307692e-01 3.08485046929216e-01 2.18713128387830e-03
9.84980769230769e-01 3.06442615417070e-01 2.18423867324816e-03
9.95403846153846e-01 3.04413706526123e-01 2.18122773423376e-03
1.00582692307692e+00 3.02398230735017e-01 2.17810151258222e-03
1.01625000000000e+00 3.00396099089543e-01 2.17486297790174e-03
1.02667307692308e+00 2.98407223240345e-01 2.17151502073434e-03
1.03709615384615e+00 2.96431515423010e-01 2.16806046090826e-03
1.04751923076923e+00 2.94468888472774e-01 2.16450206049972e-03
1.05794230769231e+00 2.92519255764659e-01 2.16084251585328e-03
1.06836538461538e+00 2.90582531265932e-01 2.15708444450739e-03
1.07878846153846e+00 2.88658629531145e-01 2.15323041695903e-03
1.08921153846154e+00 2.86747465645119e-01 2.14928294370268e-03
1.09963461538462e+00 2.84848955272636e-01 2.14524446244504e-03
1.11005769230769e+00 2.82963014653681e-01 2.14111736859674e-03
1.12048076923077e+00 2.81089560549079e-01 2.13690400263629e-03
1.13090384615385e+00 2.79228510287668e-01 2.13260663764659e-03
1.14132692307692e+00 2.77379781761634e-01 2.12822750861516e-03
1.15175000000000e+00 2.75543293374694e-01 2.12376880010004e-03
1.16217307692308e+00 2.73718964086910e-01 2.11923263844734e-03
1.17259615384615e+00 2.71906713394893e-01 2.11462110258629e-03
1.18301923076923e+00 2.70106461343323e-01 2.10993623371904e-03
1.19344230769231e+00 2.68318128475985e-01 2.10518002790853e-03
1.20386538461538e+00 2.66541635877909e-01 2.10035442429676e-03
1.21428846153846e+00 2.64776905170994e-01 2.09546133204599e-03
1.22471153846154e+00 2.63023858467216e-01 2.09050261868997e-03
1.23513461538462e+00 2.61282418408685e-01 2.08548009865369e-03
1.24555769230769e+00 2.59552508163428e-01 2.08039555920992e-03
1.25598076923077e+00 2.57834051380626e-01 2.07525074915338e-03
1.26640384615385e+00 2.56126972228771e-01 2.07004736763896e-03
1.27682692307692e+00 2.54431195391526e-01 2.06478708920710e-03
1.28725000000000e+00 2.52746646024920e-01 2.05947155275536e-03
1.29767307692308e+00 2.51073249793709e-01 2.05410235446995e-03
1.30809615384615e+00 2.49410932854809e-01 2.04868105687338e-03
1.31851923076923e+00 2.47759621866428e-01 2.04320919694754e-03
1.32894230769231e+00 2.46119243947476e-01 2.03768827941592e-03
1.33936538461538e+00 2.44489726711877e-01 2.03211976624377e-03
1.34978846153846e+00 2.42870998264670e-01 2.02650509979048e-03
1.36021153846154e+00 2.41262987163112e-01 2.02084569243747e-03
1.37063461538462e+00 2.39665622449387e-01 2.01514291637052e-03
1.38105769230769e+00 2.38078833646839e-01 2.00939812594208e-03
1.39148076923077e+00 2.36502550722660e-01 2.00361264759552e-03
1.40190384615385e+00 2.34936704119132e-01 1.99778776993863e-03
1.41232692307692e+00 2.33381224749928e-01 1.99192476535335e-03
1.42275000000000e+00 2.31836043964337e-01 1.98602488019338e-03
1.43317307692308e+00 2.30301093577114e-01 1.98008932844148e-03
1.44359615384615e+00 2.28776305854454e-01 1.97411929942239e-03
1.45401923076923e+00 2.27261613521305e-01 1.96811596473095e-03
1.46444230769231e+00 2.25756949727352e-01 1.96208047220809e-03
1.47486538461538e+00 2.24262248075260e-01 1.95601393661919e-03
1.48528846153846e+00 2.22777442617174e-01 1.94991745973117e-03
1.49571153846154e+00 2.21302467822058e-01 1.94379212110760e-03
1.50613461538462e+00 2.19837258602673e-01 1.93763896904165e-03
1.51655769230769e+00 2.18381750312192e-01 1.93145903998262e-03
1.52698076923077e+00 2.16935878712802e-01 1.92525334959552e-03
1.53740384615385e+00 2.15499580001525e-01 1.91902288395341e-03
1.54782692307692e+00 2.14072790806899e-01 1.91276861834165e-03
1.55825000000000e+00 2.12655448158803e-01 1.90649150856149e-03
1.56867307692308e+00 2.11247489513181e-01 1.90019248526730e-03
1.57909615384615e+00 2.09848852740072e-01 1.89387246061865e-03
1.58951923076923e+00 2.08459476129498e-01 1.88753233425829e-03
1.59994230769231e+00 2.07079298362719e-01 1.88117298793341e-03
1.61036538461538e+00 2.05708258535671e-01 1.87479527722828e-03
1.62078846153846e+00 2.04346296155822e-01 1.86840004908979e-03
1.63121153846154e+00 2.02993351114510e-01 1.86198813366324e-03
1.64163461538462e+00 2.01649363709381e-01 1.85556033625043e-03
1.65205769230769e+00 2.00314274641338e-01 1.84911745429034e-03
1.66248076923077e+00 1.98988024987904e-01 1.84266026942834e-03
1.67290384615385e+00 1.97670556224734e-01 1.83618953970250e-03
1.68332692307692e+00 1.96361810222624e-01 1.82970601600174e-03
1.69375000000000e+00 1.95061729221865e-01 1.82321043435054e-03
1.70417307692308e+00 1.93770255852881e-01 1.81670351086267e-03
1.71459615384615e+00 1.92487333125928e-01 1.81018594752569e-03
1.72501923076923e+00 1.91212904435875e-01 1.80365843740206e-03
1.73544230769231e+00 1.89946913537722e-01 1.79712165983465e-03
1.74586538461538e+00 1.88689304566202e-01 1.79057627311086e-03
1.75628846153846e+00 1.87440022032942e-01 1.78402292983848e-03
1.76671153846154e+00 1.86199010802871e-01 1.77746226970063e-03
1.77713461538462e+00 1.84966216113010e-01 1.77089491231853e-03
1.78755769230769e+00 1.83741583569720e-01 1.76432147216538e-03
1.79798076923077e+00 1.82525059125940e-01 1.75774255152572e-03
1.80840384615385e+00 1.81316589099244e-01 1.75115873355904e-03
1.81882692307692e+00 1.80116120169124e-01 1.74457059676907e-03
1.82925000000000e+00 1.78923599355061e-01 1.73797870815329e-03
1.83967307692308e+00 1.77738974033854e-01 1.73138361870781e-03
1.85009615384615e+00 1.76562191930714e-01 1.72478586848815e-03
1.86051923076923e+00 1.75393201123151e-01 1.71818599116272e-03
1.87094230769231e+00 1.74231950020000e-01 1.71158450973995e-03
1.88136538461538e+00 1.73078387377917e-01 1.70498193005228e-03
1.89178846153846e+00 1.71932462298806e-01 1.69837875430033e-03
1.90221153846154e+00 1.70794124209574e-01 1.69177547461646e-03
1.91263461538462e+00 1.69663322877969e-01 1.68517256672314e-03
1.92305769230769e+00 1.68540008410083e-01 1.67857050308213e-03
1.93348076923077e+00 1.67424131230795e-01 1.67196974663704e-03
1.94390384615385e+00 1.66315642099006e-01 1.66537074464771e-03
1.95432692307692e+00 1.65214492105181e-01 1.65877394145815e-03
1.96475000000000e+00 1.64120632652476e-01 1.65217977240607e-03
1.97517307692308e+00 1.63034015471387e-01 1.64558865981718e-03
1.98559615384615e+00 1.61954592611993e-01 1.63900101745446e-03
1.99601923076923e+00 1.60882316447139e-01 1.63241725452277e-03
2.00644230769231e+00 1.59817139654366e-01 1.62583777185939e-03
2.01686538461538e+00 1.58759015229865e-01 1.61926295613918e-03
2.02728846153846e+00 1.57707896486142e-01 1.61269319184452e-03
2.03771153846154e+00 1.56663737034561e-01 1.60612885553922e-03
2.04813461538462e+00 1.55626490798756e-01 1.59957031022688e-03
2.05855769230769e+00 1.54596112012359e-01 1.59301791698035e-03
2.06898076923077e+00 1.53572555202121e-01 1.58647202937307e-03
2.07940384615385e+00 1.52555775200827e-01 1.57993298799198e-03
2.08982692307692e+00 1.51545727145061e-01 1.57340113173721e-03
2.10025000000000e+00 1.50542366458898e-01 1.56687679240050e-03
2.11067307692308e+00 1.49545648866331e-01 1.56036029109292e-03
2.12109615384615e+00 1.48555530384499e-01 1.55385194217074e-03
2.13151923076923e+00 1.47571967326293e-01 1.54735205677138e-03
2.14194230769231e+00 1.46594916284716e-01 1.54086093941441e-03
2.15236538461538e+00 1.45624334144743e-01 1.53437888284059e-03
2.16278846153846e+00 1.44660178081201e-01 1.52790617861931e-03
2.17321153846154e+00 1.43702405543641e-01 1.52144311204860e-03
2.18363461538462e+00 1.42750974267750e-01 1.51498995712917e-03
2.19405769230769e+00 1.41805842273289e-01 1.50854698687620e-03
2.20448076923077e+00 1.40866967849449e-01 1.50211446835745e-03
2.21490384615385e+00 1.39934309565851e-01 1.49569265780312e-03
2.22532692307692e+00 1.39007826270516e-01 1.48928181063196e-03
2.23575000000000e+00 1.38087477075706e-01 1.48288217661847e-03
2.24617307692308e+00 1.37173221368519e-01 1.47649399670370e-03
2.25659615384615e+00 1.36265018804945e-01 1.47011750647060e-03
2.26701923076923e+00 1.35362829312007e-01 1.46375293927541e-03
2.27744230769231e+00 1.34466613074171e-01 1.45740052321191e-03
2.28786538461538e+00 1.33576330543464e-01 1.45106047650911e-03
2.29828846153846e+00 1.32691942437547e-01 1.44473301695342e-03
2.30871153846154e+00 1.31813409726555e-01 1.43841835733973e-03
2.31913461538462e+00 1.30940693642848e-01 1.43211670098801e-03
2.32955769230769e+00 1.30073755679126e-01 1.42582825090779e-03
2.33998076923077e+00 1.29212557575687e-01 1.41955320537093e-03
2.35040384615385e+00 1.28357061329829e-01 1.41329175354751e-03
2.36082692307692e+00 1.27507229193999e-01 1.40704408442118e-03
2.37125000000000e+00 1.26663023663460e-01 1.40081038247576e-03
2.38167307692308e+00 1.25824407485356e-01 1.39459082484528e-03
2.39209615384615e+00 1.24991343653471e-01 1.38838558439799e-03
2.40251923076923e+00 1.24163795409999e-01 1.38219483251703e-03
2.41294230769231e+00 1.23341726233688e-01 1.37601873638639e-03
2.42336538461538e+00 1.22525099848503e-01 1.36985745488103e-03
2.43378846153846e+00 1.21713880221872e-01 1.36371114695377e-03
2.44421153846154e+00 1.20908031553201e-01 1.35757996757221e-03
2.45463461538462e+00 1.20107518282229e-01 1.35146406371413e-03
2.46505769230769e+00 1.19312305087311e-01 1.34536358252865e-03
2.47548076923077e+00 1.18522356874288e-01 1.33927866738055e-03
2.48590384615385e+00 1.17737638784550e-01 1.33320945395118e-03
2.49632692307692e+00 1.16958116193354e-01 1.32715607818103e-03
2.50675000000000e+00 1.16183754699035e-01 1.32111867241481e-03
2.51717307692308e+00 1.15414520130791e-01 1.31509736285200e-03
2.52759615384615e+00 1.14650378544059e-01 1.30909227229014e-03
2.53801923076923e+00 1.13891296221964e-01 1.30310352259892e-03
2.54844230769231e+00 1.13137239664950e-01 1.29713123229127e-03
2.55886538461538e+00 1.12388175598223e-01 1.29117551284921e-03
2.56928846153846e+00 1.11644070970149e-01 1.28523647620192e-03
2.57971153846154e+00 1.10904892942202e-01 1.27931423109239e-03
2.59013461538462e+00 1.10170608896141e-01 1.27340887949634e-03
2.60055769230769e+00 1.09441186432448e-01 1.26752052390205e-03
2.61098076923077e+00 1.08716593360581e-01 1.26164926377215e-03
2.62140384615385e+00 1.07996797705900e-01 1.25579519205555e-03
2.63182692307692e+00 1.07281767708139e-01 1.24995840227507e-03
2.64225000000000e+00 1.06571471811949e-01 1.24413898507868e-03
2.65267307692308e+00 1.05865878673595e-01 1.23833702595610e-03
2.66309615384615e+00 1.05164957156864e-01 1.23255260768375e-03
2.67351923076923e+00 1.04468676334253e-01 1.22678581253045e-03
2.68394230769231e+00 1.03777005477880e-01 1.22103672008143e-03
2.69436538461538e+00 1.03089914065889e-01 1.21530540394968e-03
2.70478846153846e+00 1.02407371780988e-01 1.20959193845420e-03
2.71521153846154e+00 1.01729348501627e-01 1.20389639536766e-03
2.72563461538462e+00 1.01055814308185e-01 1.19821884070984e-03
2.73605769230769e+00 1.00386739481542e-01 1.19255934125143e-03
2.74648076923077e+00 9.97220944945138e-02 1.18691796134566e-03
2.75690384615385e+00 9.90618500178345e-02 1.18129475980444e-03
2.76732692307692e+00 9.84059769187516e-02 1.17568979623269e-03
2.77775000000000e+00 9.77544462527204e-02 1.17010312793897e-03
2.78817307692308e+00 9.71072292691800e-02 1.16453480788893e-03
2.79859615384615e+00 9.64642974079222e-02 1.15898488688779e-03
2.80901923076923e+00 9.58256223000694e-02 1.15345341554980e-03
2.81944230769231e+00 9.51911757600772e-02 1.14794044234707e-03
2.82986538461538e+00 9.45609297912666e-02 1.14244601066317e-03
2.84028846153846e+00 9.39348565844902e-02 1.13697016476508e-03
2.85071153846154e+00 9.33129285103676e-02 1.13151294688851e-03
2.86113461538462e+00 9.26951181246301e-02 1.12607439436438e-03
2.87155769230769e+00 9.20813981668172e-02 1.12065454543685e-03
2.88198076923077e+00 9.14717415527367e-02 1.11525343642296e-03
2.89240384615385e+00 9.08661213796323e-02 1.10987109891239e-03
2.90282692307692e+00 9.02645109249041e-02 1.10450756543571e-03
2.91325000000000e+00 8.96668836387899e-02 1.09916286669440e-03
2.92367307692308e+00 8.90732131493610e-02 1.09383702972484e-03
2.93409615384615e+00 8.84834732592928e-02 1.08853007984919e-03
2.94451923076923e+00 8.78976379466675e-02 1.08324204243650e-03
2.95494230769231e+00 8.73156813579230e-02 1.07797294115187e-03
2.96536538461538e+00 8.67375778126416e-02 1.07272279531336e-03
2.97578846153846e+00 8.61633018023309e-02 1.06749162523971e-03
2.98621153846154e+00 8.55928279835757e-02 1.06227944963546e-03
2.99663461538462e+00 8.50261311826659e-02 1.05708628301308e-03
3.00705769230769e+00 8.44631863944048e-02 1.05191214090403e-03
3.01748076923077e+00 8.39039687754566e-02 1.04675703731027e-03
3.02790384615385e+00 8.33484536488221e-02 1.04162098219133e-03
3.03832692307692e+00 8.27966165026700e-02 1.03650398654275e-03
3.04875000000000e+00 8.22484329838757e-02 1.03140605991016e-03
3.05917307692308e+00 8.17038789023502e-02 1.02632720874036e-03
3.06959615384615e+00 8.11629302281635e-02 1.02126743812774e-03
3.08001923076923e+00 8.06255630922005e-02 1.01622675339116e-03
3.09044230769231e+00 8.00917537799336e-02 1.01120515850135e-03
3.10086538461538e+00 7.95614787355739e-02 1.00620265370791e-03
3.11128846153846e+00 7.90347145609577e-02 1.00121924033296e-03
3.12171153846154e+00 7.85114380094946e-02 9.96254918423631e-04
3.13213461538462e+00 7.79916259901818e-02 9.91309684437210e-04
3.14255769230769e+00 7.74752555665151e-02 9.86383535913567e-04
3.15298076923077e+00 7.69623039506070e-02 9.81476469186351e-04
3.16340384615385e+00 7.64527485070711e-02 9.76588477126260e-04
3.17382692307692e+00 7.59465667519537e-02 9.71719553695510e-04
3.18425000000000e+00 7.54437363470186e-02 9.66869691715007e-04
3.19467307692308e+00 7.49442351035059e-02 9.62038881382600e-04
3.20509615384615e+00 7.44480409795639e-02 9.57227111837777e-04
3.21551923076923e+00 7.39551320807846e-02 9.52434372575460e-04
3.22594230769231e+00 7.34654866546920e-02 9.47660652032152e-04
3.23636538461539e+00 7.29790830943485e-02 9.42905935453927e-04
3.24678846153846e+00 7.24958999373366e-02 9.38170209197904e-04
3.25721153846154e+00 7.20159158604009e-02 9.33453458622456e-04
3.26763461538462e+00 7.15391096829365e-02 9.28755666007037e-04
3.27805769230769e+00 7.10654603659933e-02 9.24076814745880e-04
3.28848076923077e+00 7.05949470070662e-02 9.19416887290768e-04
