Energy (eV)          EEDF (eV^-(3/2))     First Anisotropy
2.97272727272727e-02 3.86032632510493e-02 1.95326211670286e-05
8.91818181818182e-02 3.83616367860742e-02 3.22614236605208e-05
1.48636363636364e-01 3.81215227152129e-02 4.26086465560135e-05
2.08090909090909e-01 3.78829115727506e-02 5.04816466107292e-05
2.67545454545455e-01 3.76457939502206e-02 5.70578791125080e-05
3.27000000000000e-01 3.74101605003703e-02 6.27821223893353e-05
3.86454545454545e-01 3.71760019326294e-02 6.78843523183485e-05
4.45909090909091e-01 3.69433090160673e-02 7.25033282597194e-05
5.05363636363636e-01 3.67120725762644e-02 7.67310016373863e-05
5.64818181818182e-01 3.64822834973224e-02 8.06323082316473e-05
6.24272727272727e-01 3.62539327194321e-02 8.42552773761600e-05
6.83727272727273e-01 3.60270112403567e-02 8.76367101101362e-05
7.43181818181818e-01 3.58015101137418e-02 9.08056016503193e-05
8.02636363636364e-01 3.55774204489866e-02 9.37853196019876e-05
8.62090909090909e-01 3.53547334117174e-02 9.65950525587289e-05
9.21545454545455e-01 3.51334402223161e-02 9.92508082488031e-05
9.81000000000000e-01 3.49135321566232e-02 1.01766122171569e-04
1.04045454545455e+00 3.46950005452339e-02 1.04152574068031e-04
1.09990909090909e+00 3.44778367711666e-02 1.06420171407767e-04
1.15936363636364e+00 3.42620322748131e-02 1.08577641433639e-04
1.21881818181818e+00 3.40475785462686e-02 1.10632655629855e-04
1.27827272727273e+00 3.38344671325234e-02 1.12592005654641e-04
1.33772727272727e+00 3.36226896300696e-02 1.14461743167986e-04
1.39718181818182e+00 3.34122376896837e-02 1.16247290922038e-04
1.45663636363636e+00 3.32031030159424e-02 1.17953534905869e-04
1.51609090909091e+00 3.29952773622820e-02 1.19584897927293e-04
1.57554545454545e+00 3.27887525366584e-02 1.21145401262998e-04
1.63500000000000e+00 3.25835203955503e-02 1.22638715947893e-04
1.69445454545455e+00 3.23795728490277e-02 1.24068205711133e-04
1.75390909090909e+00 3.21769018553037e-02 1.25436963365021e-04
1.81336363636364e+00 3.19754994253066e-02 1.26747841653543e-04
1.87281818181818e+00 3.17753576176970e-02 1.28003479736835e-04
1.93227272727273e+00 3.15764685430183e-02 1.29206325884234e-04
1.99172727272727e+00 3.13788243591107e-02 1.30358657339187e-04
2.05118181818182e+00 3.11824172739370e-02 1.31462596720634e-04
2.11063636363636e+00 3.09872395452003e-02 1.32520127917375e-04
2.17009090909091e+00 3.07932834771339e-02 1.33533108513365e-04
2.22954545454545e+00 3.06005414239977e-02 1.34503281412527e-04
2.28900000000000e+00 3.04090057861210e-02 1.35432285028524e-04
2.34845454545455e+00 3.02186690131233e-02 1.36321662245716e-04
2.40790909090909e+00 3.00295236002231e-02 1.37172868455445e-04
2.46736363636364e+00 2.98415620912162e-02 1.37987278660399e-04
2.52681818181818e+00 2.96547770750202e-02 1.38766193893998e-04
2.58627272727273e+00 2.94691611884373e-02 1.39510846920787e-04
2.64572727272727e+00 2.92847071129097e-02 1.40222407552943e-04
2.70518181818182e+00 2.91014075764096e-02 1.40901986756496e-04
2.76463636363636e+00 2.89192553531078e-02 1.41550641657210e-04
2.82409090909091e+00 2.87382432610429e-02 1.42169378836547e-04
2.88354545454545e+00 2.85583641645256e-02 1.42759157906620e-04
2.94300000000000e+00 2.83796109712520e-02 1.43320894692583e-04
3.00245454545455e+00 2.82019766345514e-02 1.43855464086142e-04
3.06190909090909e+00 2.80254541506550e-02 1.44363702703014e-04
3.12136363636364e+00 2.78500365608028e-02 1.44846411269937e-04
3.18081818181818e+00 2.76757169486536e-02 1.45304356860928e-04
3.24027272727273e+00 2.75024884422636e-02 1.45738274908576e-04
3.29972727272727e+00 2.73303442116257e-02 1.46148871207511e-04
3.35918181818182e+00 2.71592774700206e-02 1.46536823187400e-04
3.41863636363636e+00 2.69892814737186e-02 1.46902782175037e-04
3.47809090909091e+00 2.68203495201810e-02 1.47247374436917e-04
3.53754545454545e+00 2.66524749498149e-02 1.47571202640544e-04
3.59700000000000e+00 2.64856511437439e-02 1.47874847143975e-04
3.65645454545455e+00 2.63198715254636e-02 1.48158867155571e-04
3.71590909090909e+00 2.61551295587140e-02 1.48423801850362e-04
3.77536363636364e+00 2.59914187490439e-02 1.48670171373488e-04
3.83481818181818e+00 2.58287326417773e-02 1.48898477811622e-04
3.89427272727273e+00 2.56670648234937e-02 1.49109206065357e-04
3.95372727272727e+00 2.55064089200816e-02 1.49302824790975e-04
4.01318181818182e+00 2.53467585977430e-02 1.49479786792745e-04
4.07263636363636e+00 2.51881075627223e-02 1.49640530320023e-04
4.13209090909091e+00 2.50304495598629e-02 1.49785479381149e-04
4.19154545454545e+00 2.48737783739373e-02 1.49915044466549e-04
4.25100000000000e+00 2.47180878278615e-02 1.50029623168467e-04
4.31045454545455e+00 2.45633717839576e-02 1.50129600733375e-04
4.36990909090909e+00 2.44096241422386e-02 1.50215350612065e-04
4.42936363636364e+00 2.42568388416092e-02 1.50287234948757e-04
4.48881818181818e+00 2.41050098582167e-02 1.50345605071106e-04
4.54827272727273e+00 2.39541312065935e-02 1.50390801924782e-04
4.60772727272727e+00 2.38041969380702e-02 1.50423156591358e-04
4.66718181818182e+00 2.36552011415447e-02 1.50442990355942e-04
4.72663636363636e+00 2.35071379432320e-02 1.50450615577029e-04
4.78609090909091e+00 2.33600015054751e-02 1.50446335725394e-04
4.84554545454545e+00 2.32137860277809e-02 1.50430445795162e-04
4.90500000000000e+00 2.30684857453509e-02 1.50403232639996e-04
4.96445454545455e+00 2.29240949300692e-02 1.50364975267082e-04
5.02390909090909e+00 2.27806078890862e-02 1.50315945141016e-04
5.08336363636364e+00 2.26380189657609e-02 1.50256406448542e-04
5.14281818181818e+00 2.24963225382938e-02 1.50186616373961e-04
5.20227272727273e+00 2.23555130206273e-02 1.50106825338090e-04
5.26172727272727e+00 2.22155848611252e-02 1.50017277318382e-04
5.32118181818182e+00 2.20765325431718e-02 1.49918209785708e-04
5.38063636363636e+00 2.19383505849414e-02 1.49809854349372e-04
5.44009090909091e+00 2.18010335383991e-02 1.49692436683986e-04
5.49954545454545e+00 2.16645759901220e-02 1.49566176789018e-04
5.55900000000000e+00 2.15289725600691e-02 1.49431289188389e-04
5.61845454545455e+00 2.13942179023669e-02 1.49287983100217e-04
5.67790909090909e+00 2.12603067041194e-02 1.49136462619819e-04
5.73736363636364e+00 2.11272336861600e-02 1.48976926874495e-04
5.79681818181818e+00 2.09949936018992e-02 1.48809570191584e-04
5.85627272727273e+00 2.08635812380452e-02 1.48634582239881e-04
5.91572727272727e+00 2.07329914134875e-02 1.48452148245801e-04
5.97518181818182e+00 2.06032189797703e-02 1.48262448876754e-04
6.03463636363636e+00 2.04742588208795e-02 1.48065660751068e-04
6.09409090909091e+00 2.03461058523902e-02 1.47861956319219e-04
6.15354545454545e+00 2.02187550221275e-02 1.47651504041416e-04
6.21300000000000e+00 2.00922013091213e-02 1.47434468514721e-04
6.27245454545455e+00 1.99664397242397e-02 1.47211010577330e-04
6.33190909090909e+00 1.98414653091748e-02 1.46981287426382e-04
6.39136363636364e+00 1.97172731370512e-02 1.46745452713983e-04
6.45081818181818e+00 1.95938583114414e-02 1.46503656656554e-04
6.51027272727273e+00 1.94712159669497e-02 1.46256046123379e-04
6.56972727272727e+00 1.93493412682565e-02 1.46002764792704e-04
6.62918181818182e+00 1.92282294104963e-02 1.45743953015565e-04
6.68863636363636e+00 1.91078756190603e-02 1.45479748235862e-04
6.74809090909091e+00 1.89882751488609e-02 1.45210284855361e-04
6.80754545454545e+00 1.88694232848691e-02 1.44935694362995e-04
6.86700000000000e+00 1.87513153412163e-02 1.44656105420417e-04
6.92645454545455e+00 1.86339466617102e-02 1.44371643929234e-04
6.98590909090909e+00 1.85173126189616e-02 1.44082433111035e-04
7.04536363636364e+00 1.84014086148810e-02 1.43788593569721e-04
7.10481818181818e+00 1.82862300798288e-02 1.43490243366445e-04
7.16427272727273e+00 1.81717724730931e-02 1.43187498077549e-04
7.22372727272727e+00 1.80580312820633e-02 1.42880470913200e-04
7.28318181818182e+00 1.79450020225342e-02 1.42569272577279e-04
7.34263636363636e+00 1.78326802385230e-02 1.42254011623010e-04
7.40209090909091e+00 1.77210615016282e-02 1.41934794315408e-04
7.46154545454545e+00 1.76101414114716e-02 1.41611724730048e-04
7.52100000000000e+00 1.74999155949180e-02 1.41284904813297e-04
7.58045454545455e+00 1.73903797064996e-02 1.40954434427343e-04
7.63990909090909e+00 1.72815294276575e-02 1.40620411406926e-04
7.69936363636364e+00 1.71733604671497e-02 1.40282931601356e-04
7.75881818181818e+00 1.70658685603123e-02 1.39942088928022e-04
7.81827272727273e+00 1.69590494694524e-02 1.39597975411622e-04
7.87772727272727e+00 1.68528989831283e-02 1.39250681277976e-04
7.93718181818182e+00 1.67474129163956e-02 1.38900294817310e-04
7.99663636363636e+00 1.66425871106364e-02 1.38546902690958e-04
8.05609090909091e+00 1.65384174329981e-02 1.38190589797810e-04
8.11554545454545e+00 1.64348997767571e-02 1.37831439352553e-04
8.17500000000000e+00 1.63320300606378e-02 1.37469532929665e-04
8.23445454545455e+00 1.62298042291636e-02 1.37104950494513e-04
8.29390909090909e+00 1.61282182519924e-02 1.36737770445024e-04
8.35336363636364e+00 1.60272681242547e-02 1.36368069640831e-04
8.41281818181818e+00 1.59269498659062e-02 1.35995923442812e-04
8.47227272727273e+00 1.58272595220535e-02 1.35621405740447e-04
8.53172727272727e+00 1.57281931623220e-02 1.35244589028184e-04
8.59118181818182e+00 1.56297468810565e-02 1.34865544275587e-04
8.65063636363636e+00 1.55319167971616e-02 1.34484341195299e-04
8.71009090909091e+00 1.54346990536068e-02 1.34101048116501e-04
8.76954545454545e+00 1.53380898177282e-02 1.33715732048674e-04
8.82900000000000e+00 1.52420852806301e-02 1.33328458714728e-04
8.88845454545454e+00 1.51466816574757e-02 1.32939292572992e-04
8.94790909090909e+00 1.50518751869031e-02 1.32548296848743e-04
9.00736363636364e+00 1.49576621313060e-02 1.32155533554919e-04
9.06681818181818e+00 1.48640387762630e-02 1.31761063522156e-04
9.12627272727273e+00 1.47710014308090e-02 1.31364946418319e-04
9.18572727272727e+00 1.46785464268774e-02 1.30967240812065e-04
9.24518181818182e+00 1.45866701194629e-02 1.30568004051324e-04
9.30463636363636e+00 1.44953688864740e-02 1.30167292499650e-04
9.36409090909091e+00 1.44046391282929e-02 1.29765161417915e-04
9.42354545454545e+00 1.43144772680274e-02 1.29361665017440e-04
9.48300000000000e+00 1.42248797509819e-02 1.28956856485551e-04
9.54245454545454e+00 1.41358430449000e-02 1.28550788001455e-04
9.60190909090909e+00 1.40473636394471e-02 1.28143510760694e-04
9.66136363636364e+00 1.39594380464457e-02 1.27735074990131e-04
9.72081818181818e+00 1.38720627993689e-02 1.27325529971317e-04
9.78027272727273e+00 1.37852344535677e-02 1.26914924054682e-04
9.83972727272727e+00 1.36989495857764e-02 1.26503304713406e-04
9.89918181818182e+00 1.36132047942450e-02 1.26090718430639e-04
9.95863636363636e+00 1.35279966986019e-02 1.25677210909448e-04
1.00180909090909e+01 1.34433219394619e-02 1.25262827024606e-04
1.00775454545455e+01 1.33591771784696e-02 1.24847610530323e-04
1.01370000000000e+01 1.32755590987445e-02 1.24431604842776e-04
1.01964545454545e+01 1.31924644028496e-02 1.24014852177161e-04
1.02559090909091e+01 1.31098898156221e-02 1.23597394060714e-04
1.03153636363636e+01 1.30278320807824e-02 1.23179271257790e-04
1.03748181818182e+01 1.29462879640316e-02 1.22760523749065e-04
1.04342727272727e+01 1.28652542497339e-02 1.22341190780988e-04
1.04937272727273e+01 1.27847277439440e-02 1.21921310559976e-04
1.05531818181818e+01 1.27047052719191e-02 1.21500921442497e-04
1.06126363636364e+01 1.26251836780465e-02 1.21080060206694e-04
1.06720909090909e+01 1.25461598279636e-02 1.20658763211977e-04
1.07315454545455e+01 1.24676306054446e-02 1.20237066149520e-04
1.07910000000000e+01 1.23895929152344e-02 1.19815004021833e-04
1.08504545454545e+01 1.23120436800023e-02 1.19392611187659e-04
1.09099090909091e+01 1.22349798431129e-02 1.18969921341627e-04
1.09693636363636e+01 1.21583983656450e-02 1.18546967558025e-04
1.10288181818182e+01 1.20822962291011e-02 1.18123782270501e-04
1.10882727272727e+01 1.20066704324901e-02 1.17700397314822e-04
1.11477272727273e+01 1.19315179949765e-02 1.17276843650581e-04
1.12071818181818e+01 1.18568359536904e-02 1.16853152436941e-04
1.12666363636364e+01 1.17826213636549e-02 1.16429353466232e-04
1.13260909090909e+01 1.17088712996439e-02 1.16005476212392e-04
1.13855454545455e+01 1.16355828534377e-02 1.15581549603405e-04
1.14450000000000e+01 1.15627531363089e-02 1.15157602001614e-04
1.15044545454545e+01 1.14903792763359e-02 1.14733661242771e-04
1.15639090909091e+01 1.14184584208349e-02 1.14309754616454e-04
1.16233636363636e+01 1.13469877337294e-02 1.13885908904212e-04
1.16828181818182e+01 1.12759643979294e-02 1.13462150360112e-04
1.17422727272727e+01 1.12053856127560e-02 1.13038504748031e-04
1.18017272727273e+01 1.11352485962690e-02 1.12614997088231e-04
1.18611818181818e+01 1.10655505833311e-02 1.12191652631743e-04
1.19206363636364e+01 1.09962888255377e-02 1.11768495438570e-04
1.19800909090909e+01 1.09274605928483e-02 1.11345549327535e-04
1.20395454545455e+01 1.08590631711615e-02 1.10922837668678e-04
1.20990000000000e+01 1.07910938645008e-02 1.10500383364524e-04
1.21584545454545e+01 1.07235499926394e-02 1.10078208884302e-04
1.22179090909091e+01 1.06564288932400e-02 1.09656336245361e-04
1.22773636363636e+01 1.05897279195278e-02 1.09234787046657e-04
1.23368181818182e+01 1.05234444423848e-02 1.08813582450304e-04
1.23962727272727e+01 1.04575758480705e-02 1.08392743214341e-04
1.24557272727273e+01 1.03921195402719e-02 1.07972289461815e-04
1.25151818181818e+01 1.03270729383886e-02 1.07552241564901e-04
1.25746363636364e+01 1.02624334774635e-02 1.07132618852542e-04
1.26340909090909e+01 1.01981986096220e-02 1.06713440472501e-04
1.26935454545455e+01 1.01343658019201e-02 1.06294725201860e-04
1.27530000000000e+01 1.00709325382744e-02 1.05876491429362e-04
1.28124545454545e+01 1.00078963173544e-02 1.05458757185569e-04
1.28719090909091e+01 9.94525465447159e-03 1.05041540125412e-04
1.29313636363636e+01 9.88300507951406e-03 1.04624857557727e-04
1.29908181818182e+01 9.82114513879661e-03 1.04208726427936e-04
1.30502727272727e+01 9.75967239303624e-03 1.03793163347000e-04
1.31097272727273e+01 9.69858441916421e-03 1.03378184380813e-04
1.31691818181818e+01 9.63787880880113e-03 1.02963805853700e-04
1.32286363636364e+01 9.57755316819065e-03 1.02550043172215e-04
1.32880909090909e+01 9.51760511947090e-03 1.02136911608717e-04
1.33475454545455e+01 9.45803229876135e-03 1.01724426128270e-04
1.34070000000000e+01 9.39883235787064e-03 1.01312601372120e-04
1.34664545454545e+01 9.34000296242113e-03 1.00901451684427e-04
1.35259090909091e+01 9.28154179352181e-03 1.00490991095929e-04
1.35853636363636e+01 9.22344654592964e-03 1.00081233350163e-04
1.36448181818182e+01 9.16571492968840e-03 9.96721918872614e-05
1.37042727272727e+01 9.10834466832603e-03 9.92638798696703e-05
1.37637272727273e+01 9.05133350046007e-03 9.88563099899476e-05
1.38231818181818e+01 8.99467917843877e-03 9.84494952019644e-05
1.38826363636364e+01 8.93837946827724e-03 9.80434476491826e-05
1.39420909090909e+01 8.88243215078412e-03 9.76381793778939e-05
1.40015454545455e+01 8.82683501985599e-03 9.72337021789766e-05
1.40610000000000e+01 8.77158588399240e-03 9.68300275724898e-05
1.41204545454545e+01 8.71668256462338e-03 9.64271668315228e-05
1.41799090909091e+01 8.66212289759396e-03 9.60251309669198e-05
1.42393636363636e+01 8.60790473152391e-03 9.56239307506571e-05
1.42988181818182e+01 8.55402592926255e-03 9.52235767007836e-05
1.43582727272727e+01 8.50048436628003e-03 9.48240791043264e-05
1.44177272727273e+01 8.44727793209304e-03 9.44254478417235e-05
1.44771818181818e+01 8.39440452905090e-03 9.40276930531140e-05
1.45366363636364e+01 8.34186207227458e-03 9.36308241607396e-05
1.45960909090909e+01 8.28964849065705e-03 9.32348505189464e-05
1.46555454545455e+01 8.23776172533955e-03 9.28397812694740e-05
1.47150000000000e+01 8.18619973105846e-03 9.24456253271155e-05
1.47744545454545e+01 8.13496047465052e-03 9.20523914010315e-05
1.48339090909091e+01 8.08404193637306e-03 9.16600879805633e-05
1.48933636363636e+01 8.03344210843760e-03 9.12687233561515e-05
1.49528181818182e+01 7.98315899630401e-03 9.08783056053320e-05
1.50122727272727e+01 7.93319061724186e-03 9.04888426132338e-05
1.50717272727273e+01 7.88353500159911e-03 9.01003419120881e-05
1.51311818181818e+01 7.83419019171558e-03 8.97128112890388e-05
1.51906363636364e+01 7.78515424186469e-03 8.93262578935469e-05
1.52500909090909e+01 7.73642521914363e-03 8.89406888303939e-05
1.53095454545455e+01 7.68800120210923e-03 8.85561110272684e-05
1.53690000000000e+01 7.63988028197775e-03 8.81725312214540e-05
1.54284545454545e+01 7.59206056128631e-03 8.77899559789234e-05
1.54879090909091e+01 7.54454015506932e-03 8.74083916812167e-05
1.55473636363636e+01 7.49731718954489e-03 8.70278445441801e-05
1.56068181818182e+01 7.45038980326839e-03 8.66483206049880e-05
1.56662727272727e+01 7.40375614584336e-03 8.62698257405544e-05
1.57257272727273e+01 7.35741437905263e-03 8.58923655206986e-05
1.57851818181818e+01 7.31136267588395e-03 8.55159457631682e-05
1.58446363636364e+01 7.26559922047454e-03 8.51405717179250e-05
1.59040909090909e+01 7.22012220890460e-03 8.47662486087052e-05
1.59635454545455e+01 7.17492984797385e-03 8.43929815117585e-05
1.60230000000000e+01 7.13002035627224e-03 8.40207753435248e-05
1.60824545454545e+01 7.08539196297911e-03 8.36496348777978e-05
1.61419090909091e+01 7.04104290891332e-03 8.32795647335677e-05
1.62013636363636e+01 6.99697144535451e-03 8.29105693918748e-05
1.62608181818182e+01 6.95317583507311e-03 8.25426531838015e-05
1.63202727272727e+01 6.90965435117321e-03 8.21758203070403e-05
1.63797272727273e+01 6.86640527810287e-03 8.18100746914808e-05
1.64391818181818e+01 6.82342691077872e-03 8.14454205064821e-05
1.64986363636364e+01 6.78071755453332e-03 8.10818614147847e-05
1.65580909090909e+01 6.73827552582376e-03 8.07194010675727e-05
1.66175454545455e+01 6.69609915113240e-03 8.03580429933458e-05
1.66770000000000e+01 6.65418676792411e-03 7.99977905865108e-05
1.67364545454545e+01 6.61253672356710e-03 7.96386471228592e-05
1.67959090909091e+01 6.57114737627191e-03 7.92806157483173e-05
1.68553636363636e+01 6.53001709403191e-03 7.89236994941422e-05
1.69148181818182e+01 6.48914425554446e-03 7.85679012658172e-05
1.69742727272727e+01 6.44852724917064e-03 7.82132238579767e-05
1.70337272727273e+01 6.40816447383902e-03 7.78596698312750e-05
1.70931818181818e+01 6.36805433825796e-03 7.75072419764583e-05
1.71526363636364e+01 6.32819526086573e-03 7.71559426314344e-05
1.72120909090909e+01 6.28858567046417e-03 7.68057741341411e-05
1.72715454545455e+01 6.24922400522969e-03 7.64567387206824e-05
1.73310000000000e+01 6.21010871357015e-03 7.61088385148002e-05
1.73904545454545e+01 6.17123825315371e-03 7.57620755418277e-05
1.74499090909091e+01 6.13261109174967e-03 7.54164517182965e-05
1.75093636363636e+01 6.09422570627463e-03 7.50719688656584e-05
1.75688181818182e+01 6.05608058361771e-03 7.47286287000168e-05
1.76282727272727e+01 6.01817421970377e-03 7.43864328456345e-05
1.76877272727273e+01 5.98050512030317e-03 7.40453827220551e-05
1.77471818181818e+01 5.94307180032188e-03 7.37054799689481e-05
1.78066363636364e+01 5.90587278375430e-03 7.33667258205453e-05
1.78660909090909e+01 5.86890660425083e-03 7.30291215202887e-05
1.79255454545455e+01 5.83217180422653e-03 7.26926682273664e-05
1.79850000000000e+01 5.79566693562958e-03 7.23573670069800e-05
1.80444545454545e+01 5.75939055906581e-03 7.20232188429938e-05
1.81039090909091e+01 5.72334124455286e-03 7.16902246283019e-05
1.81633636363636e+01 5.68751757066027e-03 7.13583851772580e-05
1.82228181818182e+01 5.65191812524970e-03 7.10277012161911e-05
1.82822727272727e+01 5.61654150463021e-03 7.06981733956189e-05
1.83417272727273e+01 5.58138631428481e-03 7.03698021867400e-05
1.84011818181818e+01 5.54645116822977e-03 7.00425882706413e-05
1.84606363636364e+01 5.51173468897013e-03 6.97165319648963e-05
1.85200909090909e+01 5.47723550800860e-03 6.93916336034704e-05
1.85795454545455e+01 5.44295226504138e-03 6.90678934509505e-05
1.86390000000000e+01 5.40888360864801e-03 6.87453116935429e-05
1.86984545454545e+01 5.37502819550129e-03 6.84238884505274e-05
1.87579090909091e+01 5.34138469104449e-03 6.81036237653827e-05
