Energy (eV)          EEDF (eV^-(3/2))     First Anisotropy
3.12500000000000e-02 6.73277249329401e-02 4.19722648821580e-05
9.37500000000000e-02 6.66861799603915e-02 6.92106037339693e-05
1.56250000000000e-01 6.60507480704933e-02 9.11078165948524e-05
2.18750000000000e-01 6.54213710136325e-02 1.07587100140022e-04
2.81250000000000e-01 6.47979910951965e-02 1.21202367742216e-04
3.43750000000000e-01 6.41805511703198e-02 1.32923039232954e-04
4.06250000000000e-01 6.35689946386509e-02 1.43252674267877e-04
4.68750000000000e-01 6.29632654391647e-02 1.52496470694961e-04
5.31250000000000e-01 6.23633080450237e-02 1.60857571152438e-04
5.93750000000000e-01 6.17690674584883e-02 1.68480065129218e-04
6.56250000000000e-01 6.11804892058752e-02 1.75470992279297e-04
7.18750000000000e-01 6.05975193325639e-02 1.81912723196800e-04
7.81250000000000e-01 6.00201043980505e-02 1.87870434461900e-04
8.43750000000000e-01 5.94481914710493e-02 1.93396874945309e-04
9.06250000000000e-01 5.88817281246400e-02 1.98535540481116e-04
9.68750000000000e-01 5.83206624314625e-02 2.03322865373405e-04
1.03125000000000e+00 5.77649429589561e-02 2.07789781087329e-04
1.09375000000000e+00 5.72145187646451e-02 2.11962853330995e-04
1.15625000000000e+00 5.66693393914688e-02 2.15865129867618e-04
1.21875000000000e+00 5.61293548631562e-02 2.19516784762382e-04
1.28125000000000e+00 5.55945156796446e-02 2.22935616174164e-04
1.34375000000000e+00 5.50647728125420e-02 2.26137436709747e-04
1.40625000000000e+00 5.45400777006327e-02 2.29136383590405e-04
1.46875000000000e+00 5.40203822454259e-02 2.31945168038352e-04
1.53125000000000e+00 5.35056388067461e-02 2.34575277949343e-04
1.59375000000000e+00 5.29958001983664e-02 2.37037144208746e-04
1.65625000000000e+00 5.24908196836828e-02 2.39340278387172e-04
1.71875000000000e+00 5.19906509714298e-02 2.41493387669570e-04
1.78125000000000e+00 5.14952482114371e-02 2.43504471500325e-04
1.84375000000000e+00 5.10045659904264e-02 2.45380903414734e-04
1.90625000000000e+00 5.05185593278482e-02 2.47129500770588e-04
1.96875000000000e+00 5.00371836717591e-02 2.48756584521683e-04
2.03125000000000e+00 4.95603948947369e-02 2.50268030738555e-04
2.09375000000000e+00 4.90881492898361e-02 2.51669315244949e-04
2.15625000000000e+00 4.86204035665812e-02 2.52965552476497e-04
2.21875000000000e+00 4.81571148469979e-02 2.54161529462593e-04
2.28125000000000e+00 4.76982406616832e-02 2.55261735669855e-04
2.34375000000000e+00 4.72437389459114e-02 2.56270389316062e-04
2.40625000000000e+00 4.67935680357789e-02 2.57191460659570e-04
2.46875000000000e+00 4.63476866643842e-02 2.58028692685352e-04
2.53125000000000e+00 4.59060539580455e-02 2.58785619540781e-04
2.59375000000000e+00 4.54686294325534e-02 2.59465583018353e-04
2.65625000000000e+00 4.50353729894601e-02 2.60071747337080e-04
2.71875000000000e+00 4.46062449124034e-02 2.60607112436433e-04
2.78125000000000e+00 4.41812058634661e-02 2.61074525965246e-04
2.84375000000000e+00 4.37602168795695e-02 2.61476694122033e-04
2.90625000000000e+00 4.33432393689023e-02 2.61816191481251e-04
2.96875000000000e+00 4.29302351073824e-02 2.62095469921500e-04
3.03125000000000e+00 4.25211662351531e-02 2.62316866756242e-04
3.09375000000000e+00 4.21159952531125e-02 2.62482612154491e-04
3.15625000000000e+00 4.17146850194762e-02 2.62594835927449e-04
3.21875000000000e+00 4.13171987463720e-02 2.62655573747814e-04
3.28125000000000e+00 4.09234999964682e-02 2.62666772860077e-04
3.34375000000000e+00 4.05335526796329e-02 2.62630297333124e-04
3.40625000000000e+00 4.01473210496260e-02 2.62547932900380e-04
3.46875000000000e+00 3.97647697008220e-02 2.62421391427475e-04
3.53125000000000e+00 3.93858635649649e-02 2.62252315042867e-04
3.59375000000000e+00 3.90105679079531e-02 2.62042279962870e-04
3.65625000000000e+00 3.86388483266553e-02 2.61792800039075e-04
3.71875000000000e+00 3.82706707457571e-02 2.61505330053132e-04
3.78125000000000e+00 3.79060014146373e-02 2.61181268781204e-04
3.84375000000000e+00 3.75448069042736e-02 2.60821961848113e-04
3.90625000000000e+00 3.71870541041786e-02 2.60428704389072e-04
3.96875000000000e+00 3.68327102193647e-02 2.60002743535170e-04
4.03125000000000e+00 3.64817427673370e-02 2.59545280737153e-04
4.09375000000000e+00 3.61341195751167e-02 2.59057473940522e-04
4.15625000000000e+00 3.57898087762911e-02 2.58540439623904e-04
4.21875000000000e+00 3.54487788080927e-02 2.57995254711403e-04
4.28125000000000e+00 3.51109984085057e-02 2.57422958368621e-04
4.34375000000000e+00 3.47764366134005e-02 2.56824553691188e-04
4.40625000000000e+00 3.44450627536950e-02 2.56201009293908e-04
4.46875000000000e+00 3.41168464525432e-02 2.55553260807792e-04
4.53125000000000e+00 3.37917576225506e-02 2.54882212291632e-04
4.59375000000000e+00 3.34697664630164e-02 2.54188737564350e-04
4.65625000000000e+00 3.31508434572010e-02 2.53473681463554e-04
4.71875000000000e+00 3.28349593696211e-02 2.52737861035466e-04
4.78125000000000e+00 3.25220852433688e-02 2.51982066661020e-04
4.84375000000000e+00 3.22121923974579e-02 2.51207063122279e-04
4.90625000000000e+00 3.19052524241942e-02 2.50413590613239e-04
4.96875000000000e+00 3.16012371865717e-02 2.49602365698642e-04
5.03125000000000e+00 3.13001188156933e-02 2.48774082224146e-04
5.09375000000000e+00 3.10018697082156e-02 2.47929412180976e-04
5.15625000000000e+00 3.07064625238193e-02 2.47069006527902e-04
5.21875000000000e+00 3.04138701827023e-02 2.46193495973194e-04
5.28125000000000e+00 3.01240658630975e-02 2.45303491719016e-04
5.34375000000000e+00 2.98370229988141e-02 2.44399586170551e-04
5.40625000000000e+00 2.95527152768024e-02 2.43482353611916e-04
5.46875000000000e+00 2.92711166347414e-02 2.42552350850844e-04
5.53125000000000e+00 2.89922012586499e-02 2.41610117833954e-04
5.59375000000000e+00 2.87159435805203e-02 2.40656178234329e-04
5.65625000000000e+00 2.84423182759743e-02 2.39691040012904e-04
5.71875000000000e+00 2.81713002619420e-02 2.38715195955190e-04
5.78125000000000e+00 2.79028646943621e-02 2.37729124184701e-04
5.84375000000000e+00 2.76369869659047e-02 2.36733288654284e-04
5.90625000000000e+00 2.73736427037155e-02 2.35728139616661e-04
5.96875000000000e+00 2.71128077671816e-02 2.34714114075215e-04
6.03125000000000e+00 2.68544582457184e-02 2.33691636216063e-04
6.09375000000000e+00 2.65985704565780e-02 2.32661117822442e-04
6.15625000000000e+00 2.63451209426778e-02 2.31622958672261e-04
6.21875000000000e+00 2.60940864704507e-02 2.30577546919742e-04
6.28125000000000e+00 2.58454440277148e-02 2.29525259461901e-04
6.34375000000000e+00 2.55991708215644e-02 2.28466462290637e-04
6.40625000000000e+00 2.53552442762801e-02 2.27401510831167e-04
6.46875000000000e+00 2.51136420312597e-02 2.26330750267419e-04
6.53125000000000e+00 2.48743419389680e-02 2.25254515855074e-04
6.59375000000000e+00 2.46373220629070e-02 2.24173133222815e-04
6.65625000000000e+00 2.44025606756046e-02 2.23086918662308e-04
6.71875000000000e+00 2.41700362566231e-02 2.21996179407529e-04
6.78125000000000e+00 2.39397274905866e-02 2.20901213903859e-04
6.84375000000000e+00 2.37116132652263e-02 2.19802312067404e-04
6.90625000000000e+00 2.34856726694461e-02 2.18699755535041e-04
6.96875000000000e+00 2.32618849914050e-02 2.17593817905584e-04
7.03125000000000e+00 2.30402297166187e-02 2.16484764972439e-04
7.09375000000000e+00 2.28206865260792e-02 2.15372854948151e-04
7.15625000000000e+00 2.26032352943919e-02 2.14258338681189e-04
7.21875000000000e+00 2.23878560879309e-02 2.13141459865307e-04
7.28125000000000e+00 2.21745291630115e-02 2.12022455241770e-04
7.34375000000000e+00 2.19632349640806e-02 2.10901554794760e-04
7.40625000000000e+00 2.17539541219237e-02 2.09778981940305e-04
7.46875000000000e+00 2.15466674518897e-02 2.08654953708932e-04
7.53125000000000e+00 2.13413559521320e-02 2.07529680922284e-04
7.59375000000000e+00 2.11380008018667e-02 2.06403368364008e-04
7.65625000000000e+00 2.09365833596474e-02 2.05276214945160e-04
7.71875000000000e+00 2.07370851616560e-02 2.04148413864234e-04
7.78125000000000e+00 2.05394879200107e-02 2.03020152762143e-04
7.84375000000000e+00 2.03437735210890e-02 2.01891613872319e-04
7.90625000000000e+00 2.01499240238676e-02 2.00762974166075e-04
7.96875000000000e+00 1.99579216582776e-02 1.99634405493476e-04
8.03125000000000e+00 1.97677488235756e-02 1.98506074719833e-04
8.09375000000000e+00 1.95793880867301e-02 1.97378143858042e-04
8.15625000000000e+00 1.93928221808238e-02 1.96250770196907e-04
8.21875000000000e+00 1.92080340034702e-02 1.95124106425550e-04
8.28125000000000e+00 1.90250066152462e-02 1.93998300754101e-04
8.34375000000000e+00 1.88437232381394e-02 1.92873497030821e-04
8.40625000000000e+00 1.86641672540096e-02 1.91749834855715e-04
8.46875000000000e+00 1.84863222030659e-02 1.90627449690844e-04
8.53125000000000e+00 1.83101717823574e-02 1.89506472967398e-04
8.59375000000000e+00 1.81356998442793e-02 1.88387032189662e-04
8.65625000000000e+00 1.79628903950919e-02 1.87269251035985e-04
8.71875000000000e+00 1.77917275934552e-02 1.86153249456869e-04
8.78125000000000e+00 1.76221957489763e-02 1.85039143770251e-04
8.84375000000000e+00 1.74542793207712e-02 1.83927046754096e-04
8.90625000000000e+00 1.72879629160399e-02 1.82817067736391e-04
8.96875000000000e+00 1.71232312886561e-02 1.81709312682606e-04
9.03125000000000e+00 1.69600693377687e-02 1.80603884280736e-04
9.09375000000000e+00 1.67984621064181e-02 1.79500882024002e-04
9.15625000000000e+00 1.66383947801649e-02 1.78400402291254e-04
9.21875000000000e+00 1.64798526857317e-02 1.77302538425194e-04
9.28125000000000e+00 1.63228212896586e-02 1.76207380808483e-04
9.34375000000000e+00 1.61672861969701e-02 1.75115016937763e-04
9.40625000000000e+00 1.60132331498563e-02 1.74025531495698e-04
9.46875000000000e+00 1.58606480263652e-02 1.72939006421097e-04
9.53125000000000e+00 1.57095168391089e-02 1.71855520977181e-04
9.59375000000000e+00 1.55598257339805e-02 1.70775151818007e-04
9.65625000000000e+00 1.54115609888850e-02 1.69697973053158e-04
9.71875000000000e+00 1.52647090124808e-02 1.68624056310759e-04
9.78125000000000e+00 1.51192563429338e-02 1.67553470798817e-04
9.84375000000000e+00 1.49751896466839e-02 1.66486283364973e-04
9.90625000000000e+00 1.48324957172222e-02 1.65422558554725e-04
9.96875000000000e+00 1.46911614738802e-02 1.64362358668146e-04
1.00312500000000e+01 1.45511739606316e-02 1.63305743815139e-04
1.00937500000000e+01 1.44125203449037e-02 1.62252771969293e-04
1.01562500000000e+01 1.42751879164013e-02 1.61203499020357e-04
1.02187500000000e+01 1.41391640859420e-02 1.60157978825411e-04
1.02812500000000e+01 1.40044363843015e-02 1.59116263258731e-04
1.03437500000000e+01 1.38709924610711e-02 1.58078402260406e-04
1.04062500000000e+01 1.37388200835250e-02 1.57044443883721e-04
1.04687500000000e+01 1.36079071354996e-02 1.56014434341402e-04
1.05312500000000e+01 1.34782416162823e-02 1.54988418050702e-04
1.05937500000000e+01 1.33498116395114e-02 1.53966437677334e-04
1.06562500000000e+01 1.32226054320870e-02 1.52948534178361e-04
1.07187500000000e+01 1.30966113330910e-02 1.51934746844044e-04
1.07812500000000e+01 1.29718177927190e-02 1.50925113338640e-04
1.08437500000000e+01 1.28482133712207e-02 1.49919669740224e-04
1.09062500000000e+01 1.27257867378519e-02 1.48918450579518e-04
1.09687500000000e+01 1.26045266698354e-02 1.47921488877808e-04
1.10312500000000e+01 1.24844220513325e-02 1.46928816183956e-04
1.10937500000000e+01 1.23654618724236e-02 1.45940462610508e-04
1.11562500000000e+01 1.22476352280995e-02 1.44956456868919e-04
1.12187500000000e+01 1.21309313172613e-02 1.43976826303959e-04
1.12812500000000e+01 1.20153394417304e-02 1.43001596927305e-04
1.13437500000000e+01 1.19008490052679e-02 1.42030793450328e-04
1.14062500000000e+01 1.17874495126031e-02 1.41064439316096e-04
1.14687500000000e+01 1.16751305684715e-02 1.40102556730636e-04
1.15312500000000e+01 1.15638818766619e-02 1.39145166693461e-04
1.15937500000000e+01 1.14536932390724e-02 1.38192289027360e-04
1.16562500000000e+01 1.13445545547757e-02 1.37243942407507e-04
1.17187500000000e+01 1.12364558190930e-02 1.36300144389902e-04
1.17812500000000e+01 1.11293871226772e-02 1.35360911439123e-04
1.18437500000000e+01 1.10233386506041e-02 1.34426258955447e-04
1.19062500000000e+01 1.09183006814728e-02 1.33496201301366e-04
1.19687500000000e+01 1.08142635865149e-02 1.32570751827451e-04
1.20312500000000e+01 1.07112178287113e-02 1.31649922897620e-04
1.20937500000000e+01 1.06091539619183e-02 1.30733725913863e-04
1.21562500000000e+01 1.05080626300014e-02 1.29822171340372e-04
1.22187500000000e+01 1.04079345659780e-02 1.28915268727121e-04
1.22812500000000e+01 1.03087605911676e-02 1.28013026732915e-04
1.23437500000000e+01 1.02105316143506e-02 1.27115453147893e-04
1.24062500000000e+01 1.01132386309347e-02 1.26222554915547e-04
1.24687500000000e+01 1.00168727221295e-02 1.25334338154221e-04
1.25312500000000e+01 9.92142505412915e-03 1.24450808178117e-04
1.25937500000000e+01 9.82688687730228e-03 1.23571969517858e-04
1.26562500000000e+01 9.73324952539007e-03 1.22697825940541e-04
1.27187500000000e+01 9.64050441471179e-03 1.21828380469368e-04
1.27812500000000e+01 9.54864304337795e-03 1.20963635402836e-04
1.28437500000000e+01 9.45765699051090e-03 1.20103592333468e-04
1.29062500000000e+01 9.36753791547292e-03 1.19248252166154e-04
1.29687500000000e+01 9.27827755710164e-03 1.18397615136057e-04
1.30312500000000e+01 9.18986773295275e-03 1.17551680826138e-04
1.30937500000000e+01 9.10230033854989e-03 1.16710448184267e-04
1.31562500000000e+01 9.01556734664175e-03 1.15873915539965e-04
1.32187500000000e+01 8.92966080646620e-03 1.15042080620780e-04
1.32812500000000e+01 8.84457284302144e-03 1.14214940568276e-04
1.33437500000000e+01 8.76029565634416e-03 1.13392491953681e-04
1.34062500000000e+01 8.67682152079441e-03 1.12574730793192e-04
1.34687500000000e+01 8.59414278434753e-03 1.11761652562917e-04
1.35312500000000e+01 8.51225186789256e-03 1.10953252213501e-04
1.35937500000000e+01 8.43114126453759e-03 1.10149524184436e-04
1.36562500000000e+01 8.35080353892153e-03 1.09350462418040e-04
1.37187500000000e+01 8.27123132653251e-03 1.08556060373116e-04
1.37812500000000e+01 8.19241733303285e-03 1.07766311038334e-04
1.38437500000000e+01 8.11435433359031e-03 1.06981206945305e-04
1.39062500000000e+01 8.03703517221586e-03 1.06200740181365e-04
1.39687500000000e+01 7.96045276110765e-03 1.05424902402066e-04
1.40312500000000e+01 7.88460008000130e-03 1.04653684843417e-04
1.40937500000000e+01 7.80947017552633e-03 1.03887078333832e-04
1.41562500000000e+01 7.73505616056879e-03 1.03125073305821e-04
1.42187500000000e+01 7.66135121363989e-03 1.02367659807424e-04
1.42812500000000e+01 7.58834857825070e-03 1.01614827513396e-04
1.43437500000000e+01 7.51604156229274e-03 1.00866565736141e-04
1.44062500000000e+01 7.44442353742459e-03 1.00122863436400e-04
1.44687500000000e+01 7.37348793846421e-03 9.93837092337135e-05
1.45312500000000e+01 7.30322826278715e-03 9.86490914166472e-05
1.45937500000000e+01 7.23363806973046e-03 9.79189979527960e-05
1.46562500000000e+01 7.16471098000224e-03 9.71934164985599e-05
1.47187500000000e+01 7.09644067509690e-03 9.64723344087133e-05
1.47812500000000e+01 7.02882089671592e-03 9.57557387457573e-05
1.48437500000000e+01 6.96184544619416e-03 9.50436162890638e-05
1.49062500000000e+01 6.89550818393165e-03 9.43359535438301e-05
1.49687500000000e+01 6.82980302883074e-03 9.36327367498240e-05
1.50312500000000e+01 6.76472395773867e-03 9.29339518899286e-05
1.50937500000000e+01 6.70026500489544e-03 9.22395846985199e-05
1.51562500000000e+01 6.63642026138694e-03 9.15496206696490e-05
1.52187500000000e+01 6.57318387460324e-03 9.08640450650317e-05
1.52812500000000e+01 6.51055004770212e-03 9.01828429218781e-05
1.53437500000000e+01 6.44851303907767e-03 8.95059990605431e-05
1.54062500000000e+01 6.38706716183397e-03 8.88334980920043e-05
1.54687500000000e+01 6.32620678326373e-03 8.81653244251701e-05
1.55312500000000e+01 6.26592632433201e-03 8.75014622740382e-05
1.55937500000000e+01 6.20622025916476e-03 8.68418956646914e-05
1.56562500000000e+01 6.14708311454225e-03 8.61866084421236e-05
1.57187500000000e+01 6.08850946939738e-03 8.55355842769384e-05
1.57812500000000e+01 6.03049395431868e-03 8.48888066718731e-05
1.58437500000000e+01 5.97303125105818e-03 8.42462589681868e-05
1.59062500000000e+01 5.91611609204381e-03 8.36079243519234e-05
1.59687500000000e+01 5.85974325989656e-03 8.29737858600068e-05
1.60312500000000e+01 5.80390758695222e-03 8.23438263862053e-05
1.60937500000000e+01 5.74860395478763e-03 8.17180286869799e-05
1.61562500000000e+01 5.69382729375151e-03 8.10963753871870e-05
1.62187500000000e+01 5.63957258249969e-03 8.04788489856504e-05
1.62812500000000e+01 5.58583484753485e-03 7.98654318606195e-05
1.63437500000000e+01 5.53260916275057e-03 7.92561062750884e-05
1.64062500000000e+01 5.47989064897977e-03 7.86508543820079e-05
1.64687500000000e+01 5.42767447354744e-03 7.80496582293810e-05
1.65312500000000e+01 5.37595584982762e-03 7.74524997652271e-05
1.65937500000000e+01 5.32473003680463e-03 7.68593608424441e-05
1.66562500000000e+01 5.27399233863846e-03 7.62702232235656e-05
1.67187500000000e+01 5.22373810423428e-03 7.56850685853935e-05
1.67812500000000e+01 5.17396272681611e-03 7.51038785235383e-05
1.68437500000000e+01 5.12466164350452e-03 7.45266345568537e-05
1.69062500000000e+01 5.07583033489832e-03 7.39533181317562e-05
1.69687500000000e+01 5.02746432466030e-03 7.33839106264601e-05
1.70312500000000e+01 4.97955917910687e-03 7.28183933551109e-05
1.70937500000000e+01 4.93211050680164e-03 7.22567475718220e-05
1.71562500000000e+01 4.88511395815286e-03 7.16989544746136e-05
1.72187500000000e+01 4.83856522501466e-03 7.11449952092630e-05
1.72812500000000e+01 4.79246004029219e-03 7.05948508730653e-05
1.73437500000000e+01 4.74679417755040e-03 7.00485025185104e-05
1.74062500000000e+01 4.70156345062663e-03 6.95059311568688e-05
1.74687500000000e+01 4.65676371324686e-03 6.89671177616871e-05
1.75312500000000e+01 4.61239085864563e-03 6.84320432722124e-05
1.75937500000000e+01 4.56844081918957e-03 6.79006885967309e-05
1.76562500000000e+01 4.52490956600454e-03 6.73730346158221e-05
1.77187500000000e+01 4.48179310860627e-03 6.68490621855469e-05
1.77812500000000e+01 4.43908749453458e-03 6.63287521405468e-05
1.78437500000000e+01 4.39678880899106e-03 6.58120852970753e-05
1.79062500000000e+01 4.35489317448020e-03 6.52990424559541e-05
1.79687500000000e+01 4.31339675045392e-03 6.47896044054622e-05
1.80312500000000e+01 4.27229573295955e-03 6.42837519241497e-05
1.80937500000000e+01 4.23158635429111e-03 6.37814657835818e-05
1.81562500000000e+01 4.19126488264389e-03 6.32827267510222e-05
1.82187500000000e+01 4.15132762177241e-03 6.27875155920429e-05
1.82812500000000e+01 4.11177091065156e-03 6.22958130730794e-05
1.83437500000000e+01 4.07259112314101e-03 6.18075999639124e-05
1.84062500000000e+01 4.03378466765277e-03 6.13228570400856e-05
1.84687500000000e+01 3.99534798682199e-03 6.08415650852815e-05
1.85312500000000e+01 3.95727755718086e-03 6.03637048936159e-05
1.85937500000000e+01 3.91956988883558e-03 5.98892572718863e-05
1.86562500000000e+01 3.88222152514646e-03 5.94182030417630e-05
1.87187500000000e+01 3.84522904241108e-03 5.89505230419149e-05
1.87812500000000e+01 3.80858904955038e-03 5.84861981300930e-05
1.88437500000000e+01 3.77229818779788e-03 5.80252091851530e-05
1.89062500000000e+01 3.73635313039172e-03 5.75675371090275e-05
1.89687500000000e+01 3.70075058226971e-03 5.71131628286455e-05
1.90312500000000e+01 3.66548727976731e-03 5.66620672978046e-05
1.90937500000000e+01 3.63055999031841e-03 5.62142314989867e-05
1.91562500000000e+01 3.59596551215901e-03 5.57696364451326e-05
1.92187500000000e+01 3.56170067403374e-03 5.53282631813673e-05
1.92812500000000e+01 3.52776233490513e-03 5.48900927866807e-05
1.93437500000000e+01 3.49414738366569e-03 5.44551063755555e-05
1.94062500000000e+01 3.46085273885268e-03 5.40232850995579e-05
1.94687500000000e+01 3.42787534836570e-03 5.35946101488861e-05
1.95312500000000e+01 3.39521218918684e-03 5.31690627538659e-05
1.95937500000000e+01 3.36286026710359e-03 5.27466241864140e-05
1.96562500000000e+01 3.33081661643436e-03 5.23272757614574e-05
1.97187500000000e+01 3.29907829975664e-03 5.19109988383127e-05
