Energy (eV)          EEDF (eV^-(3/2))     First Anisotropy
7.37878787878788e-03 6.69750254461249e-01 4.33053532276147e-04
2.21363636363636e-02 6.62781327856610e-01 7.13773661208851e-04
3.68939393939394e-02 6.55884914791370e-01 9.38769553376344e-04
5.16515151515152e-02 6.49060260699863e-01 1.10759002502770e-03
6.64090909090909e-02 6.42306618927610e-01 1.24665250749948e-03
8.11666666666667e-02 6.35623250560317e-01 1.36599795913053e-03
9.59242424242424e-02 6.29009424393158e-01 1.47084870566422e-03
1.10681818181818e-01 6.22464416831133e-01 1.56437380109581e-03
1.25439393939394e-01 6.15987511770669e-01 1.64868514797307e-03
1.40196969696970e-01 6.09578000589078e-01 1.72528250271186e-03
1.54954545454545e-01 6.03235182037842e-01 1.79528128966965e-03
1.69712121212121e-01 5.96958362203658e-01 1.85954085522718e-03
1.84469696969697e-01 5.90746854312704e-01 1.91874193007321e-03
1.99227272727273e-01 5.84599978778019e-01 1.97343604286296e-03
2.13984848484848e-01 5.78517063084057e-01 2.02407845890327e-03
2.28742424242424e-01 5.72497441740057e-01 2.07105092853635e-03
2.43500000000000e-01 5.66540456124235e-01 2.11467786718695e-03
2.58257575757576e-01 5.60645454496039e-01 2.15523816330503e-03
2.73015151515152e-01 5.54811791896401e-01 2.19297399526079e-03
2.87772727272727e-01 5.49038830097673e-01 2.22809753416901e-03
3.02530303030303e-01 5.43325937471527e-01 2.26079611910538e-03
3.17287878787879e-01 5.37672488982929e-01 2.29123631651143e-03
3.32045454545455e-01 5.32077866100393e-01 2.31956715471157e-03
3.46803030303030e-01 5.26541456744583e-01 2.34592272556985e-03
3.61560606060606e-01 5.21062655172294e-01 2.37042429417952e-03
3.76318181818182e-01 5.15640861959791e-01 2.39318203035352e-03
3.91075757575758e-01 5.10275483920376e-01 2.41429644938147e-03
4.05833333333333e-01 5.04965934052799e-01 2.43385961487616e-03
4.20590909090909e-01 4.99711631437124e-01 2.45195614565888e-03
4.35348484848485e-01 4.94512001211500e-01 2.46866406826771e-03
4.50106060606061e-01 4.89366474495536e-01 2.48405554956871e-03
4.64863636363636e-01 4.84274488339192e-01 2.49819752477718e-03
4.79621212121212e-01 4.79235485627941e-01 2.51115223441622e-03
4.94378787878788e-01 4.74248915055390e-01 2.52297768938416e-03
5.09136363636364e-01 4.69314231051509e-01 2.53372808239426e-03
5.23893939393939e-01 4.64430893723167e-01 2.54345414199309e-03
5.38651515151515e-01 4.59598368803917e-01 2.55220344935644e-03
5.53409090909091e-01 4.54816127568285e-01 2.56002071236329e-03
5.68166666666667e-01 4.50083646801473e-01 2.56694800800155e-03
5.82924242424242e-01 4.45400408732926e-01 2.57302500246785e-03
5.97681818181818e-01 4.40765900987352e-01 2.57828914715955e-03
6.12439393939394e-01 4.36179616505192e-01 2.58277585013595e-03
6.27196969696970e-01 4.31641053510852e-01 2.58651862971571e-03
6.41954545454546e-01 4.27149715449874e-01 2.58954925694570e-03
6.56712121212121e-01 4.22705110941311e-01 2.59189788390062e-03
6.71469696969697e-01 4.18306753703538e-01 2.59359315620866e-03
6.86227272727273e-01 4.13954162521676e-01 2.59466231489422e-03
7.00984848484849e-01 4.09646861188024e-01 2.59513129285264e-03
7.15742424242424e-01 4.05384378455860e-01 2.59502480251820e-03
7.30500000000000e-01 4.01166247969957e-01 2.59436641265342e-03
7.45257575757576e-01 3.96992008233657e-01 2.59317861843367e-03
7.60015151515152e-01 3.92861202552293e-01 2.59148290927892e-03
7.74772727272727e-01 3.88773378988458e-01 2.58929983094477e-03
7.89530303030303e-01 3.84728090296714e-01 2.58664903965101e-03
8.04287878787879e-01 3.80724893890651e-01 2.58354935182768e-03
8.19045454545455e-01 3.76763351789075e-01 2.58001879334935e-03
8.33803030303030e-01 3.72843030572762e-01 2.57607464486997e-03
8.48560606060606e-01 3.68963501322938e-01 2.57173348103220e-03
8.63318181818182e-01 3.65124339588577e-01 2.56701120671089e-03
8.78075757575758e-01 3.61325125335160e-01 2.56192309373587e-03
8.92833333333333e-01 3.57565442902908e-01 2.55648381486911e-03
9.07590909090909e-01 3.53844880948697e-01 2.55070747287272e-03
9.22348484848485e-01 3.50163032413771e-01 2.54460762750901e-03
9.37106060606061e-01 3.46519494474906e-01 2.53819732358455e-03
9.51863636363636e-01 3.42913868504110e-01 2.53148911699878e-03
9.66621212121212e-01 3.39345760013679e-01 2.52449509672666e-03
9.81378787878788e-01 3.35814778624464e-01 2.51722690532043e-03
9.96136363636364e-01 3.32320538019289e-01 2.50969576018618e-03
1.01089393939394e+00 3.28862655907423e-01 2.50191247806096e-03
1.02565151515152e+00 3.25440753949253e-01 2.49388748023742e-03
1.04040909090909e+00 3.22054457794606e-01 2.48563082453999e-03
1.05516666666667e+00 3.18703396923714e-01 2.47715221285194e-03
1.06992424242424e+00 3.15387204735194e-01 2.46846100733942e-03
1.08468181818182e+00 3.12105518380931e-01 2.45956625149147e-03
1.09943939393939e+00 3.08857978819064e-01 2.45047666097849e-03
1.11419696969697e+00 3.05644230772397e-01 2.44120066949395e-03
1.12895454545455e+00 3.02463922602831e-01 2.43174641946580e-03
1.14371212121212e+00 2.99316706387291e-01 2.42212177792656e-03
1.15846969696970e+00 2.96202237768278e-01 2.41233434868709e-03
1.17322727272727e+00 2.93120176024663e-01 2.40239148142588e-03
1.18798484848485e+00 2.90070183928723e-01 2.39230028742603e-03
1.20274242424242e+00 2.87051927787705e-01 2.38206762882072e-03
1.21750000000000e+00 2.84065077405379e-01 2.37170015677296e-03
1.23225757575758e+00 2.81109305972385e-01 2.36120430090940e-03
1.24701515151515e+00 2.78184290127585e-01 2.35058628128108e-03
1.26177272727273e+00 2.75289709828009e-01 2.33985212149674e-03
1.27653030303030e+00 2.72425248384129e-01 2.32900763747203e-03
1.29128787878788e+00 2.69590592423499e-01 2.31805847148498e-03
1.30604545454545e+00 2.66785431790511e-01 2.30701008125077e-03
1.32080303030303e+00 2.64009459599657e-01 2.29586774992873e-03
1.33556060606061e+00 2.61262372116842e-01 2.28463659320858e-03
1.35031818181818e+00 2.58543868809217e-01 2.27332156413494e-03
1.36507575757576e+00 2.55853652231220e-01 2.26192746353168e-03
1.37983333333333e+00 2.53191428052257e-01 2.25045892877246e-03
1.39459090909091e+00 2.50556905023095e-01 2.23892046305144e-03
1.40934848484848e+00 2.47949794887336e-01 2.22731642457667e-03
1.42410606060606e+00 2.45369812424793e-01 2.21565103452088e-03
1.43886363636364e+00 2.42816675347097e-01 2.20392838240106e-03
1.45362121212121e+00 2.40290104338313e-01 2.19215242952633e-03
1.46837878787879e+00 2.37789822954520e-01 2.18032701747712e-03
1.48313636363636e+00 2.35315557645479e-01 2.16845585727049e-03
1.49789393939394e+00 2.32867037723536e-01 2.15654255481929e-03
1.51265151515152e+00 2.30443995285063e-01 2.14459060055550e-03
1.52740909090909e+00 2.28046165245865e-01 2.13260337589317e-03
1.54216666666667e+00 2.25673285248902e-01 2.12058415740791e-03
1.55692424242424e+00 2.23325095697460e-01 2.10853611934812e-03
1.57168181818182e+00 2.21001339666230e-01 2.09646234066132e-03
1.58643939393939e+00 2.18701762918207e-01 2.08436579474559e-03
1.60119696969697e+00 2.16426113875864e-01 2.07224937179219e-03
1.61595454545455e+00 2.14174143551149e-01 2.06011586898295e-03
1.63071212121212e+00 2.11945605574445e-01 2.04796799584727e-03
1.64546969696970e+00 2.09740256112624e-01 2.03580837757152e-03
1.66022727272727e+00 2.07557853896178e-01 2.02363955685461e-03
1.67498484848485e+00 2.05398160140155e-01 2.01146399982110e-03
1.68974242424242e+00 2.03260938557231e-01 1.99928408643661e-03
1.70450000000000e+00 2.01145955330976e-01 1.98710213025113e-03
1.71925757575758e+00 1.99052979053253e-01 1.97492036923613e-03
1.73401515151515e+00 1.96981780747901e-01 1.96274097029068e-03
1.74877272727273e+00 1.94932133797708e-01 1.95056603452836e-03
1.76353030303030e+00 1.92903813955316e-01 1.93839758814177e-03
1.77828787878788e+00 1.90896599317898e-01 1.92623760058645e-03
1.79304545454545e+00 1.88910270269127e-01 1.91408797585268e-03
1.80780303030303e+00 1.86944609499848e-01 1.90195055648948e-03
1.82256060606061e+00 1.84999401940510e-01 1.88982712590439e-03
1.83731818181818e+00 1.83074434780536e-01 1.87771940949113e-03
1.85207575757576e+00 1.81169497403009e-01 1.86562907917104e-03
1.86683333333333e+00 1.79284381392914e-01 1.85355774493810e-03
1.88159090909091e+00 1.77418880513656e-01 1.84150697106412e-03
1.89634848484849e+00 1.75572790654891e-01 1.82947826802820e-03
1.91110606060606e+00 1.73745909849403e-01 1.81747309596397e-03
1.92586363636364e+00 1.71938038212575e-01 1.80549286655228e-03
1.94062121212121e+00 1.70148977958195e-01 1.79353894387435e-03
1.95537878787879e+00 1.68378533339879e-01 1.78161264834665e-03
1.97013636363636e+00 1.66626510657160e-01 1.76971524892283e-03
1.98489393939394e+00 1.64892718233708e-01 1.75784797758966e-03
1.99965151515152e+00 1.63176966370300e-01 1.74601202192730e-03
2.01440909090909e+00 1.61479067358584e-01 1.73420852808807e-03
2.02916666666667e+00 1.59798835426694e-01 1.72243860237036e-03
2.04392424242424e+00 1.58136086752115e-01 1.71070331186732e-03
2.05868181818182e+00 1.56490639409021e-01 1.69900368789786e-03
2.07343939393939e+00 1.54862313372615e-01 1.68734071883388e-03
2.08819696969697e+00 1.53250930498926e-01 1.67571536310748e-03
2.10295454545455e+00 1.51656314482317e-01 1.66412854236322e-03
2.11771212121212e+00 1.50078290866667e-01 1.65258114405342e-03
2.13246969696970e+00 1.48516686996395e-01 1.64107402275790e-03
2.14722727272727e+00 1.46971332026890e-01 1.62960800067761e-03
2.16198484848485e+00 1.45442056877048e-01 1.61818387064457e-03
2.17674242424242e+00 1.43928694232215e-01 1.60680238953317e-03
2.19150000000000e+00 1.42431078525427e-01 1.59546428996201e-03
2.20625757575758e+00 1.40949045898955e-01 1.58417027400010e-03
2.22101515151515e+00 1.39482434213333e-01 1.57292101544132e-03
2.23577272727273e+00 1.38031083003166e-01 1.56171716256280e-03
2.25053030303030e+00 1.36594833479283e-01 1.55055933190772e-03
2.26528787878788e+00 1.35173528510952e-01 1.53944811917520e-03
2.28004545454545e+00 1.33767012589980e-01 1.52838409328116e-03
2.29480303030303e+00 1.32375131838499e-01 1.51736779843981e-03
2.30956060606061e+00 1.30997733967784e-01 1.50639975515589e-03
2.32431818181818e+00 1.29634668285494e-01 1.49548046053056e-03
2.33907575757576e+00 1.28285785655716e-01 1.48461039070214e-03
2.35383333333333e+00 1.26950938500136e-01 1.47378999514155e-03
2.36859090909091e+00 1.25629980781538e-01 1.46301970648369e-03
2.38334848484849e+00 1.24322767971205e-01 1.45229993507883e-03
2.39810606060606e+00 1.23029157055136e-01 1.44163107083000e-03
2.41286363636364e+00 1.21749006496769e-01 1.43101348404024e-03
2.42762121212121e+00 1.20482176242737e-01 1.42044752564233e-03
2.44237878787879e+00 1.19228527686680e-01 1.40993352936685e-03
2.45713636363636e+00 1.17987923669634e-01 1.39947180650985e-03
2.47189393939394e+00 1.16760228464708e-01 1.38906265482394e-03
2.48665151515152e+00 1.15545307747450e-01 1.37870635352153e-03
2.50140909090909e+00 1.14343028600751e-01 1.36840316490237e-03
2.51616666666667e+00 1.13153259481046e-01 1.35815333508098e-03
2.53092424242424e+00 1.11975870222842e-01 1.34795709415743e-03
2.54568181818182e+00 1.10810732005892e-01 1.33781465814791e-03
2.56043939393939e+00 1.09657717354951e-01 1.32772622418820e-03
2.57519696969697e+00 1.08516700125557e-01 1.31769197858635e-03
2.58995454545455e+00 1.07387555477043e-01 1.30771209223918e-03
2.60471212121212e+00 1.06270159876361e-01 1.29778672208042e-03
2.61946969696970e+00 1.05164391067388e-01 1.28791601170733e-03
2.63422727272727e+00 1.04070128074428e-01 1.27810009150550e-03
2.64898484848485e+00 1.02987251172394e-01 1.26833908037261e-03
2.66374242424242e+00 1.01915641886073e-01 1.25863308132129e-03
2.67850000000000e+00 1.00855182976914e-01 1.24898218878268e-03
2.69325757575758e+00 9.98057584184381e-02 1.23938648440184e-03
2.70801515151515e+00 9.87672533991436e-02 1.22984603832988e-03
2.72277272727273e+00 9.77395542946121e-02 1.22036091082101e-03
2.73753030303030e+00 9.67225486665131e-02 1.21093114808955e-03
2.75228787878788e+00 9.57161252500687e-02 1.20155678913896e-03
2.76704545454546e+00 9.47201739309998e-02 1.19223786180003e-03
2.78180303030303e+00 9.37345857479152e-02 1.18297438392662e-03
2.79656060606061e+00 9.27592528661964e-02 1.17376636388513e-03
2.81131818181818e+00 9.17940685801536e-02 1.16461380062066e-03
2.82607575757576e+00 9.08389272876324e-02 1.15551668508948e-03
2.84083333333333e+00 8.98937244886924e-02 1.14647499645970e-03
2.85559090909091e+00 8.89583567739679e-02 1.13748870831659e-03
2.87034848484849e+00 8.80327218036140e-02 1.12855778502951e-03
2.88510606060606e+00 8.71167183090325e-02 1.11968218282203e-03
2.89986363636364e+00 8.62102460690839e-02 1.11086185019777e-03
2.91462121212121e+00 8.53132059116198e-02 1.10209672798244e-03
2.92937878787879e+00 8.44254996903426e-02 1.09338675061133e-03
2.94413636363636e+00 8.35470302832343e-02 1.08473184264432e-03
2.95889393939394e+00 8.26777015817499e-02 1.07613192441019e-03
2.97365151515152e+00 8.18174184715688e-02 1.06758690867433e-03
2.98840909090909e+00 8.09660868337745e-02 1.05909670159840e-03
3.00316666666667e+00 8.01236135231622e-02 1.05066120311178e-03
3.01792424242424e+00 7.92899063692555e-02 1.04228030693475e-03
3.03268181818182e+00 7.84648741551979e-02 1.03395390173688e-03
3.04743939393939e+00 7.76484266159984e-02 1.02568186794081e-03
3.06219696969697e+00 7.68404744284919e-02 1.01746408286071e-03
3.07695454545455e+00 7.60409291937304e-02 1.00930041764447e-03
3.09171212121212e+00 7.52497034377096e-02 1.00119073813643e-03
3.10646969696970e+00 7.44667105915689e-02 9.93134905201796e-04
3.12122727272727e+00 7.36918649921842e-02 9.85132774735265e-04
3.13598484848485e+00 7.29250818628934e-02 9.77184198704861e-04
3.15074242424242e+00 7.21662773116109e-02 9.69289022219566e-04
3.16550000000000e+00 7.14153683215019e-02 9.61447088211325e-04
3.18025757575758e+00 7.06722727348583e-02 9.53658234628401e-04
3.19501515151515e+00 6.99369092534546e-02 9.45922295212128e-04
3.20977272727273e+00 6.92091974204586e-02 9.38239100469281e-04
3.22453030303030e+00 6.84890576184903e-02 9.30608474908783e-04
3.23928787878788e+00 6.77764110607735e-02 9.23030241431690e-04
3.25404545454546e+00 6.70711797759786e-02 9.15504218685972e-04
3.26880303030303e+00 6.63732866083705e-02 9.08030221789386e-04
3.28356060606061e+00 6.56826552008257e-02 9.00608062588112e-04
3.29831818181818e+00 6.49992099948836e-02 8.93237549646447e-04
3.31307575757576e+00 6.43228762142083e-02 8.85918489125365e-04
3.32783333333333e+00 6.36535798625797e-02 8.78650682245972e-04
3.34259090909091e+00 6.29912477156772e-02 8.71433929294159e-04
3.35734848484849e+00 6.23358073071817e-02 8.64268027192521e-04
3.37210606060606e+00 6.16871869286604e-02 8.57152770152182e-04
3.38686363636364e+00 6.10453156140315e-02 8.50087949899912e-04
3.40162121212121e+00 6.04101231393681e-02 8.43073355660364e-04
3.41637878787879e+00 5.97815400077662e-02 8.36108774950844e-04
3.43113636363636e+00 5.91594974473000e-02 8.29193991252265e-04
3.44589393939394e+00 5.85439274033907e-02 8.22328787664683e-04
3.46065151515152e+00 5.79347625260559e-02 8.15512944677907e-04
3.47540909090909e+00 5.73319361695816e-02 8.08746240759914e-04
3.49016666666667e+00 5.67353823783002e-02 8.02028452556632e-04
3.50492424242424e+00 5.61450358861968e-02 7.95359354868565e-04
3.51968181818182e+00 5.55608321030516e-02 7.88738721370108e-04
3.53443939393939e+00 5.49827071123877e-02 7.82166322470980e-04
3.54919696969697e+00 5.44105976643793e-02 7.75641928655017e-04
3.56395454545455e+00 5.38444411641494e-02 7.69165308432173e-04
3.57871212121212e+00 5.32841756712704e-02 7.62736228870755e-04
3.59346969696970e+00 5.27297398867361e-02 7.56354455773128e-04
3.60822727272727e+00 5.21810731524102e-02 7.50019753648266e-04
3.62298484848485e+00 5.16381154383286e-02 7.43731886363295e-04
3.63774242424242e+00 5.11008073406575e-02 7.37490615179186e-04
3.65250000000000e+00 5.05690900751047e-02 7.31295701802227e-04
3.66725757575758e+00 5.00429054661711e-02 7.25146906502101e-04
3.68201515151515e+00 4.95221959465182e-02 7.19043988593600e-04
3.69677272727273e+00 4.90069045450248e-02 7.12986707045632e-04
3.71153030303030e+00 4.84969748847681e-02 7.06974818629140e-04
3.72628787878788e+00 4.79923511767730e-02 7.01008080783306e-04
3.74104545454545e+00 4.74929782098877e-02 6.95086249841004e-04
3.75580303030303e+00 4.69988013500822e-02 6.89209081478602e-04
3.77056060606061e+00 4.65097665292129e-02 6.83376330857441e-04
3.78531818181818e+00 4.60258202442852e-02 6.77587752591268e-04
3.80007575757576e+00 4.55469095465000e-02 6.71843101298939e-04
3.81483333333333e+00 4.50729820392683e-02 6.66142129902243e-04
3.82959090909091e+00 4.46039858724045e-02 6.60484592247495e-04
3.84434848484849e+00 4.41398697328197e-02 6.54870241474747e-04
3.85910606060606e+00 4.36805828437330e-02 6.49298830425138e-04
3.87386363636364e+00 4.32260749543631e-02 6.43770111765760e-04
3.88862121212121e+00 4.27762963391124e-02 6.38283837955506e-04
3.90337878787879e+00 4.23311977875146e-02 6.32839761747050e-04
3.91813636363636e+00 4.18907306022944e-02 6.27437634622124e-04
3.93289393939394e+00 4.14548465939728e-02 6.22077209190449e-04
3.94765151515152e+00 4.10234980723076e-02 6.16758237690546e-04
3.96240909090909e+00 4.05966378454409e-02 6.11480472359090e-04
3.97716666666667e+00 4.01742192104357e-02 6.06243665541111e-04
3.99192424242424e+00 3.97561959524025e-02 6.01047569654909e-04
4.00668181818182e+00 3.93425223352698e-02 5.95891937648125e-04
4.02143939393939e+00 3.89331530998962e-02 5.90776521559223e-04
4.03619696969697e+00 3.85280434590591e-02 5.85701074713626e-04
4.05095454545455e+00 3.81271490895784e-02 5.80665350344931e-04
4.06571212121212e+00 3.77304261314192e-02 5.75669101930208e-04
4.08046969696970e+00 3.73378311789999e-02 5.70712083287303e-04
4.09522727272727e+00 3.69493212802787e-02 5.65794048539284e-04
4.10998484848485e+00 3.65648539282754e-02 5.60914752529053e-04
4.12474242424242e+00 3.61843870592433e-02 5.56073949496565e-04
4.13950000000000e+00 3.58078790480123e-02 5.51271395090080e-04
4.15425757575758e+00 3.54352887007394e-02 5.46506845097909e-04
4.16901515151515e+00 3.50665752539816e-02 5.41780055752888e-04
4.18377272727273e+00 3.47016983667092e-02 5.37090784120629e-04
4.19853030303030e+00 3.43406181185257e-02 5.32438786851505e-04
4.21328787878788e+00 3.39832950052497e-02 5.27823822072351e-04
4.22804545454546e+00 3.36296899320769e-02 5.23245648189868e-04
4.24280303030303e+00 3.32797642126448e-02 5.18704024175493e-04
4.25756060606061e+00 3.29334795615068e-02 5.14198709643976e-04
4.27231818181818e+00 3.25907980931884e-02 5.09729464817887e-04
4.28707575757576e+00 3.22516823148447e-02 5.05296050881018e-04
4.30183333333333e+00 3.19160951245466e-02 5.00898228830145e-04
4.31659090909091e+00 3.15839998071755e-02 4.96535761208605e-04
4.33134848484849e+00 3.12553600281250e-02 4.92208411005305e-04
4.34610606060606e+00 3.09301398323564e-02 4.87915941913592e-04
4.36086363636364e+00 3.06083036374776e-02 4.83658118400702e-04
4.37562121212121e+00 3.02898162327941e-02 4.79434705672706e-04
4.39037878787879e+00 2.99746427725558e-02 4.75245469996425e-04
4.40513636363636e+00 2.96627487743106e-02 4.71090177642646e-04
4.41989393939394e+00 2.93541001150913e-02 4.66968596475371e-04
4.43465151515152e+00 2.90486630256111e-02 4.62880494938721e-04
4.44940909090909e+00 2.87464040893194e-02 4.58825642292124e-04
4.46416666666667e+00 2.84472902360355e-02 4.54803808671683e-04
4.47892424242424e+00 2.81512887410013e-02 4.50814765055941e-04
4.49368181818182e+00 2.78583672186687e-02 4.46858283559010e-04
4.50843939393939e+00 2.75684936211222e-02 4.42934136457993e-04
4.52319696969697e+00 2.72816362345359e-02 4.39042097650411e-04
4.53795454545455e+00 2.69977636738237e-02 4.35181941721456e-04
4.55271212121212e+00 2.67168448817023e-02 4.31353444158027e-04
4.56746969696970e+00 2.64388491228326e-02 4.27556381402978e-04
4.58222727272727e+00 2.61637459828823e-02 4.23790530821722e-04
4.59698484848485e+00 2.58915053628077e-02 4.20055670969279e-04
4.61174242424242e+00 2.56220974773466e-02 4.16351580695015e-04
4.62650000000000e+00 2.53554928517252e-02 4.12678040479620e-04
4.64125757575758e+00 2.50916623167266e-02 4.09034831576166e-04
4.65601515151515e+00 2.48305770077670e-02 4.05421736204986e-04
