Energy (eV)          EEDF (eV^-(3/2))     First Anisotropy
3.54347826086957e-04 3.88496744364270e+01 1.83391500890875e-02
1.06304347826087e-03 3.85586440090672e+01 3.02714876670924e-02
1.77173913043478e-03 3.82697937474979e+01 3.99309124406340e-02
2.48043478260870e-03 3.79831073182214e+01 4.72504844448698e-02
3.18913043478261e-03 3.76985685128022e+01 5.33395854375521e-02
3.89782608695652e-03 3.74161612427895e+01 5.86180359494758e-02
4.60652173913043e-03 3.71358695403614e+01 6.33032790816885e-02
5.31521739130435e-03 3.68576775569584e+01 6.75267316104858e-02
6.02391304347826e-03 3.65815695636409e+01 7.13756230369537e-02
6.73260869565217e-03 3.63075299488063e+01 7.49116556074931e-02
7.44130434782609e-03 3.60355432178038e+01 7.81805414815340e-02
8.15000000000000e-03 3.57655939920704e+01 8.12173632118650e-02
8.85869565217391e-03 3.54976670080262e+01 8.40498066175716e-02
9.56739130434783e-03 3.52317471169107e+01 8.67002199667044e-02
1.02760869565217e-02 3.49678192831923e+01 8.91869840642130e-02
1.09847826086957e-02 3.47058685836029e+01 9.15254568426274e-02
1.16934782608696e-02 3.44458802082596e+01 9.37286448034981e-02
1.24021739130435e-02 3.41878394553723e+01 9.58076918898854e-02
1.31108695652174e-02 3.39317317364434e+01 9.77722438874114e-02
1.38195652173913e-02 3.36775425693158e+01 9.96307249175881e-02
1.45282608695652e-02 3.34252575830787e+01 1.01390550833578e-01
1.52369565217391e-02 3.31748625118875e+01 1.03058296393915e-01
1.59456521739130e-02 3.29263431992049e+01 1.04639827919006e-01
1.66543478260870e-02 3.26796855922403e+01 1.06140409922350e-01
1.73630434782609e-02 3.24348757446150e+01 1.07564791303286e-01
1.80717391304348e-02 3.21918998154759e+01 1.08917276674515e-01
1.87804347826087e-02 3.19507440655637e+01 1.10201784695062e-01
1.94891304347826e-02 3.17113948605291e+01 1.11421897001698e-01
2.01978260869565e-02 3.14738386662705e+01 1.12580899265765e-01
2.09065217391304e-02 3.12380620518751e+01 1.13681815890404e-01
2.16152173913043e-02 3.10040516853231e+01 1.14727439562835e-01
2.23239130434783e-02 3.07717943361133e+01 1.15720356532222e-01
2.30326086956522e-02 3.05412768712810e+01 1.16662968390951e-01
2.37413043478261e-02 3.03124862577540e+01 1.17557510900083e-01
2.44500000000000e-02 3.00854095586435e+01 1.18406070376845e-01
2.51586956521739e-02 2.98600339353668e+01 1.19210597986623e-01
2.58673913043478e-02 2.96363466441777e+01 1.19972922296980e-01
2.65760869565217e-02 2.94143350380856e+01 1.20694760313007e-01
2.72847826086957e-02 2.91939865635985e+01 1.21377727249417e-01
2.79934782608696e-02 2.89752887624634e+01 1.22023345180231e-01
2.87021739130435e-02 2.87582292685980e+01 1.22633050754460e-01
2.94108695652174e-02 2.85427958096739e+01 1.23208202067391e-01
3.01195652173913e-02 2.83289762042172e+01 1.23750084830886e-01
3.08282608695652e-02 2.81167583630525e+01 1.24259917898178e-01
3.15369565217391e-02 2.79061302865558e+01 1.24738858255461e-01
3.22456521739130e-02 2.76970800659735e+01 1.25188005512716e-01
3.29543478260870e-02 2.74895958808144e+01 1.25608406026224e-01
3.36630434782609e-02 2.72836659996098e+01 1.26001056416379e-01
3.43717391304348e-02 2.70792787792211e+01 1.26366907187936e-01
3.50804347826087e-02 2.68764226628368e+01 1.26706865621229e-01
3.57891304347826e-02 2.66750861810874e+01 1.27021798605085e-01
3.64978260869565e-02 2.64752579496802e+01 1.27312535203086e-01
3.72065217391304e-02 2.62769266704228e+01 1.27579868991346e-01
3.79152173913043e-02 2.60800811289646e+01 1.27824560220293e-01
3.86239130434783e-02 2.58847101957369e+01 1.28047337789345e-01
3.93326086956522e-02 2.56908028237930e+01 1.28248901080922e-01
4.00413043478261e-02 2.54983480496726e+01 1.28429921639705e-01
4.07500000000000e-02 2.53073349913326e+01 1.28591044738856e-01
4.14586956521739e-02 2.51177528489430e+01 1.28732890817020e-01
4.21673913043478e-02 2.49295909029019e+01 1.28856056824045e-01
4.28760869565217e-02 2.47428385145681e+01 1.28961117457848e-01
4.35847826086957e-02 2.45574851243552e+01 1.29048626327299e-01
4.42934782608696e-02 2.43735202524062e+01 1.29119117022611e-01
4.50021739130435e-02 2.41909334967605e+01 1.29173104125562e-01
4.57108695652174e-02 2.40097145339759e+01 1.29211084140498e-01
4.64195652173913e-02 2.38298531173644e+01 1.29233536376366e-01
4.71282608695652e-02 2.36513390775649e+01 1.29240923760328e-01
4.78369565217391e-02 2.34741623208430e+01 1.29233693611420e-01
4.85456521739130e-02 2.32983128296198e+01 1.29212278354753e-01
4.92543478260870e-02 2.31237806608310e+01 1.29177096232028e-01
4.99630434782609e-02 2.29505559461622e+01 1.29128551815038e-01
5.06717391304348e-02 2.27786288914764e+01 1.29067036782058e-01
5.13804347826087e-02 2.26079897755021e+01 1.28992930363436e-01
5.20891304347826e-02 2.24386289502847e+01 1.28906599896994e-01
5.27978260869565e-02 2.22705368396622e+01 1.28808401333588e-01
5.35065217391304e-02 2.21037039396811e+01 1.28698679703924e-01
5.42152173913043e-02 2.19381208171224e+01 1.28577769570010e-01
5.49239130434783e-02 2.17737781098848e+01 1.28445995441925e-01
5.56326086956522e-02 2.16106665255585e+01 1.28303672182324e-01
5.63413043478261e-02 2.14487768417770e+01 1.28151105379722e-01
5.70500000000000e-02 2.12880999048377e+01 1.27988591712115e-01
5.77586956521739e-02 2.11286266300240e+01 1.27816419282334e-01
5.84673913043478e-02 2.09703480002692e+01 1.27634867945901e-01
5.91760869565217e-02 2.08132550664524e+01 1.27444209613148e-01
5.98847826086957e-02 2.06573389461033e+01 1.27244708545688e-01
6.05934782608696e-02 2.05025908236731e+01 1.27036621629418e-01
6.13021739130435e-02 2.03490019492782e+01 1.26820198643309e-01
6.20108695652174e-02 2.01965636389486e+01 1.26595682506658e-01
6.27195652173913e-02 2.00452672734082e+01 1.26363309523491e-01
6.34282608695652e-02 1.98951042983021e+01 1.26123309607077e-01
6.41369565217391e-02 1.97460662230120e+01 1.25875906502673e-01
6.48456521739130e-02 1.95981446208635e+01 1.25621317991873e-01
6.55543478260870e-02 1.94513311279755e+01 1.25359756117158e-01
6.62630434782609e-02 1.93056174432887e+01 1.25091427283751e-01
6.69717391304348e-02 1.91609953280882e+01 1.24816532572236e-01
6.76804347826087e-02 1.90174566050574e+01 1.24535267827809e-01
6.83891304347826e-02 1.88749931584510e+01 1.24247823845649e-01
6.90978260869565e-02 1.87335969330129e+01 1.23954386534930e-01
6.98065217391304e-02 1.85932599341323e+01 1.23655137068250e-01
7.05152173913043e-02 1.84539742267912e+01 1.23350252032601e-01
7.12239130434783e-02 1.83157319357051e+01 1.23039903566642e-01
7.19326086956522e-02 1.81785252442997e+01 1.22724259499956e-01
7.26413043478261e-02 1.80423463948360e+01 1.22403483479372e-01
7.33500000000000e-02 1.79071876874147e+01 1.22077735097626e-01
7.40586956521739e-02 1.77730414800884e+01 1.21747170009852e-01
7.47673913043478e-02 1.76399001878911e+01 1.21411940052658e-01
7.54760869565217e-02 1.75077562829385e+01 1.21072193351719e-01
7.61847826086957e-02 1.73766022934826e+01 1.20728074432192e-01
7.68934782608696e-02 1.72464308039997e+01 1.20379724318206e-01
7.76021739130435e-02 1.71172344542697e+01 1.20027280635434e-01
7.83108695652174e-02 1.69890059394524e+01 1.19670877703241e-01
7.90195652173913e-02 1.68617380091907e+01 1.19310646630124e-01
7.97282608695652e-02 1.67354234676762e+01 1.18946715399190e-01
8.04369565217391e-02 1.66100551727750e+01 1.18579208957066e-01
8.11456521739130e-02 1.64856260360829e+01 1.18208249293318e-01
8.18543478260870e-02 1.63621290220734e+01 1.17833955539240e-01
8.25630434782609e-02 1.62395571480362e+01 1.17456443978128e-01
8.32717391304348e-02 1.61179034836771e+01 1.17075828217750e-01
8.39804347826087e-02 1.59971611504030e+01 1.16692219198179e-01
8.46891304347826e-02 1.58773233213614e+01 1.16305725275047e-01
8.53978260869565e-02 1.57583832206327e+01 1.15916452289742e-01
8.61065217391304e-02 1.56403341232619e+01 1.15524503631383e-01
8.68152173913044e-02 1.55231693544705e+01 1.15129980302625e-01
8.75239130434783e-02 1.54068822896802e+01 1.14732980977553e-01
8.82326086956522e-02 1.52914663537439e+01 1.14333602063443e-01
8.89413043478261e-02 1.51769150209618e+01 1.13931937754919e-01
8.96500000000000e-02 1.50632218143308e+01 1.13528080091964e-01
9.03586956521739e-02 1.49503803055538e+01 1.13122119010649e-01
9.10673913043478e-02 1.48383841143068e+01 1.12714142397713e-01
9.17760869565217e-02 1.47272269082418e+01 1.12304236138072e-01
9.24847826086957e-02 1.46169024022705e+01 1.11892484166229e-01
9.31934782608696e-02 1.45074043585620e+01 1.11478968510869e-01
9.39021739130435e-02 1.43987265858422e+01 1.11063769343306e-01
9.46108695652174e-02 1.42908629393864e+01 1.10646965019372e-01
9.53195652173913e-02 1.41838073203345e+01 1.10228632125127e-01
9.60282608695652e-02 1.40775536756783e+01 1.09808845516233e-01
9.67369565217391e-02 1.39720959975922e+01 1.09387678361125e-01
9.74456521739130e-02 1.38674283234154e+01 1.08965202178065e-01
9.81543478260870e-02 1.37635447349982e+01 1.08541486888145e-01
9.88630434782609e-02 1.36604393586032e+01 1.08116600801292e-01
9.95717391304348e-02 1.35581063645695e+01 1.07690610727828e-01
1.00280434782609e-01 1.34565399667566e+01 1.07263582011929e-01
1.00989130434783e-01 1.33557344222263e+01 1.06835578351504e-01
1.01697826086957e-01 1.32556840320025e+01 1.06406662222583e-01
1.02406521739130e-01 1.31563831383612e+01 1.05976894737935e-01
1.03115217391304e-01 1.30578261266838e+01 1.05546335284565e-01
1.03823913043478e-01 1.29600074250989e+01 1.05115042260292e-01
1.04532608695652e-01 1.28629215020959e+01 1.04683072754241e-01
1.05241304347826e-01 1.27665628682937e+01 1.04250482230701e-01
1.05950000000000e-01 1.26709260760919e+01 1.03817325240923e-01
1.06658695652174e-01 1.25760057173765e+01 1.03383655005357e-01
1.07367391304348e-01 1.24817964258477e+01 1.02949523534937e-01
1.08076086956522e-01 1.23882928741264e+01 1.02514981784023e-01
1.08784782608696e-01 1.22954897753840e+01 1.02080079235905e-01
1.09493478260870e-01 1.22033818830075e+01 1.01644864572363e-01
1.10202173913043e-01 1.21119639884603e+01 1.01209385378723e-01
1.10910869565217e-01 1.20212309228397e+01 1.00773687851854e-01
1.11619565217391e-01 1.19311775565507e+01 1.00337817447784e-01
1.12328260869565e-01 1.18417987972477e+01 9.99018185951416e-02
1.13036956521739e-01 1.17530895913231e+01 9.94657344110181e-02
1.13745652173913e-01 1.16650449235906e+01 9.90296073275346e-02
1.14454347826087e-01 1.15776598153032e+01 9.85934788134632e-02
1.15163043478261e-01 1.14909293255769e+01 9.81573890977689e-02
1.15871739130435e-01 1.14048485510825e+01 9.77213777760088e-02
1.16580434782609e-01 1.13194126241369e+01 9.72854835397349e-02
1.17289130434783e-01 1.12346167140659e+01 9.68497439077450e-02
1.17997826086957e-01 1.11504560269027e+01 9.64141958131081e-02
1.18706521739130e-01 1.10669258035501e+01 9.59788753399674e-02
1.19415217391304e-01 1.09840213210855e+01 9.55438174624265e-02
1.20123913043478e-01 1.09017378924654e+01 9.51090566129264e-02
1.20832608695652e-01 1.08200708647562e+01 9.46746264262664e-02
1.21541304347826e-01 1.07390156203832e+01 9.42405594859068e-02
1.22250000000000e-01 1.06585675768419e+01 9.38068878744124e-02
1.22958695652174e-01 1.05787221849937e+01 9.33736428408164e-02
1.23667391304348e-01 1.04994749307266e+01 9.29408548898127e-02
1.24376086956522e-01 1.04208213328110e+01 9.25085538959540e-02
1.25084782608696e-01 1.03427569440556e+01 9.20767687732997e-02
1.25793478260870e-01 1.02652773510312e+01 9.16455279951993e-02
1.26502173913043e-01 1.01883781724724e+01 9.12148593580665e-02
1.27210869565217e-01 1.01120550603853e+01 9.07847897471704e-02
1.27919565217391e-01 1.00363036997779e+01 9.03553456403089e-02
1.28628260869565e-01 9.96111980711903e+00 8.99265528783455e-02
1.29336956521739e-01 9.88649913139922e+00 8.94984364373724e-02
1.30045652173913e-01 9.81243745386849e+00 8.90710209168734e-02
1.30754347826087e-01 9.73893058654937e+00 8.86443303168058e-02
1.31463043478261e-01 9.66597437325376e+00 8.82183878159888e-02
1.32171739130435e-01 9.59356468932722e+00 8.77932162453355e-02
1.32880434782609e-01 9.52169744021413e+00 8.73688378711693e-02
1.33589130434783e-01 9.45036856243292e+00 8.69452741798118e-02
1.34297826086957e-01 9.37957402332608e+00 8.65225463364122e-02
1.35006521739130e-01 9.30930981967565e+00 8.61006749742141e-02
1.35715217391304e-01 9.23957197863870e+00 8.56796799852387e-02
1.36423913043478e-01 9.17035655750294e+00 8.52595809651969e-02
1.37132608695652e-01 9.10165964235040e+00 8.48403970085436e-02
1.37841304347826e-01 9.03347734895504e+00 8.44221465050967e-02
1.38550000000000e-01 8.96580582254380e+00 8.40048475715139e-02
1.39258695652174e-01 8.89864123650653e+00 8.35885177858227e-02
1.39967391304348e-01 8.83197979360270e+00 8.31731742550764e-02
1.40676086956522e-01 8.76581772434406e+00 8.27588337028517e-02
1.41384782608696e-01 8.70015128782845e+00 8.23455122053035e-02
1.42093478260870e-01 8.63497677151032e+00 8.19332255997086e-02
1.42802173913043e-01 8.57029048998729e+00 8.15219892951626e-02
1.43510869565217e-01 8.50608878580026e+00 8.11118180846493e-02
1.44219565217391e-01 8.44236802920975e+00 8.07027265414278e-02
1.44928260869565e-01 8.37912461702338e+00 8.02947288350797e-02
1.45636956521739e-01 8.31635497336390e+00 7.98878385487022e-02
1.46345652173913e-01 8.25405554945108e+00 7.94820690635302e-02
1.47054347826087e-01 8.19222282246855e+00 7.90774333801732e-02
1.47763043478261e-01 8.13085329630118e+00 7.86739439407880e-02
1.48471739130435e-01 8.06994350132234e+00 7.82716130023509e-02
1.49180434782609e-01 8.00948999329857e+00 7.78704524628840e-02
1.49889130434783e-01 7.94948935409785e+00 7.74704736885258e-02
1.50597826086957e-01 7.88993819148177e+00 7.70716878758559e-02
1.51306521739130e-01 7.83083313804665e+00 7.66741058828490e-02
1.52015217391304e-01 7.77217085190419e+00 7.62777380608000e-02
1.52723913043478e-01 7.71394801647812e+00 7.58825946060285e-02
1.53432608695652e-01 7.65616133948067e+00 7.54886853954284e-02
1.54141304347826e-01 7.59880755356657e+00 7.50960198231135e-02
1.54850000000000e-01 7.54188341613420e+00 7.47046071418384e-02
1.55558695652174e-01 7.48538570833601e+00 7.43144562503960e-02
1.56267391304348e-01 7.42931123596706e+00 7.39255757459230e-02
1.56976086956522e-01 7.37365682822848e+00 7.35379739920431e-02
1.57684782608696e-01 7.31841933833661e+00 7.31516589072551e-02
1.58393478260870e-01 7.26359564333204e+00 7.27666382888617e-02
1.59102173913043e-01 7.20918264314594e+00 7.23829196608828e-02
1.59810869565217e-01 7.15517726118562e+00 7.20005101229232e-02
1.60519565217391e-01 7.10157644414812e+00 7.16194166647417e-02
1.61228260869565e-01 7.04837716111686e+00 7.12396460184217e-02
1.61936956521739e-01 6.99557640412442e+00 7.08612045113119e-02
1.62645652173913e-01 6.94317118797074e+00 7.04840983715273e-02
1.63354347826087e-01 6.89115854934884e+00 7.01083335842444e-02
1.64063043478261e-01 6.83953554738586e+00 6.97339157486020e-02
1.64771739130435e-01 6.78829926346569e+00 6.93608503744542e-02
1.65480434782609e-01 6.73744680038266e+00 6.89891427426062e-02
1.66189130434783e-01 6.68697528286204e+00 6.86187977656261e-02
1.66897826086957e-01 6.63688185738652e+00 6.82498202761271e-02
1.67606521739130e-01 6.58716369137719e+00 6.78822148907598e-02
1.68315217391304e-01 6.53781797369422e+00 6.75159858748912e-02
1.69023913043478e-01 6.48884191446717e+00 6.71511374226523e-02
1.69732608695652e-01 6.44023274430223e+00 6.67876735245943e-02
1.70441304347826e-01 6.39198771476389e+00 6.64255978361148e-02
1.71150000000000e-01 6.34410409820901e+00 6.60649139495295e-02
1.71858695652174e-01 6.29657918701941e+00 6.57056252231719e-02
1.72567391304348e-01 6.24941029426325e+00 6.53477348223697e-02
1.73276086956522e-01 6.20259475273923e+00 6.49912457731055e-02
1.73984782608696e-01 6.15612991542625e+00 6.46361607917600e-02
1.74693478260870e-01 6.11001315532394e+00 6.42824825436475e-02
1.75402173913043e-01 6.06424186472697e+00 6.39302135204638e-02
1.76110869565217e-01 6.01881345565766e+00 6.35793559184024e-02
1.76819565217391e-01 5.97372535971042e+00 6.32299118893937e-02
1.77528260869565e-01 5.92897502734868e+00 6.28818834219386e-02
1.78236956521739e-01 5.88455992832121e+00 6.25352722224721e-02
1.78945652173913e-01 5.84047755151027e+00 6.21900799595381e-02
1.79654347826087e-01 5.79672540425048e+00 6.18463081478959e-02
1.80363043478261e-01 5.75330101272943e+00 6.15039580330463e-02
1.81071739130435e-01 5.71020192183949e+00 6.11630308285660e-02
1.81780434782609e-01 5.66742569451776e+00 6.08235276033483e-02
1.82489130434783e-01 5.62496991213185e+00 6.04854491692638e-02
1.83197826086957e-01 5.58283217433493e+00 6.01487963118517e-02
1.83906521739130e-01 5.54101009842628e+00 5.98135696805682e-02
1.84615217391304e-01 5.49950131972266e+00 5.94797696795242e-02
1.85323913043478e-01 5.45830349141669e+00 5.91473966917248e-02
1.86032608695652e-01 5.41741428395712e+00 5.88164509722508e-02
1.86741304347826e-01 5.37683138540654e+00 5.84869325419677e-02
1.87450000000000e-01 5.33655250130283e+00 5.81588414055227e-02
1.88158695652174e-01 5.29657535405860e+00 5.78321774135037e-02
1.88867391304348e-01 5.25689768345794e+00 5.75069402948319e-02
1.89576086956522e-01 5.21751724591094e+00 5.71831296993708e-02
1.90284782608696e-01 5.17843181478829e+00 5.68607450604803e-02
1.90993478260870e-01 5.13963918028801e+00 5.65397858024272e-02
1.91702173913043e-01 5.10113714886659e+00 5.62202512413487e-02
1.92410869565217e-01 5.06292354356104e+00 5.59021404866761e-02
1.93119565217391e-01 5.02499620385894e+00 5.55854526428087e-02
1.93828260869565e-01 4.98735298514670e+00 5.52701867127627e-02
1.94536956521739e-01 4.94999175901988e+00 5.49563415022044e-02
1.95245652173913e-01 4.91291041315620e+00 5.46439158155504e-02
1.95954347826087e-01 4.87610685078056e+00 5.43329083622438e-02
1.96663043478261e-01 4.83957899096392e+00 5.40233176633109e-02
1.97371739130435e-01 4.80332476849929e+00 5.37151422420629e-02
1.98080434782609e-01 4.76734213338291e+00 5.34083805328930e-02
1.98789130434783e-01 4.73162905110221e+00 5.31030307903226e-02
1.99497826086957e-01 4.69618350251460e+00 5.27990912744751e-02
2.00206521739130e-01 4.66100348334431e+00 5.24965601622661e-02
2.00915217391304e-01 4.62608700445992e+00 5.21954354589195e-02
2.01623913043478e-01 4.59143209175579e+00 5.18957151783481e-02
2.02332608695652e-01 4.55703678566411e+00 5.15973972566810e-02
2.03041304347826e-01 4.52289914142232e+00 5.13004794661642e-02
2.03750000000000e-01 4.48901722895723e+00 5.10049595906032e-02
2.04458695652174e-01 4.45538913241168e+00 5.07108353138430e-02
2.05167391304348e-01 4.42201295052015e+00 5.04181042455519e-02
2.05876086956522e-01 4.38888679602320e+00 5.01267639552557e-02
2.06584782608696e-01 4.35600879591803e+00 4.98368118610629e-02
2.07293478260870e-01 4.32337709134691e+00 4.95482453967536e-02
2.08002173913043e-01 4.29098983714814e+00 4.92610619315199e-02
2.08710869565217e-01 4.25884520209737e+00 4.89752586900349e-02
2.09419565217391e-01 4.22694136879883e+00 4.86908329149925e-02
2.10128260869565e-01 4.19527653324944e+00 4.84077817890098e-02
2.10836956521739e-01 4.16384890507149e+00 4.81261023567794e-02
2.11545652173913e-01 4.13265670740631e+00 4.78457916831971e-02
2.12254347826087e-01 4.10169817649135e+00 4.75668467773589e-02
2.12963043478261e-01 4.07097156188441e+00 4.72892645167480e-02
2.13671739130435e-01 4.04047512635978e+00 4.70130418010729e-02
2.14380434782609e-01 4.01020714549780e+00 4.67381754782838e-02
2.15089130434783e-01 3.98016590790099e+00 4.64646622707624e-02
2.15797826086957e-01 3.95034971509263e+00 4.61924989250045e-02
2.16506521739130e-01 3.92075688111829e+00 4.59216821395651e-02
2.17215217391304e-01 3.89138573275434e+00 4.56522084932159e-02
2.17923913043478e-01 3.86223460940873e+00 4.53840745905875e-02
2.18632608695652e-01 3.83330186273426e+00 4.51172769919893e-02
2.19341304347826e-01 3.80458585682964e+00 4.48518121434860e-02
2.20050000000000e-01 3.77608496814249e+00 4.45876765186058e-02
2.20758695652174e-01 3.74779758509393e+00 4.43248665278718e-02
2.21467391304348e-01 3.71972210836436e+00 4.40633785394332e-02
2.22176086956522e-01 3.69185695043057e+00 4.38032089063813e-02
2.22884782608696e-01 3.66420053575437e+00 4.35443538764246e-02
2.23593478260870e-01 3.63675130068916e+00 4.32868097269572e-02
