Energy (eV)          EEDF (eV^-(3/2))     First Anisotropy
3.46875000000000e-03 2.18451962316958e+00 1.41990146803799e-03
1.04062500000000e-02 2.16101962872611e+00 2.33991588334994e-03
1.73437500000000e-02 2.13777243573496e+00 3.07640924228228e-03
2.42812500000000e-02 2.11477532468357e+00 3.62835298790595e-03
3.12187500000000e-02 2.09202560531303e+00 4.08245394606181e-03
3.81562500000000e-02 2.06952061630468e+00 4.47168614062427e-03
4.50937500000000e-02 2.04725772496894e+00 4.81320822234812e-03
5.20312500000000e-02 2.02523432693740e+00 5.11743771149629e-03
5.89687500000000e-02 2.00344784585817e+00 5.39132037439611e-03
6.59062500000000e-02 1.98189573309447e+00 5.63979107382873e-03
7.28437500000000e-02 1.96057546742652e+00 5.86652177372477e-03
7.97812500000000e-02 1.93948455475658e+00 6.07434271074259e-03
8.67187500000000e-02 1.91862052781718e+00 6.26549685314165e-03
9.36562500000000e-02 1.89798094588254e+00 6.44180226008543e-03
1.00593750000000e-01 1.87756339448299e+00 6.60476029637589e-03
1.07531250000000e-01 1.85736548512254e+00 6.75563038457679e-03
1.14468750000000e-01 1.83738485499950e+00 6.89548320801499e-03
1.21406250000000e-01 1.81761916673001e+00 7.02523954957388e-03
1.28343750000000e-01 1.79806610807467e+00 7.14569927010288e-03
1.35281250000000e-01 1.77872339166801e+00 7.25756334435296e-03
1.42218750000000e-01 1.75958875475091e+00 7.36145089961236e-03
1.49156250000000e-01 1.74065995890594e+00 7.45791258652049e-03
1.56093750000000e-01 1.72193478979544e+00 7.54744121094222e-03
1.63031250000000e-01 1.70341105690251e+00 7.63048028872629e-03
1.69968750000000e-01 1.68508659327478e+00 7.70743100322409e-03
1.76906250000000e-01 1.66695925527089e+00 7.77865791905286e-03
1.83843750000000e-01 1.64902692230972e+00 7.84449371623890e-03
1.90781250000000e-01 1.63128749662232e+00 7.90524314469120e-03
1.97718750000000e-01 1.61373890300653e+00 7.96118635218173e-03
2.04656250000000e-01 1.59637908858419e+00 8.01258170446576e-03
2.11593750000000e-01 1.57920602256099e+00 8.05966819034935e-03
2.18531250000000e-01 1.56221769598893e+00 8.10266748498678e-03
2.25468750000000e-01 1.54541212153128e+00 8.14178572977479e-03
2.32406250000000e-01 1.52878733323012e+00 8.17721507570508e-03
2.39343750000000e-01 1.51234138627633e+00 8.20913502808099e-03
2.46281250000000e-01 1.49607235678210e+00 8.23771362347499e-03
2.53218750000000e-01 1.47997834155587e+00 8.26310846424480e-03
2.60156250000000e-01 1.46405745787968e+00 8.28546763149399e-03
2.67093750000000e-01 1.44830784328893e+00 8.30493049380679e-03
2.74031250000000e-01 1.43272765535450e+00 8.32162842621742e-03
2.80968750000000e-01 1.41731507146724e+00 8.33568545153781e-03
2.87906250000000e-01 1.40206828862471e+00 8.34721881426091e-03
2.94843750000000e-01 1.38698552322032e+00 8.35633949569124e-03
3.01781250000000e-01 1.37206501083461e+00 8.36315267765843e-03
3.08718750000000e-01 1.35730500602893e+00 8.36775816109199e-03
3.15656250000000e-01 1.34270378214116e+00 8.37025074484181e-03
3.22593750000000e-01 1.32825963108380e+00 8.37072056937671e-03
3.29531250000000e-01 1.31397086314410e+00 8.36925342936060e-03
3.36468750000000e-01 1.29983580678643e+00 8.36593105857305e-03
3.43406250000000e-01 1.28585280845670e+00 8.36083139018662e-03
3.50343750000000e-01 1.27202023238898e+00 8.35402879502879e-03
3.57281250000000e-01 1.25833646041409e+00 8.34559430012740e-03
3.64218750000000e-01 1.24479989177032e+00 8.33559578955537e-03
3.71156250000000e-01 1.23140894291617e+00 8.32409818934784e-03
3.78093750000000e-01 1.21816204734513e+00 8.31116363805716e-03
3.85031250000000e-01 1.20505765540237e+00 8.29685164432637e-03
3.91968750000000e-01 1.19209423410351e+00 8.28121923270997e-03
3.98906250000000e-01 1.17927026695527e+00 8.26432107882900e-03
4.05843750000000e-01 1.16658425377804e+00 8.24620963483037e-03
4.12781250000000e-01 1.15403471053042e+00 8.22693524601669e-03
4.19718750000000e-01 1.14162016913563e+00 8.20654625942109e-03
4.26656250000000e-01 1.12933917730969e+00 8.18508912502016e-03
4.33593750000000e-01 1.11719029839163e+00 8.16260849020539e-03
4.40531250000000e-01 1.10517211117534e+00 8.13914728807761e-03
4.47468750000000e-01 1.09328320974337e+00 8.11474682006861e-03
4.54406250000000e-01 1.08152220330245e+00 8.08944683334245e-03
4.61343750000000e-01 1.06988771602076e+00 8.06328559339255e-03
4.68281250000000e-01 1.05837838686703e+00 8.03629995220630e-03
4.75218750000000e-01 1.04699286945129e+00 8.00852541233611e-03
4.82156250000000e-01 1.03572983186736e+00 7.97999618718697e-03
4.89093750000000e-01 1.02458795653708e+00 7.95074525779834e-03
4.96031250000000e-01 1.01356594005614e+00 7.92080442637747e-03
5.02968750000000e-01 1.00266249304162e+00 7.89020436681745e-03
5.09906250000000e-01 9.91876339981153e-01 7.85897467241257e-03
5.16843750000000e-01 9.81206219083700e-01 7.82714390096674e-03
5.23781250000000e-01 9.70650882131963e-01 7.79473961747457e-03
5.30718750000000e-01 9.60209094336355e-01 7.76178843453863e-03
5.37656250000000e-01 9.49879634190548e-01 7.72831605067316e-03
5.44593750000000e-01 9.39661293328587e-01 7.69434728663476e-03
5.51531250000000e-01 9.29552876383522e-01 7.65990611990722e-03
5.58468750000000e-01 9.19553200847581e-01 7.62501571745753e-03
5.65406250000000e-01 9.09661096933830e-01 7.58969846687320e-03
5.72343750000000e-01 8.99875407439332e-01 7.55397600598131e-03
5.79281250000000e-01 8.90194987609773e-01 7.51786925104225e-03
5.86218750000000e-01 8.80618705005548e-01 7.48139842360473e-03
5.93156250000000e-01 8.71145439369281e-01 7.44458307610049e-03
6.00093750000000e-01 8.61774082494781e-01 7.40744211625552e-03
6.07031250000000e-01 8.52503538097395e-01 7.36999383038461e-03
6.13968750000000e-01 8.43332721685764e-01 7.33225590563354e-03
6.20906250000000e-01 8.34260560434959e-01 7.29424545123064e-03
6.27843750000000e-01 8.25285993060977e-01 7.25597901880052e-03
6.34781250000000e-01 8.16407969696589e-01 7.21747262179308e-03
6.41718750000000e-01 8.07625451768523e-01 7.17874175407611e-03
6.48656250000000e-01 7.98937411875974e-01 7.13980140773666e-03
6.55593750000000e-01 7.90342833670410e-01 7.10066609013347e-03
6.62531250000000e-01 7.81840711736681e-01 7.06134984023990e-03
6.69468750000000e-01 7.73430051475402e-01 7.02186624431304e-03
6.76406250000000e-01 7.65109868986601e-01 6.98222845092582e-03
6.83343750000000e-01 7.56879190954621e-01 6.94244918539346e-03
6.90281250000000e-01 7.48737054534261e-01 6.90254076362412e-03
6.97218750000000e-01 7.40682507238136e-01 6.86251510542357e-03
7.04156250000000e-01 7.32714606825256e-01 6.82238374728044e-03
7.11093750000000e-01 7.24832421190799e-01 6.78215785465663e-03
7.18031250000000e-01 7.17035028257070e-01 6.74184823380678e-03
7.24968750000000e-01 7.09321515865638e-01 6.70146534315042e-03
7.31906250000000e-01 7.01690981670622e-01 6.66101930421646e-03
7.38843750000000e-01 6.94142533033141e-01 6.62051991218040e-03
7.45781250000000e-01 6.86675286916886e-01 6.57997664601403e-03
7.52718750000000e-01 6.79288369784820e-01 6.53939867826318e-03
7.59656250000000e-01 6.71980917496990e-01 6.49879488447180e-03
7.66593750000000e-01 6.64752075209440e-01 6.45817385226845e-03
7.73531250000000e-01 6.57600997274206e-01 6.41754389012918e-03
7.80468750000000e-01 6.50526847140394e-01 6.37691303583167e-03
7.87406250000000e-01 6.43528797256312e-01 6.33628906461333e-03
7.94343750000000e-01 6.36606028972667e-01 6.29567949704665e-03
8.01281250000000e-01 6.29757732446795e-01 6.25509160664320e-03
8.08218750000000e-01 6.22983106547923e-01 6.21453242719905e-03
8.15156250000000e-01 6.16281358763451e-01 6.17400875989126e-03
8.22093750000000e-01 6.09651705106243e-01 6.13352718013496e-03
8.29031250000000e-01 6.03093370022913e-01 6.09309404421296e-03
8.35968750000000e-01 5.96605586303098e-01 6.05271549568537e-03
8.42906250000000e-01 5.90187594989712e-01 6.01239747158879e-03
8.49843750000000e-01 5.83838645290157e-01 5.97214570843449e-03
8.56781250000000e-01 5.77557994488494e-01 5.93196574801055e-03
8.63718750000000e-01 5.71344907858559e-01 5.89186294299786e-03
8.70656250000000e-01 5.65198658578016e-01 5.85184246240794e-03
8.77593750000000e-01 5.59118527643324e-01 5.81190929684771e-03
8.84531250000000e-01 5.53103803785634e-01 5.77206826361782e-03
8.91468750000000e-01 5.47153783387579e-01 5.73232401165194e-03
8.98406250000000e-01 5.41267770400963e-01 5.69268102630275e-03
9.05343750000000e-01 5.35445076265336e-01 5.65314363397946e-03
9.12281250000000e-01 5.29685019827445e-01 5.61371600664300e-03
9.19218750000000e-01 5.23986927261553e-01 5.57440216616446e-03
9.26156250000000e-01 5.18350131990608e-01 5.53520598855111e-03
9.33093750000000e-01 5.12773974608269e-01 5.49613120804420e-03
9.40031250000000e-01 5.07257802801768e-01 5.45718142109508e-03
9.46968750000000e-01 5.01800971275595e-01 5.41836009022209e-03
9.53906250000000e-01 4.96402841676019e-01 5.37967054775288e-03
9.60843750000000e-01 4.91062782516401e-01 5.34111599945669e-03
9.67781250000000e-01 4.85780169103330e-01 5.30269952807019e-03
9.74718750000000e-01 4.80554383463541e-01 5.26442409672021e-03
9.81656250000000e-01 4.75384814271623e-01 5.22629255224670e-03
9.88593750000000e-01 4.70270856778504e-01 5.18830762843064e-03
9.95531250000000e-01 4.65211912740709e-01 5.15047194912877e-03
1.00246875000000e+00 4.60207390350372e-01 5.11278803131782e-03
1.00940625000000e+00 4.55256704166008e-01 5.07525828805301e-03
1.01634375000000e+00 4.50359275044025e-01 5.03788503134290e-03
1.02328125000000e+00 4.45514530070975e-01 5.00067047494224e-03
1.03021875000000e+00 4.40721902496531e-01 4.96361673706709e-03
1.03715625000000e+00 4.35980831667193e-01 4.92672584303386e-03
1.04409375000000e+00 4.31290762960692e-01 4.88999972782414e-03
1.05103125000000e+00 4.26651147721120e-01 4.85344023857992e-03
1.05796875000000e+00 4.22061443194736e-01 4.81704913702866e-03
1.06490625000000e+00 4.17521112466482e-01 4.78082810184184e-03
1.07184375000000e+00 4.13029624397169e-01 4.74477873092993e-03
1.07878125000000e+00 4.08586453561343e-01 4.70890254367298e-03
1.08571875000000e+00 4.04191080185821e-01 4.67320098309196e-03
1.09265625000000e+00 3.99842990088884e-01 4.63767541796096e-03
1.09959375000000e+00 3.95541674620131e-01 4.60232714486161e-03
1.10653125000000e+00 3.91286630600974e-01 4.56715739018378e-03
1.11346875000000e+00 3.87077360265771e-01 4.53216731207117e-03
1.12040625000000e+00 3.82913371203602e-01 4.49735800231560e-03
1.12734375000000e+00 3.78794176300663e-01 4.46273048820075e-03
1.13428125000000e+00 3.74719293683281e-01 4.42828573429678e-03
1.14121875000000e+00 3.70688246661545e-01 4.39402464420785e-03
1.14815625000000e+00 3.66700563673542e-01 4.35994806227325e-03
1.15509375000000e+00 3.62755778230189e-01 4.32605677522353e-03
1.16203125000000e+00 3.58853428860668e-01 4.29235151379375e-03
1.16896875000000e+00 3.54993059058436e-01 4.25883295429441e-03
1.17590625000000e+00 3.51174217227825e-01 4.22550172014077e-03
1.18284375000000e+00 3.47396456631214e-01 4.19235838334268e-03
1.18978125000000e+00 3.43659335336764e-01 4.15940346595661e-03
1.19671875000000e+00 3.39962416166725e-01 4.12663744149874e-03
1.20365625000000e+00 3.36305266646291e-01 4.09406073632190e-03
1.21059375000000e+00 3.32687458953009e-01 4.06167373095784e-03
1.21753125000000e+00 3.29108569866729e-01 4.02947676142398e-03
1.22446875000000e+00 3.25568180720099e-01 3.99747012049716e-03
1.23140625000000e+00 3.22065877349584e-01 3.96565405895453e-03
1.23834375000000e+00 3.18601250047019e-01 3.93402878678279e-03
1.24528125000000e+00 3.15173893511679e-01 3.90259447435662e-03
1.25221875000000e+00 3.11783406802865e-01 3.87135125358723e-03
1.25915625000000e+00 3.08429393293003e-01 3.84029921904136e-03
1.26609375000000e+00 3.05111460621246e-01 3.80943842903198e-03
1.27303125000000e+00 3.01829220647569e-01 3.77876890668163e-03
1.27996875000000e+00 2.98582289407373e-01 3.74829064095881e-03
1.28690625000000e+00 2.95370287066559e-01 3.71800358768814e-03
1.29384375000000e+00 2.92192837877099e-01 3.68790767053432e-03
1.30078125000000e+00 2.89049570133077e-01 3.65800278196252e-03
1.30771875000000e+00 2.85940116127210e-01 3.62828878417387e-03
1.31465625000000e+00 2.82864112107828e-01 3.59876551001794e-03
1.32159375000000e+00 2.79821198236326e-01 3.56943276388183e-03
1.32853125000000e+00 2.76811018545064e-01 3.54029032255659e-03
1.33546875000000e+00 2.73833220895731e-01 3.51133793608317e-03
1.34240625000000e+00 2.70887456938145e-01 3.48257532857650e-03
1.34934375000000e+00 2.67973382069506e-01 3.45400219902861e-03
1.35628125000000e+00 2.65090655394085e-01 3.42561822209223e-03
1.36321875000000e+00 2.62238939683338e-01 3.39742304884471e-03
1.37015625000000e+00 2.59417901336464e-01 3.36941630753301e-03
1.37709375000000e+00 2.56627210341376e-01 3.34159760429955e-03
1.38403125000000e+00 2.53866540236096e-01 3.31396652389058e-03
1.39096875000000e+00 2.51135568070563e-01 3.28652263034682e-03
1.39790625000000e+00 2.48433974368855e-01 3.25926546767663e-03
1.40484375000000e+00 2.45761443091818e-01 3.23219456051258e-03
1.41178125000000e+00 2.43117661600091e-01 3.20530941475160e-03
1.41871875000000e+00 2.40502320617534e-01 3.17860951817950e-03
1.42565625000000e+00 2.37915114195050e-01 3.15209434107950e-03
1.43259375000000e+00 2.35355739674792e-01 3.12576333682581e-03
1.43953125000000e+00 2.32823897654759e-01 3.09961594246286e-03
1.44646875000000e+00 2.30319291953768e-01 3.07365157926937e-03
1.45340625000000e+00 2.27841629576812e-01 3.04786965330880e-03
1.46034375000000e+00 2.25390620680778e-01 3.02226955596611e-03
1.46728125000000e+00 2.22965978540545e-01 2.99685066447107e-03
1.47421875000000e+00 2.20567419515442e-01 2.97161234240868e-03
1.48115625000000e+00 2.18194663016062e-01 2.94655394021663e-03
1.48809375000000e+00 2.15847431471446e-01 2.92167479567051e-03
1.49503125000000e+00 2.13525450296605e-01 2.89697423435663e-03
1.50196875000000e+00 2.11228447860401e-01 2.87245157013371e-03
1.50890625000000e+00 2.08956155453772e-01 2.84810610558233e-03
1.51584375000000e+00 2.06708307258298e-01 2.82393713244342e-03
1.52278125000000e+00 2.04484640315100e-01 2.79994393204590e-03
1.52971875000000e+00 2.02284894494086e-01 2.77612577572330e-03
1.53665625000000e+00 2.00108812463515e-01 2.75248192522037e-03
1.54359375000000e+00 1.97956139659893e-01 2.72901163308894e-03
1.55053125000000e+00 1.95826624258199e-01 2.70571414307406e-03
1.55746875000000e+00 1.93720017142420e-01 2.68258869049082e-03
1.56440625000000e+00 1.91636071876413e-01 2.65963450259107e-03
1.57134375000000e+00 1.89574544675074e-01 2.63685079892105e-03
1.57828125000000e+00 1.87535194375819e-01 2.61423679167029e-03
1.58521875000000e+00 1.85517782410375e-01 2.59179168601143e-03
1.59215625000000e+00 1.83522072776868e-01 2.56951468043111e-03
1.59909375000000e+00 1.81547832012219e-01 2.54740496705298e-03
1.60603125000000e+00 1.79594829164829e-01 2.52546173195260e-03
1.61296875000000e+00 1.77662835767563e-01 2.50368415546356e-03
1.61990625000000e+00 1.75751625811025e-01 2.48207141247608e-03
1.62684375000000e+00 1.73860975717119e-01 2.46062267272866e-03
1.63378125000000e+00 1.71990664312889e-01 2.43933710109130e-03
1.64071875000000e+00 1.70140472804653e-01 2.41821385784191e-03
1.64765625000000e+00 1.68310184752403e-01 2.39725209893559e-03
1.65459375000000e+00 1.66499586044487e-01 2.37645097626649e-03
1.66153125000000e+00 1.64708464872561e-01 2.35580963792359e-03
1.66846875000000e+00 1.62936611706814e-01 2.33532722843949e-03
1.67540625000000e+00 1.61183819271451e-01 2.31500288903261e-03
1.68234375000000e+00 1.59449882520450e-01 2.29483575784317e-03
1.68928125000000e+00 1.57734598613575e-01 2.27482497016292e-03
1.69621875000000e+00 1.56037766892646e-01 2.25496965865902e-03
1.70315625000000e+00 1.54359188858063e-01 2.23526895359194e-03
1.71009375000000e+00 1.52698668145591e-01 2.21572198302753e-03
1.71703125000000e+00 1.51056010503383e-01 2.19632787304336e-03
1.72396875000000e+00 1.49431023769260e-01 2.17708574792970e-03
1.73090625000000e+00 1.47823517848230e-01 2.15799473038527e-03
1.73784375000000e+00 1.46233304690248e-01 2.13905394170732e-03
1.74478125000000e+00 1.44660198268222e-01 2.12026250197707e-03
1.75171875000000e+00 1.43104014556246e-01 2.10161953024000e-03
1.75865625000000e+00 1.41564571508077e-01 2.08312414468089e-03
1.76559375000000e+00 1.40041689035835e-01 2.06477546279460e-03
1.77253125000000e+00 1.38535188988938e-01 2.04657260155168e-03
1.77946875000000e+00 1.37044895133262e-01 2.02851467755988e-03
1.78640625000000e+00 1.35570633130521e-01 2.01060080722112e-03
1.79334375000000e+00 1.34112230517877e-01 1.99283010688368e-03
1.80028125000000e+00 1.32669516687762e-01 1.97520169299052e-03
1.80721875000000e+00 1.31242322867922e-01 1.95771468222353e-03
1.81415625000000e+00 1.29830482101672e-01 1.94036819164352e-03
1.82109375000000e+00 1.28433829228364e-01 1.92316133882622e-03
1.82803125000000e+00 1.27052200864069e-01 1.90609324199445e-03
1.83496875000000e+00 1.25685435382463e-01 1.88916302014654e-03
1.84190625000000e+00 1.24333372895917e-01 1.87236979318109e-03
1.84884375000000e+00 1.22995855236796e-01 1.85571268201809e-03
1.85578125000000e+00 1.21672725938956e-01 1.83919080871634e-03
1.86271875000000e+00 1.20363830219438e-01 1.82280329658766e-03
1.86965625000000e+00 1.19069014960363e-01 1.80654927030773e-03
1.87659375000000e+00 1.17788128691019e-01 1.79042785602346e-03
1.88353125000000e+00 1.16521021570142e-01 1.77443818145712e-03
1.89046875000000e+00 1.15267545368388e-01 1.75857937600756e-03
1.89740625000000e+00 1.14027553450991e-01 1.74285057084832e-03
1.90434375000000e+00 1.12800900760609e-01 1.72725089902256e-03
1.91128125000000e+00 1.11587443800358e-01 1.71177949553515e-03
1.91821875000000e+00 1.10387040617023e-01 1.69643549744188e-03
1.92515625000000e+00 1.09199550784450e-01 1.68121804393611e-03
1.93209375000000e+00 1.08024835387125e-01 1.66612627643233e-03
1.93903125000000e+00 1.06862757003915e-01 1.65115933864718e-03
1.94596875000000e+00 1.05713179692000e-01 1.63631637667812e-03
1.95290625000000e+00 1.04575968970964e-01 1.62159653907908e-03
1.95984375000000e+00 1.03450991807066e-01 1.60699897693398e-03
1.96678125000000e+00 1.02338116597678e-01 1.59252284392783e-03
1.97371875000000e+00 1.01237213155887e-01 1.57816729641522e-03
1.98065625000000e+00 1.00148152695270e-01 1.56393149348668e-03
1.98759375000000e+00 9.90708078148222e-02 1.54981459703276e-03
1.99453125000000e+00 9.80050524840585e-02 1.53581577180582e-03
2.00146875000000e+00 9.69507620282676e-02 1.52193418547972e-03
2.00840625000000e+00 9.59078131139279e-02 1.50816900870737e-03
2.01534375000000e+00 9.48760837342794e-02 1.49451941517637e-03
2.02228125000000e+00 9.38554531950515e-02 1.48098458166242e-03
2.02921875000000e+00 9.28458021003432e-02 1.46756368808080e-03
2.03615625000000e+00 9.18470123386566e-02 1.45425591753616e-03
2.04309375000000e+00 9.08589670690792e-02 1.44106045637024e-03
2.05003125000000e+00 8.98815507076163e-02 1.42797649420774e-03
2.05696875000000e+00 8.89146489136691e-02 1.41500322400054e-03
2.06390625000000e+00 8.79581485766592e-02 1.40213984207009e-03
2.07084375000000e+00 8.70119378027963e-02 1.38938554814810e-03
2.07778125000000e+00 8.60759059019891e-02 1.37673954541563e-03
2.08471875000000e+00 8.51499433748961e-02 1.36420104054055e-03
2.09165625000000e+00 8.42339419001162e-02 1.35176924371346e-03
2.09859375000000e+00 8.33277943215169e-02 1.33944336868181e-03
2.10553125000000e+00 8.24313946356989e-02 1.32722263278275e-03
2.11246875000000e+00 8.15446379795962e-02 1.31510625697467e-03
2.11940625000000e+00 8.06674206182077e-02 1.30309346586695e-03
2.12634375000000e+00 7.97996399324633e-02 1.29118348774842e-03
2.13328125000000e+00 7.89411944072184e-02 1.27937555461464e-03
2.14021875000000e+00 7.80919836193787e-02 1.26766890219360e-03
2.14715625000000e+00 7.72519082261527e-02 1.25606276997023e-03
2.15409375000000e+00 7.64208699534299e-02 1.24455640120970e-03
2.16103125000000e+00 7.55987715842847e-02 1.23314904297943e-03
2.16796875000000e+00 7.47855169476037e-02 1.22183994616983e-03
2.17490625000000e+00 7.39810109068354e-02 1.21062836551393e-03
2.18184375000000e+00 7.31851593488606e-02 1.19951355960587e-03
2.18878125000000e+00 7.23978691729833e-02 1.18849479091825e-03
