Energy (eV)          EEDF (eV^-(3/2))     First Anisotropy
1.61290322580645e-03 6.15304479180409e-01 4.89617438142115e-08
4.83870967741936e-03 6.15304438608130e-01 1.48067013650838e-07
8.06451612903226e-03 6.15304337311695e-01 3.56034495165761e-07
1.12903225806452e-02 6.15304174061949e-01 6.18484994160674e-07
1.45161290322581e-02 6.15303948481567e-01 9.21240537966033e-07
1.77419354838710e-02 6.15303662697952e-01 1.24054801517565e-06
2.09677419354839e-02 6.15303324899473e-01 1.56071913292612e-06
2.41935483870968e-02 6.15302940228875e-01 1.88884873644227e-06
2.74193548387097e-02 6.15302509987611e-01 2.23130850672743e-06
3.06451612903226e-02 6.15302034918038e-01 2.58064800962646e-06
3.38709677419355e-02 6.15301518438834e-01 2.93479399794341e-06
3.70967741935484e-02 6.15300961136505e-01 3.30373887269001e-06
4.03225806451613e-02 6.15300362121745e-01 3.69412747568603e-06
4.35483870967742e-02 6.15299719548486e-01 4.10972220889114e-06
4.67741935483871e-02 6.15299031410583e-01 4.55001739569168e-06
5.00000000000000e-02 6.15298296244153e-01 5.00470943190358e-06
5.32258064516129e-02 6.15297515380821e-01 5.46381683104187e-06
5.64516129032258e-02 6.15296690211950e-01 5.93530456098604e-06
5.96774193548387e-02 6.15295819398510e-01 6.42818288978092e-06
6.29032258064516e-02 6.15294901654306e-01 6.94291054574614e-06
6.61290322580645e-02 6.15293935602368e-01 7.48041634778111e-06
6.93548387096774e-02 6.15292919792265e-01 8.03340636644337e-06
7.25806451612903e-02 6.15291854873792e-01 8.58244246297047e-06
7.58064516129032e-02 6.15290744416625e-01 9.13343790559470e-06
7.90322580645161e-02 6.15289587240668e-01 9.70441197599480e-06
8.22580645161290e-02 6.15288382201807e-01 1.02955572884725e-05
8.54838709677419e-02 6.15287128138292e-01 1.09073259345820e-05
8.87096774193548e-02 6.15285823859003e-01 1.15398181557119e-05
9.19354838709677e-02 6.15284468236750e-01 1.21929123035758e-05
9.51612903225806e-02 6.15283060161790e-01 1.28668435348064e-05
9.83870967741935e-02 6.15281598500992e-01 1.35618075722116e-05
1.01612903225806e-01 6.15280082145370e-01 1.42431789729020e-05
1.04838709677419e-01 6.15278517756352e-01 1.49067175115959e-05
1.08064516129032e-01 6.15276904880190e-01 1.55837161705874e-05
1.11290322580645e-01 6.15275243054249e-01 1.62742493544089e-05
1.14516129032258e-01 6.15273531807779e-01 1.69783896475175e-05
1.17741935483871e-01 6.15271770662580e-01 1.76962081330690e-05
1.20967741935484e-01 6.15269959133565e-01 1.84277746738671e-05
1.24193548387097e-01 6.15268096729246e-01 1.91731581541153e-05
1.27419354838710e-01 6.15266182952141e-01 1.99324266683974e-05
1.30645161290323e-01 6.15264217299136e-01 2.07056476912558e-05
1.33870967741935e-01 6.15262199261785e-01 2.14928882268463e-05
1.37096774193548e-01 6.15260128326582e-01 2.22942149234788e-05
1.40322580645161e-01 6.15258003975182e-01 2.31096941852279e-05
1.43548387096774e-01 6.15255825684600e-01 2.39393922597175e-05
1.46774193548387e-01 6.15253592927383e-01 2.47833753101976e-05
1.50000000000000e-01 6.15251305171756e-01 2.56417094748729e-05
1.53225806451613e-01 6.15248961881753e-01 2.65144609260914e-05
1.56451612903226e-01 6.15246562517326e-01 2.74016959222394e-05
1.59677419354839e-01 6.15244106534441e-01 2.83034808336728e-05
1.62903225806452e-01 6.15241593385161e-01 2.92198821785674e-05
1.66129032258065e-01 6.15239022517721e-01 3.01509666502988e-05
1.69354838709677e-01 6.15236393376589e-01 3.10968011077626e-05
1.72580645161290e-01 6.15233705402527e-01 3.20574506208092e-05
1.75806451612903e-01 6.15230958032969e-01 3.30329726334964e-05
1.79032258064516e-01 6.15228150703050e-01 3.40233989904404e-05
1.82258064516129e-01 6.15225282848931e-01 3.50286730323095e-05
1.85483870967742e-01 6.15222353919094e-01 3.60485935997577e-05
1.88709677419355e-01 6.15219363386332e-01 3.70827939856160e-05
1.91935483870968e-01 6.15216310761587e-01 3.81307767017409e-05
1.95161290322581e-01 6.15213195599309e-01 3.91920398042754e-05
1.98387096774194e-01 6.15210017490176e-01 4.02662158474162e-05
2.01612903225806e-01 6.15206776044394e-01 4.12829853173572e-05
2.04838709677419e-01 6.15203482712426e-01 4.22390590366188e-05
2.08064516129032e-01 6.15200137438924e-01 4.32020620675465e-05
2.11290322580645e-01 6.15196740167976e-01 4.41719383755809e-05
2.14516129032258e-01 6.15193290843032e-01 4.51486343302811e-05
2.17741935483871e-01 6.15189789406829e-01 4.61320985886117e-05
2.20967741935484e-01 6.15186235801334e-01 4.71222820007856e-05
2.24193548387097e-01 6.15182629967683e-01 4.81191375133260e-05
2.27419354838710e-01 6.15178971846130e-01 4.91226200796269e-05
2.30645161290323e-01 6.15175261375999e-01 5.01326865858417e-05
2.33870967741935e-01 6.15171498495642e-01 5.11492957710557e-05
2.37096774193548e-01 6.15167683142399e-01 5.21724081648585e-05
2.40322580645161e-01 6.15163815252556e-01 5.32019860142291e-05
2.43548387096774e-01 6.15159894761321e-01 5.42379932190904e-05
2.46774193548387e-01 6.15155921602785e-01 5.52803952730437e-05
2.50000000000000e-01 6.15151895709898e-01 5.63291592063782e-05
2.53225806451613e-01 6.15147817014442e-01 5.73842535352942e-05
2.56451612903226e-01 6.15143685447007e-01 5.84456482003793e-05
2.59677419354839e-01 6.15139500936974e-01 5.95133145174226e-05
2.62903225806452e-01 6.15135263412487e-01 6.05872251370703e-05
2.66129032258065e-01 6.15130972800444e-01 6.16673539922072e-05
2.69354838709677e-01 6.15126629026476e-01 6.27536762384088e-05
2.72580645161290e-01 6.15122232014934e-01 6.38461675941608e-05
2.75806451612903e-01 6.15117781688967e-01 6.49448023886538e-05
2.79032258064516e-01 6.15113277970772e-01 6.60495476675790e-05
2.82258064516129e-01 6.15108720782472e-01 6.71603427088566e-05
2.85483870967742e-01 6.15104110049151e-01 6.82770806009520e-05
2.88709677419355e-01 6.15099445702149e-01 6.93996010479435e-05
2.91935483870968e-01 6.15094727682909e-01 7.05277026682322e-05
2.95161290322581e-01 6.15089955944406e-01 7.16611862510750e-05
2.98387096774194e-01 6.15085130449008e-01 7.27999012580344e-05
3.01612903225806e-01 6.15080251163708e-01 7.39338422987010e-05
3.04838709677419e-01 6.15075320019280e-01 7.51460084097758e-05
3.08064516129032e-01 6.15070326026208e-01 7.65256478782997e-05
3.11290322580645e-01 6.15065258871650e-01 7.80648416826096e-05
3.14516129032258e-01 6.15060108884563e-01 7.97559790806398e-05
3.17741935483871e-01 6.15054867002786e-01 8.15917440822590e-05
3.20967741935484e-01 6.15049524741929e-01 8.35651026154510e-05
3.24193548387097e-01 6.15044074165987e-01 8.56692903495064e-05
3.27419354838710e-01 6.15038507859549e-01 8.78978011424655e-05
3.30645161290323e-01 6.15032818901516e-01 9.02443760395632e-05
3.33870967741935e-01 6.15027000840230e-01 9.27029928040827e-05
3.37096774193548e-01 6.15021047669944e-01 9.52678559701082e-05
3.40322580645161e-01 6.15014953808532e-01 9.79333873563550e-05
3.43548387096774e-01 6.15008714076388e-01 1.00694217025818e-04
3.46774193548387e-01 6.15002323676426e-01 1.03545174662277e-04
3.50000000000000e-01 6.14995778175136e-01 1.06481281360938e-04
3.53225806451613e-01 6.14989073484615e-01 1.09497741780928e-04
3.56451612903226e-01 6.14982205845537e-01 1.12589936661479e-04
3.59677419354839e-01 6.14975171810995e-01 1.15753415679595e-04
3.62903225806452e-01 6.14967968231175e-01 1.18983890613166e-04
3.66129032258065e-01 6.14960592238808e-01 1.22277228815807e-04
3.69354838709677e-01 6.14953041235368e-01 1.25629446975116e-04
3.72580645161290e-01 6.14945312877960e-01 1.29036704830231e-04
3.75806451612903e-01 6.14937405066913e-01 1.32495298518424e-04
3.79032258064516e-01 6.14929315934076e-01 1.36001652141526e-04
3.82258064516129e-01 6.14921043831983e-01 1.39552302288853e-04
3.85483870967742e-01 6.14912587324528e-01 1.43143884224242e-04
3.88709677419355e-01 6.14903945178259e-01 1.46773124035455e-04
3.91935483870968e-01 6.14895116354395e-01 1.50436840608010e-04
3.95161290322581e-01 6.14886100000226e-01 1.54131963991992e-04
3.98387096774194e-01 6.14876895439266e-01 1.57855554002064e-04
4.01612903225806e-01 6.14867502160836e-01 1.61539680443931e-04
4.04838709677419e-01 6.14857929004079e-01 1.65276539051524e-04
4.08064516129032e-01 6.14848164689007e-01 1.69219940735431e-04
4.11290322580645e-01 6.14838198634182e-01 1.73359946781963e-04
4.14516129032258e-01 6.14828020923297e-01 1.77687004115435e-04
4.17741935483871e-01 6.14817622273292e-01 1.82191931231204e-04
4.20967741935484e-01 6.14806994003941e-01 1.86865904705593e-04
4.24193548387097e-01 6.14796128008818e-01 1.91700446284435e-04
4.27419354838710e-01 6.14785016727584e-01 1.96687410482644e-04
4.30645161290323e-01 6.14773653119536e-01 2.01818972698389e-04
4.33870967741936e-01 6.14762030638331e-01 2.07087617782855e-04
4.37096774193548e-01 6.14750143207869e-01 2.12486129026779e-04
4.40322580645161e-01 6.14737985199236e-01 2.18007577633410e-04
4.43548387096774e-01 6.14725551408691e-01 2.23645312564134e-04
4.46774193548387e-01 6.14712837036625e-01 2.29392950756376e-04
4.50000000000000e-01 6.14699837667461e-01 2.35244367757783e-04
4.53225806451613e-01 6.14686549250436e-01 2.41193688695848e-04
4.56451612903226e-01 6.14672968081243e-01 2.47235279571901e-04
4.59677419354839e-01 6.14659090784469e-01 2.53363738919110e-04
4.62903225806452e-01 6.14644914296815e-01 2.59573889758434e-04
4.66129032258065e-01 6.14630435851048e-01 2.65860771846415e-04
4.69354838709677e-01 6.14615652960653e-01 2.72219634234990e-04
4.72580645161290e-01 6.14600563405155e-01 2.78645927891254e-04
4.75806451612903e-01 6.14585165216109e-01 2.85135298200210e-04
4.79032258064516e-01 6.14569456663730e-01 2.91683576598857e-04
4.82258064516129e-01 6.14553436244269e-01 2.98286768176851e-04
4.85483870967742e-01 6.14537102668442e-01 3.04941040108255e-04
4.88709677419355e-01 6.14520454850471e-01 3.11642714041506e-04
4.91935483870968e-01 6.14503491897706e-01 3.18388265084704e-04
4.95161290322581e-01 6.14486213100090e-01 3.25174330930044e-04
4.98387096774194e-01 6.14468617919080e-01 3.31997720579129e-04
5.01612903225806e-01 6.14450705976492e-01 3.38779102525375e-04
5.04838709677419e-01 6.14432486382095e-01 3.45530431167093e-04
5.08064516129032e-01 6.14413957476907e-01 3.52338895284201e-04
5.11290322580645e-01 6.14395117878873e-01 3.59199462030469e-04
5.14516129032258e-01 6.14375966469685e-01 3.66107287201934e-04
5.17741935483871e-01 6.14356502382135e-01 3.73057709477672e-04
5.20967741935484e-01 6.14336724987957e-01 3.80046244843830e-04
5.24193548387097e-01 6.14316633886146e-01 3.87068581219024e-04
5.27419354838710e-01 6.14296228891738e-01 3.94120573270447e-04
5.30645161290323e-01 6.14275510025022e-01 4.01198237393352e-04
5.33870967741935e-01 6.14254477501175e-01 4.08297746812792e-04
5.37096774193548e-01 6.14233131720305e-01 4.15415426883208e-04
5.40322580645161e-01 6.14211473257878e-01 4.22547750530485e-04
5.43548387096774e-01 6.14189502855512e-01 4.29691333800049e-04
5.46774193548387e-01 6.14167221412143e-01 4.36842931584880e-04
5.50000000000000e-01 6.14144629975522e-01 4.43999433455728e-04
5.53225806451613e-01 6.14121729734048e-01 4.51157859625887e-04
5.56451612903226e-01 6.14098522008921e-01 4.58315357054914e-04
5.59677419354839e-01 6.14075008246595e-01 4.65469195653001e-04
5.62903225806452e-01 6.14051190011527e-01 4.72616764603561e-04
5.66129032258065e-01 6.14027068979213e-01 4.79755568800912e-04
5.69354838709677e-01 6.14002646929485e-01 4.86883225389820e-04
5.72580645161290e-01 6.13977925740084e-01 4.93997460271097e-04
5.75806451612903e-01 6.13952907380483e-01 5.01096104432426e-04
5.79032258064516e-01 6.13927593905993e-01 5.08177089511254e-04
5.82258064516129e-01 6.13901987452201e-01 5.15238440537559e-04
5.85483870967742e-01 6.13876090229956e-01 5.22278269621820e-04
5.88709677419355e-01 6.13849904520582e-01 5.29294773100891e-04
5.91935483870968e-01 6.13823432671262e-01 5.36286231410876e-04
5.95161290322581e-01 6.13796677090371e-01 5.43251016992436e-04
5.98387096774194e-01 6.13769640242095e-01 5.50187600422102e-04
6.01612903225806e-01 6.13742324641260e-01 5.57358762011378e-04
6.04838709677419e-01 6.13714706807979e-01 5.65275962466537e-04
6.08064516129032e-01 6.13686739098098e-01 5.74164842863985e-04
6.11290322580645e-01 6.13658376371705e-01 5.83981609012517e-04
6.14516129032258e-01 6.13629575892739e-01 5.94683984464365e-04
6.17741935483871e-01 6.13600297232515e-01 6.06231159029081e-04
6.20967741935484e-01 6.13570502176993e-01 6.18583739162765e-04
6.24193548387097e-01 6.13540154637660e-01 6.31703700103698e-04
6.27419354838710e-01 6.13509220565850e-01 6.45554339667825e-04
6.30645161290323e-01 6.13477667870401e-01 6.60100233619610e-04
6.33870967741936e-01 6.13445466338487e-01 6.75307192556715e-04
6.37096774193548e-01 6.13412587559523e-01 6.91142220216252e-04
6.40322580645161e-01 6.13379004852007e-01 7.07573473194859e-04
6.43548387096774e-01 6.13344693193203e-01 7.24570222020792e-04
6.46774193548387e-01 6.13309629151537e-01 7.42102813498433e-04
6.50000000000000e-01 6.13273790821613e-01 7.60142634312532e-04
6.53225806451613e-01 6.13237157761744e-01 7.78662075855642e-04
6.56451612903226e-01 6.13199710933901e-01 7.97634500198088e-04
6.59677419354839e-01 6.13161432645986e-01 8.17034207199124e-04
6.62903225806452e-01 6.13122306496349e-01 8.36836402699109e-04
6.66129032258065e-01 6.13082317320441e-01 8.57017167758560e-04
6.69354838709677e-01 6.13041451139554e-01 8.77553428919085e-04
6.72580645161290e-01 6.12999695111534e-01 8.98422929322650e-04
6.75806451612903e-01 6.12957037483432e-01 9.19604200541265e-04
6.79032258064516e-01 6.12913467546008e-01 9.41076534753157e-04
6.82258064516129e-01 6.12868975590083e-01 9.62819955876260e-04
6.85483870967742e-01 6.12823552864801e-01 9.84815191527768e-04
6.88709677419355e-01 6.12777191537597e-01 1.00704364714809e-03
6.91935483870968e-01 6.12729884655813e-01 1.02948738855297e-03
6.95161290322581e-01 6.12681626109107e-01 1.05212912617942e-03
6.98387096774194e-01 6.12632410593359e-01 1.07495219656481e-03
7.01612903225806e-01 6.12582233575637e-01 1.09831408078011e-03
7.04838709677419e-01 6.12531057933732e-01 1.12307548596684e-03
7.08064516129032e-01 6.12478800159341e-01 1.14969020177290e-03
7.11290322580645e-01 6.12425380986187e-01 1.17807735866651e-03
7.14516129032258e-01 6.12370725246257e-01 1.20815841228769e-03
7.17741935483871e-01 6.12314761730651e-01 1.23985708004191e-03
7.20967741935484e-01 6.12257423054873e-01 1.27309927954399e-03
7.24193548387097e-01 6.12198645528425e-01 1.30781306875371e-03
7.27419354838710e-01 6.12138369028573e-01 1.34392858772336e-03
7.30645161290323e-01 6.12076536878136e-01 1.38137800187682e-03
7.33870967741935e-01 6.12013095727181e-01 1.42009544671408e-03
7.37096774193548e-01 6.11947995438510e-01 1.46001697393220e-03
7.40322580645161e-01 6.11881188976802e-01 1.50108049889598e-03
7.43548387096774e-01 6.11812632301322e-01 1.54322574942591e-03
7.46774193548387e-01 6.11742284262069e-01 1.58639421589773e-03
7.50000000000000e-01 6.11670106499261e-01 1.63052910256366e-03
7.53225806451613e-01 6.11596063346063e-01 1.67557528009317e-03
7.56451612903226e-01 6.11520121734448e-01 1.72147923932275e-03
7.59677419354839e-01 6.11442251104103e-01 1.76818904614672e-03
7.62903225806452e-01 6.11362423314278e-01 1.81565429752508e-03
7.66129032258065e-01 6.11280612558507e-01 1.86382607860462e-03
7.69354838709677e-01 6.11196795282086e-01 1.91265692086248e-03
7.72580645161290e-01 6.11110950102248e-01 1.96210076122377e-03
7.75806451612903e-01 6.11023057730958e-01 2.01211290194252e-03
7.79032258064516e-01 6.10933100900250e-01 2.06264997068462e-03
7.82258064516129e-01 6.10841064290105e-01 2.11366987946201e-03
7.85483870967742e-01 6.10746934458932e-01 2.16513178500583e-03
7.88709677419355e-01 6.10650699776377e-01 2.21699605301788e-03
7.91935483870968e-01 6.10552350358311e-01 2.26922422559068e-03
7.95161290322581e-01 6.10451878003789e-01 2.32177900156348e-03
7.98387096774194e-01 6.10349276132849e-01 2.37462421350873e-03
8.01612903225806e-01 6.10244539726627e-01 2.42750047513575e-03
8.04838709677419e-01 6.10137684823032e-01 2.47993838533536e-03
8.08064516129032e-01 6.10028747140372e-01 2.53171191603970e-03
8.11290322580645e-01 6.09917762035119e-01 2.58282466704088e-03
8.14516129032258e-01 6.09804764502522e-01 2.63328030828865e-03
8.17741935483871e-01 6.09689789177056e-01 2.68308258265137e-03
8.20967741935484e-01 6.09572870332727e-01 2.73223530831253e-03
8.24193548387097e-01 6.09454041883262e-01 2.78074238084885e-03
8.27419354838710e-01 6.09333337382174e-01 2.82860777498310e-03
8.30645161290323e-01 6.09210790022741e-01 2.87583554611541e-03
8.33870967741935e-01 6.09086432637897e-01 2.92242983166489e-03
8.37096774193548e-01 6.08960297700042e-01 2.96839485215510e-03
8.40322580645161e-01 6.08832417320789e-01 3.01373491213215e-03
8.43548387096774e-01 6.08702823250653e-01 3.05845440089463e-03
8.46774193548387e-01 6.08571546878693e-01 3.10255779306806e-03
8.50000000000000e-01 6.08438619232105e-01 3.14604964904907e-03
8.53225806451613e-01 6.08304070975790e-01 3.18893461525980e-03
8.56451612903226e-01 6.08167932411883e-01 3.23121742430310e-03
8.59677419354839e-01 6.08030233479265e-01 3.27290289497771e-03
8.62903225806452e-01 6.07891003753059e-01 3.31399593218447e-03
8.66129032258064e-01 6.07750272444111e-01 3.35450152674042e-03
8.69354838709677e-01 6.07608068398466e-01 3.39442475503637e-03
8.72580645161290e-01 6.07464420096839e-01 3.43377077858092e-03
8.75806451612903e-01 6.07319355654097e-01 3.47254484320800e-03
8.79032258064516e-01 6.07172902818772e-01 3.51075227761804e-03
8.82258064516129e-01 6.07025088972632e-01 3.54839848993079e-03
8.85483870967742e-01 6.06875941130479e-01 3.58548896554894e-03
8.88709677419355e-01 6.06725485939875e-01 3.62202926934281e-03
8.91935483870968e-01 6.06573749680669e-01 3.65802504433439e-03
8.95161290322581e-01 6.06420758264823e-01 3.69348202566836e-03
8.98387096774194e-01 6.06266537234541e-01 3.72840603694917e-03
9.01612903225806e-01 6.06111111762435e-01 3.76299969451786e-03
9.04838709677419e-01 6.05954490339061e-01 3.79765626334465e-03
9.08064516129032e-01 6.05796665402657e-01 3.83256316282459e-03
9.11290322580645e-01 6.05637629924292e-01 3.86770818933985e-03
9.14516129032258e-01 6.05477377396011e-01 3.90307934746297e-03
9.17741935483871e-01 6.05315901819075e-01 3.93866485018856e-03
9.20967741935484e-01 6.05153197692304e-01 3.97445311906762e-03
9.24193548387097e-01 6.04989260000513e-01 4.01043278431338e-03
9.27419354838710e-01 6.04824084203054e-01 4.04659268480724e-03
9.30645161290323e-01 6.04657666222455e-01 4.08292186797768e-03
9.33870967741935e-01 6.04490002433170e-01 4.11940958958959e-03
9.37096774193548e-01 6.04321089650428e-01 4.15604531342218e-03
9.40322580645161e-01 6.04150925119209e-01 4.19281871081212e-03
9.43548387096774e-01 6.03979506503317e-01 4.22971966009664e-03
9.46774193548387e-01 6.03806831874583e-01 4.26673824598261e-03
9.50000000000000e-01 6.03632899702181e-01 4.30386475878540e-03
9.53225806451613e-01 6.03457708842065e-01 4.34108969356456e-03
9.56451612903226e-01 6.03281258526535e-01 4.37840374918481e-03
9.59677419354839e-01 6.03103548353921e-01 4.41579782731083e-03
9.62903225806452e-01 6.02924578278404e-01 4.45326303127253e-03
9.66129032258065e-01 6.02744348599956e-01 4.49079066486246e-03
9.69354838709677e-01 6.02562859954416e-01 4.52837223102851e-03
9.72580645161290e-01 6.02380113303707e-01 4.56599943022920e-03
9.75806451612903e-01 6.02196109926198e-01 4.60366415803783e-03
9.79032258064516e-01 6.02010851407275e-01 4.64135850094922e-03
9.82258064516129e-01 6.01824339630229e-01 4.67907472820717e-03
9.85483870967742e-01 6.01636576767682e-01 4.71680528351743e-03
9.88709677419355e-01 6.01447565273348e-01 4.75454278214298e-03
9.91935483870968e-01 6.01257307873813e-01 4.79228002781844e-03
9.95161290322581e-01 6.01065807558786e-01 4.83001003392177e-03
9.98387096774194e-01 6.00873067571033e-01 4.86772603296767e-03
1.00161290322581e+00 6.00679091395887e-01 4.90778823537388e-03
1.00483870967742e+00 6.00483684763893e-01 4.95353013508979e-03
1.00806451612903e+00 6.00286587471512e-01 5.00582695525246e-03
1.01129032258065e+00 6.00087547817014e-01 5.06448992169187e-03
1.01451612903226e+00 5.99886322463393e-01 5.12933251543474e-03
1.01774193548387e+00 5.99682676301822e-01 5.20017048910275e-03
