Energy (eV)          EEDF (eV^-(3/2))     First Anisotropy
4.82608695652174e-03 2.17982409555860e+00 1.66771435034360e-03
1.44782608695652e-02 2.14726725232712e+00 2.74252497173773e-03
2.41304347826087e-02 2.11519666305370e+00 3.59051167361272e-03
3.37826086956522e-02 2.08360506525244e+00 4.21680635399170e-03
4.34347826086956e-02 2.05248530484804e+00 4.72451586005353e-03
5.30869565217391e-02 2.02183033479439e+00 5.15310772060522e-03
6.27391304347826e-02 1.99163321318994e+00 5.52324677662492e-03
7.23913043478261e-02 1.96188710181806e+00 5.84755416761995e-03
8.20434782608696e-02 1.93258526459606e+00 6.13449361679826e-03
9.16956521739130e-02 1.90372106604906e+00 6.39011221921580e-03
1.01347826086957e-01 1.87528796980773e+00 6.61893393888942e-03
1.11000000000000e-01 1.84727953712707e+00 6.82446390564573e-03
1.20652173913043e-01 1.81968942540575e+00 7.00949381813118e-03
1.30304347826087e-01 1.79251138679837e+00 7.17629727560590e-03
1.39956521739130e-01 1.76573926677498e+00 7.32676028514774e-03
1.49608695652174e-01 1.73936700272612e+00 7.46247162814060e-03
1.59260869565217e-01 1.71338862259018e+00 7.58478733521944e-03
1.68913043478261e-01 1.68779824350110e+00 7.69487786074580e-03
1.78565217391304e-01 1.66259007059549e+00 7.79376340781508e-03
1.88217391304348e-01 1.63775839527222e+00 7.88234081460395e-03
1.97869565217391e-01 1.61329759433949e+00 7.96140439276545e-03
2.07521739130435e-01 1.58920212859061e+00 8.03166237206458e-03
2.17173913043478e-01 1.56546654154973e+00 8.09374997482666e-03
2.26826086956522e-01 1.54208545823625e+00 8.14823997361897e-03
2.36478260869565e-01 1.51905358394709e+00 8.19565130135443e-03
2.46130434782609e-01 1.49636570305895e+00 8.23645614214618e-03
2.55782608695652e-01 1.47401667784650e+00 8.27108582324980e-03
2.65434782608696e-01 1.45200144731902e+00 8.29993575071987e-03
2.75086956521739e-01 1.43031502607432e+00 8.32336956860436e-03
2.84739130434783e-01 1.40895250324262e+00 8.34172271993593e-03
2.94391304347826e-01 1.38790904115171e+00 8.35530546146108e-03
3.04043478260870e-01 1.36717987445877e+00 8.36440545563674e-03
3.13695652173913e-01 1.34676030899386e+00 8.36929004685364e-03
3.23347826086957e-01 1.32664572069694e+00 8.37020821545422e-03
3.33000000000000e-01 1.30683155457074e+00 8.36739229183798e-03
3.42652173913043e-01 1.28731332364919e+00 8.36105946137020e-03
3.52304347826087e-01 1.26808660798141e+00 8.35141309128323e-03
3.61956521739130e-01 1.24914705363097e+00 8.33864390538083e-03
3.71608695652174e-01 1.23049037168976e+00 8.32293102789742e-03
3.81260869565217e-01 1.21211233730681e+00 8.30444291439676e-03
3.90913043478261e-01 1.19400878873150e+00 8.28333818006519e-03
4.00565217391304e-01 1.17617562641426e+00 8.25976636179166e-03
4.10217391304348e-01 1.15860881194681e+00 8.23386858182167e-03
4.19869565217391e-01 1.14130436728132e+00 8.20577814590210e-03
4.29521739130435e-01 1.12425837378420e+00 8.17562110876048e-03
4.39173913043478e-01 1.10746697134874e+00 8.14351676883986e-03
4.48826086956522e-01 1.09092635752099e+00 8.10957812315671e-03
4.58478260869565e-01 1.07463278663856e+00 8.07391228220411e-03
4.68130434782609e-01 1.05858256898264e+00 8.03662084931236e-03
4.77782608695652e-01 1.04277206994234e+00 7.99780026826111e-03
4.87434782608696e-01 1.02719770919161e+00 7.95754214239778e-03
4.97086956521739e-01 1.01185595987849e+00 7.91593352468109e-03
5.06739130434783e-01 9.96743347855127e-01 7.87305719899583e-03
5.16391304347826e-01 9.81856450803625e-01 7.82899192275104e-03
5.26043478260870e-01 9.67191897549868e-01 7.78381265054244e-03
5.35695652173913e-01 9.52746367270024e-01 7.73759075943247e-03
5.45347826086957e-01 9.38516588738535e-01 7.69039424378962e-03
5.55000000000000e-01 9.24499339587345e-01 7.64228789987479e-03
5.64652173913043e-01 9.10691445576160e-01 7.59333349761751e-03
5.74304347826087e-01 8.97089779873665e-01 7.54358994069917e-03
5.83956521739130e-01 8.83691262349467e-01 7.49311341595487e-03
5.93608695652174e-01 8.70492858876571e-01 7.44195753297098e-03
6.03260869565217e-01 8.57491580644287e-01 7.39017345467826e-03
6.12913043478261e-01 8.44684483481411e-01 7.33781001701692e-03
6.22565217391304e-01 8.32068667208998e-01 7.28491385172850e-03
6.32217391304348e-01 8.19641274924305e-01 7.23152948860914e-03
6.41869565217391e-01 8.07399492414015e-01 7.17769945113364e-03
6.51521739130435e-01 7.95340547496591e-01 7.12346436010045e-03
6.61173913043478e-01 7.83461709394511e-01 7.06886302043299e-03
6.70826086956522e-01 7.71760288115875e-01 7.01393250568379e-03
6.80478260869565e-01 7.60233633845224e-01 6.95870823774424e-03
6.90130434782609e-01 7.48879136343542e-01 6.90322406211868e-03
6.99782608695652e-01 7.37694224357128e-01 6.84751231907128e-03
7.09434782608696e-01 7.26676365035335e-01 6.79160391090486e-03
7.19086956521739e-01 7.15823063356995e-01 6.73552836356912e-03
7.28739130434783e-01 7.05131861579491e-01 6.67931389330961e-03
7.38391304347826e-01 6.94600338639391e-01 6.62298745961725e-03
7.48043478260869e-01 6.84226109647595e-01 6.56657481512402e-03
7.57695652173913e-01 6.74006825334601e-01 6.51010056370827e-03
7.67347826086957e-01 6.63940171518503e-01 6.45358820719902e-03
7.77000000000000e-01 6.54023868580943e-01 6.39706019188801e-03
7.86652173913043e-01 6.44255670950874e-01 6.34053795276589e-03
7.96304347826087e-01 6.34633366596055e-01 6.28404195562042e-03
8.05956521739130e-01 6.25154776522145e-01 6.22759173713125e-03
8.15608695652174e-01 6.15817754279247e-01 6.17120594306919e-03
8.25260869565217e-01 6.06620185475845e-01 6.11490236470888e-03
8.34913043478261e-01 5.97559987299992e-01 6.05869797194697e-03
8.44565217391304e-01 5.88635108057793e-01 6.00260895134217e-03
8.54217391304348e-01 5.79843526677973e-01 5.94665073446942e-03
8.63869565217391e-01 5.71183252285436e-01 5.89083802476047e-03
8.73521739130435e-01 5.62652323739874e-01 5.83518483150123e-03
8.83173913043478e-01 5.54248809191658e-01 5.77970449572031e-03
8.92826086956522e-01 5.45970805644369e-01 5.72440971660109e-03
9.02478260869565e-01 5.37816438523847e-01 5.66931257674726e-03
9.12130434782609e-01 5.29783861253715e-01 5.61442456637219e-03
9.21782608695652e-01 5.21871254837206e-01 5.55975660646518e-03
9.31434782608696e-01 5.14076827445241e-01 5.50531907097692e-03
9.41086956521739e-01 5.06398814010671e-01 5.45112180679436e-03
9.50739130434783e-01 4.98835475836190e-01 5.39717415802852e-03
9.60391304347826e-01 4.91385100177451e-01 5.34348498293637e-03
9.70043478260869e-01 4.84045999878663e-01 5.29006266996812e-03
9.79695652173913e-01 4.76816512982614e-01 5.23691515983507e-03
9.89347826086956e-01 4.69695002354313e-01 5.18404996139960e-03
9.99000000000000e-01 4.62679855310257e-01 5.13147417170188e-03
1.00865217391304e+00 4.55769483233418e-01 5.07919447691579e-03
1.01830434782609e+00 4.48962321299424e-01 5.02721718395454e-03
1.02795652173913e+00 4.42256828007874e-01 4.97554825289494e-03
1.03760869565217e+00 4.35651484821234e-01 4.92419325813680e-03
1.04726086956522e+00 4.29144796004970e-01 4.87315744286345e-03
1.05691304347826e+00 4.22735288043959e-01 4.82244572308379e-03
1.06656521739130e+00 4.16421509548448e-01 4.77206268740343e-03
1.07621739130435e+00 4.10202030746135e-01 4.72201265186660e-03
1.08586956521739e+00 4.04075443165707e-01 4.67229960925456e-03
1.09552173913043e+00 3.98040359481056e-01 4.62292728067879e-03
1.10517391304348e+00 3.92095412979881e-01 4.57389911814954e-03
1.11482608695652e+00 3.86239257466877e-01 4.52521830334558e-03
1.12447826086957e+00 3.80470566799772e-01 4.47688779641645e-03
1.13413043478261e+00 3.74788034595483e-01 4.42891028900558e-03
1.14378260869565e+00 3.69190374079253e-01 4.38128825021902e-03
1.15343478260870e+00 3.63676317600179e-01 4.33402392808901e-03
1.16308695652174e+00 3.58244616533227e-01 4.28711934762496e-03
1.17273913043478e+00 3.52894040855088e-01 4.24057635439275e-03
1.18239130434783e+00 3.47623378871206e-01 4.19439657107183e-03
1.19204347826087e+00 3.42431437070518e-01 4.14858143850446e-03
1.20169565217391e+00 3.37317039683247e-01 4.10313221634562e-03
1.21134782608696e+00 3.32279028583033e-01 4.05804998061669e-03
1.22100000000000e+00 3.27316262898802e-01 4.01333566271975e-03
1.23065217391304e+00 3.22427618761236e-01 3.96899000931841e-03
1.24030434782609e+00 3.17611989163469e-01 3.92501361204644e-03
1.24995652173913e+00 3.12868283593352e-01 3.88140693580354e-03
1.25960869565217e+00 3.08195427790961e-01 3.83817028069906e-03
1.26926086956522e+00 3.03592363612532e-01 3.79530381635316e-03
1.27891304347826e+00 2.99058048648189e-01 3.75280758167311e-03
1.28856521739130e+00 2.94591456125651e-01 3.71068148200752e-03
1.29821739130435e+00 2.90191574573175e-01 3.66892532183492e-03
1.30786956521739e+00 2.85857407594477e-01 3.62753876966403e-03
1.31752173913043e+00 2.81587973738904e-01 3.58652138885880e-03
1.32717391304348e+00 2.77382306151650e-01 3.54587263701417e-03
1.33682608695652e+00 2.73239452479799e-01 3.50559186297378e-03
1.34647826086957e+00 2.69158474563156e-01 3.46567833623367e-03
1.35613043478261e+00 2.65138448225347e-01 3.42613121459004e-03
1.36578260869565e+00 2.61178463150276e-01 3.38694957188695e-03
1.37543478260870e+00 2.57277622561814e-01 3.34813239710041e-03
1.38508695652174e+00 2.53435043132634e-01 3.30967859128573e-03
1.39473913043478e+00 2.49649854700485e-01 3.27158699408019e-03
1.40439130434783e+00 2.45921200074247e-01 3.23385635389725e-03
1.41404347826087e+00 2.42248234916683e-01 3.19648535292873e-03
1.42369565217391e+00 2.38630127450902e-01 3.15947260602951e-03
1.43334782608696e+00 2.35066058372321e-01 3.12281665764981e-03
1.44300000000000e+00 2.31555220588134e-01 3.08651600575554e-03
1.45265217391304e+00 2.28096819037258e-01 3.05056907437840e-03
1.46230434782609e+00 2.24690070579283e-01 3.01497423158861e-03
1.47195652173913e+00 2.21334203747089e-01 2.97972980665399e-03
1.48160869565217e+00 2.18028458574671e-01 2.94483406401111e-03
1.49126086956522e+00 2.14772086489504e-01 2.91028522442127e-03
1.50091304347826e+00 2.11564350057253e-01 2.87608146367105e-03
1.51056521739130e+00 2.08404522898890e-01 2.84222090960230e-03
1.52021739130435e+00 2.05291889463281e-01 2.80870166238673e-03
1.52986956521739e+00 2.02225744867427e-01 2.77552177055833e-03
1.53952173913043e+00 1.99205394794760e-01 2.74267925014774e-03
1.54917391304348e+00 1.96230155260815e-01 2.71017208330380e-03
1.55882608695652e+00 1.93299352533961e-01 2.67799821540327e-03
1.56847826086957e+00 1.90412322926262e-01 2.64615557339684e-03
1.57813043478261e+00 1.87568412645220e-01 2.61464204374238e-03
1.58778260869565e+00 1.84766977697829e-01 2.58345548972820e-03
1.59743478260870e+00 1.82007383675371e-01 2.55259375005068e-03
1.60708695652174e+00 1.79289005677795e-01 2.52205463601505e-03
1.61673913043478e+00 1.76611228121325e-01 2.49183594815888e-03
1.62639130434783e+00 1.73973444600847e-01 2.46193545593721e-03
1.63604347826087e+00 1.71375057799532e-01 2.43235091341274e-03
1.64569565217391e+00 1.68815479291088e-01 2.40308005782108e-03
1.65534782608696e+00 1.66294129467800e-01 2.37412060687393e-03
1.66500000000000e+00 1.63810437363450e-01 2.34547027383450e-03
1.67465217391304e+00 1.61363840525614e-01 2.31712674881568e-03
1.68430434782609e+00 1.58953784930605e-01 2.28908770997991e-03
1.69395652173913e+00 1.56579724815084e-01 2.26135083424953e-03
1.70360869565217e+00 1.54241122553953e-01 2.23391377956523e-03
1.71326086956522e+00 1.51937448578265e-01 2.20677419826320e-03
1.72291304347826e+00 1.49668181202541e-01 2.17992973566554e-03
1.73256521739130e+00 1.47432806558394e-01 2.15337802758422e-03
1.74221739130435e+00 1.45230818439448e-01 2.12711671318883e-03
1.75186956521739e+00 1.43061718188036e-01 2.10114341867143e-03
1.76152173913043e+00 1.40925014618065e-01 2.07545576939322e-03
1.77117391304348e+00 1.38820223856163e-01 2.05005138849619e-03
1.78082608695652e+00 1.36746869278833e-01 2.02492789452713e-03
1.79047826086957e+00 1.34704481369568e-01 2.00008291312480e-03
1.80013043478261e+00 1.32692597613731e-01 1.97551406197940e-03
1.80978260869565e+00 1.30710762426130e-01 1.95121896186880e-03
1.81943478260870e+00 1.28758527004840e-01 1.92719523530206e-03
1.82908695652174e+00 1.26835449271777e-01 1.90344050426113e-03
1.83873913043478e+00 1.24941093741026e-01 1.87995240082616e-03
1.84839130434783e+00 1.23075031421291e-01 1.85672855332608e-03
1.85804347826087e+00 1.21236839747963e-01 1.83376659636785e-03
1.86769565217391e+00 1.19426102448548e-01 1.81106416952245e-03
1.87734782608696e+00 1.17642409486557e-01 1.78861891518280e-03
1.88700000000000e+00 1.15885356940125e-01 1.76642848822916e-03
1.89665217391304e+00 1.14154546911495e-01 1.74449054327546e-03
1.90630434782609e+00 1.12449587463335e-01 1.72280274177799e-03
1.91595652173913e+00 1.10770092503192e-01 1.70136275884143e-03
1.92560869565217e+00 1.09115681696956e-01 1.68016827111219e-03
1.93526086956522e+00 1.07485980407545e-01 1.65921696537185e-03
1.94491304347826e+00 1.05880619577053e-01 1.63850653730506e-03
1.95456521739130e+00 1.04299235675587e-01 1.61803468955131e-03
1.96421739130435e+00 1.02741470594696e-01 1.59779913999397e-03
1.97386956521739e+00 1.01206971567093e-01 1.57779761060909e-03
1.98352173913043e+00 9.96953911092272e-02 1.55802783528899e-03
1.99317391304348e+00 9.82063869127058e-02 1.53848755865782e-03
2.00282608695652e+00 9.67396217961228e-02 1.51917453423480e-03
2.01247826086957e+00 9.52947636067505e-02 1.50008653198181e-03
2.02213043478261e+00 9.38714851460569e-02 1.48122132803108e-03
2.03178260869565e+00 9.24694641159550e-02 1.46257671181105e-03
2.04143478260870e+00 9.10883830187373e-02 1.44415048491215e-03
2.05108695652174e+00 8.97279291117657e-02 1.42594045935557e-03
2.06073913043478e+00 8.83877943167651e-02 1.40794446447073e-03
2.07039130434783e+00 8.70676751507145e-02 1.39016033743209e-03
2.08004347826087e+00 8.57672726755642e-02 1.37258592974957e-03
2.08969565217391e+00 8.44862924059955e-02 1.35521910618734e-03
2.09934782608696e+00 8.32244442668326e-02 1.33805774313362e-03
2.10900000000000e+00 8.19814425093351e-02 1.32109973487019e-03
2.11865217391304e+00 8.07570056470749e-02 1.30434298485350e-03
2.12830434782609e+00 7.95508564089194e-02 1.28778541028249e-03
2.13795652173913e+00 7.83627216592900e-02 1.27142494647556e-03
2.14760869565217e+00 7.71923323368586e-02 1.25525953858874e-03
2.15726086956522e+00 7.60394234093595e-02 1.23928714719658e-03
2.16691304347826e+00 7.49037337926288e-02 1.22350574729799e-03
2.17656521739130e+00 7.37850063120465e-02 1.20791332684619e-03
2.18621739130435e+00 7.26829876289159e-02 1.19250789214351e-03
2.19586956521739e+00 7.15974281835945e-02 1.17728746020884e-03
2.20552173913043e+00 7.05280821532636e-02 1.16225006386827e-03
2.21517391304348e+00 6.94747073772538e-02 1.14739375081025e-03
2.22482608695652e+00 6.84370653208739e-02 1.13271658220623e-03
2.23447826086957e+00 6.74149210074301e-02 1.11821663763164e-03
2.24413043478261e+00 6.64080429654704e-02 1.10389200803133e-03
2.25378260869565e+00 6.54162031893330e-02 1.08974080036429e-03
2.26343478260870e+00 6.44391770702560e-02 1.07576113670743e-03
2.27308695652174e+00 6.34767433624640e-02 1.06195115296137e-03
2.28273913043478e+00 6.25286841203895e-02 1.04830900334201e-03
2.29239130434783e+00 6.15947846497261e-02 1.03483285389635e-03
2.30204347826087e+00 6.06748334705911e-02 1.02152088674021e-03
2.31169565217391e+00 5.97686222539568e-02 1.00837129921068e-03
2.32134782608696e+00 5.88759457898724e-02 9.95382302652193e-04
2.33100000000000e+00 5.79966019294790e-02 9.82552126517518e-04
2.34065217391304e+00 5.71303915395988e-02 9.69879012390277e-04
2.35030434782609e+00 5.62771184683476e-02 9.57361216945930e-04
2.35995652173913e+00 5.54365894898674e-02 9.44997014790582e-04
2.36960869565217e+00 5.46086142609123e-02 9.32784692779703e-04
2.37926086956522e+00 5.37930052878376e-02 9.20722553671475e-04
2.38891304347826e+00 5.29895778707140e-02 9.08808915355614e-04
2.39856521739130e+00 5.21981500746901e-02 8.97042109763550e-04
2.40821739130435e+00 5.14185426789286e-02 8.85420486406066e-04
2.41786956521739e+00 5.06505791363341e-02 8.73942407134859e-04
2.42752173913043e+00 4.98940855427493e-02 8.62606249479392e-04
2.43717391304348e+00 4.91488905853641e-02 8.51410405918426e-04
2.44682608695652e+00 4.84148255159158e-02 8.40353282860466e-04
2.45647826086957e+00 4.76917241035031e-02 8.29433303875047e-04
2.46613043478261e+00 4.69794225972283e-02 8.18648904861953e-04
2.47578260869565e+00 4.62777596974620e-02 8.07998537099791e-04
2.48543478260870e+00 4.55865765082075e-02 7.97480666558900e-04
2.49508695652174e+00 4.49057165120318e-02 7.87093772947117e-04
2.50473913043478e+00 4.42350255264598e-02 7.76836352662831e-04
2.51439130434783e+00 4.35743516693160e-02 7.66706914339750e-04
2.52404347826087e+00 4.29235453319274e-02 7.56703981631844e-04
2.53369565217391e+00 4.22824591351342e-02 7.46826092566587e-04
2.54334782608696e+00 4.16509479058476e-02 7.37071798652021e-04
2.55300000000000e+00 4.10288686367478e-02 7.27439667576146e-04
2.56265217391304e+00 4.04160804541307e-02 7.17928279097763e-04
2.57230434782609e+00 3.98124445929241e-02 7.08536226978116e-04
2.58195652173913e+00 3.92178243582570e-02 6.99262120833534e-04
2.59160869565217e+00 3.86320850947222e-02 6.90104582227855e-04
2.60126086956522e+00 3.80550941624107e-02 6.81062247078164e-04
2.61091304347826e+00 3.74867208981905e-02 6.72133765069650e-04
2.62056521739130e+00 3.69268365946499e-02 6.63317798856253e-04
2.63021739130435e+00 3.63753144645698e-02 6.54613026393763e-04
2.63986956521739e+00 3.58320296124103e-02 6.46018137334836e-04
2.64952173913043e+00 3.52968590119735e-02 6.37531835228747e-04
2.65917391304348e+00 3.47696814706328e-02 6.29152836970848e-04
2.66882608695652e+00 3.42503776096614e-02 6.20879872055858e-04
2.67847826086957e+00 3.37388298313846e-02 6.12711684711194e-04
2.68813043478261e+00 3.32349222927306e-02 6.04647030570903e-04
2.69778260869565e+00 3.27385408844141e-02 5.96684678687375e-04
2.70743478260870e+00 3.22495731978873e-02 5.88823411013834e-04
2.71708695652174e+00 3.17679085069683e-02 5.81062021706598e-04
2.72673913043478e+00 3.12934377374687e-02 5.73399319076629e-04
2.73639130434783e+00 3.08260534426577e-02 5.65834122520527e-04
2.74604347826087e+00 3.03656497838676e-02 5.58365264360053e-04
2.75569565217391e+00 2.99121224999559e-02 5.50991589356397e-04
2.76534782608696e+00 2.94653688901517e-02 5.43711954058303e-04
2.77500000000000e+00 2.90252877859703e-02 5.36525228587641e-04
2.78465217391304e+00 2.85917795284514e-02 5.29430293807326e-04
2.79430434782609e+00 2.81647459500935e-02 5.22426042587636e-04
2.80395652173913e+00 2.77440903480635e-02 5.15511381021046e-04
2.81360869565217e+00 2.73297174624377e-02 5.08685225727823e-04
2.82326086956522e+00 2.69215334588825e-02 5.01946505447678e-04
2.83291304347826e+00 2.65194459017476e-02 4.95294160601954e-04
2.84256521739130e+00 2.61233637386933e-02 4.88727142711000e-04
2.85221739130435e+00 2.57331972759134e-02 4.82244415939798e-04
2.86186956521739e+00 2.53488581579501e-02 4.75844954611177e-04
2.87152173913043e+00 2.49702593515655e-02 4.69527744662302e-04
2.88117391304348e+00 2.45973151208706e-02 4.63291783233771e-04
2.89082608695652e+00 2.42299410129834e-02 4.57136078126055e-04
2.90047826086957e+00 2.38680538351091e-02 4.51059649213895e-04
2.91013043478261e+00 2.35115716358180e-02 4.45061526150853e-04
2.91978260869565e+00 2.31604136900261e-02 4.39140749702396e-04
2.92943478260870e+00 2.28145004760050e-02 4.33296371360500e-04
2.93908695652174e+00 2.24737536620025e-02 4.27527452836299e-04
2.94873913043478e+00 2.21380960850427e-02 4.21833067354974e-04
2.95839130434783e+00 2.18074517335573e-02 4.16212297536753e-04
2.96804347826087e+00 2.14817457334027e-02 4.10664236616844e-04
2.97769565217391e+00 2.11609043266064e-02 4.05187988084386e-04
2.98734782608696e+00 2.08448548588886e-02 3.99782665208948e-04
2.99700000000000e+00 2.05335257600503e-02 3.94447392226174e-04
3.00665217391304e+00 2.02268465278612e-02 3.89181302381510e-04
3.01630434782609e+00 1.99247477150440e-02 3.83983538763408e-04
3.02595652173913e+00 1.96271609105610e-02 3.78853255102747e-04
3.03560869565217e+00 1.93340187242123e-02 3.73789613910935e-04
3.04526086956522e+00 1.90452547741637e-02 3.68791787536754e-04
