Energy (eV)          EEDF (eV^-(3/2))     First Anisotropy
1.43000000000000e-01 1.29598951743633e-01 2.10678398082240e-04
4.29000000000000e-01 1.20932713389771e-01 3.37392523036592e-04
7.15000000000000e-01 1.12845983482511e-01 4.18426193038078e-04
1.00100000000000e+00 1.05300010486759e-01 4.65504446859202e-04
1.28700000000000e+00 9.82586341695542e-02 4.94054824062590e-04
1.57300000000000e+00 9.16881123205617e-02 5.10463519884594e-04
1.85900000000000e+00 8.55569590597139e-02 5.18283752252584e-04
2.14500000000000e+00 7.98357939571627e-02 5.19786573043377e-04
2.43100000000000e+00 7.44972012425316e-02 5.16543830610633e-04
2.71700000000000e+00 6.95155984287964e-02 5.09699962607888e-04
3.00300000000000e+00 6.48671137212438e-02 5.00117233328359e-04
3.28900000000000e+00 6.05294716240512e-02 4.88461086511653e-04
3.57500000000000e+00 5.64818861963167e-02 4.75253959296956e-04
3.86100000000000e+00 5.27049614460215e-02 4.60911096580206e-04
4.14700000000000e+00 4.91805983846155e-02 4.45765427241826e-04
4.43300000000000e+00 4.58919082968313e-02 4.30085448896991e-04
4.71900000000000e+00 4.28231318101161e-02 4.14088454066583e-04
5.00500000000000e+00 3.99595633758642e-02 3.97950542325443e-04
5.29100000000000e+00 3.72874808005635e-02 3.81814348680063e-04
5.57700000000000e+00 3.47940794891713e-02 3.65795107687054e-04
5.86300000000000e+00 3.24674110856122e-02 3.49985478062208e-04
6.14900000000000e+00 3.02963262163669e-02 3.34459426503738e-04
6.43500000000000e+00 2.82704210627767e-02 3.19275385586024e-04
6.72100000000000e+00 2.63799875060406e-02 3.04478843364417e-04
7.00700000000000e+00 2.46159666059995e-02 2.90104482421991e-04
7.29300000000000e+00 2.29699051907789e-02 2.76177957690351e-04
7.57900000000000e+00 2.14339153492667e-02 2.62717381801169e-04
7.86500000000000e+00 2.00006366323166e-02 2.49734571572128e-04
8.15100000000000e+00 1.86632007815432e-02 2.37236097903934e-04
8.43700000000000e+00 1.74151988166914e-02 2.25224172781931e-04
8.72300000000000e+00 1.62506503238622e-02 2.13697400490401e-04
9.00900000000000e+00 1.51639747974243e-02 2.02651415036710e-04
9.29500000000000e+00 1.41499648982829e-02 1.92079421773999e-04
9.58100000000000e+00 1.32037615003585e-02 1.81972658036716e-04
9.86700000000000e+00 1.23208304056999e-02 1.72320785066868e-04
1.01530000000000e+01 1.14969406166490e-02 1.63112221465458e-04
1.04390000000000e+01 1.07281440609397e-02 1.54334426744842e-04
1.07250000000000e+01 1.00107566725713e-02 1.45974142201781e-04
1.10110000000000e+01 9.34134073779889e-03 1.38017595215358e-04
1.12970000000000e+01 8.71668842164034e-03 1.30450672150573e-04
1.15830000000000e+01 8.13380639596091e-03 1.23259064279972e-04
1.18690000000000e+01 7.58990149547235e-03 1.16428390492920e-04
1.21550000000000e+01 7.08236733291067e-03 1.09944300021969e-04
1.24410000000000e+01 6.60877180925239e-03 1.03792557959856e-04
1.27270000000000e+01 6.16684545911846e-03 9.79591159544428e-05
1.30130000000000e+01 5.75447057551713e-03 9.24301701403421e-05
1.32990000000000e+01 5.36967106181156e-03 8.71922080857488e-05
1.35850000000000e+01 5.01060296228300e-03 8.22320462930493e-05
1.38710000000000e+01 4.67554562591198e-03 7.75368595859242e-05
1.41570000000000e+01 4.36289346103451e-03 7.30942035384861e-05
1.44430000000000e+01 4.07114824136165e-03 6.88920309492072e-05
1.47290000000000e+01 3.79891192649293e-03 6.49187032303274e-05
1.50150000000000e+01 3.54487996251970e-03 6.11629974690822e-05
1.53010000000000e+01 3.30783503061481e-03 5.76141098178980e-05
1.55870000000000e+01 3.08664121365199e-03 5.42616557845249e-05
1.58730000000000e+01 2.88023855290155e-03 5.10956679181044e-05
1.61590000000000e+01 2.68763796871784e-03 4.81065913218774e-05
1.64450000000000e+01 2.50791652087877e-03 4.52852773662960e-05
1.67310000000000e+01 2.34021298586476e-03 4.26229759266246e-05
1.70170000000000e+01 2.18372372988359e-03 4.01113264257190e-05
1.73030000000000e+01 2.03769885786467e-03 3.77423479247541e-05
1.75890000000000e+01 1.90143861996880e-03 3.55084284715240e-05
1.78750000000000e+01 1.77429005839340e-03 3.34023138869433e-05
1.81610000000000e+01 1.65564387840471e-03 3.14170961450274e-05
1.84470000000000e+01 1.54493152860310e-03 2.95462014794425e-05
1.87330000000000e+01 1.44162247642996e-03 2.77833783303275e-05
1.90190000000000e+01 1.34522166586062e-03 2.61226852281230e-05
1.93050000000000e+01 1.25526714510041e-03 2.45584786963235e-05
1.95910000000000e+01 1.17132785291595e-03 2.30854012421233e-05
1.98770000000000e+01 1.09300155299367e-03 2.16983694926276e-05
2.01630000000000e+01 1.01991290642715e-03 2.03925625244471e-05
2.04490000000000e+01 9.51711673096500e-04 1.91634104259188e-05
2.07350000000000e+01 8.88071033320956e-04 1.80065831237308e-05
2.10210000000000e+01 8.28686021741988e-04 1.69179794992546e-05
2.13070000000000e+01 7.73272065932114e-04 1.58937168142721e-05
2.15930000000000e+01 7.21563622726451e-04 1.49301204609351e-05
2.18790000000000e+01 6.73312905742323e-04 1.40237140466065e-05
2.21650000000000e+01 6.28288697989196e-04 1.31712098206369e-05
2.24510000000000e+01 5.86275243879002e-04 1.23694994470509e-05
2.27370000000000e+01 5.47071215327342e-04 1.16156451244844e-05
2.30230000000000e+01 5.10488746991171e-04 1.09068710524867e-05
2.33090000000000e+01 4.76352536019805e-04 1.02405552414193e-05
2.35950000000000e+01 4.44499002005276e-04 9.61422166160146e-06
2.38810000000000e+01 4.14775503106531e-04 9.02553272604917e-06
2.41670000000000e+01 3.87039604591135e-04 8.47228210007106e-06
2.44530000000000e+01 3.61158396289347e-04 7.95238783011524e-06
2.47390000000000e+01 3.37007855689818e-04 7.46388578356326e-06
2.50250000000000e+01 3.14472253624854e-04 7.00492339062540e-06
2.53110000000000e+01 2.93443599697318e-04 6.57375367908290e-06
2.55970000000000e+01 2.73821124791641e-04 6.16872959232877e-06
2.58830000000000e+01 2.55510798189151e-04 5.78829858096574e-06
2.61690000000000e+01 2.38424876973736e-04 5.43099745811043e-06
2.64550000000000e+01 2.22481485568601e-04 5.09544750851760e-06
2.67410000000000e+01 2.07604223389257e-04 4.78034984166489e-06
2.70270000000000e+01 1.93721798732627e-04 4.48448097901725e-06
2.73130000000000e+01 1.80767687147864e-04 4.20668866581361e-06
2.75990000000000e+01 1.68679812651794e-04 3.94588789787814e-06
2.78850000000000e+01 1.57400250261378e-04 3.70105715414861e-06
2.81710000000000e+01 1.46874948417729e-04 3.47123482582885e-06
2.84570000000000e+01 1.37053469971540e-04 3.25551583330717e-06
2.87430000000000e+01 1.27888750488728e-04 3.05304842223219e-06
2.90290000000000e+01 1.19336872718104e-04 2.86303113039899e-06
2.93150000000000e+01 1.11356856140307e-04 2.68470991736842e-06
2.96010000000000e+01 1.03910460589537e-04 2.51737544901817e-06
2.98870000000000e+01 9.69620030070278e-05 2.36036052950234e-06
3.01730000000000e+01 9.04781864481658e-05 2.21303767337704e-06
3.04590000000000e+01 8.44279405238329e-05 2.07481681092792e-06
3.07450000000000e+01 7.87822725113912e-05 1.94514312001350e-06
3.10310000000000e+01 7.35141284218233e-05 1.82349497801171e-06
3.13170000000000e+01 6.85982633572661e-05 1.70938202772629e-06
3.16030000000000e+01 6.40111205376939e-05 1.60234335137463e-06
3.18890000000000e+01 5.97307184170453e-05 1.50194574703612e-06
3.21750000000000e+01 5.57365453478576e-05 1.40778210219226e-06
3.24610000000000e+01 5.20094612896414e-05 1.31946985923439e-06
3.27470000000000e+01 4.85316060899831e-05 1.23664956805231e-06
3.30330000000000e+01 4.52863138988595e-05 1.15898352104689e-06
3.33190000000000e+01 4.22580333060383e-05 1.08615446613194e-06
3.36050000000000e+01 3.94322528188636e-05 1.01786439350476e-06
3.38910000000000e+01 3.67954313233170e-05 9.53833392171243e-07
3.41770000000000e+01 3.43349331951244e-05 8.93798572409830e-07
3.44630000000000e+01 3.20389677499609e-05 8.37513050549360e-07
3.47490000000000e+01 2.98965327426005e-05 7.84744992618727e-07
3.50350000000000e+01 2.78973616442581e-05 7.35276713601552e-07
3.53210000000000e+01 2.60318744454789e-05 6.88903829196884e-07
3.56070000000000e+01 2.42911317488208e-05 6.45434457147548e-07
3.58930000000000e+01 2.26667919313452e-05 6.04688465351034e-07
3.61790000000000e+01 2.11510711716360e-05 5.66496764114256e-07
3.64650000000000e+01 1.97367061497998e-05 5.30700640053223e-07
3.67510000000000e+01 1.84169192417035e-05 4.97151129271812e-07
3.70370000000000e+01 1.71853860406626e-05 4.65708427580707e-07
3.73230000000000e+01 1.60362050509422e-05 4.36241335638254e-07
3.76090000000000e+01 1.49638694078443e-05 4.08626737009939e-07
3.78950000000000e+01 1.39632404888625e-05 3.82749107252382e-07
3.81810000000000e+01 1.30295232894509e-05 3.58500052231559e-07
3.84670000000000e+01 1.21582434454062e-05 3.35777873983538e-07
3.87530000000000e+01 1.13452257917560e-05 3.14487162519635e-07
3.90390000000000e+01 1.05865743554064e-05 2.94538412066689e-07
3.93250000000000e+01 9.87865368567524e-06 2.75847660317378e-07
3.96110000000000e+01 9.21807143324588e-06 2.58336149345346e-07
3.98970000000000e+01 8.60166209406049e-06 2.41930006915605e-07
4.01830000000000e+01 8.02647184025392e-06 2.26559946992334e-07
4.04690000000000e+01 7.48974436543776e-06 2.12160988314083e-07
4.07550000000000e+01 6.98890767650560e-06 1.98672189970639e-07
4.10410000000000e+01 6.52156176866580e-06 1.86036402976601e-07
4.13270000000000e+01 6.08546712464064e-06 1.74200036894249e-07
4.16130000000000e+01 5.67853398292021e-06 1.63112840612638e-07
4.18990000000000e+01 5.29881232364457e-06 1.52727696441319e-07
4.21850000000000e+01 4.94448252412652e-06 1.43000426725631e-07
4.24710000000000e+01 4.61384663923652e-06 1.33889612236457e-07
4.27570000000000e+01 4.30532026486528e-06 1.25356421630690e-07
4.30430000000000e+01 4.01742494547388e-06 1.17364451319637e-07
4.33290000000000e+01 3.74878108934850e-06 1.09879575121223e-07
4.36150000000000e+01 3.49810135760962e-06 1.02869803108387e-07
4.39010000000000e+01 3.26418449529600e-06 9.63051491005038e-08
4.41870000000000e+01 3.04590957496204e-06 9.01575062771497e-08
4.44730000000000e+01 2.84223062520371e-06 8.44005304241955e-08
4.47590000000000e+01 2.65217161837333e-06 7.90095303511291e-08
4.50450000000000e+01 2.47482179346401e-06 7.39613650457599e-08
4.53310000000000e+01 2.30933129175138e-06 6.92343471581609e-08
4.56170000000000e+01 2.15490708427838e-06 6.48081524299279e-08
4.59030000000000e+01 2.01080917166780e-06 6.06637347076690e-08
4.61890000000000e+01 1.87634703805216e-06 5.67832462011384e-08
4.64750000000000e+01 1.75087634212798e-06 5.31499626667004e-08
4.67610000000000e+01 1.63379582947823e-06 4.97482132158896e-08
4.70470000000000e+01 1.52454445136672e-06 4.65633144668160e-08
4.73330000000000e+01 1.42259867619770e-06 4.35815087730856e-08
4.76190000000000e+01 1.32746998075730e-06 4.07899062808442e-08
4.79050000000000e+01 1.23870250921484e-06 3.81764305795565e-08
4.81910000000000e+01 1.15587088866582e-06 3.57297677262494e-08
4.84770000000000e+01 1.07857819074894e-06 3.34393184362402e-08
4.87630000000000e+01 1.00645402956903e-06 3.12951532458752e-08
4.90490000000000e+01 9.39152786811289e-07 2.92879704645664e-08
4.93350000000000e+01 8.76351955541465e-07 2.74090567444848e-08
4.96210000000000e+01 8.17750594755642e-07 2.56502501066805e-08
4.99070000000000e+01 7.63067887273706e-07 2.40039052721884e-08
5.01930000000000e+01 7.12041794066014e-07 2.24628611558914e-08
5.04790000000000e+01 6.64427798564781e-07 2.10204103895695e-08
5.07650000000000e+01 6.19997734942948e-07 1.96702707487051e-08
5.10510000000000e+01 5.78538694745638e-07 1.84065583652690e-08
5.13370000000000e+01 5.39852006634808e-07 1.72237626159074e-08
5.16230000000000e+01 5.03752284358032e-07 1.61167225817112e-08
5.19090000000000e+01 4.70066538379285e-07 1.50806049821085e-08
5.21950000000000e+01 4.38633346914690e-07 1.41108834913886e-08
5.24810000000000e+01 4.09302082400812e-07 1.32033193519859e-08
5.27670000000000e+01 3.81932189688769e-07 1.23539432039188e-08
5.30530000000000e+01 3.56392512505254e-07 1.15590380547375e-08
5.33390000000000e+01 3.32560664952883e-07 1.08151233189900e-08
5.36250000000000e+01 3.10322445038104e-07 1.01189398605822e-08
5.39110000000000e+01 2.89571287416301e-07 9.46743597552272e-09
5.41970000000000e+01 2.70207752731639e-07 8.85775425639178e-09
5.44830000000000e+01 2.52139051104597e-07 8.28721928350324e-09
5.47690000000000e+01 2.35278597483716e-07 7.75332609112459e-09
5.50550000000000e+01 2.19545596730831e-07 7.25372936031660e-09
5.53410000000000e+01 2.04864656451519e-07 6.78623329295211e-09
5.56270000000000e+01 1.91165425715437e-07 6.34878212428922e-09
5.59130000000000e+01 1.78382257935314e-07 5.93945123411672e-09
5.61990000000000e+01 1.66453896289110e-07 5.55643881897133e-09
5.64850000000000e+01 1.55323180177890e-07 5.19805809025449e-09
5.67710000000000e+01 1.44936771312765e-07 4.86272996526291e-09
5.70570000000000e+01 1.35244898118297e-07 4.54897622019822e-09
5.73430000000000e+01 1.26201117227576e-07 4.25541307614649e-09
5.76290000000000e+01 1.17762090926028e-07 3.98074519082529e-09
5.79150000000000e+01 1.09887379477492e-07 3.72376003059111e-09
5.82010000000000e+01 1.02539247337375e-07 3.48332259879097e-09
5.84870000000000e+01 9.56824823242679e-08 3.25837049803428e-09
5.87730000000000e+01 8.92842268835037e-08 3.04790930536192e-09
5.90590000000000e+01 8.33138206340525e-08 2.85100824060259e-09
5.93450000000000e+01 7.77426534442619e-08 2.66679610943940e-09
5.96310000000000e+01 7.25440283323689e-08 2.49445750386538e-09
5.99170000000000e+01 6.76930335348101e-08 2.33322924379128e-09
6.02030000000000e+01 6.31664231292805e-08 2.18239704458572e-09
6.04890000000000e+01 5.89425056404882e-08 2.04129239628223e-09
6.07750000000000e+01 5.50010400948052e-08 1.90928964108186e-09
6.10610000000000e+01 5.13231390257082e-08 1.78580323661940e-09
6.13470000000000e+01 4.78911779652137e-08 1.67028519324812e-09
6.16330000000000e+01 4.46887109875899e-08 1.56222267433539e-09
6.19190000000000e+01 4.17003919006324e-08 1.46113574925374e-09
6.22050000000000e+01 3.89119007068525e-08 1.36657528940050e-09
6.24910000000000e+01 3.63098749821818e-08 1.27812099818740e-09
6.27770000000000e+01 3.38818458433591e-08 1.19537956651171e-09
6.30630000000000e+01 3.16161781971569e-08 1.11798294575514e-09
6.33490000000000e+01 2.95020149851222e-08 1.04558673085795e-09
6.36350000000000e+01 2.75292251566523e-08 9.77868646485538e-10
6.39210000000000e+01 2.56883551210941e-08 9.14527129745136e-10
6.42070000000000e+01 2.39705834462247e-08 8.55280003323249e-10
6.44930000000000e+01 2.23676785860296e-08 7.99863233301244e-10
6.47790000000000e+01 2.08719594352103e-08 7.48029766269373e-10
6.50650000000000e+01 1.94762585213987e-08 6.99548440699369e-10
6.53510000000000e+01 1.81738876586952e-08 6.54202967854389e-10
6.56370000000000e+01 1.69586058979440e-08 6.11790977813657e-10
6.59230000000000e+01 1.58245896201621e-08 5.72123126469054e-10
6.62090000000000e+01 1.47664046298111e-08 5.35022259613055e-10
6.64950000000000e+01 1.37789801141822e-08 5.00322630483219e-10
6.67810000000000e+01 1.28575843441083e-08 4.67869167358677e-10
6.70670000000000e+01 1.19978019995619e-08 4.37516788019847e-10
6.73530000000000e+01 1.11955130114820e-08 4.09129758084770e-10
6.76390000000000e+01 1.04468728184412e-08 3.82581090424918e-10
6.79250000000000e+01 9.74829394354293e-09 3.57751983040805e-10
6.82110000000000e+01 9.09642880326507e-09 3.34531292943984e-10
6.84970000000000e+01 8.48815366587083e-09 3.12815043747846e-10
6.87830000000000e+01 7.92055368251498e-09 2.92505964815596e-10
6.90690000000000e+01 7.39090891931507e-09 2.73513059950468e-10
6.93550000000000e+01 6.89668132345339e-09 2.55751203741356e-10
6.96410000000000e+01 6.43550256085130e-09 2.39140763797033e-10
6.99270000000000e+01 6.00516266713415e-09 2.23607247214517e-10
7.02130000000000e+01 5.60359945750242e-09 2.09080969732422e-10
7.04990000000000e+01 5.22888864476115e-09 1.95496746118761e-10
7.07850000000000e+01 4.87923461815353e-09 1.82793600435022e-10
7.10710000000000e+01 4.55296183881064e-09 1.70914494904893e-10
7.13570000000000e+01 4.24850681058471e-09 1.59806076196982e-10
7.16430000000000e+01 3.96441058778999e-09 1.49418438006829e-10
7.19290000000000e+01 3.69931178394848e-09 1.39704898894560e-10
7.22150000000000e+01 3.45194004803848e-09 1.30621794401103e-10
7.25010000000000e+01 3.22110997698427e-09 1.22128282528222e-10
7.27870000000000e+01 3.00571543521545e-09 1.14186161726022e-10
7.30730000000000e+01 2.80472425407551e-09 1.06759700586225e-10
7.33590000000000e+01 2.61717328567917e-09 9.98154784907408e-11
7.36450000000000e+01 2.44216378751660e-09 9.33222365129760e-11
7.39310000000000e+01 2.27885711568758e-09 8.72507379142335e-11
7.42170000000000e+01 2.12647070612769e-09 8.15736376195696e-11
7.45030000000000e+01 1.98427432456855e-09 7.62653600968596e-11
7.47890000000000e+01 1.85158656726191e-09 7.13019850996586e-11
7.50750000000000e+01 1.72777159569920e-09 6.66611407689574e-11
7.53610000000000e+01 1.61223608967924e-09 6.23219036212449e-11
7.56470000000000e+01 1.50442640412334e-09 5.82647049805271e-11
7.59330000000000e+01 1.40382591601320e-09 5.44712434402823e-11
7.62190000000000e+01 1.30995254873812e-09 5.09244029678430e-11
7.65050000000000e+01 1.22235646198839e-09 4.76081762885156e-11
7.67910000000000e+01 1.14061789612463e-09 4.45075932099899e-11
7.70770000000000e+01 1.06434516069350e-09 4.16086535693466e-11
7.73630000000000e+01 9.93172757450663e-10 3.88982645053328e-11
7.76490000000000e+01 9.26759628896558e-10 3.63641817776447e-11
7.79350000000000e+01 8.64787523932009e-10 3.39949548728005e-11
7.82210000000000e+01 8.06959472801906e-10 3.17798756528980e-11
7.85070000000000e+01 7.52998364018867e-10 2.97089303191829e-11
7.87930000000000e+01 7.02645616447556e-10 2.77727544769973e-11
7.90790000000000e+01 6.55659940186265e-10 2.59625911023795e-11
7.93650000000000e+01 6.11816180307934e-10 2.42702512234091e-11
7.96510000000000e+01 5.70904237919813e-10 2.26880771413994e-11
7.99370000000000e+01 5.32728063371514e-10 2.12089080282712e-11
8.02230000000000e+01 4.97104716786890e-10 1.98260477469626e-11
8.05090000000000e+01 4.63863491417839e-10 1.85332347515716e-11
8.07950000000000e+01 4.32845095619141e-10 1.73246139331375e-11
8.10810000000000e+01 4.03900889524366e-10 1.61947102855947e-11
8.13670000000000e+01 3.76892172765005e-10 1.51384042744961e-11
8.16530000000000e+01 3.51689519819581e-10 1.41509087986612e-11
8.19390000000000e+01 3.28172159807751e-10 1.32277476419669e-11
8.22250000000000e+01 3.06227397757355e-10 1.23647353191152e-11
8.25110000000000e+01 2.85750074571154e-10 1.15579582254035e-11
8.27970000000000e+01 2.66642063105402e-10 1.08037570063136e-11
8.30830000000000e+01 2.48811797945486e-10 1.00987100681567e-11
8.33690000000000e+01 2.32173836625294e-10 9.43961815608706e-12
8.36550000000000e+01 2.16648450187717e-10 8.82348993054020e-12
8.39410000000000e+01 2.02161241124213e-10 8.24752847759646e-12
8.42270000000000e+01 1.88642786862638e-10 7.70911869292633e-12
8.45130000000000e+01 1.76028307094917e-10 7.20581548286371e-12
8.47990000000000e+01 1.64257353350410e-10 6.73533272979279e-12
8.50850000000000e+01 1.53273519327395e-10 6.29553297244002e-12
8.53710000000000e+01 1.43024170594593e-10 5.88441775484843e-12
8.56570000000000e+01 1.33460192367457e-10 5.50011860079407e-12
8.59430000000000e+01 1.24535754150578e-10 5.14088857319392e-12
8.62290000000000e+01 1.16208090118376e-10 4.80509438066389e-12
8.65150000000000e+01 1.08437294181656e-10 4.49120899582917e-12
8.68010000000000e+01 1.01186128757998e-10 4.19780475227349e-12
8.70870000000000e+01 9.44198463296046e-11 3.92354688915158e-12
8.73730000000000e+01 8.81060229335190e-11 3.66718751448967e-12
8.76590000000000e+01 8.22144027862906e-11 3.42755996007033e-12
8.79450000000000e+01 7.67167532985416e-11 3.20357350254839e-12
8.82310000000000e+01 7.15867297846590e-11 2.99420842708292e-12
8.85170000000000e+01 6.67997492193039e-11 2.79851141130263e-12
8.88030000000000e+01 6.23328724357812e-11 2.61559120885567e-12
8.90890000000000e+01 5.81646942017646e-11 2.44461461313601e-12
8.93750000000000e+01 5.42752406456204e-11 2.28480268303327e-12
8.96610000000000e+01 5.06458735417995e-11 2.13542721372660e-12
8.99470000000000e+01 4.72592009966320e-11 1.99580743664151e-12
9.02330000000000e+01 4.40989941065336e-11 1.86530693371531e-12
