Energy (eV)          EEDF (eV^-(3/2))     First Anisotropy
1.33750000000000e-01 7.15263290693476e-02 9.30997586276591e-05
4.01250000000000e-01 6.85048739269298e-02 1.50994715705879e-04
6.68750000000000e-01 6.56110527802263e-02 1.92202213237916e-04
9.36250000000000e-01 6.28394740426994e-02 2.19470716632722e-04
1.20375000000000e+00 6.01849738822236e-02 2.39078828074854e-04
1.47125000000000e+00 5.76426066001546e-02 2.53538496953016e-04
1.73875000000000e+00 5.52076354168126e-02 2.64216552331392e-04
2.00625000000000e+00 5.28755236462109e-02 2.71976080138959e-04
2.27375000000000e+00 5.06419262435861e-02 2.77412520827779e-04
2.54125000000000e+00 4.85026817099823e-02 2.80961432211608e-04
2.80875000000000e+00 4.64538043388072e-02 2.82954856759354e-04
3.07625000000000e+00 4.44914767899124e-02 2.83653750595759e-04
3.34375000000000e+00 4.26120429773640e-02 2.83268008500682e-04
3.61125000000000e+00 4.08120012576524e-02 2.81969527215734e-04
3.87875000000000e+00 3.90879979056488e-02 2.79901110102032e-04
4.14625000000000e+00 3.74368208661545e-02 2.77182759627939e-04
4.41375000000000e+00 3.58553937694006e-02 2.73916259686672e-04
4.68125000000000e+00 3.43407701993480e-02 2.70188598613031e-04
4.94875000000000e+00 3.28901282041099e-02 2.66074582626411e-04
5.21625000000000e+00 3.15007650382671e-02 2.61638869218618e-04
5.48375000000000e+00 3.01700921272820e-02 2.56937575507428e-04
5.75125000000000e+00 2.88956302446284e-02 2.52019568929395e-04
6.01875000000000e+00 2.76750048926517e-02 2.46927516316512e-04
6.28625000000000e+00 2.65059418785536e-02 2.41698746291937e-04
6.55375000000000e+00 2.53862630772582e-02 2.36365965382512e-04
6.82125000000000e+00 2.43138823732654e-02 2.30957858036251e-04
7.08875000000000e+00 2.32868017739314e-02 2.25499593434581e-04
7.35625000000000e+00 2.23031076869336e-02 2.20013256687372e-04
7.62375000000000e+00 2.13609673549850e-02 2.14518218090258e-04
7.89125000000000e+00 2.04586254411558e-02 2.09031451203400e-04
8.15875000000000e+00 1.95944007584389e-02 2.03567808301521e-04
8.42625000000000e+00 1.87666831374679e-02 1.98140260054419e-04
8.69375000000000e+00 1.79739304265501e-02 1.92760104989609e-04
8.96125000000000e+00 1.72146656184261e-02 1.87437153267398e-04
9.22875000000000e+00 1.64874740984018e-02 1.82179888493664e-04
9.49625000000000e+00 1.57910010087273e-02 1.76995610655395e-04
9.76375000000000e+00 1.51239487243105e-02 1.71890562750959e-04
1.00312500000000e+01 1.44850744350633e-02 1.66870043272653e-04
1.02987500000000e+01 1.38731878303752e-02 1.61938506361972e-04
1.05662500000000e+01 1.32871488814016e-02 1.57099651182060e-04
1.08337500000000e+01 1.27258657170331e-02 1.52356501824257e-04
1.11012500000000e+01 1.21882925895895e-02 1.47711478877177e-04
1.13687500000000e+01 1.16734279264480e-02 1.43166463629467e-04
1.16362500000000e+01 1.11803124639761e-02 1.38722855745682e-04
1.19037500000000e+01 1.07080274602917e-02 1.34381625143705e-04
1.21712500000000e+01 1.02556929835199e-02 1.30143358708168e-04
1.24387500000000e+01 9.82246627236000e-03 1.26008302394462e-04
1.27062500000000e+01 9.40754016590462e-03 1.21976399209690e-04
1.29737500000000e+01 9.01014159978835e-03 1.18047323498411e-04
1.32412500000000e+01 8.62953016586244e-03 1.14220511910659e-04
1.35087500000000e+01 8.26499673271274e-03 1.10495191386218e-04
1.37762500000000e+01 7.91586212445036e-03 1.06870404451369e-04
1.40437500000000e+01 7.58147585531363e-03 1.03345032091530e-04
1.43112500000000e+01 7.26121491772379e-03 9.99178144345283e-05
1.45787500000000e+01 6.95448262153613e-03 9.65873694541771e-05
1.48462500000000e+01 6.66070748232436e-03 9.33522098817888e-05
1.51137500000000e+01 6.37934215662648e-03 9.02107584938818e-05
1.53812500000000e+01 6.10986242216874e-03 8.71613619272036e-05
1.56487500000000e+01 5.85176620116748e-03 8.42023031570609e-05
1.59162500000000e+01 5.60457262488919e-03 8.13318127615021e-05
1.61837500000000e+01 5.36782113772598e-03 7.85480790819524e-05
1.64512500000000e+01 5.14107063911721e-03 7.58492573802703e-05
1.67187500000000e+01 4.92389866171846e-03 7.32334780826824e-05
1.69862500000000e+01 4.71590058428686e-03 7.06988541925569e-05
1.72537500000000e+01 4.51668887781605e-03 6.82434879463721e-05
1.75212500000000e+01 4.32589238351643e-03 6.58654767803824e-05
1.77887500000000e+01 4.14315562129529e-03 6.35629186693508e-05
1.80562500000000e+01 3.96813812744853e-03 6.13339168931741e-05
1.83237500000000e+01 3.80051382033002e-03 5.91765842822365e-05
1.85912500000000e+01 3.63997039281662e-03 5.70890469878198e-05
1.88587500000000e+01 3.48620873043716e-03 5.50694478198033e-05
1.91262500000000e+01 3.33894235408100e-03 5.31159491902141e-05
1.93937500000000e+01 3.19789688624811e-03 5.12267356978249e-05
1.96612500000000e+01 3.06280953984607e-03 4.94000163859537e-05
1.99287500000000e+01 2.93342862858157e-03 4.76340267028643e-05
2.01962500000000e+01 2.80951309803431e-03 4.59270301916480e-05
2.04637500000000e+01 2.69083207653942e-03 4.42773199341762e-05
2.07312500000000e+01 2.57716444504187e-03 4.26832197716289e-05
2.09987500000000e+01 2.46829842512124e-03 4.11430853222013e-05
2.12662500000000e+01 2.36403118441944e-03 3.96553048148515e-05
2.15337500000000e+01 2.26416845873613e-03 3.82182997563652e-05
2.18012500000000e+01 2.16852419008783e-03 3.68305254475618e-05
2.20687500000000e+01 2.07692018005631e-03 3.54904713631361e-05
2.23362500000000e+01 1.98918575778048e-03 3.41966614084192e-05
2.26037500000000e+01 1.90515746197305e-03 3.29476540652212e-05
2.28712500000000e+01 1.82467873636975e-03 3.17420424379037e-05
2.31387500000000e+01 1.74759963804346e-03 3.05784542098913e-05
2.34062500000000e+01 1.67377655803995e-03 2.94555515199697e-05
2.36737500000000e+01 1.60307195381462e-03 2.83720307669365e-05
2.39412500000000e+01 1.53535409297189e-03 2.73266223504406e-05
2.42087500000000e+01 1.47049680782957e-03 2.63180903551852e-05
2.44762500000000e+01 1.40837926035122e-03 2.53452321850580e-05
2.47437500000000e+01 1.34888571700820e-03 2.44068781531884e-05
2.50112500000000e+01 1.29190533315222e-03 2.35018910334197e-05
2.52787500000000e+01 1.23733194649654e-03 2.26291655782071e-05
2.55462500000000e+01 1.18506387932105e-03 2.17876280075154e-05
2.58137500000000e+01 1.13500374903267e-03 2.09762354728929e-05
2.60812500000000e+01 1.08705828672819e-03 2.01939755005238e-05
2.63487500000000e+01 1.04113816342154e-03 1.94398654167262e-05
2.66162500000000e+01 9.97157823611543e-04 1.87129517590483e-05
2.68837500000000e+01 9.55035325880301e-04 1.80123096758276e-05
2.71512500000000e+01 9.14692190225058e-04 1.73370423168169e-05
2.74187500000000e+01 8.76053251839163e-04 1.66862802172319e-05
2.76862500000000e+01 8.39046521069715e-04 1.60591806773580e-05
2.79537500000000e+01 8.03603049290935e-04 1.54549271396443e-05
2.82212500000000e+01 7.69656800443408e-04 1.48727285650247e-05
2.84887500000000e+01 7.37144527999822e-04 1.43118188100322e-05
2.87562500000000e+01 7.06005657127997e-04 1.37714560061136e-05
2.90237500000000e+01 6.76182171831649e-04 1.32509219424029e-05
2.92912500000000e+01 6.47618506858610e-04 1.27495214530802e-05
2.95587500000000e+01 6.20261444175132e-04 1.22665818103163e-05
2.98262500000000e+01 5.94060013813371e-04 1.18014521236905e-05
3.00937500000000e+01 5.68965398907332e-04 1.13535027468663e-05
3.03612500000000e+01 5.44930844740343e-04 1.09221246922125e-05
3.06287500000000e+01 5.21911571634584e-04 1.05067290539707e-05
3.08962500000000e+01 4.99864691520398e-04 1.01067464404905e-05
3.11637500000000e+01 4.78749128029920e-04 9.72162641597888e-06
3.14312500000000e+01 4.58525539966162e-04 9.35083695214649e-06
3.16987500000000e+01 4.39156248004948e-04 8.99386389006819e-06
3.19662500000000e+01 4.20605164493161e-04 8.65021041252366e-06
3.22337500000000e+01 4.02837726212485e-04 8.31939652703061e-06
3.25012500000000e+01 3.85820829983374e-04 8.00095855973768e-06
3.27687500000000e+01 3.69522770989283e-04 7.69444866030189e-06
3.30362500000000e+01 3.53913183706236e-04 7.39943431783795e-06
3.33037500000000e+01 3.38962985327679e-04 7.11549788799180e-06
3.35712500000000e+01 3.24644321579219e-04 6.84223613115957e-06
3.38387500000000e+01 3.10930514822278e-04 6.57925976184495e-06
3.41062500000000e+01 2.97796014349986e-04 6.32619300912288e-06
3.43737500000000e+01 2.85216348782707e-04 6.08267318815462e-06
3.46412500000000e+01 2.73168080474487e-04 5.84835028267841e-06
3.49087500000000e+01 2.61628761845506e-04 5.62288653838234e-06
3.51762500000000e+01 2.50576893559150e-04 5.40595606704950e-06
3.54437500000000e+01 2.39991884465786e-04 5.19724446135136e-06
3.57112500000000e+01 2.29854013238628e-04 4.99644842015229e-06
3.59787500000000e+01 2.20144391630191e-04 4.80327538417739e-06
3.62462500000000e+01 2.10844929280888e-04 4.61744318188607e-06
3.65137500000000e+01 2.01938300014208e-04 4.43867968538548e-06
3.67812500000000e+01 1.93407909555663e-04 4.26672247621072e-06
3.70487500000000e+01 1.85237864615379e-04 4.10131852079240e-06
3.73162500000000e+01 1.77412943276707e-04 3.94222385542773e-06
3.75837500000000e+01 1.69918566635706e-04 3.78920328056678e-06
3.78512500000000e+01 1.62740771638636e-04 3.64203006422204e-06
3.81187500000000e+01 1.55866185066872e-04 3.50048565430753e-06
3.83862500000000e+01 1.49281998620761e-04 3.36435939971131e-06
3.86537500000000e+01 1.42975945055997e-04 3.23344827990426e-06
3.89212500000000e+01 1.36936275328059e-04 3.10755664288742e-06
3.91887500000000e+01 1.31151736702127e-04 2.98649595127987e-06
3.94562500000000e+01 1.25611551787692e-04 2.87008453634970e-06
3.97237500000000e+01 1.20305398458793e-04 2.75814735979128e-06
3.99912500000000e+01 1.15223390622478e-04 2.65051578305328e-06
4.02587500000000e+01 1.10356059799657e-04 2.54702734402311e-06
4.05262500000000e+01 1.05694337484023e-04 2.44752554087547e-06
4.07937500000000e+01 1.01229538246174e-04 2.35185962289502e-06
4.10612500000000e+01 9.69533435514713e-05 2.25988438808470e-06
4.13287500000000e+01 9.28577862614610e-05 2.17145998737449e-06
4.15962500000000e+01 8.89352357900022e-05 2.08645173524781e-06
4.18637500000000e+01 8.51783838864353e-05 2.00472992660543e-06
4.21312500000000e+01 8.15802310193072e-05 1.92616965969003e-06
4.23987500000000e+01 7.81340733352820e-05 1.85065066489747e-06
4.26662500000000e+01 7.48334901689405e-05 1.77805713930409e-06
4.29337500000000e+01 7.16723320801985e-05 1.70827758674266e-06
4.32012500000000e+01 6.86447093970545e-05 1.64120466326287e-06
4.34687500000000e+01 6.57449812423211e-05 1.57673502781587e-06
4.37362500000000e+01 6.29677450238959e-05 1.51476919800535e-06
4.40037500000000e+01 6.03078263689894e-05 1.45521141075160e-06
4.42712500000000e+01 5.77602694835577e-05 1.39796948771839e-06
4.45387500000000e+01 5.53203279189767e-05 1.34295470535564e-06
4.48062500000000e+01 5.29834557287563e-05 1.29008166941483e-06
4.50737500000000e+01 5.07452989988171e-05 1.23926819379727e-06
4.53412500000000e+01 4.86016877355499e-05 1.19043518359885e-06
4.56087500000000e+01 4.65486280965448e-05 1.14350652221855e-06
4.58762500000000e+01 4.45822949495135e-05 1.09840896240113e-06
4.61437500000000e+01 4.26990247455424e-05 1.05507202108800e-06
4.64112500000000e+01 4.08953086933973e-05 1.01342787795353e-06
4.66787500000000e+01 3.91677862221631e-05 9.73411277507407e-07
4.69462500000000e+01 3.75132387200382e-05 9.34959434646874e-07
4.72137500000000e+01 3.59285835376187e-05 8.98011943545962e-07
4.74812500000000e+01 3.44108682444982e-05 8.62510689771926e-07
4.77487500000000e+01 3.29572651284849e-05 8.28399765522219e-07
4.80162500000000e+01 3.15650659271845e-05 7.95625387878467e-07
4.82837500000000e+01 3.02316767821355e-05 7.64135819976782e-07
4.85512500000000e+01 2.89546134060946e-05 7.33881294996844e-07
4.88187500000000e+01 2.77314964544672e-05 7.04813942874913e-07
4.90862500000000e+01 2.65600470922625e-05 6.76887719648860e-07
4.93537500000000e+01 2.54380827483100e-05 6.50058339346053e-07
4.96212500000000e+01 2.43635130488297e-05 6.24283208327621e-07
4.98887500000000e+01 2.33343359227781e-05 5.99521362005204e-07
5.01562500000000e+01 2.23486338717154e-05 5.75733403849018e-07
5.04237500000000e+01 2.14045703972414e-05 5.52881446608426e-07
5.06912500000000e+01 2.05003865793474e-05 5.30929055668790e-07
5.09587500000000e+01 1.96343977993060e-05 5.09841194470689e-07
5.12262500000000e+01 1.88049906009951e-05 4.89584171919932e-07
5.14937500000000e+01 1.80106196848070e-05 4.70125591719143e-07
5.17612500000000e+01 1.72498050285435e-05 4.51434303553838e-07
5.20287500000000e+01 1.65211291299305e-05 4.33480356068056e-07
5.22962500000000e+01 1.58232343656168e-05 4.16234951566811e-07
5.25637500000000e+01 1.51548204617349e-05 3.99670402384538e-07
5.28312500000000e+01 1.45146420713125e-05 3.83760088860806e-07
5.30987500000000e+01 1.39015064540195e-05 3.68478418866427e-07
5.33662500000000e+01 1.33142712539291e-05 3.53800788824988e-07
5.36337500000000e+01 1.27518423711516e-05 3.39703546176688e-07
5.39012500000000e+01 1.22131719233758e-05 3.26163953233057e-07
5.41687500000000e+01 1.16972562935206e-05 3.13160152372923e-07
5.44362500000000e+01 1.12031342598580e-05 3.00671132531629e-07
5.47037500000000e+01 1.07298852051251e-05 2.88676696937114e-07
5.49712500000000e+01 1.02766274012878e-05 2.77157432048037e-07
5.52387500000000e+01 9.84251636676000e-06 2.66094677650685e-07
5.55062500000000e+01 9.42674329301832e-06 2.55470498072829e-07
5.57737500000000e+01 9.02853353768092e-06 2.45267654474130e-07
5.60412500000000e+01 8.64714518124204e-06 2.35469578174137e-07
5.63087500000000e+01 8.28186764477410e-06 2.26060344980175e-07
5.65762500000000e+01 7.93202036602145e-06 2.17024650478808e-07
5.68437500000000e+01 7.59695153141935e-06 2.08347786255730e-07
5.71112500000000e+01 7.27603686167576e-06 2.00015617010255e-07
5.73787500000000e+01 6.96867844865313e-06 1.92014558531679e-07
5.76462500000000e+01 6.67430364138344e-06 1.84331556505960e-07
5.79137500000000e+01 6.39236397914068e-06 1.76954066122269e-07
5.81812500000000e+01 6.12233416958317e-06 1.69870032450038e-07
5.84487500000000e+01 5.86371111006174e-06 1.63067871558150e-07
5.87162500000000e+01 5.61601295027031e-06 1.56536452348922e-07
5.89837500000000e+01 5.37877819449255e-06 1.50265079080528e-07
5.92512500000000e+01 5.15156484177196e-06 1.44243474552386e-07
5.95187500000000e+01 4.93394956240330e-06 1.38461763928987e-07
5.97862500000000e+01 4.72552690921120e-06 1.32910459178533e-07
6.00537500000000e+01 4.52590856214632e-06 1.27580444103511e-07
6.03212500000000e+01 4.33472260479172e-06 1.22462959941256e-07
6.05887500000000e+01 4.15161283143150e-06 1.17549591513262e-07
6.08562500000000e+01 3.97623808339053e-06 1.12832253902805e-07
6.11237500000000e+01 3.80827161340901e-06 1.08303179641171e-07
6.13912500000000e+01 3.64740047686739e-06 1.03954906383479e-07
6.16587500000000e+01 3.49332494872751e-06 9.97802650557965e-08
6.19262500000000e+01 3.34575796510368e-06 9.57723684558954e-08
6.21937500000000e+01 3.20442458842323e-06 9.19246002906422e-08
6.24612500000000e+01 3.06906149517996e-06 8.82306046336373e-08
6.27287500000000e+01 2.93941648532632e-06 8.46842757873021e-08
6.29962500000000e+01 2.81524801239003e-06 8.12797485342066e-08
6.32637500000000e+01 2.69632473343979e-06 7.80113887629815e-08
6.35312500000000e+01 2.58242507806162e-06 7.48737844546814e-08
6.37987500000000e+01 2.47333683554273e-06 7.18617370160067e-08
6.40662500000000e+01 2.36885675949379e-06 6.89702529462743e-08
6.43337500000000e+01 2.26879018917294e-06 6.61945358255130e-08
6.46012500000000e+01 2.17295068680614e-06 6.35299786115329e-08
6.48687500000000e+01 2.08115969022791e-06 6.09721562342579e-08
6.51362500000000e+01 1.99324618019550e-06 5.85168184760427e-08
6.54037500000000e+01 1.90904636175654e-06 5.61598831271201e-08
6.56712500000000e+01 1.82840335907651e-06 5.38974294057213e-08
6.59387500000000e+01 1.75116692315752e-06 5.17256916328035e-08
6.62062500000000e+01 1.67719315190377e-06 4.96410531516886e-08
6.64737500000000e+01 1.60634422201217e-06 4.76400404832819e-08
6.67412500000000e+01 1.53848813218857e-06 4.57193177078864e-08
6.70087500000000e+01 1.47349845721120e-06 4.38756810649611e-08
6.72762500000000e+01 1.41125411238315e-06 4.21060537624992e-08
6.75437500000000e+01 1.35163912793489e-06 4.04074809880091e-08
6.78112500000000e+01 1.29454243295668e-06 3.87771251133834e-08
6.80787500000000e+01 1.23985764845816e-06 3.72122610862323e-08
6.83462500000000e+01 1.18748288916972e-06 3.57102720005319e-08
6.86137500000000e+01 1.13732057371621e-06 3.42686448397082e-08
6.88812500000000e+01 1.08927724280943e-06 3.28849663855409e-08
6.91487500000000e+01 1.04326338512064e-06 3.15569192865133e-08
6.94162500000000e+01 9.99193270508619e-07 3.02822782794780e-08
6.96837500000000e+01 9.56984790292689e-07 2.90589065587425e-08
6.99512500000000e+01 9.16559304272898e-07 2.78847522868954e-08
7.02187500000000e+01 8.77841494212551e-07 2.67578452419118e-08
7.04862500000000e+01 8.40759223509974e-07 2.56762935952857e-08
7.07537500000000e+01 8.05243402798114e-07 2.46382808161323e-08
7.10212500000000e+01 7.71227861221546e-07 2.36420626963958e-08
7.12887500000000e+01 7.38649223151082e-07 2.26859644924841e-08
7.15562500000000e+01 7.07446790106257e-07 2.17683781788295e-08
7.18237500000000e+01 6.77562427665721e-07 2.08877598090443e-08
7.20912500000000e+01 6.48940457154821e-07 2.00426269805064e-08
7.23587500000000e+01 6.21527551908578e-07 1.92315563983684e-08
7.26262500000000e+01 5.95272637916778e-07 1.84531815351355e-08
7.28937500000000e+01 5.70126798666073e-07 1.77061903821063e-08
7.31612500000000e+01 5.46043184001795e-07 1.69893232891117e-08
7.34287500000000e+01 5.22976922839676e-07 1.63013708891209e-08
7.36962500000000e+01 5.00885039564851e-07 1.56411721044205e-08
7.39637500000000e+01 4.79726373962382e-07 1.50076122311904e-08
7.42312500000000e+01 4.59461504530121e-07 1.43996210994313e-08
7.44987500000000e+01 4.40052675031029e-07 1.38161713053091e-08
7.47662500000000e+01 4.21463724148123e-07 1.32562765130943e-08
7.50337500000000e+01 4.03660018110969e-07 1.27189898239870e-08
7.53012500000000e+01 3.86608386168205e-07 1.22034022092181e-08
7.55687500000000e+01 3.70277058785878e-07 1.17086410049207e-08
7.58362500000000e+01 3.54635608456433e-07 1.12338684663591e-08
7.61037500000000e+01 3.39654893008080e-07 1.07782803791989e-08
7.63712500000000e+01 3.25307001308932e-07 1.03411047255882e-08
7.66387500000000e+01 3.11565201264720e-07 9.92160040290899e-09
7.69062500000000e+01 2.98403890013234e-07 9.51905599313712e-09
7.71737500000000e+01 2.85798546222669e-07 9.13278858083132e-09
7.74412500000000e+01 2.73725684405014e-07 8.76214261784738e-09
7.77087500000000e+01 2.62162811159360e-07 8.40648883294718e-09
7.79762500000000e+01 2.51088383263604e-07 8.06522318454339e-09
7.82437500000000e+01 2.40481767536461e-07 7.73776585488831e-09
7.85112500000000e+01 2.30323202395017e-07 7.42356028408148e-09
7.87787500000000e+01 2.20593761036178e-07 7.12207224233385e-09
7.90462500000000e+01 2.11275316173440e-07 6.83278893898550e-09
7.93137500000000e+01 2.02350506263259e-07 6.55521816683417e-09
7.95812500000000e+01 1.93802703158111e-07 6.28888748038675e-09
7.98487500000000e+01 1.85615981125967e-07 6.03334340669988e-09
8.01162500000000e+01 1.77775087178464e-07 5.78815068752798e-09
8.03837500000000e+01 1.70265412652496e-07 5.55289155154721e-09
8.06512500000000e+01 1.63072965992260e-07 5.32716501547085e-09
8.09187500000000e+01 1.56184346681069e-07 5.11058621291875e-09
8.11862500000000e+01 1.49586720274347e-07 4.90278574994716e-09
8.14537500000000e+01 1.43267794487295e-07 4.70340908618831e-09
8.17212500000000e+01 1.37215796292672e-07 4.51211594058983e-09
8.19887500000000e+01 1.31419449986032e-07 4.32857972078361e-09
8.22562500000000e+01 1.25867956177532e-07 4.15248697515181e-09
8.25237500000000e+01 1.20550971671186e-07 3.98353686669394e-09
8.27912500000000e+01 1.15458590194073e-07 3.82144066783390e-09
8.30587500000000e+01 1.10581323939582e-07 3.66592127533989e-09
8.33262500000000e+01 1.05910085890331e-07 3.51671274456212e-09
8.35937500000000e+01 1.01436172887800e-07 3.37355984222461e-09
8.38612500000000e+01 9.71512494171538e-08 3.23621761703724e-09
8.41287500000000e+01 9.30473320770283e-08 3.10445098742286e-09
8.43962500000000e+01 8.91167747053606e-08 2.97803434568217e-09
