Energy (eV)          EEDF (eV^-(3/2))     First Anisotropy
1.48125000000000e-01 6.13624393495289e-02 7.98828656742440e-05
4.44375000000000e-01 5.87705758620727e-02 1.29559036062156e-04
7.40625000000000e-01 5.62881890578943e-02 1.64917270774983e-04
1.03687500000000e+00 5.39106547952338e-02 1.88315527774225e-04
1.33312500000000e+00 5.16335442496044e-02 2.05140997829649e-04
1.62937500000000e+00 4.94526156638625e-02 2.17548980304721e-04
1.92562500000000e+00 4.73638064467450e-02 2.26712234413174e-04
2.22187500000000e+00 4.53632256051531e-02 2.33371297848114e-04
2.51812500000000e+00 4.34471464960867e-02 2.38037064210374e-04
2.81437500000000e+00 4.16119998847257e-02 2.41083245810480e-04
3.11062500000000e+00 3.98543672957296e-02 2.42794737849666e-04
3.40687500000000e+00 3.81709746453681e-02 2.43395443013143e-04
3.70312500000000e+00 3.65586861426214e-02 2.43065453178799e-04
3.99937500000000e+00 3.50144984478903e-02 2.41952257866641e-04
4.29562500000000e+00 3.35355350784332e-02 2.40178384500323e-04
4.59187500000000e+00 3.21190410501107e-02 2.37846797390285e-04
4.88812500000000e+00 3.07623777454543e-02 2.35044829370709e-04
5.18437500000000e+00 2.94630179985016e-02 2.31847118745303e-04
5.48062500000000e+00 2.82185413872405e-02 2.28317851613011e-04
5.77687500000000e+00 2.70266297248945e-02 2.24512506503542e-04
6.07312500000000e+00 2.58850627416494e-02 2.20479234332455e-04
6.36937500000000e+00 2.47917139487781e-02 2.16259965803298e-04
6.66562500000000e+00 2.37445466774586e-02 2.11891311503663e-04
6.96187500000000e+00 2.27416102849071e-02 2.07405301829850e-04
7.25812500000000e+00 2.17810365207591e-02 2.02830001401577e-04
7.55437500000000e+00 2.08610360469283e-02 1.98190023868221e-04
7.85062500000000e+00 1.99798951044628e-02 1.93506966746030e-04
8.14687500000000e+00 1.91359723211886e-02 1.88799781376790e-04
8.44312500000000e+00 1.83276956541930e-02 1.84085089744889e-04
8.73937500000000e+00 1.75535594614542e-02 1.79377457384067e-04
9.03562500000000e+00 1.68121216971603e-02 1.74689629709548e-04
9.33187500000000e+00 1.61020012254947e-02 1.70032737660638e-04
9.62812500000000e+00 1.54218752478828e-02 1.65416477417050e-04
9.92437500000000e+00 1.47704768389095e-02 1.60849268075917e-04
1.02206250000000e+01 1.41465925863143e-02 1.56338390485656e-04
1.05168750000000e+01 1.35490603306708e-02 1.51890109883652e-04
1.08131250000000e+01 1.29767670005394e-02 1.47509784544431e-04
1.11093750000000e+01 1.24286465390586e-02 1.43201962289441e-04
1.14056250000000e+01 1.19036779181157e-02 1.38970466420376e-04
1.17018750000000e+01 1.14008832363953e-02 1.34818472401093e-04
1.19981250000000e+01 1.09193258977637e-02 1.30748576418049e-04
1.22943750000000e+01 1.04581088665962e-02 1.26762856787385e-04
1.25906250000000e+01 1.00163729967962e-02 1.22862929041902e-04
1.28868750000000e+01 9.59329543139496e-03 1.19049995418111e-04
1.31831250000000e+01 9.18808806974939e-03 1.15324889368348e-04
1.34793750000000e+01 8.79999609948377e-03 1.11688115642275e-04
1.37756250000000e+01 8.42829659043982e-03 1.08139886413603e-04
1.40718750000000e+01 8.07229714801654e-03 1.04680153869305e-04
1.43681250000000e+01 7.73133462339103e-03 1.01308639628384e-04
1.46643750000000e+01 7.40477387821781e-03 9.80248613140925e-05
1.49606250000000e+01 7.09200660150544e-03 9.48281565661113e-05
1.52568750000000e+01 6.79245017646673e-03 9.17177047468628e-05
1.55531250000000e+01 6.50554659523148e-03 8.86925465679461e-05
1.58493750000000e+01 6.23076141940034e-03 8.57516018380979e-05
1.61456250000000e+01 5.96758278450334e-03 8.28936855125676e-05
1.64418750000000e+01 5.71552044650877e-03 8.01175222048930e-05
1.67381250000000e+01 5.47410486860613e-03 7.74217593054310e-05
1.70343750000000e+01 5.24288634656209e-03 7.48049788363079e-05
1.73306250000000e+01 5.02143417102027e-03 7.22657081594581e-05
1.76268750000000e+01 4.80933582518416e-03 6.98024296428932e-05
1.79231250000000e+01 4.60619621638896e-03 6.74135893801019e-05
1.82193750000000e+01 4.41163694013062e-03 6.50976050483432e-05
1.85156250000000e+01 4.22529557518128e-03 6.28528729834399e-05
1.88118750000000e+01 4.04682500847813e-03 6.06777745414041e-05
1.91081250000000e+01 3.87589278852790e-03 5.85706818106796e-05
1.94043750000000e+01 3.71218050612277e-03 5.65299627329254e-05
1.97006250000000e+01 3.55538320121382e-03 5.45539856849919e-05
1.99968750000000e+01 3.40520879483746e-03 5.26411235699846e-05
2.02931250000000e+01 3.26137754503641e-03 5.07897574610400e-05
2.05893750000000e+01 3.12362152576180e-03 4.89982798375521e-05
2.08856250000000e+01 2.99168412778581e-03 4.72650974500954e-05
2.11818750000000e+01 2.86531958069496e-03 4.55886338471285e-05
2.14781250000000e+01 2.74429249507378e-03 4.39673315936707e-05
2.17743750000000e+01 2.62837742402600e-03 4.23996542095474e-05
2.20706250000000e+01 2.51735844321646e-03 4.08840878524281e-05
2.23668750000000e+01 2.41102874865147e-03 3.94191427687177e-05
2.26631250000000e+01 2.30919027144839e-03 3.80033545334044e-05
2.29593750000000e+01 2.21165330887670e-03 3.66352850981720e-05
2.32556250000000e+01 2.11823617098352e-03 3.53135236654506e-05
2.35518750000000e+01 2.02876484214511e-03 3.40366874045990e-05
2.38481250000000e+01 1.94307265691390e-03 3.28034220250361e-05
2.41443750000000e+01 1.86099998955738e-03 3.16124022199002e-05
2.44406250000000e+01 1.78239395671041e-03 3.04623319926772e-05
2.47368750000000e+01 1.70710813258703e-03 2.93519448781897e-05
2.50331250000000e+01 1.63500227622140e-03 2.82800040683904e-05
2.53293750000000e+01 1.56594207022962e-03 2.72453024525215e-05
2.56256250000000e+01 1.49979887060596e-03 2.62466625803994e-05
2.59218750000000e+01 1.43644946708730e-03 2.52829365568496e-05
2.62181250000000e+01 1.37577585363944e-03 2.43530058746414e-05
2.65143750000000e+01 1.31766500863779e-03 2.34557811926453e-05
2.68106250000000e+01 1.26200868433285e-03 2.25902020653705e-05
2.71068750000000e+01 1.20870320520847e-03 2.17552366295150e-05
2.74031250000000e+01 1.15764927485705e-03 2.09498812526796e-05
2.76993750000000e+01 1.10875179101218e-03 2.01731601489512e-05
2.79956250000000e+01 1.06191966839397e-03 1.94241249656579e-05
2.82918750000000e+01 1.01706566903716e-03 1.87018543452214e-05
2.85881250000000e+01 9.74106239785968e-04 1.80054534656898e-05
2.88843750000000e+01 9.32961356652860e-04 1.73340535632156e-05
2.91806250000000e+01 8.93554375751453e-04 1.66868114394524e-05
2.94768750000000e+01 8.55811890525766e-04 1.60629089565774e-05
2.97731250000000e+01 8.19663595009926e-04 1.54615525223988e-05
3.00693750000000e+01 7.85042152863578e-04 1.48819725677810e-05
3.03656250000000e+01 7.51883071939065e-04 1.43234230184113e-05
3.06618750000000e+01 7.20124584146714e-04 1.37851807627409e-05
3.09581250000000e+01 6.89707530394441e-04 1.32665451177553e-05
3.12543750000000e+01 6.60575250387345e-04 1.27668372940685e-05
3.15506250000000e+01 6.32673477082020e-04 1.22853998616852e-05
3.18468750000000e+01 6.05950235598959e-04 1.18215962176373e-05
3.21431250000000e+01 5.80355746404766e-04 1.13748100565775e-05
3.24393750000000e+01 5.55842332583807e-04 1.09444448452956e-05
3.27356250000000e+01 5.32364331026585e-04 1.05299233020161e-05
3.30318750000000e+01 5.09878007369386e-04 1.01306868812408e-05
3.33281250000000e+01 4.88341474526762e-04 9.74619526480780e-06
3.36243750000000e+01 4.67714614665082e-04 9.37592585975943e-06
3.39206250000000e+01 4.47959004471814e-04 9.01937330353392e-06
3.42168750000000e+01 4.29037843581328e-04 8.67604897692835e-06
3.45131250000000e+01 4.10915886023892e-04 8.34548052521819e-06
3.48093750000000e+01 3.93559374570166e-04 8.02721138775935e-06
3.51056250000000e+01 3.76935977848894e-04 7.72080033634841e-06
3.54018750000000e+01 3.61014730120653e-04 7.42582102256729e-06
3.56981250000000e+01 3.45765973595483e-04 7.14186153429611e-06
3.59943750000000e+01 3.31161303186927e-04 6.86852396153752e-06
3.62906250000000e+01 3.17173513599594e-04 6.60542397166017e-06
3.65868750000000e+01 3.03776548651664e-04 6.35219039413672e-06
3.68831250000000e+01 2.90945452737938e-04 6.10846481482115e-06
3.71793750000000e+01 2.78656324343029e-04 5.87390117978413e-06
3.74756250000000e+01 2.66886271518077e-04 5.64816540870069e-06
3.77718750000000e+01 2.55613369238080e-04 5.43093501776304e-06
3.80681250000000e+01 2.44816618560380e-04 5.22189875207129e-06
3.83643750000000e+01 2.34475907508244e-04 5.02075622743744e-06
3.86606250000000e+01 2.24571973606664e-04 4.82721758152314e-06
3.89568750000000e+01 2.15086368000598e-04 4.64100313421658e-06
3.92531250000000e+01 2.06001421088796e-04 4.46184305714231e-06
3.95493750000000e+01 1.97300209609220e-04 4.28947705218699e-06
3.98456250000000e+01 1.88966525114710e-04 4.12365403891400e-06
4.01418750000000e+01 1.80984843780215e-04 3.96413185073222e-06
4.04381250000000e+01 1.73340297485308e-04 3.81067693967654e-06
4.07343750000000e+01 1.66018646118145e-04 3.66306408965170e-06
4.10306250000000e+01 1.59006251049257e-04 3.52107613798607e-06
4.13268750000000e+01 1.52290049725782e-04 3.38450370513758e-06
4.16231250000000e+01 1.45857531338794e-04 3.25314493239004e-06
4.19193750000000e+01 1.39696713518412e-04 3.12680522737586e-06
4.22156250000000e+01 1.33796120013275e-04 3.00529701725871e-06
4.25118750000000e+01 1.28144759312804e-04 2.88843950940792e-06
4.28081250000000e+01 1.22732104172432e-04 2.77605845939601e-06
4.31043750000000e+01 1.17548072003657e-04 2.66798594614920e-06
4.34006250000000e+01 1.12583006092391e-04 2.56406015408154e-06
4.36968750000000e+01 1.07827657610624e-04 2.46412516204334e-06
4.39931250000000e+01 1.03273168387887e-04 2.36803073891473e-06
4.42893750000000e+01 9.89110544104226e-05 2.27563214567721e-06
4.45856250000000e+01 9.47331900173317e-05 2.18678994379610e-06
4.48818750000000e+01 9.07317927642494e-05 2.10136980974920e-06
4.51781250000000e+01 8.68994089263603e-05 2.01924235553850e-06
4.54743750000000e+01 8.32288996137446e-05 1.94028295502372e-06
4.57706250000000e+01 7.97134274731931e-05 1.86437157591824e-06
4.60668750000000e+01 7.63464439517193e-05 1.79139261729104e-06
4.63631250000000e+01 7.31216770980419e-05 1.72123475242013e-06
4.66593750000000e+01 7.00331198793170e-05 1.65379077684567e-06
4.69556250000000e+01 6.70750189913536e-05 1.58895746147348e-06
4.72518750000000e+01 6.42418641414711e-05 1.52663541058290e-06
4.75481250000000e+01 6.15283777840336e-05 1.46672892459498e-06
4.78443750000000e+01 5.89295052895404e-05 1.40914586746067e-06
4.81406250000000e+01 5.64404055289610e-05 1.35379753853090e-06
4.84368750000000e+01 5.40564418557741e-05 1.30059854877387e-06
4.87331250000000e+01 5.17731734689128e-05 1.24946670120755e-06
4.90293750000000e+01 4.95863471405272e-05 1.20032287541866e-06
4.93256250000000e+01 4.74918892931541e-05 1.15309091604197e-06
4.96218750000000e+01 4.54858984115365e-05 1.10769752507732e-06
4.99181250000000e+01 4.35646377749571e-05 1.06407215792423e-06
5.02143750000000e+01 4.17245284965475e-05 1.02214692301720e-06
5.05106250000000e+01 3.99621428566076e-05 9.81856484947790e-07
5.08068750000000e+01 3.82741979175165e-05 9.43137970962356e-07
5.11031250000000e+01 3.66575494083398e-05 9.05930880727329e-07
5.13993750000000e+01 3.51091858677431e-05 8.70176999256768e-07
5.16956250000000e+01 3.36262230343006e-05 8.35820312899685e-07
5.19918750000000e+01 3.22058984737494e-05 8.02806928287604e-07
5.22881250000000e+01 3.08455664331802e-05 7.71084994145424e-07
5.25843750000000e+01 2.95426929125807e-05 7.40604625871410e-07
5.28806250000000e+01 2.82948509445500e-05 7.11317832794805e-07
5.31768750000000e+01 2.70997160733905e-05 6.83178448022250e-07
5.34731250000000e+01 2.59550620251574e-05 6.56142060786661e-07
5.37693750000000e+01 2.48587565605990e-05 6.30165951214789e-07
5.40656250000000e+01 2.38087575032631e-05 6.05209027432178e-07
5.43618750000000e+01 2.28031089353701e-05 5.81231764926634e-07
5.46581250000000e+01 2.18399375543680e-05 5.58196148093693e-07
5.49543750000000e+01 2.09174491833805e-05 5.36065613889876e-07
5.52506250000000e+01 2.00339254290495e-05 5.14804997521845e-07
5.55468750000000e+01 1.91877204805453e-05 4.94380480101721e-07
5.58431250000000e+01 1.83772580437824e-05 4.74759538200985e-07
5.61393750000000e+01 1.76010284051297e-05 4.55910895237564e-07
5.64356250000000e+01 1.68575856191449e-05 4.37804474632670e-07
5.67318750000000e+01 1.61455448150962e-05 4.20411354676014e-07
5.70281250000000e+01 1.54635796172513e-05 4.03703725039975e-07
5.73243750000000e+01 1.48104196741314e-05 3.87654844885150e-07
5.76206250000000e+01 1.41848482921245e-05 3.72239002501655e-07
5.79168750000000e+01 1.35857001690526e-05 3.57431476432219e-07
5.82131250000000e+01 1.30118592234695e-05 3.43208498024997e-07
5.85093750000000e+01 1.24622565156460e-05 3.29547215365651e-07
5.88056250000000e+01 1.19358682563697e-05 3.16425658539913e-07
5.91018750000000e+01 1.14317138998506e-05 3.03822706179475e-07
5.93981250000000e+01 1.09488543171794e-05 2.91718053245611e-07
5.96943750000000e+01 1.04863900469363e-05 2.80092180006415e-07
5.99906250000000e+01 1.00434596196924e-05 2.68926322165074e-07
6.02868750000000e+01 9.61923795328035e-06 2.58202442097975e-07
6.05831250000000e+01 9.21293481584817e-06 2.47903201162847e-07
6.08793750000000e+01 8.82379335383031e-06 2.38011933038501e-07
6.11756250000000e+01 8.45108868209570e-06 2.28512618059019e-07
6.14718750000000e+01 8.09412653364588e-06 2.19389858506497e-07
6.17681250000000e+01 7.75224196634792e-06 2.10628854827706e-07
6.20643750000000e+01 7.42479812429322e-06 2.02215382741207e-07
6.23606250000000e+01 7.11118505147469e-06 1.94135771202590e-07
6.26568750000000e+01 6.81081855557263e-06 1.86376881196648e-07
6.29531250000000e+01 6.52313911973263e-06 1.78926085326377e-07
6.32493750000000e+01 6.24761086030849e-06 1.71771248169715e-07
6.35456250000000e+01 5.98372052862863e-06 1.64900707375977e-07
6.38418750000000e+01 5.73097655492643e-06 1.58303255474881e-07
6.41381250000000e+01 5.48890813265367e-06 1.51968122372081e-07
6.44343750000000e+01 5.25706434147127e-06 1.45884958505933e-07
6.47306250000000e+01 5.03501330728366e-06 1.40043818641224e-07
6.50268750000000e+01 4.82234139775214e-06 1.34435146276376e-07
6.53231250000000e+01 4.61865245178864e-06 1.29049758641472e-07
6.56193750000000e+01 4.42356704159452e-06 1.23878832265313e-07
6.59156250000000e+01 4.23672176586989e-06 1.18913889090413e-07
6.62118750000000e+01 4.05776857287677e-06 1.14146783115645e-07
6.65081250000000e+01 3.88637411209506e-06 1.09569687546944e-07
6.68043750000000e+01 3.72221911326368e-06 1.05175082437215e-07
6.71006250000000e+01 3.56499779165023e-06 1.00955742797213e-07
6.73968750000000e+01 3.41441727844103e-06 9.69047271598683e-08
6.76931250000000e+01 3.27019707519093e-06 9.30153665811352e-08
6.79893750000000e+01 3.13206853131615e-06 8.92812540610536e-08
6.82856250000000e+01 2.99977434365730e-06 8.56962343693232e-08
6.85818750000000e+01 2.87306807718004e-06 8.22543942602334e-08
6.88781250000000e+01 2.75171370592068e-06 7.89500530623531e-08
6.91743750000000e+01 2.63548517332165e-06 7.57777536289245e-08
6.94706250000000e+01 2.52416597113771e-06 7.27322536354002e-08
6.97668750000000e+01 2.41754873612867e-06 6.98085172110694e-08
7.00631250000000e+01 2.31543486378712e-06 6.70017068921927e-08
7.03593750000000e+01 2.21763413838187e-06 6.43071758845242e-08
7.06556250000000e+01 2.12396437862777e-06 6.17204606235489e-08
7.09518750000000e+01 2.03425109832199e-06 5.92372736211833e-08
7.12481250000000e+01 1.94832718131448e-06 5.68534965881139e-08
7.15443750000000e+01 1.86603257020732e-06 5.45651738213347e-08
7.18406250000000e+01 1.78721396820285e-06 5.23685058468377e-08
7.21368750000000e+01 1.71172455354545e-06 5.02598433077794e-08
7.24331250000000e+01 1.63942370602477e-06 4.82356810888016e-08
7.27293750000000e+01 1.57017674503122e-06 4.62926526675383e-08
7.30256250000000e+01 1.50385467867546e-06 4.44275246846626e-08
7.33218750000000e+01 1.44033396350493e-06 4.26371917241578e-08
7.36181250000000e+01 1.37949627436942e-06 4.09186712958008e-08
7.39143750000000e+01 1.32122828400734e-06 3.92690990121489e-08
7.42106250000000e+01 1.26542145194189e-06 3.76857239526031e-08
7.45068750000000e+01 1.21197182229398e-06 3.61659042074021e-08
7.48031250000000e+01 1.16077983013523e-06 3.47071025946715e-08
7.50993750000000e+01 1.11175011602040e-06 3.33068825439004e-08
7.53956250000000e+01 1.06479134835360e-06 3.19629041394775e-08
7.56918750000000e+01 1.01981605325768e-06 3.06729203181489e-08
7.59881250000000e+01 9.76740451629488e-07 2.94347732144963e-08
7.62843750000000e+01 9.35484303077861e-07 2.82463906487508e-08
7.65806250000000e+01 8.95970756453363e-07 2.71057827514779e-08
7.68768750000000e+01 8.58126206691462e-07 2.60110387198714e-08
7.71731250000000e+01 8.21880157702456e-07 2.49603237005896e-08
7.74693750000000e+01 7.87165091052724e-07 2.39518757942665e-08
7.77656250000000e+01 7.53916340192710e-07 2.29840031770086e-08
7.80618750000000e+01 7.22071969997333e-07 2.20550813343656e-08
7.83581250000000e+01 6.91572661394441e-07 2.11635504034376e-08
7.86543750000000e+01 6.62361600866402e-07 2.03079126189438e-08
7.89506250000000e+01 6.34384374618990e-07 1.94867298592348e-08
7.92468750000000e+01 6.07588867220429e-07 1.86986212883866e-08
7.95431250000000e+01 5.81925164521782e-07 1.79422610906592e-08
7.98393750000000e+01 5.57345460677851e-07 1.72163762937430e-08
8.01356250000000e+01 5.33803969095374e-07 1.65197446773555e-08
8.04318750000000e+01 5.11256837142657e-07 1.58511927638795e-08
8.07281250000000e+01 4.89662064461743e-07 1.52095938878618e-08
8.10243750000000e+01 4.68979424730965e-07 1.45938663413112e-08
8.13206250000000e+01 4.49170390732139e-07 1.40029715918536e-08
8.16168750000000e+01 4.30198062582811e-07 1.34359125709126e-08
8.19131250000000e+01 4.12027098999876e-07 1.28917320291936e-08
8.22093750000000e+01 3.94623651466526e-07 1.23695109568546e-08
8.25056250000000e+01 3.77955301179889e-07 1.18683670658445e-08
8.28018750000000e+01 3.61990998661918e-07 1.13874533319888e-08
8.30981250000000e+01 3.46701005921029e-07 1.09259565944954e-08
8.33943750000000e+01 3.32056841056746e-07 1.04830962106403e-08
8.36906250000000e+01 3.18031225204177e-07 1.00581227634828e-08
8.39868750000000e+01 3.04598031719469e-07 9.65031682053924e-09
8.42831250000000e+01 2.91732237511615e-07 9.25898774142695e-09
8.45793750000000e+01 2.79409876429919e-07 8.88347253256326e-09
8.48756250000000e+01 2.67607994620321e-07 8.52313474708230e-09
8.51718750000000e+01 2.56304607767407e-07 8.17736342820041e-09
8.54681250000000e+01 2.45478660142449e-07 7.84557209433018e-09
8.57643750000000e+01 2.35109985381211e-07 7.52719776430850e-09
8.60606250000000e+01 2.25179268918433e-07 7.22170002116850e-09
8.63568750000000e+01 2.15668012009040e-07 6.92856011294466e-09
8.66531250000000e+01 2.06558497269034e-07 6.64728008905851e-09
8.69493750000000e+01 1.97833755671903e-07 6.37738197089066e-09
8.72456250000000e+01 1.89477534939046e-07 6.11840695519734e-09
8.75418750000000e+01 1.81474269265346e-07 5.86991464908145e-09
8.78381250000000e+01 1.73809050323488e-07 5.63148233527962e-09
8.81343750000000e+01 1.66467599493024e-07 5.40270426657373e-09
8.84306250000000e+01 1.59436241262432e-07 5.18319098818199e-09
8.87268750000000e+01 1.52701877754642e-07 4.97256868702946e-09
8.90231250000000e+01 1.46251964328565e-07 4.77047856684019e-09
8.93193750000000e+01 1.40074486211179e-07 4.57657624803483e-09
8.96156250000000e+01 1.34157936116648e-07 4.39053119145693e-09
8.99118750000000e+01 1.28491292810768e-07 4.21202614498919e-09
9.02081250000000e+01 1.23064000580833e-07 4.04075661215737e-09
9.05043750000000e+01 1.17865949572656e-07 3.87643034185541e-09
9.08006250000000e+01 1.12887456958128e-07 3.71876683835832e-09
9.10968750000000e+01 1.08119248898238e-07 3.56749689082246e-09
9.13931250000000e+01 1.03552443267946e-07 3.42236212150417e-09
9.16893750000000e+01 9.91785331107293e-08 3.28311455195733e-09
9.19856250000000e+01 9.49893707919961e-08 3.14951618649958e-09
9.22818750000000e+01 9.09771528218258e-08 3.02133861226513e-09
9.25781250000000e+01 8.71344053187818e-08 2.89836261518803e-09
9.28743750000000e+01 8.34539700877109e-08 2.78037781128616e-09
9.31706250000000e+01 7.99289912855964e-08 2.66718229264044e-09
9.34668750000000e+01 7.65529026506280e-08 2.55858228748774e-09
