Energy (eV)          EEDF (eV^-(3/2))     First Anisotropy
5.20833333333333e-02 1.61386191025484e-01 1.72468267923990e-04
1.56250000000000e-01 1.56809359911421e-01 2.81702850753398e-04
2.60416666666667e-01 1.52362325451362e-01 3.63779274522157e-04
3.64583333333333e-01 1.48041406643593e-01 4.21411347278839e-04
4.68750000000000e-01 1.43843026912780e-01 4.65715655670873e-04
5.72916666666667e-01 1.39763711122784e-01 5.01041508220276e-04
6.77083333333333e-01 1.35800082671691e-01 5.29712097598274e-04
7.81250000000000e-01 1.31948860725134e-01 5.53172594288886e-04
8.85416666666667e-01 1.28206857496466e-01 5.72408507341403e-04
9.89583333333333e-01 1.24570975593247e-01 5.88134701839192e-04
1.09375000000000e+00 1.21038205457507e-01 6.00893249010890e-04
1.19791666666667e+00 1.17605622924551e-01 6.11109137506898e-04
1.30208333333333e+00 1.14270386694149e-01 6.19124303503356e-04
1.40625000000000e+00 1.11029736075056e-01 6.25219585954434e-04
1.51041666666667e+00 1.07880988690244e-01 6.29629538619281e-04
1.61458333333333e+00 1.04821538188611e-01 6.32552772698971e-04
1.71875000000000e+00 1.01848852156111e-01 6.34159404679371e-04
1.82291666666667e+00 9.89604700134105e-02 6.34596567531925e-04
1.92708333333333e+00 9.61540009283559e-02 6.33992565789739e-04
2.03125000000000e+00 9.34271218883069e-02 6.32460074052240e-04
2.13541666666667e+00 9.07775757730370e-02 6.30098648511292e-04
2.23958333333333e+00 8.82031694470696e-02 6.26996716541693e-04
2.34375000000000e+00 8.57017719841393e-02 6.23233178752666e-04
2.44791666666667e+00 8.32713129002439e-02 6.18878720867835e-04
2.55208333333333e+00 8.09097804085856e-02 6.13996888939738e-04
2.65625000000000e+00 7.86152197859673e-02 6.08644983606031e-04
2.76041666666667e+00 7.63857317524542e-02 6.02874815939435e-04
2.86458333333333e+00 7.42194708740097e-02 5.96733342103643e-04
2.96875000000000e+00 7.21146440605536e-02 5.90263204157787e-04
3.07291666666667e+00 7.00695090799382e-02 5.83503198759218e-04
3.17708333333333e+00 6.80823730951238e-02 5.76488677632266e-04
3.28125000000000e+00 6.61515912839564e-02 5.69251895260781e-04
3.38541666666667e+00 6.42755654762489e-02 5.61822316483380e-04
3.48958333333333e+00 6.24527428137348e-02 5.54226882625027e-04
3.59375000000000e+00 6.06816144821397e-02 5.46490245982577e-04
3.69791666666667e+00 5.89607144611208e-02 5.38634980899100e-04
3.80208333333333e+00 5.72886182964054e-02 5.30681768011996e-04
3.90625000000000e+00 5.56639419353140e-02 5.22649558511158e-04
4.01041666666667e+00 5.40853405801842e-02 5.14555724231402e-04
4.11458333333333e+00 5.25515075630980e-02 5.06416189461557e-04
4.21875000000000e+00 5.10611732766243e-02 4.98245549572956e-04
4.32291666666667e+00 4.96131041221373e-02 4.90057180860468e-04
4.42708333333333e+00 4.82061014784200e-02 4.81863337369626e-04
4.53125000000000e+00 4.68390007199843e-02 4.73675238716431e-04
4.63541666666667e+00 4.55106702524182e-02 4.65503152373301e-04
4.73958333333333e+00 4.42200105669274e-02 4.57356466349836e-04
4.84375000000000e+00 4.29659533391681e-02 4.49243755530124e-04
4.94791666666667e+00 4.17474605444104e-02 4.41172844507379e-04
5.05208333333333e+00 4.05635235907808e-02 4.33150863111439e-04
5.15625000000000e+00 3.94131624920827e-02 4.25184297353521e-04
5.26041666666667e+00 3.82954250561650e-02 4.17279038168447e-04
5.36458333333333e+00 3.72093860902568e-02 4.09440424455975e-04
5.46875000000000e+00 3.61541466417595e-02 4.01673282738770e-04
5.57291666666667e+00 3.51288332537597e-02 3.93981965466277e-04
5.67708333333333e+00 3.41325972364151e-02 3.86370384776366e-04
5.78125000000000e+00 3.31646139701781e-02 3.78842043712432e-04
5.88541666666667e+00 3.22240822228947e-02 3.71400066647886e-04
5.98958333333333e+00 3.13102234817170e-02 3.64047226027667e-04
6.09375000000000e+00 3.04222813136598e-02 3.56785967165492e-04
6.19791666666667e+00 2.95595207391871e-02 3.49618432623413e-04
6.30208333333333e+00 2.87212276195979e-02 3.42546483561213e-04
6.40625000000000e+00 2.79067080702243e-02 3.35571719579821e-04
6.51041666666667e+00 2.71152878858313e-02 3.28695498398352e-04
6.61458333333333e+00 2.63463119788492e-02 3.21918953007439e-04
6.71875000000000e+00 2.55991438409004e-02 3.15243007642417e-04
6.82291666666667e+00 2.48731650157252e-02 3.08668393758125e-04
6.92708333333333e+00 2.41677745840242e-02 3.02195663880156e-04
7.03125000000000e+00 2.34823886693504e-02 2.95825204522024e-04
7.13541666666667e+00 2.28164399546282e-02 2.89557249215105e-04
7.23958333333333e+00 2.21693772097262e-02 2.83391889736269e-04
7.34375000000000e+00 2.15406648380720e-02 2.77329086589834e-04
7.44791666666667e+00 2.09297824331584e-02 2.71368679674267e-04
7.55208333333333e+00 2.03362243452915e-02 2.65510397408061e-04
7.65625000000000e+00 1.97594992655824e-02 2.59753865255961e-04
7.76041666666667e+00 1.91991298191331e-02 2.54098614484716e-04
7.86458333333333e+00 1.86546521677028e-02 2.48544089593414e-04
7.96875000000000e+00 1.81256156280037e-02 2.43089655258575e-04
8.07291666666667e+00 1.76115822985320e-02 2.37734603534610e-04
8.17708333333333e+00 1.71121266951681e-02 2.32478159908102e-04
8.28125000000000e+00 1.66268354009550e-02 2.27319488957420e-04
8.38541666666667e+00 1.61553067237908e-02 2.22257700280301e-04
8.48958333333333e+00 1.56971503622280e-02 2.17291853425779e-04
8.59375000000000e+00 1.52519870841428e-02 2.12420962503701e-04
8.69791666666667e+00 1.48194484127371e-02 2.07644001065664e-04
8.80208333333333e+00 1.43991763200291e-02 2.02959906117681e-04
8.90625000000000e+00 1.39908229320353e-02 1.98367581868529e-04
9.01041666666667e+00 1.35940502407402e-02 1.93865903746657e-04
9.11458333333333e+00 1.32085298229800e-02 1.89453721657362e-04
9.21875000000000e+00 1.28339425699537e-02 1.85129863022649e-04
9.32291666666667e+00 1.24699784230121e-02 1.80893136082545e-04
9.42708333333333e+00 1.21163361158289e-02 1.76742332529682e-04
9.53125000000000e+00 1.17727229262352e-02 1.72676229964840e-04
9.63541666666667e+00 1.14388544338589e-02 1.68693594604020e-04
9.73958333333333e+00 1.11144542836503e-02 1.64793183398911e-04
9.84375000000000e+00 1.07992539582016e-02 1.60973746009618e-04
9.94791666666667e+00 1.04929925554281e-02 1.57234027017257e-04
1.00520833333333e+01 1.01954165716790e-02 1.53572767726331e-04
1.01562500000000e+01 9.90627969200473e-03 1.49988707204763e-04
1.02604166666667e+01 9.62534259043716e-03 1.46480585033201e-04
1.03645833333333e+01 9.35237272267625e-03 1.43047142252442e-04
1.04687500000000e+01 9.08714414203825e-03 1.39687121525105e-04
1.05729166666667e+01 8.82943731198679e-03 1.36399270466081e-04
1.06770833333333e+01 8.57903891704022e-03 1.33182341778369e-04
1.07812500000000e+01 8.33574169370811e-03 1.30035093356562e-04
1.08854166666667e+01 8.09934425853758e-03 1.26956291149867e-04
1.09895833333333e+01 7.86965093485270e-03 1.23944709144960e-04
1.10937500000000e+01 7.64647159747116e-03 1.20999129326183e-04
1.11979166666667e+01 7.42962151498103e-03 1.18118344136610e-04
1.13020833333333e+01 7.21892119097667e-03 1.15301156340934e-04
1.14062500000000e+01 7.01419622144294e-03 1.12546378873391e-04
1.15104166666667e+01 6.81527715008398e-03 1.09852836952740e-04
1.16145833333333e+01 6.62199932283440e-03 1.07219367852116e-04
1.17187500000000e+01 6.43420275688651e-03 1.04644820660086e-04
1.18229166666667e+01 6.25173200799045e-03 1.02128058097269e-04
1.19270833333333e+01 6.07443603712357e-03 9.96679562151955e-05
1.20312500000000e+01 5.90216809021757e-03 9.72634040912321e-05
1.21354166666667e+01 5.73478557643901e-03 9.49133053877761e-05
1.22395833333333e+01 5.57214994599474e-03 9.26165779981149e-05
1.23437500000000e+01 5.41412657969124e-03 9.03721536921630e-05
1.24479166666667e+01 5.26058467728643e-03 8.81789794533871e-05
1.25520833333333e+01 5.11139714549606e-03 8.60360170863307e-05
1.26562500000000e+01 4.96644049658675e-03 8.39422428269921e-05
1.27604166666667e+01 4.82559474596552e-03 8.18966484877367e-05
1.28645833333333e+01 4.68874330953117e-03 7.98982410384212e-05
1.29687500000000e+01 4.55577291056670e-03 7.79460421926561e-05
1.30729166666667e+01 4.42657348580189e-03 7.60390893867935e-05
1.31770833333333e+01 4.30103809132628e-03 7.41764353443258e-05
1.32812500000000e+01 4.17906281710558e-03 7.23571476471623e-05
1.33854166666667e+01 4.06054670081606e-03 7.05803095712020e-05
1.34895833333333e+01 3.94539164160185e-03 6.88450196418216e-05
1.35937500000000e+01 3.83350232159439e-03 6.71503911975344e-05
1.36979166666667e+01 3.72478612687538e-03 6.54955531016053e-05
1.38020833333333e+01 3.61915306842184e-03 6.38796492949088e-05
1.39062500000000e+01 3.51651571005759e-03 6.23018383578790e-05
1.40104166666667e+01 3.41678909595493e-03 6.07612941150057e-05
1.41145833333333e+01 3.31989067816600e-03 5.92572051900604e-05
1.42187500000000e+01 3.22574025048162e-03 5.77887745710451e-05
1.43229166666667e+01 3.13425988193061e-03 5.63552201221529e-05
1.44270833333333e+01 3.04537385034676e-03 5.49557741453062e-05
1.45312500000000e+01 2.95900858165274e-03 5.35896829518187e-05
1.46354166666667e+01 2.87509258886073e-03 5.22562072944547e-05
1.47395833333333e+01 2.79355641117065e-03 5.09546219383606e-05
1.48437500000000e+01 2.71433255823596e-03 4.96842152423183e-05
1.49479166666667e+01 2.63735545421032e-03 4.84442895218639e-05
1.50520833333333e+01 2.56256138191522e-03 4.72341606319692e-05
1.51562500000000e+01 2.48988843168023e-03 4.60531575600929e-05
1.52604166666667e+01 2.41927645001842e-03 4.49006227298650e-05
1.53645833333333e+01 2.35066698843991e-03 4.37759115972766e-05
1.54687500000000e+01 2.28400325649267e-03 4.26783922571751e-05
1.55729166666667e+01 2.21923007468346e-03 4.16074456957638e-05
1.56770833333333e+01 2.15629382754985e-03 4.05624654015738e-05
1.57812500000000e+01 2.09514242055767e-03 3.95428569865826e-05
1.58854166666667e+01 2.03572523691628e-03 3.85480383946901e-05
1.59895833333333e+01 1.97799309455382e-03 3.75774395283463e-05
1.60937500000000e+01 1.92189820655551e-03 3.66305018850932e-05
1.61979166666667e+01 1.86739414155116e-03 3.57066787282331e-05
1.63020833333333e+01 1.81443578426804e-03 3.48054347296579e-05
1.64062500000000e+01 1.76297929922020e-03 3.39262456223033e-05
1.65104166666667e+01 1.71298209437245e-03 3.30685983384070e-05
1.66145833333333e+01 1.66440278497288e-03 3.22319906688179e-05
1.67187500000000e+01 1.61720116022657e-03 3.14159309316012e-05
1.68229166666667e+01 1.57133814996514e-03 3.06199380825673e-05
1.69270833333333e+01 1.52677579148557e-03 2.98435413911244e-05
1.70312500000000e+01 1.48347719896368e-03 2.90862801250722e-05
1.71354166666667e+01 1.44140653288060e-03 2.83477036374617e-05
1.72395833333333e+01 1.40052896961744e-03 2.76273710588825e-05
1.73437500000000e+01 1.36081067338389e-03 2.69248509983148e-05
1.74479166666667e+01 1.32221876817350e-03 2.62397216098439e-05
1.75520833333333e+01 1.28472130988481e-03 2.55715703011368e-05
1.76562500000000e+01 1.24828726055859e-03 2.49199934500961e-05
1.77604166666667e+01 1.21288646265288e-03 2.42845964544800e-05
1.78645833333333e+01 1.17848961348012e-03 2.36649934562138e-05
1.79687500000000e+01 1.14506824156374e-03 2.30608070734894e-05
1.80729166666667e+01 1.11259468304085e-03 2.24716684359322e-05
1.81770833333333e+01 1.08104205822281e-03 2.18972169243129e-05
1.82812500000000e+01 1.05038424989704e-03 2.13370999176555e-05
1.83854166666667e+01 1.02059588168152e-03 2.07909728162393e-05
1.84895833333333e+01 9.91652296531968e-04 2.02584987962124e-05
1.85937500000000e+01 9.63529536829223e-04 1.97393485712138e-05
1.86979166666667e+01 9.36204324524051e-04 1.92332004051868e-05
1.88020833333333e+01 9.09654041429045e-04 1.87397398813515e-05
1.89062500000000e+01 8.83856710944908e-04 1.82586596778052e-05
1.90104166666667e+01 8.58790979847459e-04 1.77896595718534e-05
1.91145833333333e+01 8.34436100215836e-04 1.73324462227661e-05
1.92187500000000e+01 8.10771912663025e-04 1.68867329607930e-05
1.93229166666667e+01 7.87778829629224e-04 1.64522397844810e-05
1.94270833333333e+01 7.65437818810306e-04 1.60286931566227e-05
1.95312500000000e+01 7.43730387768962e-04 1.56158258061029e-05
1.96354166666667e+01 7.22638568609829e-04 1.52133767194688e-05
1.97395833333333e+01 7.02144902783498e-04 1.48210909494666e-05
1.98437500000000e+01 6.82232426964773e-04 1.44387194291284e-05
1.99479166666667e+01 6.62884658995286e-04 1.40660189586812e-05
2.00520833333333e+01 6.44085583948704e-04 1.37027520260657e-05
2.01562500000000e+01 6.25819641171944e-04 1.33486866326722e-05
2.02604166666667e+01 6.08071711390423e-04 1.30035962765196e-05
2.03645833333333e+01 5.90827103929665e-04 1.26672597841539e-05
2.04687500000000e+01 5.74071544823831e-04 1.23394611474440e-05
2.05729166666667e+01 5.57791164987444e-04 1.20199895038285e-05
2.06770833333333e+01 5.41972488497310e-04 1.17086389790001e-05
2.07812500000000e+01 5.26602421680583e-04 1.14052085341822e-05
2.08854166666667e+01 5.11668242264749e-04 1.11095019441222e-05
2.09895833333333e+01 4.97157588631783e-04 1.08213276499803e-05
2.10937500000000e+01 4.83058449805162e-04 1.05404986165221e-05
2.11979166666667e+01 4.69359155497194e-04 1.02668323084340e-05
2.13020833333333e+01 4.56048366254665e-04 1.00001505528520e-05
2.14062500000000e+01 4.43115064270827e-04 9.74027940591873e-06
2.15104166666667e+01 4.30548544255860e-04 9.48704912791032e-06
2.16145833333333e+01 4.18338404399961e-04 9.24029405485708e-06
2.17187500000000e+01 4.06474537942428e-04 8.99985247393262e-06
2.18229166666667e+01 3.94947124797167e-04 8.76556659780309e-06
2.19270833333333e+01 3.83746623265351e-04 8.53728244481272e-06
2.20312500000000e+01 3.72863762299284e-04 8.31484972268995e-06
2.21354166666667e+01 3.62289533820501e-04 8.09812180246576e-06
2.22395833333333e+01 3.52015185119769e-04 7.88695560671638e-06
2.23437500000000e+01 3.42032211758532e-04 7.68121150109363e-06
2.24479166666667e+01 3.32332350522327e-04 7.48075326809968e-06
2.25520833333333e+01 3.22907572451063e-04 7.28544800290083e-06
2.26562500000000e+01 3.13750076325552e-04 7.09516601221030e-06
2.27604166666667e+01 3.04852282203707e-04 6.90978078815755e-06
2.28645833333333e+01 2.96206825028765e-04 6.72916891120996e-06
2.29687500000000e+01 2.87806548652751e-04 6.55320995595625e-06
2.30729166666667e+01 2.79644499907227e-04 6.38178646526630e-06
2.31770833333333e+01 2.71713922741529e-04 6.21478385987902e-06
2.32812500000000e+01 2.64008252738907e-04 6.05209035065713e-06
2.33854166666667e+01 2.56521111677653e-04 5.89359691319606e-06
2.34895833333333e+01 2.49246302155329e-04 5.73919720365810e-06
2.35937500000000e+01 2.42177802557046e-04 5.58878747709069e-06
2.36979166666667e+01 2.35309762066373e-04 5.44226656261164e-06
2.38020833333333e+01 2.28636495735268e-04 5.29953578509110e-06
2.39062500000000e+01 2.22152479867217e-04 5.16049888914642e-06
2.40104166666667e+01 2.15852347440756e-04 5.02506201500435e-06
2.41145833333333e+01 2.09730883588100e-04 4.89313362565355e-06
2.42187500000000e+01 2.03783021358983e-04 4.76462443614962e-06
2.43229166666667e+01 1.98003837522658e-04 4.63944739023152e-06
2.44270833333333e+01 1.92388548421320e-04 4.51751759258824e-06
2.45312500000000e+01 1.86932506083287e-04 4.39875224312788e-06
2.46354166666667e+01 1.81631194372162e-04 4.28307061440564e-06
2.47395833333333e+01 1.76480225183981e-04 4.17039398866841e-06
2.48437500000000e+01 1.71475334880923e-04 4.06064559676161e-06
2.49479166666667e+01 1.66612380758951e-04 3.95375059640907e-06
2.50520833333333e+01 1.61887337560147e-04 3.84963601371875e-06
2.51562500000000e+01 1.57296294200561e-04 3.74823068641931e-06
2.52604166666667e+01 1.52835450529971e-04 3.64946524301914e-06
2.53645833333333e+01 1.48501114133280e-04 3.55327204847456e-06
2.54687500000000e+01 1.44289697328253e-04 3.45958515146615e-06
2.55729166666667e+01 1.40197714193244e-04 3.36834026445214e-06
2.56770833333333e+01 1.36221777633673e-04 3.27947471321862e-06
2.57812500000000e+01 1.32358596627413e-04 3.19292738792315e-06
2.58854166666667e+01 1.28604973498319e-04 3.10863872404767e-06
2.59895833333333e+01 1.24957801225811e-04 3.02655065556694e-06
2.60937500000000e+01 1.21414060917486e-04 2.94660656950402e-06
2.61979166666667e+01 1.17970819308127e-04 2.86875128777928e-06
2.63020833333333e+01 1.14625226292230e-04 2.79293102375021e-06
2.64062500000000e+01 1.11374512605115e-04 2.71909334003826e-06
2.65104166666667e+01 1.08215987528762e-04 2.64718713126465e-06
2.66145833333333e+01 1.05147036628803e-04 2.57716258372948e-06
2.67187500000000e+01 1.02165119626934e-04 2.50897113628496e-06
2.68229166666667e+01 9.92677682964824e-05 2.44256546394289e-06
2.69270833333333e+01 9.64525843869006e-05 2.37789944047583e-06
2.70312500000000e+01 9.37172376717218e-05 2.31492810212603e-06
2.71354166666667e+01 9.10594640181529e-05 2.25360763206498e-06
2.72395833333333e+01 8.84770634835361e-05 2.19389532571346e-06
2.73437500000000e+01 8.59678985243663e-05 2.13574955708879e-06
2.74479166666667e+01 8.35298922255226e-05 2.07912976409349e-06
2.75520833333333e+01 8.11610265544412e-05 2.02399641636412e-06
2.76562500000000e+01 7.88593407179103e-05 1.97031098407248e-06
2.77604166666667e+01 7.66229295377418e-05 1.91803592401760e-06
2.78645833333333e+01 7.44499418495786e-05 1.86713464982561e-06
2.79687500000000e+01 7.23385789952843e-05 1.81757150303247e-06
2.80729166666667e+01 7.02870933329405e-05 1.76931173995171e-06
2.81770833333333e+01 6.82937867683041e-05 1.72232150405937e-06
2.82812500000000e+01 6.63570093716051e-05 1.67656779919722e-06
2.83854166666667e+01 6.44751580107638e-05 1.63201847718706e-06
2.84895833333333e+01 6.26466750045019e-05 1.58864221224594e-06
2.85937500000000e+01 6.08700468532887e-05 1.54640847615937e-06
2.86979166666667e+01 5.91438029855869e-05 1.50528752661231e-06
2.88020833333333e+01 5.74665145225359e-05 1.46525038349003e-06
2.89062500000000e+01 5.58367931136306e-05 1.42626880588099e-06
2.90104166666667e+01 5.42532897866489e-05 1.38831528109408e-06
2.91145833333333e+01 5.27146938146602e-05 1.35136300271027e-06
2.92187500000000e+01 5.12197316477986e-05 1.31538584928450e-06
2.93229166666667e+01 4.97671658582964e-05 1.28035837401825e-06
2.94270833333333e+01 4.83557941013397e-05 1.24625578443639e-06
2.95312500000000e+01 4.69844481350071e-05 1.21305392266626e-06
2.96354166666667e+01 4.56519928525460e-05 1.18072925573470e-06
2.97395833333333e+01 4.43573253292972e-05 1.14925885675336e-06
2.98437500000000e+01 4.30993739235268e-05 1.11862038666114e-06
2.99479166666667e+01 4.18770973887293e-05 1.08879208511562e-06
3.00520833333333e+01 4.06894839994905e-05 1.05975275307753e-06
3.01562500000000e+01 3.95355507265382e-05 1.03148173591110e-06
3.02604166666667e+01 3.84143424224540e-05 1.00395891483981e-06
3.03645833333333e+01 3.73249310199343e-05 9.77164690828759e-07
3.04687500000000e+01 3.62664147749358e-05 9.51079968944414e-07
3.05729166666667e+01 3.52379175197256e-05 9.25686150345513e-07
3.06770833333333e+01 3.42385879275419e-05 9.00965117369003e-07
3.07812500000000e+01 3.32675988182154e-05 8.76899219057542e-07
3.08854166666667e+01 3.23241464729899e-05 8.53471263657210e-07
3.09895833333333e+01 3.14074499600800e-05 8.30664504819172e-07
3.10937500000000e+01 3.05167504976149e-05 8.08462628209838e-07
3.11979166666667e+01 2.96513108251196e-05 7.86849744487807e-07
3.13020833333333e+01 2.88104145849263e-05 7.65810376539680e-07
3.14062500000000e+01 2.79933657377089e-05 7.45329447093712e-07
3.15104166666667e+01 2.71994879859401e-05 7.25392272149309e-07
3.16145833333333e+01 2.64281242065290e-05 7.05984549171186e-07
3.17187500000000e+01 2.56786359146063e-05 6.87092345632975e-07
3.18229166666667e+01 2.49504027346596e-05 6.68702092873601e-07
3.19270833333333e+01 2.42428218801529e-05 6.50800575179349e-07
3.20312500000000e+01 2.35553076615816e-05 6.33374919189046e-07
3.21354166666667e+01 2.28872910013419e-05 6.16412588152709e-07
3.22395833333333e+01 2.22382189564415e-05 5.99901371836126e-07
3.23437500000000e+01 2.16075542671703e-05 5.83829376724086e-07
3.24479166666667e+01 2.09947749120874e-05 5.68185020657749e-07
3.25520833333333e+01 2.03993736702535e-05 5.52957023500922e-07
3.26562500000000e+01 1.98208577071653e-05 5.38134398082436e-07
3.27604166666667e+01 1.92587481665424e-05 5.23706445189724e-07
3.28645833333333e+01 1.87125797688081e-05 5.09662744940402e-07
