Energy (eV)          EEDF (eV^-(3/2))     First Anisotropy
1.93500000000000e-01 8.01301857571863e-01 2.54613927612658e-03
5.80500000000000e-01 5.65250253777934e-01 3.59721598451221e-03
9.67500000000000e-01 3.98735939991708e-01 3.37250212219590e-03
1.35450000000000e+00 2.81274265298309e-01 2.83634797295139e-03
1.74150000000000e+00 1.98415052128857e-01 2.27569014404569e-03
2.12850000000000e+00 1.39964930206267e-01 1.77748114736385e-03
2.51550000000000e+00 9.87333444587806e-02 1.36430099084350e-03
2.90250000000000e+00 6.96479703426430e-02 1.03435582594994e-03
3.28950000000000e+00 4.91307146480267e-02 7.77059715896685e-04
3.67650000000000e+00 3.46575371823567e-02 5.79647711745026e-04
4.06350000000000e+00 2.44479424358359e-02 4.29955641673536e-04
4.45050000000000e+00 1.72459423819134e-02 3.17456417578753e-04
4.83750000000000e+00 1.21655443774407e-02 2.33497476548502e-04
5.22450000000000e+00 8.58175602828722e-03 1.71189025522442e-04
5.61150000000000e+00 6.05369839968782e-03 1.25160545127251e-04
5.99850000000000e+00 4.27036893073935e-03 9.12889308719025e-05
6.38550000000000e+00 3.01238178723346e-03 6.64444637672630e-05
6.77250000000000e+00 2.12497893723781e-03 4.82721995706723e-05
7.15950000000000e+00 1.49899176221330e-03 3.50124531433845e-05
7.54650000000000e+00 1.05741109420317e-03 2.53577371638369e-05
7.93350000000000e+00 7.45913520227105e-04 1.83410812920643e-05
8.32050000000000e+00 5.26178496431290e-04 1.32501458842300e-05
8.70750000000000e+00 3.71174140967975e-04 9.56191690190962e-06
9.09450000000000e+00 2.61831762144815e-04 6.89348692459726e-06
9.48150000000000e+00 1.84700021098113e-04 4.96522098339684e-06
9.86850000000000e+00 1.30290143236233e-04 3.57334924556166e-06
1.02555000000000e+01 9.19086057683817e-05 2.56967125326355e-06
1.06425000000000e+01 6.48336981176842e-05 1.84658683084492e-06
1.10295000000000e+01 4.57346553837189e-05 1.32609350116530e-06
1.14165000000000e+01 3.22619064436338e-05 9.51723258886411e-07
1.18035000000000e+01 2.27580288655309e-05 6.82648640592345e-07
1.21905000000000e+01 1.60538522033480e-05 4.89384194546433e-07
1.25775000000000e+01 1.13246262270671e-05 3.50657753372435e-07
1.29645000000000e+01 7.98855985207276e-06 2.51137202983566e-07
1.33515000000000e+01 5.63524899017144e-06 1.79781453259596e-07
1.37385000000000e+01 3.97518849070007e-06 1.28645924590443e-07
1.41255000000000e+01 2.80415711251714e-06 9.20183944116319e-08
1.45125000000000e+01 1.97809415329024e-06 6.57945737681523e-08
1.48995000000000e+01 1.39537704995733e-06 4.70273936515637e-08
1.52865000000000e+01 9.84319734381185e-07 3.36019965556540e-08
1.56735000000000e+01 6.94353787402389e-07 2.40015857684369e-08
1.60605000000000e+01 4.89807493683079e-07 1.71388734272482e-08
1.64475000000000e+01 3.45517494425457e-07 1.22348430967788e-08
1.68345000000000e+01 2.43733181900417e-07 8.73160757081062e-09
1.72215000000000e+01 1.71933013285145e-07 6.22981512160554e-09
1.76085000000000e+01 1.21284105950693e-07 4.44371668185914e-09
1.79955000000000e+01 8.55556130564825e-08 3.16892961590138e-09
1.83825000000000e+01 6.03522025255836e-08 2.25932299625248e-09
1.87695000000000e+01 4.25733417079767e-08 1.61045183392251e-09
1.91565000000000e+01 3.00318687361215e-08 1.14769048021570e-09
1.95435000000000e+01 2.11849270834816e-08 8.17736036655086e-10
1.99305000000000e+01 1.49441627983885e-08 5.82527313047030e-10
2.03175000000000e+01 1.05418348085263e-08 4.14894355048545e-10
2.07045000000000e+01 7.43636713742441e-09 2.95447234292198e-10
2.10915000000000e+01 5.24572403257915e-09 2.10351892065046e-10
2.14785000000000e+01 3.70041178944659e-09 1.49740669037036e-10
2.18655000000000e+01 2.61032553874986e-09 1.06576776823651e-10
2.22525000000000e+01 1.84136247692282e-09 7.58433201417778e-11
2.26395000000000e+01 1.29892449086760e-09 5.39642792763716e-11
2.30265000000000e+01 9.16280663976166e-10 3.83912227116182e-11
2.34135000000000e+01 6.46358014710945e-10 2.73083928644759e-11
2.38005000000000e+01 4.55950561444939e-10 1.94223147548759e-11
2.41875000000000e+01 3.21634310630348e-10 1.38117400828640e-11
2.45745000000000e+01 2.26885628667334e-10 9.82064908908533e-12
2.49615000000000e+01 1.60048498541357e-10 6.98197219543141e-12
2.53485000000000e+01 1.12900592407732e-10 4.96322336576623e-12
2.57355000000000e+01 7.96417578558105e-11 3.52775887508711e-12
2.61225000000000e+01 5.61804810683099e-11 2.50717612881184e-12
2.65095000000000e+01 3.96305473164096e-11 1.78165298167182e-12
2.68965000000000e+01 2.79559777832537e-11 1.26594576407478e-12
2.72835000000000e+01 1.97205627158767e-11 8.99419108467076e-13
2.76705000000000e+01 1.39111783836010e-11 6.38947854977594e-13
2.80575000000000e+01 9.81315223143028e-12 4.53864519628035e-13
2.84445000000000e+01 6.92234360467585e-12 3.22363398502025e-13
2.88315000000000e+01 4.88312418385997e-12 2.28941756200454e-13
2.92185000000000e+01 3.44462846064035e-12 1.62579266153705e-13
2.96055000000000e+01 2.42989217253004e-12 1.15442893275322e-13
2.99925000000000e+01 1.71408209552596e-12 8.19656960465666e-14
3.03795000000000e+01 1.20913901588624e-12 5.81916801260848e-14
3.07665000000000e+01 8.52944653908037e-13 4.13099257193989e-14
3.11535000000000e+01 6.01679850763120e-13 2.93233487417542e-14
3.15405000000000e+01 4.24433919780876e-13 2.08132163834393e-14
3.19275000000000e+01 2.99402002629936e-13 1.47717562754995e-14
3.23145000000000e+01 2.11202627785017e-13 1.04831827271639e-14
3.27015000000000e+01 1.48985476354447e-13 7.43914504478105e-15
3.30885000000000e+01 1.05096571938279e-13 5.27864527549305e-15
3.34755000000000e+01 7.41366856921023e-14 3.74534836926661e-15
3.38625000000000e+01 5.22971212480404e-14 2.65725316036423e-15
3.42495000000000e+01 3.68911675144334e-14 1.88514724216596e-15
3.46365000000000e+01 2.60235785087115e-14 1.33730322327243e-15
3.50235000000000e+01 1.83574195133323e-14 9.48609329336645e-16
3.54105000000000e+01 1.29495968848275e-14 6.72850180879848e-16
3.57975000000000e+01 9.13483833377267e-15 4.77225249732712e-16
3.61845000000000e+01 6.44385088789380e-15 3.38456664922224e-16
3.65715000000000e+01 4.54558830142544e-15 2.40025776884352e-16
3.69585000000000e+01 3.20652562660546e-15 1.70211295437020e-16
3.73455000000000e+01 2.26193089040934e-15 1.20696605604381e-16
3.77325000000000e+01 1.59559970783840e-15 8.55812081900904e-17
3.81195000000000e+01 1.12555977658240e-15 6.06790710898002e-17
3.85065000000000e+01 7.93986614836194e-16 5.04518385124951e-17
