Energy (eV)          EEDF (eV^-(3/2))     First Anisotropy
1.23863636363636e-02 2.01777244234333e-01 1.13995929764005e-04
3.71590909090909e-02 2.00192709399945e-01 1.88133034403012e-04
6.19318181818182e-02 1.98620617749172e-01 2.48074561169177e-04
8.67045454545455e-02 1.97060871562868e-01 2.93441115724932e-04
1.11477272727273e-01 1.95513373893794e-01 3.31135724907702e-04
1.36250000000000e-01 1.93978028560233e-01 3.63772083022002e-04
1.61022727272727e-01 1.92454740119075e-01 3.92704622293252e-04
1.85795454545455e-01 1.90943413900293e-01 4.18752331036802e-04
2.10568181818182e-01 1.89443955964638e-01 4.42459090080833e-04
2.35340909090909e-01 1.87956273111173e-01 4.64209802878766e-04
2.60113636363636e-01 1.86480272865427e-01 4.84289762173238e-04
2.84886363636364e-01 1.85015863491391e-01 5.02918025234511e-04
3.09659090909091e-01 1.83562953966709e-01 5.20267547106451e-04
3.34431818181818e-01 1.82121453979697e-01 5.36478003145454e-04
3.59204545454545e-01 1.80691273937217e-01 5.51664325247496e-04
3.83977272727273e-01 1.79272324944730e-01 5.65922589027776e-04
4.08750000000000e-01 1.77864518805802e-01 5.79334195743567e-04
4.33522727272727e-01 1.76467768013453e-01 5.91968920417420e-04
4.58295454545455e-01 1.75081985754666e-01 6.03887183610616e-04
4.83068181818182e-01 1.73707085894575e-01 6.15141776259347e-04
5.07840909090909e-01 1.72342982974775e-01 6.25779189876375e-04
5.32613636363636e-01 1.70989592205457e-01 6.35840658778561e-04
5.57386363636364e-01 1.69646829467912e-01 6.45362988454009e-04
5.82159090909091e-01 1.68314611301239e-01 6.54379221319338e-04
6.06931818181818e-01 1.66992854897816e-01 6.62919174818022e-04
6.31704545454545e-01 1.65681478104830e-01 6.71009884872434e-04
6.56477272727273e-01 1.64380399412253e-01 6.78675972468866e-04
6.81250000000000e-01 1.63089537950150e-01 6.85939948257987e-04
7.06022727272727e-01 1.61808813481863e-01 6.92822468512267e-04
7.30795454545455e-01 1.60538146404552e-01 6.99342552505119e-04
7.55568181818182e-01 1.59277457738558e-01 7.05517767608628e-04
7.80340909090909e-01 1.58026669124454e-01 7.11364386836962e-04
8.05113636363636e-01 1.56785702816644e-01 7.16897524559389e-04
8.29886363636364e-01 1.55554481683198e-01 7.22131254749397e-04
8.54659090909091e-01 1.54332929196268e-01 7.27078714063938e-04
8.79431818181818e-01 1.53120969427615e-01 7.31752190026329e-04
9.04204545454545e-01 1.51918527048080e-01 7.36163200183493e-04
9.28977272727273e-01 1.50725527318605e-01 7.40322561657493e-04
9.53750000000000e-01 1.49541896087049e-01 7.44240451810972e-04
9.78522727272727e-01 1.48367559782397e-01 7.47926462124347e-04
1.00329545454545e+00 1.47202445413821e-01 7.51389647221966e-04
1.02806818181818e+00 1.46046480560144e-01 7.54638567788423e-04
1.05284090909091e+00 1.44899593370234e-01 7.57681326495945e-04
1.07761363636364e+00 1.43761712569007e-01 7.60525608928175e-04
1.10238636363636e+00 1.42632767419572e-01 7.63178711292190e-04
1.12715909090909e+00 1.41512687751300e-01 7.65647563197973e-04
1.15193181818182e+00 1.40401403954341e-01 7.67938763535972e-04
1.17670454545455e+00 1.39298846945977e-01 7.70058598581068e-04
1.20147727272727e+00 1.38204948195802e-01 7.72013059707164e-04
1.22625000000000e+00 1.37119639711544e-01 7.73807866116669e-04
1.25102272727273e+00 1.36042854043538e-01 7.75448485320747e-04
1.27579545454545e+00 1.34974524254364e-01 7.76940146146484e-04
1.30056818181818e+00 1.33914583941002e-01 7.78287850325693e-04
1.32534090909091e+00 1.32862967221906e-01 7.79496389306805e-04
1.35011363636364e+00 1.31819608740664e-01 7.80570359456572e-04
1.37488636363636e+00 1.30784443638434e-01 7.81514170674980e-04
1.39965909090909e+00 1.29757407573550e-01 7.82332052707281e-04
1.42443181818182e+00 1.28738436716804e-01 7.83028073422131e-04
1.44920454545455e+00 1.27727467725820e-01 7.83606143723356e-04
1.47397727272727e+00 1.26724437762892e-01 7.84070023204604e-04
1.49875000000000e+00 1.25729284483754e-01 7.84423330859460e-04
1.52352272727273e+00 1.24741946040228e-01 7.84669554796861e-04
1.54829545454545e+00 1.23762361056748e-01 7.84812056482143e-04
1.57306818181818e+00 1.22790468646288e-01 7.84854074455886e-04
1.59784090909091e+00 1.21826208399973e-01 7.84798732948993e-04
1.62261363636364e+00 1.20869520389222e-01 7.84649049700181e-04
1.64738636363636e+00 1.19920345144162e-01 7.84407938727674e-04
1.67215909090909e+00 1.18978623667893e-01 7.84078211584849e-04
1.69693181818182e+00 1.18044297432333e-01 7.83662588990069e-04
1.72170454545455e+00 1.17117308357949e-01 7.83163701593810e-04
1.74647727272727e+00 1.16197598826863e-01 7.82584091662388e-04
1.77125000000000e+00 1.15285111673654e-01 7.81926219264509e-04
1.79602272727273e+00 1.14379790186862e-01 7.81192467881637e-04
1.82079545454545e+00 1.13481578090234e-01 7.80385145612353e-04
1.84556818181818e+00 1.12590419554538e-01 7.79506486135538e-04
1.87034090909091e+00 1.11706259188972e-01 7.78558653975194e-04
1.89511363636364e+00 1.10829042042343e-01 7.77543749269875e-04
1.91988636363636e+00 1.09958713585659e-01 7.76463808410262e-04
1.94465909090909e+00 1.09095219722813e-01 7.75320803524822e-04
1.96943181818182e+00 1.08238506786859e-01 7.74116650888943e-04
1.99420454545455e+00 1.07388521523565e-01 7.72853210221730e-04
2.01897727272727e+00 1.06545211101288e-01 7.71532284862865e-04
2.04375000000000e+00 1.05708523103255e-01 7.70155625868557e-04
2.06852272727273e+00 1.04878405528330e-01 7.68724935714497e-04
2.09329545454545e+00 1.04054806775676e-01 7.67241868312717e-04
2.11806818181818e+00 1.03237675653719e-01 7.65708028896078e-04
2.14284090909091e+00 1.02426961372890e-01 7.64124977637007e-04
2.16761363636364e+00 1.01622613546172e-01 7.62494232914690e-04
2.19238636363636e+00 1.00824582174773e-01 7.60817271097145e-04
2.21715909090909e+00 1.00032817656277e-01 7.59095525387410e-04
2.24193181818182e+00 9.92472707812859e-02 7.57330392368120e-04
2.26670454545455e+00 9.84678927198217e-02 7.55523230773258e-04
2.29147727272727e+00 9.76946350288905e-02 7.53675361055452e-04
2.31625000000000e+00 9.69274496459099e-02 7.51788068355277e-04
2.34102272727273e+00 9.61662888889734e-02 7.49862605175701e-04
2.36579545454545e+00 9.54111054440955e-02 7.47900190911656e-04
2.39056818181818e+00 9.46618523721151e-02 7.45902011297470e-04
2.41534090909091e+00 9.39184831024833e-02 7.43869221095881e-04
2.44011363636364e+00 9.31809514333796e-02 7.41802946517234e-04
2.46488636363636e+00 9.24492115197352e-02 7.39704284652206e-04
2.48965909090909e+00 9.17232178795390e-02 7.37574302118263e-04
2.51443181818182e+00 9.10029253908024e-02 7.35414040380246e-04
2.53920454545455e+00 9.02882892801433e-02 7.33224514370190e-04
2.56397727272727e+00 8.95792651286610e-02 7.31006711813559e-04
2.58875000000000e+00 8.88758088662670e-02 7.28761595515029e-04
2.61352272727273e+00 8.81778767716136e-02 7.26490105410910e-04
2.63829545454545e+00 8.74854254613431e-02 7.24193157907101e-04
2.66306818181818e+00 8.67984118954677e-02 7.21871645160589e-04
2.68784090909091e+00 8.61167933719906e-02 7.19526437184280e-04
2.71261363636364e+00 8.54405275267340e-02 7.17158383734861e-04
2.73738636363636e+00 8.47695723232035e-02 7.14768313615403e-04
2.76215909090909e+00 8.41038860575186e-02 7.12357033305342e-04
2.78693181818182e+00 8.34434273556566e-02 7.09925331405073e-04
2.81170454545455e+00 8.27881551637626e-02 7.07473977260272e-04
2.83647727272727e+00 8.21380287527544e-02 7.05003720209972e-04
2.86125000000000e+00 8.14930077133874e-02 7.02515291418962e-04
2.88602272727273e+00 8.08530519559556e-02 7.00009405518726e-04
2.91079545454545e+00 8.02181217011359e-02 6.97486759887134e-04
2.93556818181818e+00 7.95881774842153e-02 6.94948033886871e-04
2.96034090909091e+00 7.89631801503949e-02 6.92393890571658e-04
2.98511363636364e+00 7.83430908544231e-02 6.89824978212936e-04
3.00988636363636e+00 7.77278710519353e-02 6.87241929573438e-04
3.03465909090909e+00 7.71174825033378e-02 6.84645360598335e-04
3.05943181818182e+00 7.65118872712997e-02 6.82035874194248e-04
3.08420454545455e+00 7.59110477124528e-02 6.79414058924343e-04
3.10897727272727e+00 7.53149264810259e-02 6.76780488253632e-04
3.13375000000000e+00 7.47234865245173e-02 6.74135722059103e-04
3.15852272727273e+00 7.41366910832440e-02 6.71480307979157e-04
3.18329545454545e+00 7.35545036824781e-02 6.68814780697698e-04
3.20806818181818e+00 7.29768881357888e-02 6.66139661196199e-04
3.23284090909091e+00 7.24038085409145e-02 6.63455458170723e-04
3.25761363636364e+00 7.18352292792676e-02 6.60762669297653e-04
3.28238636363636e+00 7.12711150084765e-02 6.58061780525286e-04
3.30715909090909e+00 7.07114306654609e-02 6.55353264857453e-04
3.33193181818182e+00 7.01561414641456e-02 6.52637585605820e-04
3.35670454545455e+00 6.96052128882992e-02 6.49915195181579e-04
3.38147727272727e+00 6.90586106944143e-02 6.47186534372761e-04
3.40625000000000e+00 6.85163009078924e-02 6.44452033613229e-04
3.43102272727273e+00 6.79782498224937e-02 6.41712114114916e-04
3.45579545454545e+00 6.74444239935366e-02 6.38967187185129e-04
3.48056818181818e+00 6.69147902405496e-02 6.36217653518288e-04
3.50534090909091e+00 6.63893156436254e-02 6.33463904393268e-04
3.53011363636364e+00 6.58679675428418e-02 6.30706322741404e-04
3.55488636363636e+00 6.53507135317984e-02 6.27945282477829e-04
3.57965909090909e+00 6.48375214600595e-02 6.25181147387059e-04
3.60443181818182e+00 6.43283594310685e-02 6.22414273946482e-04
3.62920454545455e+00 6.38231957959300e-02 6.19645010221840e-04
3.65397727272727e+00 6.33219991557002e-02 6.16873695191960e-04
3.67875000000000e+00 6.28247383580063e-02 6.14100659829933e-04
3.70352272727273e+00 6.23313824964362e-02 6.11326228066906e-04
3.72829545454545e+00 6.18419009046224e-02 6.08550716155404e-04
3.75306818181818e+00 6.13562631583522e-02 6.05774432011628e-04
3.77784090909091e+00 6.08744390723321e-02 6.02997676239812e-04
3.80261363636364e+00 6.03963986995602e-02 6.00220743045027e-04
3.82738636363636e+00 5.99221123256925e-02 5.97443919613147e-04
3.85215909090909e+00 5.94515504709889e-02 5.94667485098068e-04
3.87693181818182e+00 5.89846838884074e-02 5.91891713088921e-04
3.90170454545455e+00 5.85214835581779e-02 5.89116870607487e-04
3.92647727272727e+00 5.80619206896262e-02 5.86343217485807e-04
3.95125000000000e+00 5.76059667181667e-02 5.83571007297027e-04
3.97602272727273e+00 5.71535933046596e-02 5.80800488184646e-04
4.00079545454545e+00 5.67047723302379e-02 5.78031902276062e-04
4.02556818181818e+00 5.62594758979890e-02 5.75265485078595e-04
4.05034090909091e+00 5.58176763300727e-02 5.72501466364138e-04
4.07511363636364e+00 5.53793461670687e-02 5.69740070957017e-04
4.09988636363636e+00 5.49444581630437e-02 5.66981518164747e-04
4.12465909090909e+00 5.45129852871019e-02 5.64226020861812e-04
4.14943181818182e+00 5.40849007216430e-02 5.61473787656533e-04
4.17420454545455e+00 5.36601778576052e-02 5.58725021984473e-04
4.19897727272727e+00 5.32387902959185e-02 5.55979921539549e-04
4.22375000000000e+00 5.28207118448208e-02 5.53238679081809e-04
4.24852272727273e+00 5.24059165192011e-02 5.50501483156589e-04
4.27329545454545e+00 5.19943785360585e-02 5.47768517558509e-04
4.29806818181818e+00 5.15860723158412e-02 5.45039960780500e-04
4.32284090909091e+00 5.11809724798713e-02 5.42315986783333e-04
4.34761363636364e+00 5.07790538496855e-02 5.39596765680547e-04
4.37238636363636e+00 5.03802914426981e-02 5.36882463219291e-04
4.39715909090909e+00 4.99846604734351e-02 5.34173239953469e-04
4.42193181818182e+00 4.95921363519415e-02 5.31469253154355e-04
4.44670454545455e+00 4.92026946795955e-02 5.28770655992857e-04
4.47147727272727e+00 4.88163112502636e-02 5.26077597021924e-04
4.49625000000000e+00 4.84329620478999e-02 5.23390220881916e-04
4.52102272727273e+00 4.80526232458893e-02 5.20708668928235e-04
4.54579545454545e+00 4.76752712030464e-02 5.18033078743614e-04
4.57056818181818e+00 4.73008824646800e-02 5.15363583637637e-04
4.59534090909091e+00 4.69294337602864e-02 5.12700313319880e-04
4.62011363636364e+00 4.65609020028948e-02 5.10043394498788e-04
4.64488636363636e+00 4.61952642852418e-02 5.07392950409958e-04
4.66965909090909e+00 4.58324978807509e-02 5.04749100071119e-04
4.69443181818182e+00 4.54725802420763e-02 5.02111959972214e-04
4.71920454545455e+00 4.51154889974059e-02 4.99481643338628e-04
4.74397727272727e+00 4.47612019513790e-02 4.96858259661856e-04
4.76875000000000e+00 4.44096970829317e-02 4.94241915318339e-04
4.79352272727273e+00 4.40609525446515e-02 4.91632714119977e-04
4.81829545454545e+00 4.37149466592405e-02 4.89030756871747e-04
4.84306818181818e+00 4.33716579203587e-02 4.86436140918100e-04
4.86784090909091e+00 4.30310649905533e-02 4.83848960734407e-04
4.89261363636364e+00 4.26931467006178e-02 4.81269308453186e-04
4.91738636363636e+00 4.23578820462074e-02 4.78697273436502e-04
4.94215909090909e+00 4.20252501886131e-02 4.76132941604952e-04
4.96693181818182e+00 4.16952304534299e-02 4.73576396936864e-04
4.99170454545455e+00 4.13678023272827e-02 4.71027720804933e-04
5.01647727272727e+00 4.10429454585508e-02 4.68486991551274e-04
5.04125000000000e+00 4.07206396554320e-02 4.65954285032554e-04
5.06602272727273e+00 4.04008648853145e-02 4.63429675104797e-04
5.09079545454545e+00 4.00836012716424e-02 4.60913233222764e-04
5.11556818181818e+00 3.97688290945797e-02 4.58405028029630e-04
5.14034090909091e+00 3.94565287891486e-02 4.55905125878600e-04
5.16511363636364e+00 3.91466809446081e-02 4.53413591296824e-04
5.18988636363636e+00 3.88392663014513e-02 4.50930486598419e-04
5.21465909090909e+00 3.85342657520144e-02 4.48455871280415e-04
5.23943181818182e+00 3.82316603392570e-02 4.45989803355504e-04
5.26420454545455e+00 3.79314312538562e-02 4.43532338754888e-04
5.28897727272727e+00 3.76335598347741e-02 4.41083530944000e-04
5.31375000000000e+00 3.73380275675159e-02 4.38643431404296e-04
5.33852272727273e+00 3.70448160835239e-02 4.36212090061603e-04
5.36329545454545e+00 3.67539071573921e-02 4.33789554923717e-04
5.38806818181818e+00 3.64652827073862e-02 4.31375871709504e-04
5.41284090909091e+00 3.61789247937659e-02 4.28971084310337e-04
5.43761363636364e+00 3.58948156181884e-02 4.26575235200430e-04
5.46238636363636e+00 3.56129375210374e-02 4.24188365086833e-04
5.48715909090909e+00 3.53332729818983e-02 4.21810512365720e-04
5.51193181818182e+00 3.50558046184418e-02 4.19441714309502e-04
5.53670454545455e+00 3.47805151838379e-02 4.17082006529142e-04
5.56147727272727e+00 3.45073875671975e-02 4.14731422626913e-04
5.58625000000000e+00 3.42364047920010e-02 4.12389994623364e-04
5.61102272727273e+00 3.39675500155190e-02 4.10057753336887e-04
5.63579545454545e+00 3.37008065263317e-02 4.07734728056020e-04
5.66056818181818e+00 3.34361577447312e-02 4.05420946204387e-04
5.68534090909091e+00 3.31735872212088e-02 4.03116433749922e-04
5.71011363636364e+00 3.29130786358842e-02 4.00821215568736e-04
5.73488636363636e+00 3.26546157961263e-02 3.98535315128876e-04
5.75965909090909e+00 3.23981826369190e-02 3.96258754000617e-04
5.78443181818182e+00 3.21437632198393e-02 3.93991552915635e-04
5.80920454545455e+00 3.18913417307513e-02 3.91733731282906e-04
5.83397727272727e+00 3.16409024801457e-02 3.89485306875022e-04
5.85875000000000e+00 3.13924299017207e-02 3.87246296207348e-04
5.88352272727273e+00 3.11459085518308e-02 3.85016714875103e-04
5.90829545454545e+00 3.09013231072730e-02 3.82796577257295e-04
5.93306818181818e+00 3.06586583655948e-02 3.80585896214039e-04
5.95784090909091e+00 3.04178992437269e-02 3.78384683450245e-04
5.98261363636364e+00 3.01790307774421e-02 3.76192949839045e-04
6.00738636363636e+00 2.99420381192295e-02 3.74010705135997e-04
6.03215909090909e+00 2.97069065385735e-02 3.71837957537984e-04
6.05693181818182e+00 2.94736214210177e-02 3.69674714629670e-04
6.08170454545455e+00 2.92421682661046e-02 3.67520982947453e-04
6.10647727272727e+00 2.90125326876324e-02 3.65376767696058e-04
6.13125000000000e+00 2.87847004123723e-02 3.63242073085952e-04
6.15602272727273e+00 2.85586572795456e-02 3.61116902633390e-04
6.18079545454545e+00 2.83343892388457e-02 3.59001258892843e-04
6.20556818181818e+00 2.81118823506683e-02 3.56895143183543e-04
6.23034090909091e+00 2.78911227848756e-02 3.54798555913385e-04
6.25511363636364e+00 2.76720968202838e-02 3.52711496866954e-04
6.27988636363636e+00 2.74547908427618e-02 3.50633964947251e-04
6.30465909090909e+00 2.72391913454395e-02 3.48565957778201e-04
6.32943181818182e+00 2.70252849278495e-02 3.46507472551521e-04
6.35420454545455e+00 2.68130582940842e-02 3.44458505633723e-04
6.37897727272727e+00 2.66024982529854e-02 3.42419052310150e-04
6.40375000000000e+00 2.63935917169830e-02 3.40389107085772e-04
6.42852272727273e+00 2.61863257016023e-02 3.38368663952634e-04
6.45329545454545e+00 2.59806873236919e-02 3.36357716148070e-04
6.47806818181818e+00 2.57766638015930e-02 3.34356255907649e-04
6.50284090909091e+00 2.55742424540195e-02 3.32364274754122e-04
6.52761363636364e+00 2.53734106995756e-02 3.30381763754293e-04
6.55238636363636e+00 2.51741560550524e-02 3.28408713285598e-04
6.57715909090909e+00 2.49764661355783e-02 3.26445112677847e-04
6.60193181818182e+00 2.47803286538328e-02 3.24490950971829e-04
6.62670454545455e+00 2.45857314183957e-02 3.22546216564928e-04
6.65147727272727e+00 2.43926623338812e-02 3.20610896979900e-04
6.67625000000000e+00 2.42011093998872e-02 3.18684979133492e-04
6.70102272727273e+00 2.40110607105308e-02 3.16768449575208e-04
6.72579545454545e+00 2.38225044528597e-02 3.14861294268689e-04
6.75056818181818e+00 2.36354289069713e-02 3.12963498368537e-04
6.77534090909091e+00 2.34498224449979e-02 3.11075046478462e-04
6.80011363636364e+00 2.32656735306529e-02 3.09195922880689e-04
6.82488636363636e+00 2.30829707177031e-02 3.07326111325013e-04
6.84965909090909e+00 2.29017026500725e-02 3.05465594705603e-04
6.87443181818182e+00 2.27218580611220e-02 3.03614355741324e-04
6.89920454545455e+00 2.25434257721680e-02 3.01772376656181e-04
6.92397727272727e+00 2.23663946925731e-02 2.99939638970292e-04
6.94875000000000e+00 2.21907538187933e-02 2.98116123740016e-04
6.97352272727273e+00 2.20164922339421e-02 2.96301811771436e-04
6.99829545454545e+00 2.18435991063646e-02 2.94496683422755e-04
7.02306818181818e+00 2.16720636897155e-02 2.92700718402563e-04
7.04784090909091e+00 2.15018753220392e-02 2.90913896000709e-04
7.07261363636364e+00 2.13330234253443e-02 2.89136195293521e-04
7.09738636363636e+00 2.11654975042314e-02 2.87367594953069e-04
7.12215909090909e+00 2.09992871459593e-02 2.85608072955574e-04
7.14693181818182e+00 2.08343820197852e-02 2.83857607192026e-04
7.17170454545455e+00 2.06707718756337e-02 2.82116175179865e-04
7.19647727272727e+00 2.05084465441527e-02 2.80383753874045e-04
7.22125000000000e+00 2.03473959358485e-02 2.78660319881927e-04
7.24602272727273e+00 2.01876100406781e-02 2.76945849654399e-04
7.27079545454545e+00 2.00290789267669e-02 2.75240319307181e-04
7.29556818181818e+00 1.98717927404549e-02 2.73543704438455e-04
7.32034090909091e+00 1.97157417054617e-02 2.71855980335584e-04
7.34511363636364e+00 1.95609161224881e-02 2.70177122158869e-04
7.36988636363636e+00 1.94073063679825e-02 2.68507104769064e-04
7.39465909090909e+00 1.92549028941767e-02 2.66845902464158e-04
7.41943181818182e+00 1.91036962284819e-02 2.65193489527999e-04
7.44420454545455e+00 1.89536769722915e-02 2.63549839969938e-04
7.46897727272727e+00 1.88048358010082e-02 2.61914927353980e-04
7.49375000000000e+00 1.86571634632602e-02 2.60288724991429e-04
7.51852272727273e+00 1.85106507805183e-02 2.58671206112078e-04
7.54329545454545e+00 1.83652886459438e-02 2.57062343702566e-04
7.56806818181818e+00 1.82210680244078e-02 2.55462110341489e-04
7.59284090909091e+00 1.80779799517329e-02 2.53870478384695e-04
7.61761363636364e+00 1.79360155343215e-02 2.52287420129965e-04
7.64238636363636e+00 1.77951659480453e-02 2.50712907660994e-04
7.66715909090909e+00 1.76554224382570e-02 2.49146912609704e-04
7.69193181818182e+00 1.75167763192373e-02 2.47589406649487e-04
7.71670454545455e+00 1.73792189731165e-02 2.46040361260070e-04
7.74147727272727e+00 1.72427418498798e-02 2.44499747573022e-04
7.76625000000000e+00 1.71073364666550e-02 2.42967536544492e-04
7.79102272727273e+00 1.69729944073556e-02 2.41443699108745e-04
7.81579545454545e+00 1.68397073216428e-02 2.39928206031929e-04
