Energy (eV)          EEDF (eV^-(3/2))     First Anisotropy
8.46875000000000e-04 9.84895871111014e+00 5.03855446434311e-03
2.54062500000000e-03 9.77832339860805e+00 8.31821450819155e-03
4.23437500000000e-03 9.70819467241562e+00 1.09760302662647e-02
5.92812500000000e-03 9.63856889934763e+00 1.29921802763123e-02
7.62187500000000e-03 9.56944247229266e+00 1.46711825001858e-02
9.31562500000000e-03 9.50081181001168e+00 1.61282206847239e-02
1.10093750000000e-02 9.43267335695056e+00 1.74229268015464e-02
1.27031250000000e-02 9.36502358305539e+00 1.85913251189654e-02
1.43968750000000e-02 9.29785898358945e+00 1.96573169005298e-02
1.60906250000000e-02 9.23117607895152e+00 2.06378016048630e-02
1.77843750000000e-02 9.16497141449565e+00 2.15452938989283e-02
1.94781250000000e-02 9.09924156035212e+00 2.23893943159286e-02
2.11718750000000e-02 9.03398311124976e+00 2.31776760644391e-02
2.28656250000000e-02 8.96919268633952e+00 2.39162497754016e-02
2.45593750000000e-02 8.90486692901934e+00 2.46101391907941e-02
2.62531250000000e-02 8.84100250676021e+00 2.52635401806588e-02
2.79468750000000e-02 8.77759611093354e+00 2.58800047355753e-02
2.96406250000000e-02 8.71464445663977e+00 2.64625750217481e-02
3.13343750000000e-02 8.65214428253814e+00 2.70138832059350e-02
3.30281250000000e-02 8.59009235067778e+00 2.75362272145814e-02
3.47218750000000e-02 8.52848544632992e+00 2.80316291951590e-02
3.64156250000000e-02 8.46732037782139e+00 2.85018813000782e-02
3.81093750000000e-02 8.40659397636920e+00 2.89485820175905e-02
3.98031250000000e-02 8.34630309591646e+00 2.93731653443737e-02
4.14968750000000e-02 8.28644461296931e+00 2.97769244617241e-02
4.31906250000000e-02 8.22701542643516e+00 3.01610311381194e-02
4.48843750000000e-02 8.16801245746200e+00 3.05265517707610e-02
4.65781250000000e-02 8.10943264927892e+00 3.08744607561567e-02
4.82718750000000e-02 8.05127296703770e+00 3.12056517177433e-02
4.99656250000000e-02 7.99353039765564e+00 3.15209469989969e-02
5.16593750000000e-02 7.93620194965943e+00 3.18211057411849e-02
5.33531250000000e-02 7.87928465303016e+00 3.21068307974689e-02
5.50468750000000e-02 7.82277555904949e+00 3.23787746836129e-02
5.67406250000000e-02 7.76667174014685e+00 3.26375447258554e-02
5.84343750000000e-02 7.71097028974779e+00 3.28837075356739e-02
6.01281250000000e-02 7.65566832212339e+00 3.31177929170084e-02
6.18218750000000e-02 7.60076297224076e+00 3.33402972923642e-02
6.35156250000000e-02 7.54625139561461e+00 3.35516867190144e-02
6.52093750000000e-02 7.49213076815991e+00 3.37523995543360e-02
6.69031250000000e-02 7.43839828604553e+00 3.39428488194506e-02
6.85968750000000e-02 7.38505116554904e+00 3.41234243023652e-02
7.02906250000000e-02 7.33208664291244e+00 3.42944944352875e-02
7.19843750000000e-02 7.27950197419903e+00 3.44564079754252e-02
7.36781250000000e-02 7.22729443515121e+00 3.46094955141531e-02
7.53718750000000e-02 7.17546132104937e+00 3.47540708357859e-02
7.70656250000000e-02 7.12399994657177e+00 3.48904321441378e-02
7.87593750000000e-02 7.07290764565538e+00 3.50188631724650e-02
8.04531250000000e-02 7.02218177135782e+00 3.51396341902648e-02
8.21468750000000e-02 6.97181969572019e+00 3.52530029186092e-02
8.38406250000000e-02 6.92181880963092e+00 3.53592153640879e-02
8.55343750000000e-02 6.87217652269064e+00 3.54585065802067e-02
8.72281250000000e-02 6.82289026307791e+00 3.55511013639305e-02
8.89218750000000e-02 6.77395747741607e+00 3.56372148941092e-02
9.06156250000000e-02 6.72537563064089e+00 3.57170533177129e-02
9.23093750000000e-02 6.67714220586923e+00 3.57908142890835e-02
9.40031250000000e-02 6.62925470426870e+00 3.58586874668261e-02
9.56968750000000e-02 6.58171064492817e+00 3.59208549724063e-02
9.73906250000000e-02 6.53450756472926e+00 3.59774918140712e-02
9.90843750000000e-02 6.48764301821869e+00 3.60287662793137e-02
1.00778125000000e-01 6.44111457748165e+00 3.60748402987419e-02
1.02471875000000e-01 6.39491983201597e+00 3.61158697839190e-02
1.04165625000000e-01 6.34905638860725e+00 3.61520049414593e-02
1.05859375000000e-01 6.30352187120488e+00 3.61833905654346e-02
1.07553125000000e-01 6.25831392079896e+00 3.62101663099404e-02
1.09246875000000e-01 6.21343019529804e+00 3.62324669434776e-02
1.10940625000000e-01 6.16886836940784e+00 3.62504225866433e-02
1.12634375000000e-01 6.12462613451075e+00 3.62641589344955e-02
1.14328125000000e-01 6.08070119854621e+00 3.62737974647950e-02
1.16021875000000e-01 6.03709128589201e+00 3.62794556332439e-02
1.17715625000000e-01 5.99379413724638e+00 3.62812470567322e-02
1.19409375000000e-01 5.95080750951091e+00 3.62792816854861e-02
1.21103125000000e-01 5.90812917567439e+00 3.62736659649679e-02
1.22796875000000e-01 5.86575692469741e+00 3.62645029882784e-02
1.24490625000000e-01 5.82368856139781e+00 3.62518926397489e-02
1.26184375000000e-01 5.78192190633696e+00 3.62359317303598e-02
1.27878125000000e-01 5.74045479570686e+00 3.62167141255666e-02
1.29571875000000e-01 5.69928508121802e+00 3.61943308660604e-02
1.31265625000000e-01 5.65841062998819e+00 3.61688702819441e-02
1.32959375000000e-01 5.61782932443180e+00 3.61404181007720e-02
1.34653125000000e-01 5.57753906215035e+00 3.61090575498740e-02
1.36346875000000e-01 5.53753775582341e+00 3.60748694533347e-02
1.38040625000000e-01 5.49782333310051e+00 3.60379323239701e-02
1.39734375000000e-01 5.45839373649380e+00 3.59983224506310e-02
1.41428125000000e-01 5.41924692327141e+00 3.59561139811307e-02
1.43121875000000e-01 5.38038086535168e+00 3.59113790010665e-02
1.44815625000000e-01 5.34179354919802e+00 3.58641876087926e-02
1.46509375000000e-01 5.30348297571468e+00 3.58146079867779e-02
1.48203125000000e-01 5.26544716014309e+00 3.57627064695679e-02
1.49896875000000e-01 5.22768413195912e+00 3.57085476085464e-02
1.51590625000000e-01 5.19019193477093e+00 3.56521942336992e-02
1.53284375000000e-01 5.15296862621766e+00 3.55937075125496e-02
1.54978125000000e-01 5.11601227786876e+00 3.55331470064134e-02
1.56671875000000e-01 5.07932097512412e+00 3.54705707241496e-02
1.58365625000000e-01 5.04289281711488e+00 3.54060351735306e-02
1.60059375000000e-01 5.00672591660490e+00 3.53395954103640e-02
1.61753125000000e-01 4.97081839989305e+00 3.52713050855054e-02
1.63446875000000e-01 4.93516840671613e+00 3.52012164898598e-02
1.65140625000000e-01 4.89977409015244e+00 3.51293805974848e-02
1.66834375000000e-01 4.86463361652618e+00 3.50558471069010e-02
1.68528125000000e-01 4.82974516531237e+00 3.49806644806959e-02
1.70221875000000e-01 4.79510692904259e+00 3.49038799835118e-02
1.71915625000000e-01 4.76071711321133e+00 3.48255397185063e-02
1.73609375000000e-01 4.72657393618300e+00 3.47456886623609e-02
1.75303125000000e-01 4.69267562909965e+00 3.46643706989099e-02
1.76996875000000e-01 4.65902043578933e+00 3.45816286514483e-02
1.78690625000000e-01 4.62560661267510e+00 3.44975043137969e-02
1.80384375000000e-01 4.59243242868469e+00 3.44120384801881e-02
1.82078125000000e-01 4.55949616516084e+00 3.43252709740147e-02
1.83771875000000e-01 4.52679611577226e+00 3.42372406755039e-02
1.85465625000000e-01 4.49433058642521e+00 3.41479855483656e-02
1.87159375000000e-01 4.46209789517576e+00 3.40575426654690e-02
1.88853125000000e-01 4.43009637214261e+00 3.39659482335858e-02
1.90546875000000e-01 4.39832435942065e+00 3.38732376172408e-02
1.92240625000000e-01 4.36678021099500e+00 3.37794453617137e-02
1.93934375000000e-01 4.33546229265575e+00 3.36846052152374e-02
1.95628125000000e-01 4.30436898191334e+00 3.35887501504153e-02
1.97321875000000e-01 4.27349866791445e+00 3.34919123848999e-02
1.99015625000000e-01 4.24284975135858e+00 3.33941234013666e-02
2.00709375000000e-01 4.21242064441516e+00 3.32954139668062e-02
2.02403125000000e-01 4.18220977064135e+00 3.31958141511705e-02
2.04096875000000e-01 4.15221556490029e+00 3.30953533453985e-02
2.05790625000000e-01 4.12243647328009e+00 3.29940602788442e-02
2.07484375000000e-01 4.09287095301327e+00 3.28919630361389e-02
2.09178125000000e-01 4.06351747239686e+00 3.27890890735020e-02
2.10871875000000e-01 4.03437451071305e+00 3.26854652345339e-02
2.12565625000000e-01 4.00544055815040e+00 3.25811177655079e-02
2.14259375000000e-01 3.97671411572560e+00 3.24760723301668e-02
2.15953125000000e-01 3.94819369520587e+00 3.23703540240651e-02
2.17646875000000e-01 3.91987781903178e+00 3.22639873884698e-02
2.19340625000000e-01 3.89176502024077e+00 3.21569964238280e-02
2.21034375000000e-01 3.86385384239111e+00 3.20494046028228e-02
2.22728125000000e-01 3.83614283948647e+00 3.19412348830367e-02
2.24421875000000e-01 3.80863057590099e+00 3.18325097192362e-02
2.26115625000000e-01 3.78131562630492e+00 3.17232510752843e-02
2.27809375000000e-01 3.75419657559076e+00 3.16134804357090e-02
2.29503125000000e-01 3.72727201879996e+00 3.15032188169330e-02
2.31196875000000e-01 3.70054056105015e+00 3.13924867781659e-02
2.32890625000000e-01 3.67400081746281e+00 3.12813044319900e-02
2.34584375000000e-01 3.64765141309161e+00 3.11696914546499e-02
2.36278125000000e-01 3.62149098285113e+00 3.10576670960363e-02
2.37971875000000e-01 3.59551817144613e+00 3.09452501893929e-02
2.39665625000000e-01 3.56973163330136e+00 3.08324591607599e-02
2.41359375000000e-01 3.54413003249184e+00 3.07193120381437e-02
2.43053125000000e-01 3.51871204267367e+00 3.06058264604399e-02
2.44746875000000e-01 3.49347634701527e+00 3.04920196861104e-02
2.46440625000000e-01 3.46842163812920e+00 3.03779086016273e-02
2.48134375000000e-01 3.44354661800441e+00 3.02635097296837e-02
2.49828125000000e-01 3.41884999793901e+00 3.01488392371866e-02
2.51521875000000e-01 3.39433049847348e+00 3.00339129430408e-02
2.53215625000000e-01 3.36998684932439e+00 2.99187463257230e-02
2.54909375000000e-01 3.34581778931864e+00 2.98033545306575e-02
2.56603125000000e-01 3.32182206632803e+00 2.96877523774019e-02
2.58296875000000e-01 3.29799843720449e+00 2.95719543666455e-02
2.59990625000000e-01 3.27434566771559e+00 2.94559746870244e-02
2.61684375000000e-01 3.25086253248067e+00 2.93398272217666e-02
2.63378125000000e-01 3.22754781490730e+00 2.92235255551675e-02
2.65071875000000e-01 3.20440030712828e+00 2.91070829789039e-02
2.66765625000000e-01 3.18141880993907e+00 2.89905124981834e-02
2.68459375000000e-01 3.15860213273564e+00 2.88738268377454e-02
2.70153125000000e-01 3.13594909345280e+00 2.87570384477167e-02
2.71846875000000e-01 3.11345851850298e+00 2.86401595093150e-02
2.73540625000000e-01 3.09112924271539e+00 2.85232019404164e-02
2.75234375000000e-01 3.06896010927569e+00 2.84061774009885e-02
2.76928125000000e-01 3.04694996966603e+00 2.82890972983955e-02
2.78621875000000e-01 3.02509768360559e+00 2.81719727925713e-02
2.80315625000000e-01 3.00340211899145e+00 2.80548148010661e-02
2.82009375000000e-01 2.98186215183999e+00 2.79376340039786e-02
2.83703125000000e-01 2.96047666622863e+00 2.78204408487713e-02
2.85396875000000e-01 2.93924455423803e+00 2.77032455549715e-02
2.87090625000000e-01 2.91816471589469e+00 2.75860581187617e-02
2.88784375000000e-01 2.89723605911395e+00 2.74688883174644e-02
2.90478125000000e-01 2.87645749964344e+00 2.73517457139229e-02
2.92171875000000e-01 2.85582796100687e+00 2.72346396607846e-02
2.93865625000000e-01 2.83534637444831e+00 2.71175793046808e-02
2.95559375000000e-01 2.81501167887677e+00 2.70005735903160e-02
2.97253125000000e-01 2.79482282081126e+00 2.68836312644616e-02
2.98946875000000e-01 2.77477875432620e+00 2.67667608798617e-02
3.00640625000000e-01 2.75487844099726e+00 2.66499707990537e-02
3.02334375000000e-01 2.73512084984751e+00 2.65332691980986e-02
3.04028125000000e-01 2.71550495729404e+00 2.64166640702342e-02
3.05721875000000e-01 2.69602974709496e+00 2.63001632294420e-02
3.07415625000000e-01 2.67669421029669e+00 2.61837743139403e-02
3.09109375000000e-01 2.65749734518172e+00 2.60675047896006e-02
3.10803125000000e-01 2.63843815721674e+00 2.59513619532886e-02
3.12496875000000e-01 2.61951565900105e+00 2.58353529361334e-02
3.14190625000000e-01 2.60072887021549e+00 2.57194847067244e-02
3.15884375000000e-01 2.58207681757158e+00 2.56037640742439e-02
3.17578125000000e-01 2.56355853476111e+00 2.54881976915298e-02
3.19271875000000e-01 2.54517306240614e+00 2.53727920580721e-02
3.20965625000000e-01 2.52691944800921e+00 2.52575535229518e-02
3.22659375000000e-01 2.50879674590405e+00 2.51424882877136e-02
3.24353125000000e-01 2.49080401720657e+00 2.50276024091776e-02
3.26046875000000e-01 2.47294032976622e+00 2.49129018021945e-02
3.27740625000000e-01 2.45520475811771e+00 2.47983922423414e-02
3.29434375000000e-01 2.43759638343303e+00 2.46840793685657e-02
3.31128125000000e-01 2.42011429347390e+00 2.45699686857721e-02
3.32821875000000e-01 2.40275758254447e+00 2.44560655673575e-02
3.34515625000000e-01 2.38552535144439e+00 2.43423752576920e-02
3.36209375000000e-01 2.36841670742228e+00 2.42289028745478e-02
3.37903125000000e-01 2.35143076412943e+00 2.41156534114880e-02
3.39596875000000e-01 2.33456664157388e+00 2.40026317401975e-02
3.41290625000000e-01 2.31782346607486e+00 2.38898426127723e-02
3.42984375000000e-01 2.30120037021753e+00 2.37772906639603e-02
3.44678125000000e-01 2.28469649280798e+00 2.36649804133582e-02
3.46371875000000e-01 2.26831097882870e+00 2.35529162675666e-02
3.48065625000000e-01 2.25204297939423e+00 2.34411025222967e-02
3.49759375000000e-01 2.23589165170718e+00 2.33295433644448e-02
3.51453125000000e-01 2.21985615901459e+00 2.32182428741192e-02
3.53146875000000e-01 2.20393567056459e+00 2.31072050266251e-02
3.54840625000000e-01 2.18812936156331e+00 2.29964336944176e-02
3.56534375000000e-01 2.17243641313220e+00 2.28859326490165e-02
3.58228125000000e-01 2.15685601226560e+00 2.27757055628754e-02
3.59921875000000e-01 2.14138735178859e+00 2.26657560112234e-02
3.61615625000000e-01 2.12602963031519e+00 2.25560874738692e-02
3.63309375000000e-01 2.11078205220688e+00 2.24467033369682e-02
3.65003125000000e-01 2.09564382753130e+00 2.23376068947583e-02
3.66696875000000e-01 2.08061417202139e+00 2.22288013512591e-02
3.68390625000000e-01 2.06569230703474e+00 2.21202898219440e-02
3.70084375000000e-01 2.05087745951327e+00 2.20120753353781e-02
3.71778125000000e-01 2.03616886194312e+00 2.19041608348224e-02
3.73471875000000e-01 2.02156575231496e+00 2.17965491798126e-02
3.75165625000000e-01 2.00706737408448e+00 2.16892431477040e-02
3.76859375000000e-01 1.99267297613318e+00 2.15822454351922e-02
3.78553125000000e-01 1.97838181272949e+00 2.14755586598012e-02
3.80246875000000e-01 1.96419314349010e+00 2.13691853613423e-02
3.81940625000000e-01 1.95010623334165e+00 2.12631280033537e-02
3.83634375000000e-01 1.93612035248260e+00 2.11573889745059e-02
3.85328125000000e-01 1.92223477634545e+00 2.10519705899842e-02
3.87021875000000e-01 1.90844878555919e+00 2.09468750928460e-02
3.88715625000000e-01 1.89476166591202e+00 2.08421046553499e-02
3.90409375000000e-01 1.88117270831440e+00 2.07376613802669e-02
3.92103125000000e-01 1.86768120876225e+00 2.06335473021624e-02
3.93796875000000e-01 1.85428646830051e+00 2.05297643886548e-02
3.95490625000000e-01 1.84098779298694e+00 2.04263145416538e-02
3.97184375000000e-01 1.82778449385612e+00 2.03231995985740e-02
3.98878125000000e-01 1.81467588688383e+00 2.02204213335290e-02
4.00571875000000e-01 1.80166129295156e+00 2.01179814585031e-02
4.02265625000000e-01 1.78874003781132e+00 2.00158816244994e-02
4.03959375000000e-01 1.77591145205075e+00 1.99141234226707e-02
4.05653125000000e-01 1.76317487105843e+00 1.98127083854291e-02
4.07346875000000e-01 1.75052963498940e+00 1.97116379875323e-02
4.09040625000000e-01 1.73797508873104e+00 1.96109136471578e-02
4.10734375000000e-01 1.72551058186911e+00 1.95105367269503e-02
4.12428125000000e-01 1.71313546865403e+00 1.94105085350541e-02
4.14121875000000e-01 1.70084910796744e+00 1.93108303261303e-02
4.15815625000000e-01 1.68865086328900e+00 1.92115033023502e-02
4.17509375000000e-01 1.67654010266340e+00 1.91125286143728e-02
4.19203125000000e-01 1.66451619866763e+00 1.90139073623075e-02
4.20896875000000e-01 1.65257852837844e+00 1.89156405966576e-02
4.22590625000000e-01 1.64072647334013e+00 1.88177293192482e-02
4.24284375000000e-01 1.62895941953246e+00 1.87201744841389e-02
4.25978125000000e-01 1.61727675733884e+00 1.86229769985145e-02
4.27671875000000e-01 1.60567788151479e+00 1.85261377235698e-02
4.29365625000000e-01 1.59416219115653e+00 1.84296574753722e-02
4.31059375000000e-01 1.58272908966990e+00 1.83335370257112e-02
4.32753125000000e-01 1.57137798473941e+00 1.82377771029334e-02
4.34446875000000e-01 1.56010828829757e+00 1.81423783927615e-02
4.36140625000000e-01 1.54891941649445e+00 1.80473415391007e-02
4.37834375000000e-01 1.53781078966737e+00 1.79526671448308e-02
4.39528125000000e-01 1.52678183231093e+00 1.78583557725855e-02
4.41221875000000e-01 1.51583197304718e+00 1.77644079455164e-02
4.42915625000000e-01 1.50496064459600e+00 1.76708241480450e-02
4.44609375000000e-01 1.49416728374570e+00 1.75776048266011e-02
4.46303125000000e-01 1.48345133132390e+00 1.74847503903487e-02
4.47996875000000e-01 1.47281223216850e+00 1.73922612119023e-02
4.49690625000000e-01 1.46224943509895e+00 1.73001376280259e-02
4.51384375000000e-01 1.45176239288769e+00 1.72083799403220e-02
4.53078125000000e-01 1.44135056223179e+00 1.71169884159112e-02
4.54771875000000e-01 1.43101340372481e+00 1.70259632880977e-02
4.56465625000000e-01 1.42075038182887e+00 1.69353047570239e-02
4.58159375000000e-01 1.41056096484688e+00 1.68450129903159e-02
4.59853125000000e-01 1.40044462489500e+00 1.67550881237139e-02
4.61546875000000e-01 1.39040083787530e+00 1.66655302616944e-02
4.63240625000000e-01 1.38042908344861e+00 1.65763394780842e-02
4.64934375000000e-01 1.37052884500756e+00 1.64875158166589e-02
4.66628125000000e-01 1.36069960964979e+00 1.63990592917344e-02
4.68321875000000e-01 1.35094086815144e+00 1.63109698887494e-02
4.70015625000000e-01 1.34125211494070e+00 1.62232475648369e-02
4.71709375000000e-01 1.33163284807165e+00 1.61358922493825e-02
4.73403125000000e-01 1.32208256919828e+00 1.60489038445788e-02
4.75096875000000e-01 1.31260078354861e+00 1.59622822259691e-02
4.76790625000000e-01 1.30318699989912e+00 1.58760272429804e-02
4.78484375000000e-01 1.29384073054927e+00 1.57901387194470e-02
4.80178125000000e-01 1.28456149129622e+00 1.57046164541276e-02
4.81871875000000e-01 1.27534880140978e+00 1.56194602212121e-02
4.83565625000000e-01 1.26620218360749e+00 1.55346697708207e-02
4.85259375000000e-01 1.25712116402988e+00 1.54502448294933e-02
4.86953125000000e-01 1.24810527221594e+00 1.53661851006731e-02
4.88646875000000e-01 1.23915404107873e+00 1.52824902651812e-02
4.90340625000000e-01 1.23026700688120e+00 1.51991599816805e-02
4.92034375000000e-01 1.22144370921214e+00 1.51161938871369e-02
4.93728125000000e-01 1.21268369096237e+00 1.50335915972685e-02
4.95421875000000e-01 1.20398649830100e+00 1.49513527069873e-02
4.97115625000000e-01 1.19535168065198e+00 1.48694767908378e-02
4.98809375000000e-01 1.18677879067069e+00 1.47879634034248e-02
5.00503125000000e-01 1.17826738422084e+00 1.47068120798338e-02
5.02196875000000e-01 1.16981702035140e+00 1.46260223360471e-02
5.03890625000000e-01 1.16142726127377e+00 1.45455936693498e-02
5.05584375000000e-01 1.15309767233913e+00 1.44655255587316e-02
5.07278125000000e-01 1.14482782201587e+00 1.43858174652805e-02
5.08971875000000e-01 1.13661728186730e+00 1.43064688325686e-02
5.10665625000000e-01 1.12846562652938e+00 1.42274790870368e-02
5.12359375000000e-01 1.12037243368875e+00 1.41488476383679e-02
5.14053125000000e-01 1.11233728406078e+00 1.40705738798522e-02
5.15746875000000e-01 1.10435976136793e+00 1.39926571887535e-02
5.17440625000000e-01 1.09643945231813e+00 1.39150969266645e-02
5.19134375000000e-01 1.08857594658337e+00 1.38378924398567e-02
5.20828125000000e-01 1.08076883677847e+00 1.37610430596258e-02
5.22521875000000e-01 1.07301771843993e+00 1.36845481026290e-02
5.24215625000000e-01 1.06532219000504e+00 1.36084068712191e-02
5.25909375000000e-01 1.05768185279101e+00 1.35326186537735e-02
5.27603125000000e-01 1.05009631097437e+00 1.34571827250147e-02
5.29296875000000e-01 1.04256517157042e+00 1.33820983463261e-02
5.30990625000000e-01 1.03508804441290e+00 1.33073647660664e-02
5.32684375000000e-01 1.02766454213376e+00 1.32329812198756e-02
5.34378125000000e-01 1.02029428014311e+00 1.31589469309746e-02
