Energy (eV)          EEDF (eV^-(3/2))     First Anisotropy
2.73684210526316e-04 2.13808319341009e+02 6.90071629351876e-02
8.21052631578947e-04 2.09958650771253e+02 1.13305498729549e-01
1.36842105263158e-03 2.06178296381168e+02 1.47877214376280e-01
1.91578947368421e-03 2.02466008152108e+02 1.73130306135249e-01
2.46315789473684e-03 1.98820560536957e+02 1.93370968248329e-01
3.01052631578947e-03 1.95240750053011e+02 2.10255663638059e-01
3.55789473684211e-03 1.91725394890694e+02 2.24655705011200e-01
4.10526315789474e-03 1.88273334516800e+02 2.37105582484241e-01
4.65263157894737e-03 1.84883429293850e+02 2.47965217803304e-01
5.20000000000000e-03 1.81554560103830e+02 2.57492778925536e-01
5.74736842105263e-03 1.78285627978717e+02 2.65882122814102e-01
6.29473684210526e-03 1.75075553737677e+02 2.73283967274170e-01
6.84210526315790e-03 1.71923277630790e+02 2.79818736473159e-01
7.38947368421053e-03 1.68827758989182e+02 2.85584791993268e-01
7.93684210526316e-03 1.65787975881470e+02 2.90663942439001e-01
8.48421052631579e-03 1.62802924775873e+02 2.95125266107461e-01
9.03157894736842e-03 1.59871620210498e+02 2.99027843420486e-01
9.57894736842105e-03 1.56993094466364e+02 3.02422760494221e-01
1.01263157894737e-02 1.54166397248499e+02 3.05354611156141e-01
1.06736842105263e-02 1.51390595372212e+02 3.07862644263307e-01
1.12210526315789e-02 1.48664772455695e+02 3.09981654784866e-01
1.17684210526316e-02 1.45988028616051e+02 3.11742686098244e-01
1.23157894736842e-02 1.43359480169951e+02 3.13173593083230e-01
1.28631578947368e-02 1.40778259351316e+02 3.14299495150050e-01
1.34105263157895e-02 1.38243514015103e+02 3.15143146350766e-01
1.39578947368421e-02 1.35754407359336e+02 3.15725243166792e-01
1.45052631578947e-02 1.33310117648892e+02 3.16064678730379e-01
1.50526315789474e-02 1.30909837941923e+02 3.16178758145015e-01
1.56000000000000e-02 1.28552775830431e+02 3.16083378934473e-01
1.61473684210526e-02 1.26238153171484e+02 3.15793184607115e-01
1.66947368421053e-02 1.23965205832804e+02 3.15321697866244e-01
1.72421052631579e-02 1.21733183438659e+02 3.14681435352720e-01
1.77894736842105e-02 1.19541349127815e+02 3.13884005975401e-01
1.83368421052632e-02 1.17388979304436e+02 3.12940196529865e-01
1.88842105263158e-02 1.15275363401190e+02 3.11860048347561e-01
1.94315789473684e-02 1.13199803644688e+02 3.10652923203435e-01
1.99789473684211e-02 1.11161614823669e+02 3.09327562961487e-01
2.05263157894737e-02 1.09160124067241e+02 3.07892141178695e-01
2.10736842105263e-02 1.07194670618180e+02 3.06354308995723e-01
2.16210526315789e-02 1.05264605616338e+02 3.04721237543895e-01
2.21684210526316e-02 1.03369291884462e+02 3.02999654656950e-01
2.27157894736842e-02 1.01508103716666e+02 3.01195879100178e-01
2.32631578947368e-02 9.96804266754195e+01 2.99315850314250e-01
2.38105263157895e-02 9.78856573850655e+01 2.97365155285540e-01
2.43578947368421e-02 9.61232033338628e+01 2.95349054109362e-01
2.49052631578947e-02 9.43924826783899e+01 2.93272502110130e-01
2.54526315789474e-02 9.26929240505090e+01 2.91140171052856e-01
2.60000000000000e-02 9.10239663716305e+01 2.88956467532176e-01
2.65473684210526e-02 8.93850586645242e+01 2.86725549789324e-01
2.70947368421053e-02 8.77756598724349e+01 2.84451343977080e-01
2.76421052631579e-02 8.61952386796529e+01 2.82137559052212e-01
2.81894736842105e-02 8.46432733385906e+01 2.79787699792369e-01
2.87368421052632e-02 8.31192514949994e+01 2.77405078794448e-01
2.92842105263158e-02 8.16226700196859e+01 2.74992828479524e-01
2.98315789473684e-02 8.01530348424185e+01 2.72553911331816e-01
3.03789473684211e-02 7.87098607881441e+01 2.70091130211677e-01
3.09263157894737e-02 7.72926714188732e+01 2.67607137147861e-01
3.14736842105263e-02 7.59009988742923e+01 2.65104441506684e-01
3.20210526315790e-02 7.45343837180189e+01 2.62585418394390e-01
3.25684210526316e-02 7.31923747859338e+01 2.60052315727091e-01
3.31157894736842e-02 7.18745290366709e+01 2.57507261547545e-01
3.36631578947368e-02 7.05804114070746e+01 2.54952270175190e-01
3.42105263157895e-02 6.93095946668170e+01 2.52389247958362e-01
3.47578947368421e-02 6.80616592779508e+01 2.49819999355466e-01
3.53052631578947e-02 6.68361932564100e+01 2.47246231968168e-01
3.58526315789474e-02 6.56327920355242e+01 2.44669561895696e-01
3.64000000000000e-02 6.44510583339056e+01 2.42091518157800e-01
3.69473684210526e-02 6.32906020228173e+01 2.39513546855366e-01
3.74947368421053e-02 6.21510399978819e+01 2.36937015579808e-01
3.80421052631579e-02 6.10319960521902e+01 2.34363217535227e-01
3.85894736842105e-02 5.99331007533747e+01 2.31793374990799e-01
3.91368421052632e-02 5.88539913203513e+01 2.29228642541013e-01
3.96842105263158e-02 5.77943115039933e+01 2.26670110732725e-01
4.02315789473684e-02 5.67537114695236e+01 2.24118808959847e-01
4.07789473684211e-02 5.57318476806679e+01 2.21575708703287e-01
4.13263157894737e-02 5.47283827873240e+01 2.19041726108130e-01
4.18736842105263e-02 5.37429855130899e+01 2.16517724427095e-01
4.24210526315789e-02 5.27753305462709e+01 2.14004516818526e-01
4.29684210526316e-02 5.18250984324872e+01 2.11502868528351e-01
4.35157894736842e-02 5.08919754689069e+01 2.09013499403845e-01
4.40631578947368e-02 4.99756536016063e+01 2.06537085846806e-01
4.46105263157895e-02 4.90758303229312e+01 2.04074262672091e-01
4.51578947368421e-02 4.81922085719474e+01 2.01625625298860e-01
4.57052631578947e-02 4.73244966363735e+01 1.99191731417334e-01
4.62526315789474e-02 4.64724080560157e+01 1.96773102967271e-01
4.68000000000000e-02 4.56356615289911e+01 1.94370227635968e-01
4.73473684210526e-02 4.48139808180538e+01 1.91983560288648e-01
4.78947368421053e-02 4.40070946596739e+01 1.89613524635504e-01
4.84421052631579e-02 4.32147366742540e+01 1.87260514801490e-01
4.89894736842105e-02 4.24366452788934e+01 1.84924896545729e-01
4.95368421052632e-02 4.16725636003137e+01 1.82607008428686e-01
5.00842105263158e-02 4.09222393902990e+01 1.80307163267465e-01
5.06315789473684e-02 4.01854249424220e+01 1.78025649188336e-01
5.11789473684211e-02 3.94618770100681e+01 1.75762730949108e-01
5.17263157894737e-02 3.87513567267400e+01 1.73518650889360e-01
5.22736842105263e-02 3.80536295265815e+01 1.71293629842182e-01
5.28210526315789e-02 3.73684650671486e+01 1.69087868308642e-01
5.33684210526316e-02 3.66956371533676e+01 1.66901547281403e-01
5.39157894736842e-02 3.60349236626868e+01 1.64734829314482e-01
5.44631578947368e-02 3.53861064722740e+01 1.62587859268057e-01
5.50105263157895e-02 3.47489713864709e+01 1.60460765024897e-01
5.55578947368421e-02 3.41233080662618e+01 1.58353658444936e-01
5.61052631578947e-02 3.35089099598345e+01 1.56266636012911e-01
5.66526315789474e-02 3.29055742342402e+01 1.54199779709808e-01
5.72000000000000e-02 3.23131017088893e+01 1.52153157598949e-01
5.77473684210526e-02 3.17312967893303e+01 1.50126824391226e-01
5.82947368421053e-02 3.11599674028354e+01 1.48120822180176e-01
5.88421052631579e-02 3.05989249348565e+01 1.46135181134969e-01
5.93894736842105e-02 3.00479841671680e+01 1.44169919984806e-01
5.99368421052632e-02 2.95069632163025e+01 1.42225046486974e-01
6.04842105263158e-02 2.89756834736470e+01 1.40300558094091e-01
6.10315789473684e-02 2.84539695464780e+01 1.38396442377250e-01
6.15789473684211e-02 2.79416491999419e+01 1.36512677636672e-01
6.21263157894737e-02 2.74385533005518e+01 1.34649233284276e-01
6.26736842105263e-02 2.69445157599880e+01 1.32806070214011e-01
6.32210526315789e-02 2.64593734803890e+01 1.30983141351998e-01
6.37684210526316e-02 2.59829663005090e+01 1.29180391990958e-01
6.43157894736842e-02 2.55151369427402e+01 1.27397760294008e-01
6.48631578947368e-02 2.50557309615027e+01 1.25635177596682e-01
6.54105263157895e-02 2.46045966919396e+01 1.23892568699927e-01
6.59578947368421e-02 2.41615851999552e+01 1.22169852325064e-01
6.65052631578947e-02 2.37265502330469e+01 1.20466941377768e-01
6.70526315789474e-02 2.32993481719328e+01 1.18783743365038e-01
6.76000000000000e-02 2.28798379834118e+01 1.17120160633067e-01
6.81473684210526e-02 2.24678811735259e+01 1.15476090598602e-01
6.86947368421053e-02 2.20633417419331e+01 1.13851426096453e-01
6.92421052631579e-02 2.16660861369284e+01 1.12246055706227e-01
6.97894736842105e-02 2.12759832116007e+01 1.10659863948106e-01
7.03368421052632e-02 2.08929041802861e+01 1.09092731473666e-01
7.08842105263158e-02 2.05167225761366e+01 1.07544535391212e-01
7.14315789473684e-02 2.01473142093694e+01 1.06015149436737e-01
7.19789473684210e-02 1.97845571261966e+01 1.04504444272135e-01
7.25263157894737e-02 1.94283315687807e+01 1.03012287638117e-01
7.30736842105263e-02 1.90785199354790e+01 1.01538544503564e-01
7.36210526315789e-02 1.87350067420938e+01 1.00083077336086e-01
7.41684210526316e-02 1.83976785837470e+01 9.86457462351391e-02
7.47157894736842e-02 1.80664240973798e+01 9.72264091798923e-02
7.52631578947368e-02 1.77411339251774e+01 9.58249221476707e-02
7.58105263157895e-02 1.74217006782742e+01 9.44411392299570e-02
7.63578947368421e-02 1.71080189013656e+01 9.30749128575013e-02
7.69052631578947e-02 1.67999850378947e+01 9.17260939029584e-02
7.74526315789474e-02 1.64974973958096e+01 9.03945318870569e-02
7.80000000000000e-02 1.62004561141587e+01 8.90800750692278e-02
7.85473684210526e-02 1.59087631299539e+01 8.77825705366972e-02
7.90947368421053e-02 1.56223221458537e+01 8.65018643722052e-02
7.96421052631579e-02 1.53410385983232e+01 8.52378018106729e-02
8.01894736842105e-02 1.50648196265667e+01 8.39902273113975e-02
8.07368421052632e-02 1.47935740417178e+01 8.27589846292857e-02
8.12842105263158e-02 1.45272122967867e+01 8.15439169766534e-02
8.18315789473684e-02 1.42656464570981e+01 8.03448670850897e-02
8.23789473684211e-02 1.40087901712170e+01 7.91616773533639e-02
8.29263157894737e-02 1.37565586425754e+01 7.79941899008090e-02
8.34736842105263e-02 1.35088686013419e+01 7.68422466202064e-02
8.40210526315789e-02 1.32656382769779e+01 7.57056893123013e-02
8.45684210526316e-02 1.30267873712423e+01 7.45843597309638e-02
8.51157894736842e-02 1.27922370316440e+01 7.34780997059379e-02
8.56631578947368e-02 1.25619098255277e+01 7.23867511810505e-02
8.62105263157895e-02 1.23357297143915e+01 7.13101562523180e-02
8.67578947368421e-02 1.21136220288243e+01 7.02481572795749e-02
8.73052631578947e-02 1.18955134438551e+01 6.92005969181763e-02
8.78526315789474e-02 1.16813319547120e+01 6.81673182207121e-02
8.84000000000000e-02 1.14710068531551e+01 6.71481646629798e-02
8.89473684210526e-02 1.12644687040277e+01 6.61429801701928e-02
8.94947368421053e-02 1.10616493223692e+01 6.51516091963572e-02
9.00421052631579e-02 1.08624817508741e+01 6.41738967975185e-02
9.05894736842105e-02 1.06669002378818e+01 6.32096886496615e-02
9.11368421052632e-02 1.04748402155737e+01 6.22588310670172e-02
9.16842105263158e-02 1.02862382786898e+01 6.13211710814708e-02
9.22315789473684e-02 1.01010321635966e+01 6.03965564563601e-02
9.27789473684211e-02 9.91916072770426e+00 5.94848357585129e-02
9.33263157894737e-02 9.74056392936539e+00 5.85858583679764e-02
9.38736842105263e-02 9.56518280796815e+00 5.76994744883075e-02
9.44210526315789e-02 9.39295946450022e+00 5.68255352119768e-02
9.49684210526316e-02 9.22383704243450e+00 5.59638925269275e-02
9.55157894736842e-02 9.05775970893444e+00 5.51143993756969e-02
9.60631578947368e-02 8.89467263649633e+00 5.42769096586600e-02
9.66105263157895e-02 8.73452198477326e+00 5.34512782379411e-02
9.71578947368421e-02 8.57725488282635e+00 5.26373609910232e-02
9.77052631578947e-02 8.42281941167026e+00 5.18350148115714e-02
9.82526315789474e-02 8.27116458711139e+00 5.10440976577220e-02
9.88000000000000e-02 8.12224034298243e+00 5.02644685501922e-02
9.93473684210526e-02 7.97599751454676e+00 4.94959875711539e-02
9.98947368421053e-02 7.83238782229028e+00 4.87385159079240e-02
1.00442105263158e-01 7.69136385598285e+00 4.79919158920129e-02
1.00989473684211e-01 7.55287905910355e+00 4.72560508584718e-02
1.01536842105263e-01 7.41688771312365e+00 4.65307854151132e-02
1.02084210526316e-01 7.28334492306831e+00 4.58159852644704e-02
1.02631578947368e-01 7.15220660193443e+00 4.51115172653149e-02
1.03178947368421e-01 7.02342945688014e+00 4.44172494421942e-02
1.03726315789474e-01 6.89697097420480e+00 4.37330509931881e-02
1.04273684210526e-01 6.77278940602540e+00 4.30587923717096e-02
1.04821052631579e-01 6.65084375596247e+00 4.23943449948675e-02
1.05368421052632e-01 6.53109376562676e+00 4.17395816973092e-02
1.05915789473684e-01 6.41349990181429e+00 4.10943764363122e-02
1.06463157894737e-01 6.29802334280907e+00 4.04586043708322e-02
1.07010526315789e-01 6.18462596619874e+00 3.98321418650303e-02
1.07557894736842e-01 6.07327033567098e+00 3.92148664906924e-02
1.08105263157895e-01 5.96391968925914e+00 3.86066570936639e-02
1.08652631578947e-01 5.85653792675421e+00 3.80073935372775e-02
1.09200000000000e-01 5.75108959780445e+00 3.74169570910031e-02
1.09747368421053e-01 5.64753989062513e+00 3.68352301712302e-02
1.10294736842105e-01 5.54585461995661e+00 3.62620964058879e-02
1.10842105263158e-01 5.44600021631608e+00 3.56974406914358e-02
1.11389473684211e-01 5.34794371451363e+00 3.51411489592744e-02
1.11936842105263e-01 5.25165274278479e+00 3.45931085231976e-02
1.12484210526316e-01 5.15709551247099e+00 3.40532078434376e-02
1.13031578947368e-01 5.06424080703642e+00 3.35213365824449e-02
1.13578947368421e-01 4.97305797224052e+00 3.29973856016819e-02
1.14126315789474e-01 4.88351690555023e+00 3.24812469580783e-02
1.14673684210526e-01 4.79558804665986e+00 3.19728139501148e-02
1.15221052631579e-01 4.70924236739019e+00 3.14719809124718e-02
1.15768421052632e-01 4.62445136211853e+00 3.09786435139867e-02
1.16315789473684e-01 4.54118703868110e+00 3.04926985501915e-02
1.16863157894737e-01 4.45942190871549e+00 3.00140439889033e-02
1.17410526315789e-01 4.37912897899325e+00 2.95425789645290e-02
1.17957894736842e-01 4.30028174210999e+00 2.90782037723265e-02
1.18505263157895e-01 4.22285416812435e+00 2.86208199056509e-02
1.19052631578947e-01 4.14682069567334e+00 2.81703298753569e-02
1.19600000000000e-01 4.07215622354468e+00 2.77266374654969e-02
1.20147368421053e-01 3.99883610265710e+00 2.72896475510050e-02
1.20694736842105e-01 3.92683612756775e+00 2.68592661348396e-02
1.21242105263158e-01 3.85613252882869e+00 2.64354003797864e-02
1.21789473684211e-01 3.78670196488012e+00 2.60179584440187e-02
1.22336842105263e-01 3.71852151435441e+00 2.56068497100353e-02
1.22884210526316e-01 3.65156866874701e+00 2.52019846186852e-02
1.23431578947368e-01 3.58582132466909e+00 2.48032747011212e-02
1.23978947368421e-01 3.52125777686031e+00 2.44106325706097e-02
1.24526315789474e-01 3.45785671071998e+00 2.40239719146010e-02
1.25073684210526e-01 3.39559719556719e+00 2.36432075202498e-02
1.25621052631579e-01 3.33445867750910e+00 2.32682551298669e-02
1.26168421052632e-01 3.27442097266382e+00 2.28990316375966e-02
1.26715789473684e-01 3.21546426070040e+00 2.25354549435020e-02
1.27263157894737e-01 3.15756907802498e+00 2.21774439795422e-02
1.27810526315789e-01 3.10071631161997e+00 2.18249187006190e-02
1.28357894736842e-01 3.04488719247515e+00 2.14778000759942e-02
1.28905263157895e-01 2.99006328964491e+00 2.11360101097239e-02
1.29452631578947e-01 2.93622650397421e+00 2.07994717135418e-02
1.30000000000000e-01 2.88335906213044e+00 2.04681088759195e-02
1.30547368421053e-01 2.83144351090981e+00 2.01418465338373e-02
1.31094736842105e-01 2.78046271124415e+00 1.98206105938064e-02
1.31642105263158e-01 2.73039983276914e+00 1.95043279491667e-02
1.32189473684211e-01 2.68123834809891e+00 1.91929263643203e-02
1.32736842105263e-01 2.63296202737605e+00 1.88863346262776e-02
1.33284210526316e-01 2.58555493306894e+00 1.85844824278922e-02
1.33831578947368e-01 2.53900141450368e+00 1.82873003858407e-02
1.34378947368421e-01 2.49328610289950e+00 1.79947200312030e-02
1.34926315789474e-01 2.44839390609709e+00 1.77066738005124e-02
1.35473684210526e-01 2.40431000376994e+00 1.74230950494508e-02
1.36021052631579e-01 2.36101984238687e+00 1.71439179510730e-02
1.36568421052632e-01 2.31850913041276e+00 1.68690776261853e-02
1.37115789473684e-01 2.27676383372352e+00 1.65985100406867e-02
1.37663157894737e-01 2.23577017079598e+00 1.63321520200499e-02
1.38210526315789e-01 2.19551460833141e+00 1.60699412399499e-02
1.38757894736842e-01 2.15598385661814e+00 1.58118162173796e-02
1.39305263157895e-01 2.11716486531023e+00 1.55577163214397e-02
1.39852631578947e-01 2.07904481899504e+00 1.53075816838303e-02
1.40400000000000e-01 2.04161113296702e+00 1.50613533110658e-02
1.40947368421053e-01 2.00485144918708e+00 1.48189729942465e-02
1.41494736842105e-01 1.96875363205119e+00 1.45803833206471e-02
1.42042105263158e-01 1.93330576453244e+00 1.43455276827158e-02
1.42589473684211e-01 1.89849614413593e+00 1.41143501965358e-02
1.43136842105263e-01 1.86431327903941e+00 1.38867958025106e-02
1.43684210526316e-01 1.83074588440151e+00 1.36628101831820e-02
1.44231578947368e-01 1.79778287850054e+00 1.34423397730419e-02
1.44778947368421e-01 1.76541337920889e+00 1.32253317496071e-02
1.45326315789474e-01 1.73362670027045e+00 1.30117340249817e-02
1.45873684210526e-01 1.70241234790005e+00 1.28014952528136e-02
1.46421052631579e-01 1.67176001722396e+00 1.25945647566005e-02
1.46968421052632e-01 1.64165958888137e+00 1.23908926164065e-02
1.47515789473684e-01 1.61210112577120e+00 1.21904295966000e-02
1.48063157894737e-01 1.58307486965513e+00 1.19931271536378e-02
1.48610526315789e-01 1.55457123805006e+00 1.17989374275223e-02
1.49157894736842e-01 1.52658082095302e+00 1.16078132337359e-02
1.49705263157895e-01 1.49909437784387e+00 1.14197080685615e-02
1.50252631578947e-01 1.47210283455310e+00 1.12345760460194e-02
1.50800000000000e-01 1.44559728026906e+00 1.10523719725829e-02
1.51347368421053e-01 1.41956896467139e+00 1.08730512836536e-02
1.51894736842105e-01 1.39400929494226e+00 1.06965700496729e-02
1.52442105263158e-01 1.36890983302751e+00 1.05228849804375e-02
1.52989473684211e-01 1.34426229277783e+00 1.03519533676363e-02
1.53536842105263e-01 1.32005853721585e+00 1.01837331519412e-02
1.54084210526316e-01 1.29629057591719e+00 1.00181828651314e-02
1.54631578947368e-01 1.27295056228304e+00 9.85526163518110e-03
1.55178947368421e-01 1.25003079103741e+00 9.69492917850702e-03
1.55726315789474e-01 1.22752369559749e+00 9.53714579265331e-03
1.56273684210526e-01 1.20542184565977e+00 9.38187235947391e-03
1.56821052631579e-01 1.18371794468424e+00 9.22907029459598e-03
1.57368421052632e-01 1.16240482748778e+00 9.07870160525668e-03
1.57915789473684e-01 1.14147545793659e+00 8.93072883940328e-03
1.58463157894737e-01 1.12092292654638e+00 8.78511508962416e-03
1.59010526315789e-01 1.10074044827665e+00 8.64182398588397e-03
1.59557894736842e-01 1.08092136021698e+00 8.50081968867157e-03
1.60105263157895e-01 1.06145911945960e+00 8.36206689128603e-03
1.60652631578947e-01 1.04234730088543e+00 8.22553077537652e-03
1.61200000000000e-01 1.02357959504478e+00 8.09117706081733e-03
1.61747368421053e-01 1.00514980612422e+00 7.95897196095148e-03
1.62294736842105e-01 9.87051849834915e-01 7.82888218557390e-03
1.62842105263158e-01 9.69279751468873e-01 7.70087494266975e-03
1.63389473684211e-01 9.51827643878006e-01 7.57491789789070e-03
1.63936842105263e-01 9.34689765538941e-01 7.45097921936854e-03
1.64484210526316e-01 9.17860458695594e-01 7.32902753692895e-03
1.65031578947368e-01 9.01334167431988e-01 7.20903194449647e-03
1.65578947368421e-01 8.85105435896216e-01 7.09096199368297e-03
1.66126315789474e-01 8.69168906442326e-01 6.97478768774035e-03
1.66673684210526e-01 8.53519317917383e-01 6.86047948269146e-03
1.67221052631579e-01 8.38151503882887e-01 6.74800825168416e-03
1.67768421052632e-01 8.23060390910655e-01 6.63734532365309e-03
1.68315789473684e-01 8.08240996946341e-01 6.52846244744242e-03
1.68863157894737e-01 7.93688429613585e-01 6.42133179356610e-03
1.69410526315789e-01 7.79397884648951e-01 6.31592594827877e-03
1.69957894736842e-01 7.65364644266834e-01 6.21221790798277e-03
1.70505263157895e-01 7.51584075650011e-01 6.11018107988943e-03
1.71052631578947e-01 7.38051629384294e-01 6.00978925065333e-03
1.71600000000000e-01 7.24762837957890e-01 5.91101661973443e-03
1.72147368421053e-01 7.11713314319627e-01 5.81383776784491e-03
1.72694736842105e-01 6.98898750386628e-01 5.71822765818794e-03
