Energy (eV)          EEDF (eV^-(3/2))     First Anisotropy
4.28571428571429e-02 4.38860968831721e-02 2.77906062623913e-05
1.28571428571429e-01 4.34549736655025e-02 4.58188183366027e-05
2.14285714285714e-01 4.30280856675198e-02 6.02972518265318e-05
3.00000000000000e-01 4.26053912824251e-02 7.11824144630639e-05
3.85714285714286e-01 4.21868493136713e-02 8.01667449755140e-05
4.71428571428571e-01 4.17724189693553e-02 8.78929501042564e-05
5.57142857142857e-01 4.13620598591293e-02 9.46950221682462e-05
6.42857142857143e-01 4.09557319875812e-02 1.00775471229142e-04
7.28571428571429e-01 4.05533957531075e-02 1.06269144565136e-04
8.14285714285714e-01 4.01550119436907e-02 1.11271727982535e-04
9.00000000000000e-01 3.97605417314210e-02 1.15854331537369e-04
9.85714285714286e-01 3.93699466703689e-02 1.20071697947020e-04
1.07142857142857e+00 3.89831886918852e-02 1.23967159195810e-04
1.15714285714286e+00 3.86002301041337e-02 1.27575798235738e-04
1.24285714285714e+00 3.82210335797615e-02 1.30926554334469e-04
1.32857142857143e+00 3.78455621615153e-02 1.34043676276533e-04
1.41428571428571e+00 3.74737792581059e-02 1.36947758132800e-04
1.50000000000000e+00 3.71056486319320e-02 1.39656492869184e-04
1.58571428571429e+00 3.67411344066794e-02 1.42185235236632e-04
1.67142857142857e+00 3.63802010535999e-02 1.44547429581050e-04
1.75714285714286e+00 3.60228133974827e-02 1.46754940254563e-04
1.84285714285714e+00 3.56689366044797e-02 1.48818311136438e-04
1.92857142857143e+00 3.53185361850118e-02 1.50746970779297e-04
2.01428571428571e+00 3.49715779901561e-02 1.52549399308305e-04
2.10000000000000e+00 3.46280282027905e-02 1.54233262306224e-04
2.18571428571429e+00 3.42878533414473e-02 1.55805521474539e-04
2.27142857142857e+00 3.39510202503311e-02 1.57272526230335e-04
2.35714285714286e+00 3.36174961024163e-02 1.58640090040845e-04
2.44285714285714e+00 3.32872483902722e-02 1.59913554907155e-04
2.52857142857143e+00 3.29602449272458e-02 1.61097845093342e-04
2.61428571428571e+00 3.26364538441765e-02 1.62197514501268e-04
2.70000000000000e+00 3.23158435823805e-02 1.63216785804885e-04
2.78571428571429e+00 3.19983828956655e-02 1.64159584850896e-04
2.87142857142857e+00 3.16840408424433e-02 1.65029570419525e-04
2.95714285714286e+00 3.13727867873261e-02 1.65830160042517e-04
3.04285714285714e+00 3.10645903937418e-02 1.66564552808620e-04
3.12857142857143e+00 3.07594216241995e-02 1.67235748664037e-04
3.21428571428571e+00 3.04572507372640e-02 1.67846566767348e-04
3.30000000000000e+00 3.01580482817191e-02 1.68399660475059e-04
3.38571428571429e+00 2.98617850975384e-02 1.68897531228288e-04
3.47142857142857e+00 2.95684323093619e-02 1.69342540880336e-04
3.55714285714286e+00 2.92779613272131e-02 1.69736922646920e-04
3.64285714285714e+00 2.89903438403217e-02 1.70082791111836e-04
3.72857142857143e+00 2.87055518168583e-02 1.70382150606190e-04
3.81428571428571e+00 2.84235575011315e-02 1.70636903910669e-04
3.90000000000000e+00 2.81443334085886e-02 1.70848859034988e-04
3.98571428571429e+00 2.78678523261452e-02 1.71019735865017e-04
4.07142857142857e+00 2.75940873066347e-02 1.71151172154160e-04
4.15714285714286e+00 2.73230116689761e-02 1.71244728921669e-04
4.24285714285714e+00 2.70545989928780e-02 1.71301895535294e-04
4.32857142857143e+00 2.67888231182514e-02 1.71324093825004e-04
4.41428571428571e+00 2.65256581426073e-02 1.71312682846877e-04
4.50000000000000e+00 2.62650784166908e-02 1.71268962306281e-04
4.58571428571429e+00 2.60070585444006e-02 1.71194176147443e-04
4.67142857142857e+00 2.57515733779745e-02 1.71089515815107e-04
4.75714285714286e+00 2.54985980178016e-02 1.70956123217259e-04
4.84285714285714e+00 2.52481078078048e-02 1.70795093597453e-04
4.92857142857143e+00 2.50000783346564e-02 1.70607477728283e-04
5.01428571428571e+00 2.47544854253580e-02 1.70394284816422e-04
5.10000000000000e+00 2.45113051433773e-02 1.70156484364347e-04
5.18571428571429e+00 2.42705137882984e-02 1.69895008291469e-04
5.27142857142857e+00 2.40320878915889e-02 1.69610752866662e-04
5.35714285714286e+00 2.37960042161780e-02 1.69304580470162e-04
5.44285714285714e+00 2.35622397523814e-02 1.68977321353984e-04
5.52857142857143e+00 2.33307717169985e-02 1.68629774877862e-04
5.61428571428571e+00 2.31015775510593e-02 1.68262711434350e-04
5.70000000000000e+00 2.28746349163734e-02 1.67876873512505e-04
5.78571428571429e+00 2.26499216950031e-02 1.67472977041960e-04
5.87142857142857e+00 2.24274159855038e-02 1.67051712615425e-04
5.95714285714286e+00 2.22070961023487e-02 1.66613746603634e-04
6.04285714285714e+00 2.19889405722990e-02 1.66159722305250e-04
6.12857142857143e+00 2.17729281334344e-02 1.65690260667496e-04
6.21428571428571e+00 2.15590377330547e-02 1.65205961647305e-04
6.30000000000000e+00 2.13472485245741e-02 1.64707404837370e-04
6.38571428571429e+00 2.11375398668794e-02 1.64195150366458e-04
6.47142857142857e+00 2.09298913209651e-02 1.63669739714028e-04
6.55714285714286e+00 2.07242826492589e-02 1.63131696451355e-04
6.64285714285714e+00 2.05206938123659e-02 1.62581527032052e-04
6.72857142857143e+00 2.03191049680674e-02 1.62019721218906e-04
6.81428571428571e+00 2.01194964693652e-02 1.61446753096322e-04
6.90000000000000e+00 1.99218488616722e-02 1.60863081443164e-04
6.98571428571429e+00 1.97261428820970e-02 1.60269150363551e-04
7.07142857142857e+00 1.95323594564154e-02 1.59665389852948e-04
7.15714285714286e+00 1.93404796983339e-02 1.59052216310850e-04
7.24285714285714e+00 1.91504849065538e-02 1.58430033107312e-04
7.32857142857143e+00 1.89623565637618e-02 1.57799230834667e-04
7.41428571428571e+00 1.87760763348069e-02 1.57160188091190e-04
7.50000000000000e+00 1.85916260641472e-02 1.56513271701243e-04
7.58571428571429e+00 1.84089877750929e-02 1.55858837173867e-04
7.67142857142857e+00 1.82281436670656e-02 1.55197229109937e-04
7.75714285714286e+00 1.80490761148288e-02 1.54528781568583e-04
7.84285714285714e+00 1.78717676658271e-02 1.53853818487325e-04
7.92857142857143e+00 1.76962010391861e-02 1.53172653825932e-04
8.01428571428571e+00 1.75223591240120e-02 1.52485592192186e-04
8.10000000000000e+00 1.73502249770637e-02 1.51792928967077e-04
8.18571428571429e+00 1.71797818219749e-02 1.51094950648563e-04
8.27142857142857e+00 1.70110130467650e-02 1.50391935152906e-04
8.35714285714286e+00 1.68439022030549e-02 1.49684152083718e-04
8.44285714285714e+00 1.66784330036478e-02 1.48971863052476e-04
8.52857142857143e+00 1.65145893215483e-02 1.48255321754293e-04
8.61428571428571e+00 1.63523551883776e-02 1.47534774480062e-04
8.70000000000000e+00 1.61917147922440e-02 1.46810460181243e-04
8.78571428571429e+00 1.60326524769599e-02 1.46082610734203e-04
8.87142857142857e+00 1.58751527397741e-02 1.45351451168609e-04
8.95714285714286e+00 1.57192002305868e-02 1.44617199869488e-04
9.04285714285714e+00 1.55647797497434e-02 1.43880068827630e-04
9.12857142857143e+00 1.54118762470809e-02 1.43140263671652e-04
9.21428571428571e+00 1.52604748204500e-02 1.42397984095359e-04
9.30000000000000e+00 1.51105607137632e-02 1.41653423883574e-04
9.38571428571429e+00 1.49621193162175e-02 1.40906771119792e-04
9.47142857142857e+00 1.48151361602233e-02 1.40158208362805e-04
9.55714285714286e+00 1.46695969206280e-02 1.39407912801380e-04
9.64285714285714e+00 1.45254874126993e-02 1.38656056453770e-04
9.72857142857143e+00 1.43827935912045e-02 1.37902806171511e-04
9.81428571428571e+00 1.42415015490316e-02 1.37148324001605e-04
9.90000000000000e+00 1.41015975153969e-02 1.36392767187040e-04
9.98571428571429e+00 1.39630678550817e-02 1.35636288234409e-04
1.00714285714286e+01 1.38258990669407e-02 1.34879035415427e-04
1.01571428571429e+01 1.36900777816515e-02 1.34121152523526e-04
1.02428571428571e+01 1.35555907617768e-02 1.33362778899364e-04
1.03285714285714e+01 1.34224248999170e-02 1.32604049887119e-04
1.04142857142857e+01 1.32905672174380e-02 1.31845096812583e-04
1.05000000000000e+01 1.31600048632031e-02 1.31086046792008e-04
1.05857142857143e+01 1.30307251135389e-02 1.30327023757501e-04
1.06714285714286e+01 1.29027153673102e-02 1.29568147946453e-04
1.07571428571429e+01 1.27759631484086e-02 1.28809535376776e-04
1.08428571428571e+01 1.26504561032870e-02 1.28051298888789e-04
1.09285714285714e+01 1.25261819997537e-02 1.27293547922321e-04
1.10142857142857e+01 1.24031287257839e-02 1.26536388608713e-04
1.11000000000000e+01 1.22812842883373e-02 1.25779923585224e-04
1.11857142857143e+01 1.21606368132645e-02 1.25024252914297e-04
1.12714285714286e+01 1.20411745408966e-02 1.24269473609196e-04
1.13571428571429e+01 1.19228858281801e-02 1.23515679147141e-04
1.14428571428571e+01 1.18057591464393e-02 1.22762960404892e-04
1.15285714285714e+01 1.16897830802505e-02 1.22011405446885e-04
1.16142857142857e+01 1.15749463263334e-02 1.21261099599509e-04
1.17000000000000e+01 1.14612376924471e-02 1.20512125273369e-04
1.17857142857143e+01 1.13486460972519e-02 1.19764562790372e-04
1.18714285714286e+01 1.12371605663486e-02 1.19018489944326e-04
1.19571428571429e+01 1.11267702341140e-02 1.18273981550488e-04
1.20428571428571e+01 1.10174643416652e-02 1.17531110288381e-04
1.21285714285714e+01 1.09092322358097e-02 1.16789946501991e-04
1.22142857142857e+01 1.08020633680099e-02 1.16050558260326e-04
1.23000000000000e+01 1.06959472933537e-02 1.15313011188816e-04
1.23857142857143e+01 1.05908736703814e-02 1.14577369215610e-04
1.24714285714286e+01 1.04868322575213e-02 1.13843694165420e-04
1.25571428571429e+01 1.03838129146698e-02 1.13112045343472e-04
1.26428571428571e+01 1.02818056013365e-02 1.12382480296823e-04
1.27285714285714e+01 1.01808003756641e-02 1.11655054626983e-04
1.28142857142857e+01 1.00807873934624e-02 1.10929822039663e-04
1.29000000000000e+01 9.98175690724698e-03 1.10206834185892e-04
1.29857142857143e+01 9.88369926604200e-03 1.09486141337093e-04
1.30714285714286e+01 9.78660491216391e-03 1.08767792010151e-04
1.31571428571429e+01 9.69046438258438e-03 1.08051832583606e-04
1.32428571428571e+01 9.59526830723682e-03 1.07338307986901e-04
1.33285714285714e+01 9.50100740810214e-03 1.06627261525346e-04
1.34142857142857e+01 9.40767249830653e-03 1.05918734921283e-04
1.35000000000000e+01 9.31525448122504e-03 1.05212768165033e-04
1.35857142857143e+01 9.22374435026587e-03 1.04509400126843e-04
1.36714285714286e+01 9.13313318596348e-03 1.03808668211075e-04
1.37571428571429e+01 9.04341215715515e-03 1.03110608002421e-04
1.38428571428571e+01 8.95457251943265e-03 1.02415253891117e-04
1.39285714285714e+01 8.86660561428915e-03 1.01722638909885e-04
1.40142857142857e+01 8.77950286827706e-03 1.01032794768200e-04
1.41000000000000e+01 8.69325579217157e-03 1.00345751712956e-04
1.41857142857143e+01 8.60785598074275e-03 9.96615390841676e-05
1.42714285714286e+01 8.52329511012325e-03 9.89801849961997e-05
1.43571428571429e+01 8.43956493882504e-03 9.83017160118023e-05
1.44428571428571e+01 8.35665730632180e-03 9.76261577101992e-05
1.45285714285714e+01 8.27456413225287e-03 9.69535345355070e-05
1.46142857142857e+01 8.19327741563721e-03 9.62838698254133e-05
1.47000000000000e+01 8.11278923409279e-03 9.56171856812192e-05
1.47857142857143e+01 8.03309174360121e-03 9.49535034732643e-05
1.48714285714286e+01 7.95417717612015e-03 9.42928435472052e-05
1.49571428571429e+01 7.87603784046249e-03 9.36352249237401e-05
1.50428571428571e+01 7.79866612099686e-03 9.29806658155618e-05
1.51285714285714e+01 7.72205447690479e-03 9.23291834866550e-05
1.52142857142857e+01 7.64619544144701e-03 9.16807942763771e-05
1.53000000000000e+01 7.57108162123510e-03 9.10355134784939e-05
1.53857142857143e+01 7.49670569599214e-03 9.03933558015302e-05
1.54714285714286e+01 7.42306041638397e-03 8.97543350981336e-05
1.55571428571429e+01 7.35013860477969e-03 8.91184640885061e-05
1.56428571428571e+01 7.27793315405917e-03 8.84857548314392e-05
1.57285714285714e+01 7.20643702691977e-03 8.78562185938463e-05
1.58142857142857e+01 7.13564325519165e-03 8.72298658710756e-05
1.59000000000000e+01 7.06554493915797e-03 8.66067062744507e-05
1.59857142857143e+01 6.99613524731473e-03 8.59867489510721e-05
1.60714285714286e+01 6.92740741439798e-03 8.53700023344868e-05
1.61571428571429e+01 6.85935474204186e-03 8.47564738899348e-05
1.62428571428571e+01 6.79197059768314e-03 8.41461705440464e-05
1.63285714285714e+01 6.72524841391428e-03 8.35390985639769e-05
1.64142857142857e+01 6.65918168784431e-03 8.29352635745689e-05
1.65000000000000e+01 6.59376398046460e-03 8.23346704539266e-05
1.65857142857143e+01 6.52898891640995e-03 8.17373237166461e-05
1.66714285714286e+01 6.46485018216193e-03 8.11432272840999e-05
1.67571428571429e+01 6.40134152661825e-03 8.05523842497792e-05
1.68428571428571e+01 6.33845676008543e-03 7.99647972716860e-05
1.69285714285714e+01 6.27618975367517e-03 7.93804684603949e-05
1.70142857142857e+01 6.21453443870782e-03 7.87993993936107e-05
1.71000000000000e+01 6.15348480612048e-03 7.82215910192813e-05
1.71857142857143e+01 6.09303490623139e-03 7.76470440057841e-05
1.72714285714286e+01 6.03317884710170e-03 7.70757585302551e-05
1.73571428571429e+01 5.97391079502798e-03 7.65077340624018e-05
1.74428571428571e+01 5.91522497361522e-03 7.59429697231711e-05
1.75285714285714e+01 5.85711566321352e-03 7.53814641811451e-05
1.76142857142857e+01 5.79957720036137e-03 7.48232156648943e-05
1.77000000000000e+01 5.74260397723327e-03 7.42682218731176e-05
1.77857142857143e+01 5.68619044140881e-03 7.37164802949450e-05
1.78714285714286e+01 5.63033109437729e-03 7.31679880148541e-05
1.79571428571429e+01 5.57502049196356e-03 7.26227415134669e-05
1.80428571428571e+01 5.52025324347431e-03 7.20807369956785e-05
1.81285714285714e+01 5.46602401117239e-03 7.15419702947729e-05
1.82142857142857e+01 5.41232750975715e-03 7.10064368829303e-05
1.83000000000000e+01 5.35915850584907e-03 7.04741317879394e-05
1.83857142857143e+01 5.30651181776457e-03 6.99450498863657e-05
1.84714285714286e+01 5.25438231414963e-03 6.94191857237398e-05
1.85571428571429e+01 5.20276491434782e-03 6.88965333309815e-05
1.86428571428571e+01 5.15165458761342e-03 6.83770865248001e-05
1.87285714285714e+01 5.10104635262091e-03 6.78608388189829e-05
1.88142857142857e+01 5.05093527697999e-03 6.73477834333387e-05
1.89000000000000e+01 5.00131647675457e-03 6.68379132165179e-05
1.89857142857143e+01 4.95218511624426e-03 6.63312209145580e-05
1.90714285714286e+01 4.90353640673470e-03 6.58276990051089e-05
1.91571428571429e+01 4.85536560681524e-03 6.53273395282068e-05
1.92428571428571e+01 4.80766802165338e-03 6.48301343614985e-05
1.93285714285714e+01 4.76043900253688e-03 6.43360751381766e-05
1.94142857142857e+01 4.71367394642123e-03 6.38451532545905e-05
1.95000000000000e+01 4.66736829548074e-03 6.33573597987368e-05
1.95857142857143e+01 4.62151753689724e-03 6.28726857964222e-05
1.96714285714286e+01 4.57611720171620e-03 6.23911220584011e-05
1.97571428571429e+01 4.53116286512068e-03 6.19126590243279e-05
1.98428571428571e+01 4.48665014576171e-03 6.14372870150958e-05
1.99285714285714e+01 4.44257470533111e-03 6.09649961569155e-05
2.00142857142857e+01 4.39893224813906e-03 6.04957763877895e-05
2.01000000000000e+01 4.35571852069522e-03 6.00296173912804e-05
2.01857142857143e+01 4.31292931150505e-03 5.95665088222760e-05
2.02714285714286e+01 4.27056045002190e-03 5.91064401660022e-05
2.03571428571429e+01 4.22860780688289e-03 5.86494005941239e-05
2.04428571428571e+01 4.18706729329072e-03 5.81953791962092e-05
2.05285714285714e+01 4.14593486061490e-03 5.77443649094994e-05
2.06142857142857e+01 4.10520649999763e-03 5.72963465244221e-05
2.07000000000000e+01 4.06487824196283e-03 5.68513126232366e-05
2.07857142857143e+01 4.02494615622035e-03 5.64092517872295e-05
2.08714285714286e+01 3.98540635070534e-03 5.59701524666430e-05
2.09571428571429e+01 3.94625497178094e-03 5.55340028479401e-05
2.10428571428571e+01 3.90748820366718e-03 5.51007910662457e-05
2.11285714285714e+01 3.86910226806896e-03 5.46705051403804e-05
2.12142857142857e+01 3.83109342380809e-03 5.42431329775472e-05
2.13000000000000e+01 3.79345796645855e-03 5.38186623164992e-05
2.13857142857143e+01 3.75619222815869e-03 5.33970809177947e-05
2.14714285714286e+01 3.71929257672995e-03 5.29783764437695e-05
2.15571428571429e+01 3.68275541585067e-03 5.25625363360552e-05
2.16428571428571e+01 3.64657718452834e-03 5.21495480106855e-05
2.17285714285714e+01 3.61075435675236e-03 5.17393987979881e-05
2.18142857142857e+01 3.57528344115068e-03 5.13320759465569e-05
2.19000000000000e+01 3.54016098064937e-03 5.09275665706139e-05
2.19857142857143e+01 3.50538355229300e-03 5.05258578247885e-05
2.20714285714286e+01 3.47094776643555e-03 5.01269367933391e-05
2.21571428571429e+01 3.43685026688912e-03 4.97307903771145e-05
2.22428571428571e+01 3.40308773043596e-03 4.93374054728100e-05
2.23285714285714e+01 3.36965686650443e-03 4.89467689173519e-05
2.24142857142857e+01 3.33655441684853e-03 4.85588674912647e-05
2.25000000000000e+01 3.30377715523025e-03 4.81736878699119e-05
2.25857142857143e+01 3.27132188724799e-03 4.77912167841355e-05
2.26714285714286e+01 3.23918544959334e-03 4.74114409179876e-05
2.27571428571429e+01 3.20736471017796e-03 4.70343468043804e-05
2.28428571428571e+01 3.17585656768214e-03 4.66599209898591e-05
2.29285714285714e+01 3.14465795125246e-03 4.62881499831389e-05
2.30142857142857e+01 3.11376582020267e-03 4.59190202579429e-05
2.31000000000000e+01 3.08317716371728e-03 4.55525182078424e-05
2.31857142857143e+01 3.05288900068798e-03 4.51886302939671e-05
2.32714285714286e+01 3.02289837903049e-03 4.48273429505616e-05
2.33571428571429e+01 2.99320237579242e-03 4.44686424886370e-05
2.34428571428571e+01 2.96379809673552e-03 4.41125152475032e-05
2.35285714285714e+01 2.93468267605357e-03 4.37589475471336e-05
2.36142857142857e+01 2.90585327609316e-03 4.34079256905549e-05
2.37000000000000e+01 2.87730708707712e-03 4.30594359220151e-05
2.37857142857143e+01 2.84904132694880e-03 4.27134645628520e-05
2.38714285714286e+01 2.82105324074375e-03 4.23699979242709e-05
2.39571428571429e+01 2.79334010068112e-03 4.20290222183601e-05
2.40428571428571e+01 2.76589920577688e-03 4.16905236974926e-05
2.41285714285714e+01 2.73872788158055e-03 4.13544886102393e-05
2.42142857142857e+01 2.71182347991467e-03 4.10209032033691e-05
2.43000000000000e+01 2.68518337861665e-03 4.06897536830945e-05
2.43857142857143e+01 2.65880498139073e-03 4.03610263400993e-05
2.44714285714286e+01 2.63268571722988e-03 4.00347074689668e-05
2.45571428571429e+01 2.60682304049277e-03 3.97107832859767e-05
2.46428571428571e+01 2.58121443054561e-03 3.93892400573945e-05
2.47285714285714e+01 2.55585739151645e-03 3.90700640586671e-05
2.48142857142857e+01 2.53074945205208e-03 3.87532415760848e-05
2.49000000000000e+01 2.50588816507708e-03 3.84387588708755e-05
2.49857142857143e+01 2.48127110765325e-03 3.81266022943017e-05
2.50714285714286e+01 2.45689588044747e-03 3.78167582132058e-05
2.51571428571429e+01 2.43276010779608e-03 3.75092129340667e-05
2.52428571428571e+01 2.40886143737317e-03 3.72039528211034e-05
2.53285714285714e+01 2.38519753996130e-03 3.69009642584924e-05
2.54142857142857e+01 2.36176610922457e-03 3.66002336517499e-05
2.55000000000000e+01 2.33856486148380e-03 3.63017473944585e-05
2.55857142857143e+01 2.31559153558319e-03 3.60054919742559e-05
2.56714285714286e+01 2.29284389240022e-03 3.57114539040267e-05
2.57571428571429e+01 2.27031971489915e-03 3.54196196517138e-05
2.58428571428571e+01 2.24801680782371e-03 3.51299757490905e-05
2.59285714285714e+01 2.22593299748308e-03 3.48425087567756e-05
2.60142857142857e+01 2.20406613154013e-03 3.45572052653642e-05
2.61000000000000e+01 2.18241407880163e-03 3.42740518645979e-05
2.61857142857143e+01 2.16097472909188e-03 3.39930352409927e-05
2.62714285714286e+01 2.13974599280110e-03 3.37141421142371e-05
2.63571428571429e+01 2.11872580092960e-03 3.34373591723143e-05
2.64428571428571e+01 2.09791210480286e-03 3.31626731717053e-05
2.65285714285714e+01 2.07730287587185e-03 3.28900709049909e-05
2.66142857142857e+01 2.05689610551540e-03 3.26195392017679e-05
2.67000000000000e+01 2.03668980484443e-03 3.23510649000807e-05
2.67857142857143e+01 2.01668200458230e-03 3.20846349363764e-05
2.68714285714286e+01 1.99687075464850e-03 3.18202362866999e-05
2.69571428571429e+01 1.97725412419469e-03 3.15578559067168e-05
2.70428571428571e+01 1.95783020134055e-03 3.12974808240481e-05
