Energy (eV)          EEDF (eV^-(3/2))     First Anisotropy
3.35000000000000e-02 1.46737318634483e-01 1.22320321914689e-04
1.00500000000000e-01 1.44220777339310e-01 2.00929078674792e-04
1.67500000000000e-01 1.41747394663627e-01 2.62464848122340e-04
2.34500000000000e-01 1.39316430438152e-01 3.07553775149710e-04
3.01500000000000e-01 1.36927157187530e-01 3.43809060068601e-04
3.68500000000000e-01 1.34578859912597e-01 3.74155236949336e-04
4.35500000000000e-01 1.32270835876406e-01 4.00128657002009e-04
5.02500000000000e-01 1.30002394393934e-01 4.22670622569962e-04
5.69500000000000e-01 1.27772856625386e-01 4.42414273752864e-04
6.36500000000000e-01 1.25581555373055e-01 4.59813266982172e-04
7.03500000000000e-01 1.23427834881656e-01 4.75207909651319e-04
7.70500000000000e-01 1.21311050642093e-01 4.88862536175931e-04
8.37500000000000e-01 1.19230569198583e-01 5.00988173212294e-04
9.04500000000000e-01 1.17185767959092e-01 5.11757055232592e-04
9.71500000000000e-01 1.15176035009027e-01 5.21312335699361e-04
1.03850000000000e+00 1.13200768928114e-01 5.29774820793437e-04
1.10550000000000e+00 1.11259378610418e-01 5.37247780430462e-04
1.17250000000000e+00 1.09351283087461e-01 5.43820474078320e-04
1.23950000000000e+00 1.07475911354356e-01 5.49570791879702e-04
1.30650000000000e+00 1.05632702198937e-01 5.54567271128973e-04
1.37350000000000e+00 1.03821104033812e-01 5.58870661843567e-04
1.44050000000000e+00 1.02040574731298e-01 5.62535160439745e-04
1.50750000000000e+00 1.00290581461189e-01 5.65609394847666e-04
1.57450000000000e+00 9.85706005313036e-02 5.68137220573613e-04
1.64150000000000e+00 9.68801172307675e-02 5.70158370954507e-04
1.70850000000000e+00 9.52186256759852e-02 5.71708993531642e-04
1.77550000000000e+00 9.35856286592518e-02 5.72822096454546e-04
1.84250000000000e+00 9.19806374999620e-02 5.73527923057313e-04
1.90950000000000e+00 9.04031718983707e-02 5.73854268537671e-04
1.97650000000000e+00 8.88527597918609e-02 5.73826749552789e-04
2.04350000000000e+00 8.73289372136778e-02 5.73469035211625e-04
2.11050000000000e+00 8.58312481540847e-02 5.72803046175567e-04
2.17750000000000e+00 8.43592444239000e-02 5.71849127225825e-04
2.24450000000000e+00 8.29124855203755e-02 5.70626197610149e-04
2.31150000000000e+00 8.14905384953740e-02 5.69151882666014e-04
2.37850000000000e+00 8.00929778258076e-02 5.67442629575838e-04
2.44550000000000e+00 7.87193852862988e-02 5.65513809601537e-04
2.51250000000000e+00 7.73693498240246e-02 5.63379808739883e-04
2.57950000000000e+00 7.60424674357076e-02 5.61054108413588e-04
2.64650000000000e+00 7.47383410467164e-02 5.58549357549070e-04
2.71350000000000e+00 7.34565803922393e-02 5.55877437176844e-04
2.78050000000000e+00 7.21968019004963e-02 5.53049518514098e-04
2.84750000000000e+00 7.09586285779537e-02 5.50076115344284e-04
2.91450000000000e+00 6.97416898965074e-02 5.46967131388353e-04
2.98150000000000e+00 6.85456216826009e-02 5.43731903262198e-04
3.04850000000000e+00 6.73700660082448e-02 5.40379239531679e-04
3.11550000000000e+00 6.62146710839058e-02 5.36917456306314e-04
3.18250000000000e+00 6.50790911532322e-02 5.33354409753641e-04
3.24950000000000e+00 6.39629863895848e-02 5.29697525866294e-04
3.31650000000000e+00 6.28660227943429e-02 5.25953827771165e-04
3.38350000000000e+00 6.17878720969535e-02 5.22129960833848e-04
3.45050000000000e+00 6.07282116566953e-02 5.18232215780578e-04
3.51750000000000e+00 5.96867243661271e-02 5.14266550032920e-04
3.58450000000000e+00 5.86630985561924e-02 5.10238607427771e-04
3.65150000000000e+00 5.76570279029512e-02 5.06153736475212e-04
3.71850000000000e+00 5.66682113359111e-02 5.02017007289499e-04
3.78550000000000e+00 5.56963529479311e-02 4.97833227313505e-04
3.85250000000000e+00 5.47411619066702e-02 4.93606955943838e-04
3.91950000000000e+00 5.38023523675546e-02 4.89342518152537e-04
3.98650000000000e+00 5.28796433882379e-02 4.85044017191007e-04
4.05350000000000e+00 5.19727588445275e-02 4.80715346453247e-04
4.12050000000000e+00 5.10814273477540e-02 4.76360200567562e-04
4.18750000000000e+00 5.02053821635566e-02 4.71982085779079e-04
4.25450000000000e+00 4.93443611320620e-02 4.67584329679358e-04
4.32150000000000e+00 4.84981065894324e-02 4.63170090334068e-04
4.38850000000000e+00 4.76663652907579e-02 4.58742364854751e-04
4.45550000000000e+00 4.68488883342726e-02 4.54303997456581e-04
4.52250000000000e+00 4.60454310868696e-02 4.49857687040153e-04
4.58950000000000e+00 4.52557531108935e-02 4.45405994331967e-04
4.65650000000000e+00 4.44796180921885e-02 4.40951348615209e-04
4.72350000000000e+00 4.37167937693808e-02 4.36496054079668e-04
4.79050000000000e+00 4.29670518643731e-02 4.32042295817280e-04
4.85750000000000e+00 4.22301680140317e-02 4.27592145487383e-04
4.92450000000000e+00 4.15059217030451e-02 4.23147566673988e-04
4.99150000000000e+00 4.07940961979337e-02 4.18710419955429e-04
5.05850000000000e+00 4.00944784821915e-02 4.14282467705138e-04
5.12550000000000e+00 3.94068591925404e-02 4.09865378640849e-04
5.19250000000000e+00 3.87310325562769e-02 4.05460732138151e-04
5.25950000000000e+00 3.80667963296944e-02 4.01070022323167e-04
5.32650000000000e+00 3.74139517375607e-02 3.96694661957939e-04
5.39350000000000e+00 3.67723034136337e-02 3.92335986131085e-04
5.46050000000000e+00 3.61416593421975e-02 3.87995255765437e-04
5.52750000000000e+00 3.55218308006009e-02 3.83673660953533e-04
5.59450000000000e+00 3.49126323027811e-02 3.79372324130925e-04
5.66150000000000e+00 3.43138815437569e-02 3.75092303096730e-04
5.72850000000000e+00 3.37253993450728e-02 3.70834593890097e-04
5.79550000000000e+00 3.31470096011793e-02 3.66600133530709e-04
5.86250000000000e+00 3.25785392267324e-02 3.62389802630853e-04
5.92950000000000e+00 3.20198181047976e-02 3.58204427886149e-04
5.99650000000000e+00 3.14706790359415e-02 3.54044784451455e-04
6.06350000000000e+00 3.09309576881967e-02 3.49911598208215e-04
6.13050000000000e+00 3.04004925478848e-02 3.45805547928928e-04
6.19750000000000e+00 2.98791248712830e-02 3.41727267344139e-04
6.26450000000000e+00 2.93666986371192e-02 3.37677347117075e-04
6.33150000000000e+00 2.88630604998823e-02 3.33656336730618e-04
6.39850000000000e+00 2.83680597439328e-02 3.29664746291070e-04
6.46550000000000e+00 2.78815482384004e-02 3.25703048252929e-04
6.53250000000000e+00 2.74033803928558e-02 3.21771679068601e-04
6.59950000000000e+00 2.69334131137417e-02 3.17871040766722e-04
6.66650000000000e+00 2.64715057615515e-02 3.14001502462609e-04
6.73350000000000e+00 2.60175201087430e-02 3.10163401804131e-04
6.80050000000000e+00 2.55713202983724e-02 3.06357046356063e-04
6.86750000000000e+00 2.51327728034394e-02 3.02582714925879e-04
6.93450000000000e+00 2.47017463869282e-02 2.98840658833722e-04
7.00150000000000e+00 2.42781120625344e-02 2.95131103129166e-04
7.06850000000000e+00 2.38617430560657e-02 2.91454247757228e-04
7.13550000000000e+00 2.34525147675037e-02 2.87810268675978e-04
7.20250000000000e+00 2.30503047337175e-02 2.84199318927943e-04
7.26950000000000e+00 2.26549925918154e-02 2.80621529667359e-04
7.33650000000000e+00 2.22664600431265e-02 2.77077011145307e-04
7.40350000000000e+00 2.18845908177991e-02 2.73565853654577e-04
7.47050000000000e+00 2.15092706400063e-02 2.70088128436027e-04
7.53750000000000e+00 2.11403871937491e-02 2.66643888548155e-04
7.60450000000000e+00 2.07778300892447e-02 2.63233169701473e-04
7.67150000000000e+00 2.04214908298925e-02 2.59855991059201e-04
7.73850000000000e+00 2.00712627798056e-02 2.56512356005706e-04
7.80550000000000e+00 1.97270411319000e-02 2.53202252884117e-04
7.87250000000000e+00 1.93887228765307e-02 2.49925655704385e-04
7.93950000000000e+00 1.90562067706653e-02 2.46682524823005e-04
8.00650000000000e+00 1.87293933075868e-02 2.43472807595678e-04
8.07350000000000e+00 1.84081846871160e-02 2.40296439003941e-04
8.14050000000000e+00 1.80924847863442e-02 2.37153342256902e-04
8.20750000000000e+00 1.77821991308683e-02 2.34043429369055e-04
8.27450000000000e+00 1.74772348665187e-02 2.30966601715221e-04
8.34150000000000e+00 1.71775007315724e-02 2.27922750563494e-04
8.40850000000000e+00 1.68829070294428e-02 2.24911757587090e-04
8.47550000000000e+00 1.65933656018372e-02 2.21933495355963e-04
8.54250000000000e+00 1.63087898023758e-02 2.18987827808988e-04
8.60950000000000e+00 1.60290944706617e-02 2.16074610707506e-04
8.67650000000000e+00 1.57541959067968e-02 2.13193692070934e-04
8.74350000000000e+00 1.54840118463340e-02 2.10344912595180e-04
8.81050000000000e+00 1.52184614356594e-02 2.07528106054527e-04
8.87750000000000e+00 1.49574652077968e-02 2.04743099687650e-04
8.94450000000000e+00 1.47009450586262e-02 2.01989714568357e-04
9.01150000000000e+00 1.44488242235117e-02 1.99267765961668e-04
9.07850000000000e+00 1.42010272543285e-02 1.96577063665791e-04
9.14550000000000e+00 1.39574799968857e-02 1.93917412340556e-04
9.21250000000000e+00 1.37181095687345e-02 1.91288611822811e-04
9.27950000000000e+00 1.34828443373586e-02 1.88690457429266e-04
9.34650000000000e+00 1.32516138987372e-02 1.86122740247309e-04
9.41350000000000e+00 1.30243490562769e-02 1.83585247414218e-04
9.48050000000000e+00 1.28009818001042e-02 1.81077762385194e-04
9.54750000000000e+00 1.25814452867128e-02 1.78600065190687e-04
9.61450000000000e+00 1.23656738189613e-02 1.76151932683388e-04
9.68150000000000e+00 1.21536028264123e-02 1.73733138775267e-04
9.74850000000000e+00 1.19451688460099e-02 1.71343454665065e-04
9.81550000000000e+00 1.17403095030880e-02 1.68982649056557e-04
9.88250000000000e+00 1.15389634927045e-02 1.66650488367963e-04
9.94950000000000e+00 1.13410705612952e-02 1.64346736932824e-04
1.00165000000000e+01 1.11465714886435e-02 1.62071157192660e-04
1.00835000000000e+01 1.09554080701575e-02 1.59823509881710e-04
1.01505000000000e+01 1.07675230994530e-02 1.57603554204066e-04
1.02175000000000e+01 1.05828603512335e-02 1.55411048003465e-04
1.02845000000000e+01 1.04013645644651e-02 1.53245747926024e-04
1.03515000000000e+01 1.02229814258392e-02 1.51107409576141e-04
1.04185000000000e+01 1.00476575535191e-02 1.48995787665880e-04
1.04855000000000e+01 9.87534048116519e-03 1.46910636158036e-04
1.05525000000000e+01 9.70597864223420e-03 1.44851708403094e-04
1.06195000000000e+01 9.53952135454789e-03 1.42818757270358e-04
1.06865000000000e+01 9.37591880512602e-03 1.40811535273431e-04
1.07535000000000e+01 9.21512203527973e-03 1.38829794690257e-04
1.08205000000000e+01 9.05708292596041e-03 1.36873287677917e-04
1.08875000000000e+01 8.90175418335992e-03 1.34941766382401e-04
1.09545000000000e+01 8.74908932475775e-03 1.33034983043513e-04
1.10215000000000e+01 8.59904266461084e-03 1.31152690095081e-04
1.10885000000000e+01 8.45156930088206e-03 1.29294640260674e-04
1.11555000000000e+01 8.30662510160306e-03 1.27460586644968e-04
1.12225000000000e+01 8.16416669166764e-03 1.25650282820923e-04
1.12895000000000e+01 8.02415143985156e-03 1.23863482912921e-04
1.13565000000000e+01 7.88653744605501e-03 1.22099941676035e-04
1.14235000000000e+01 7.75128352876382e-03 1.20359414571540e-04
1.14905000000000e+01 7.61834921272575e-03 1.18641657838828e-04
1.15575000000000e+01 7.48769471683810e-03 1.16946428563840e-04
1.16245000000000e+01 7.35928094224308e-03 1.15273484744159e-04
1.16915000000000e+01 7.23306946062733e-03 1.13622585350878e-04
1.17585000000000e+01 7.10902250272206e-03 1.11993490387361e-04
1.18255000000000e+01 6.98710294700052e-03 1.10385960945014e-04
1.18925000000000e+01 6.86727430856917e-03 1.08799759256178e-04
1.19595000000000e+01 6.74950072824950e-03 1.07234648744251e-04
1.20265000000000e+01 6.63374696184697e-03 1.05690394071134e-04
1.20935000000000e+01 6.51997836960411e-03 1.04166761182102e-04
1.21605000000000e+01 6.40816090583440e-03 1.02663517348206e-04
1.22275000000000e+01 6.29826110873398e-03 1.01180431206291e-04
1.22945000000000e+01 6.19024609036808e-03 9.97172727967057e-05
1.23615000000000e+01 6.08408352682918e-03 9.82738135988162e-05
1.24285000000000e+01 5.97974164856396e-03 9.68498265643906e-05
1.24955000000000e+01 5.87718923086612e-03 9.54450861489284e-05
1.25625000000000e+01 5.77639558453228e-03 9.40593683410245e-05
1.26295000000000e+01 5.67733054667815e-03 9.26924506898465e-05
1.26965000000000e+01 5.57996447171211e-03 9.13441123307735e-05
1.27635000000000e+01 5.48426822246369e-03 9.00141340092828e-05
1.28305000000000e+01 5.39021316146416e-03 8.87022981031604e-05
1.28975000000000e+01 5.29777114237666e-03 8.74083886430779e-05
1.29645000000000e+01 5.20691450157328e-03 8.61321913316131e-05
1.30315000000000e+01 5.11761604985663e-03 8.48734935607704e-05
1.30985000000000e+01 5.02984906432338e-03 8.36320844280534e-05
1.31655000000000e+01 4.94358728036730e-03 8.24077547511592e-05
1.32325000000000e+01 4.85880488381950e-03 8.12002970813400e-05
1.32995000000000e+01 4.77547650322341e-03 8.00095057154768e-05
1.33665000000000e+01 4.69357720224234e-03 7.88351767069321e-05
1.34335000000000e+01 4.61308247219710e-03 7.76771078752195e-05
1.35005000000000e+01 4.53396822473175e-03 7.65350988145404e-05
1.35675000000000e+01 4.45621078460503e-03 7.54089509012307e-05
1.36345000000000e+01 4.37978688260549e-03 7.42984673001703e-05
1.37015000000000e+01 4.30467364858804e-03 7.32034529701830e-05
1.37685000000000e+01 4.23084860463001e-03 7.21237146684740e-05
1.38355000000000e+01 4.15828965830453e-03 7.10590609541578e-05
1.39025000000000e+01 4.08697509606931e-03 7.00093021908933e-05
1.39695000000000e+01 4.01688357676874e-03 6.89742505486766e-05
1.40365000000000e+01 3.94799412524748e-03 6.79537200048214e-05
1.41035000000000e+01 3.88028612607360e-03 6.69475263441613e-05
1.41705000000000e+01 3.81373931736927e-03 6.59554871585135e-05
1.42375000000000e+01 3.74833378474740e-03 6.49774218454299e-05
1.43045000000000e+01 3.68404995535208e-03 6.40131516062623e-05
1.43715000000000e+01 3.62086859200142e-03 6.30624994435857e-05
1.44385000000000e+01 3.55877078743069e-03 6.21252901579950e-05
1.45055000000000e+01 3.49773795863430e-03 6.12013503443052e-05
1.45725000000000e+01 3.43775184130469e-03 6.02905083871890e-05
1.46395000000000e+01 3.37879448436676e-03 5.93925944562711e-05
1.47065000000000e+01 3.32084824460586e-03 5.85074405007076e-05
1.47735000000000e+01 3.26389578138803e-03 5.76348802432704e-05
1.48405000000000e+01 3.20792005147075e-03 5.67747491739611e-05
1.49075000000000e+01 3.15290430390267e-03 5.59268845431851e-05
1.49745000000000e+01 3.09883207501084e-03 5.50911253544978e-05
1.50415000000000e+01 3.04568718347388e-03 5.42673123569399e-05
1.51085000000000e+01 2.99345372547966e-03 5.34552880369993e-05
1.51755000000000e+01 2.94211606996602e-03 5.26548966102028e-05
1.52425000000000e+01 2.89165885394312e-03 5.18659840123607e-05
1.53095000000000e+01 2.84206697789603e-03 5.10883978904902e-05
1.53765000000000e+01 2.79332560126608e-03 5.03219875934220e-05
1.54435000000000e+01 2.74542013800984e-03 4.95666041621155e-05
1.55105000000000e+01 2.69833625223413e-03 4.88221003197002e-05
1.55775000000000e+01 2.65205985390598e-03 4.80883304612502e-05
1.56445000000000e+01 2.60657709463615e-03 4.73651506433143e-05
1.57115000000000e+01 2.56187436353489e-03 4.66524185732191e-05
1.57785000000000e+01 2.51793828313889e-03 4.59499935981475e-05
1.58455000000000e+01 2.47475570540799e-03 4.52577366940128e-05
1.59125000000000e+01 2.43231370779057e-03 4.45755104541475e-05
1.59795000000000e+01 2.39059958935647e-03 4.39031790778104e-05
1.60465000000000e+01 2.34960086699615e-03 4.32406083585238e-05
1.61135000000000e+01 2.30930527168506e-03 4.25876656722576e-05
1.61805000000000e+01 2.26970074481214e-03 4.19442199654732e-05
1.62475000000000e+01 2.23077543457119e-03 4.13101417430283e-05
1.63145000000000e+01 2.19251769241419e-03 4.06853030559614e-05
1.63815000000000e+01 2.15491606956543e-03 4.00695774891650e-05
1.64485000000000e+01 2.11795931359539e-03 3.94628401489537e-05
1.65155000000000e+01 2.08163636505345e-03 3.88649676505387e-05
1.65825000000000e+01 2.04593635415829e-03 3.82758381054178e-05
1.66495000000000e+01 2.01084859754506e-03 3.76953311086881e-05
1.67165000000000e+01 1.97636259506833e-03 3.71233277262925e-05
1.67835000000000e+01 1.94246802665993e-03 3.65597104822018e-05
1.68505000000000e+01 1.90915474924056e-03 3.60043633455459e-05
1.69175000000000e+01 1.87641279368451e-03 3.54571717177021e-05
1.69845000000000e+01 1.84423236183630e-03 3.49180224193428e-05
1.70515000000000e+01 1.81260382357858e-03 3.43868036774512e-05
1.71185000000000e+01 1.78151771395025e-03 3.38634051123115e-05
1.71855000000000e+01 1.75096473031408e-03 3.33477177244799e-05
1.72525000000000e+01 1.72093572957280e-03 3.28396338817445e-05
1.73195000000000e+01 1.69142172543306e-03 3.23390473060753e-05
1.73865000000000e+01 1.66241388571620e-03 3.18458530605744e-05
1.74535000000000e+01 1.63390352971518e-03 3.13599475364275e-05
1.75205000000000e+01 1.60588212559690e-03 3.08812284398642e-05
1.75875000000000e+01 1.57834128784896e-03 3.04095947791344e-05
1.76545000000000e+01 1.55127277477029e-03 2.99449468514969e-05
1.77215000000000e+01 1.52466848600478e-03 2.94871862302347e-05
1.77885000000000e+01 1.49852046011723e-03 2.90362157516959e-05
1.78555000000000e+01 1.47282087221085e-03 2.85919395023618e-05
1.79225000000000e+01 1.44756203158563e-03 2.81542628059538e-05
1.79895000000000e+01 1.42273637943687e-03 2.77230922105757e-05
1.80565000000000e+01 1.39833648659318e-03 2.72983354758971e-05
1.81235000000000e+01 1.37435505129327e-03 2.68799015603827e-05
1.81905000000000e+01 1.35078489700086e-03 2.64677006085701e-05
1.82575000000000e+01 1.32761897025712e-03 2.60616439383961e-05
1.83245000000000e+01 1.30485033856981e-03 2.56616440285782e-05
1.83915000000000e+01 1.28247218833880e-03 2.52676145060546e-05
1.84585000000000e+01 1.26047782281701e-03 2.48794701334829e-05
1.85255000000000e+01 1.23886066010641e-03 2.44971267967970e-05
1.85925000000000e+01 1.21761423118833e-03 2.41205014928311e-05
1.86595000000000e+01 1.19673217798765e-03 2.37495123170105e-05
1.87265000000000e+01 1.17620825147003e-03 2.33840784511099e-05
1.87935000000000e+01 1.15603630977195e-03 2.30241201510823e-05
1.88605000000000e+01 1.13621031636268e-03 2.26695587349615e-05
1.89275000000000e+01 1.11672433823782e-03 2.23203165708347e-05
1.89945000000000e+01 1.09757254414387e-03 2.19763170648966e-05
1.90615000000000e+01 1.07874920283317e-03 2.16374846495768e-05
1.91285000000000e+01 1.06024868134882e-03 2.13037447717477e-05
1.91955000000000e+01 1.04206544333896e-03 2.09750238810133e-05
1.92625000000000e+01 1.02419404740007e-03 2.06512494180773e-05
1.93295000000000e+01 1.00662914544852e-03 2.03323498031975e-05
1.93965000000000e+01 9.89365481120205e-04 2.00182544247215e-05
1.94635000000000e+01 9.72397888197520e-04 1.97088936277089e-05
1.95305000000000e+01 9.55721289063362e-04 1.94041987026380e-05
1.95975000000000e+01 9.39330693181635e-04 1.91041018742008e-05
1.96645000000000e+01 9.23221195603809e-04 1.88085362901859e-05
1.97315000000000e+01 9.07387975501098e-04 1.85174360104503e-05
1.97985000000000e+01 8.91826294721807e-04 1.82307359959787e-05
1.98655000000000e+01 8.76531496373422e-04 1.79483720980336e-05
1.99325000000000e+01 8.61499003429019e-04 1.76702810473973e-05
1.99995000000000e+01 8.46724317357566e-04 1.73964004437032e-05
2.00665000000000e+01 8.32203016777729e-04 1.71266687448583e-05
2.01335000000000e+01 8.17930756134750e-04 1.68610252565605e-05
2.02005000000000e+01 8.03903264400022e-04 1.65994101219046e-05
2.02675000000000e+01 7.90116343792975e-04 1.63417643110827e-05
2.03345000000000e+01 7.76565868524867e-04 1.60880296111780e-05
2.04015000000000e+01 7.63247783564128e-04 1.58381486160500e-05
2.04685000000000e+01 7.50158103422877e-04 1.55920647163140e-05
2.05355000000000e+01 7.37292910964250e-04 1.53497220894142e-05
2.06025000000000e+01 7.24648356230181e-04 1.51110656897898e-05
2.06695000000000e+01 7.12220655289286e-04 1.48760412391341e-05
2.07365000000000e+01 7.00006089104509e-04 1.46445952167476e-05
2.08035000000000e+01 6.88001002420185e-04 1.44166748499850e-05
2.08705000000000e+01 6.76201802668191e-04 1.41922281047947e-05
2.09375000000000e+01 6.64604958892857e-04 1.39712036763514e-05
2.10045000000000e+01 6.53207000694312e-04 1.37535509797839e-05
2.10715000000000e+01 6.42004517189956e-04 1.35392201409940e-05
2.11385000000000e+01 6.30994155993738e-04 1.33281619875681e-05
