Energy (eV)          EEDF (eV^-(3/2))     First Anisotropy
1.63571428571429e-03 2.30462905095131e+01 2.05723710859127e-02
4.90714285714286e-03 2.24851490392582e+01 3.36704568671534e-02
8.17857142857143e-03 2.19376704944977e+01 4.36601122907118e-02
1.14500000000000e-02 2.14035222041513e+01 5.07857943094398e-02
1.47214285714286e-02 2.08823795964575e+01 5.63567564301342e-02
1.79928571428571e-02 2.03739260032110e+01 6.08818703636608e-02
2.12642857142857e-02 1.98778524690209e+01 6.46313606869926e-02
2.45357142857143e-02 1.93938575563551e+01 6.77724509311778e-02
2.78071428571429e-02 1.89216471695503e+01 7.04186579178668e-02
3.10785714285714e-02 1.84609343750570e+01 7.26520037105089e-02
3.43500000000000e-02 1.80114392230217e+01 7.45344832365469e-02
3.76214285714286e-02 1.75728885812822e+01 7.61145748620221e-02
4.08928571428571e-02 1.71450159680146e+01 7.74312068548646e-02
4.41642857142857e-02 1.67275613906232e+01 7.85163095521636e-02
4.74357142857143e-02 1.63202711852558e+01 7.93965308727480e-02
5.07071428571429e-02 1.59228978652174e+01 8.00944316053472e-02
5.39785714285714e-02 1.55351999703426e+01 8.06293438632446e-02
5.72500000000000e-02 1.51569419184156e+01 8.10180032049243e-02
6.05214285714286e-02 1.47878938639037e+01 8.12750245941857e-02
6.37928571428571e-02 1.44278315576552e+01 8.14132677912456e-02
6.70642857142857e-02 1.40765362110752e+01 8.14441225371354e-02
7.03357142857143e-02 1.37337943618367e+01 8.13777344277946e-02
7.36071428571429e-02 1.33993977455390e+01 8.12231862356093e-02
7.68785714285714e-02 1.30731431690503e+01 8.09886453935112e-02
8.01500000000000e-02 1.27548323859640e+01 8.06814849874961e-02
8.34214285714286e-02 1.24442719772266e+01 8.03083841203858e-02
8.66928571428571e-02 1.21412732332383e+01 7.98754119703870e-02
8.99642857142857e-02 1.18456520394567e+01 7.93880987034377e-02
9.32357142857143e-02 1.15572287636906e+01 7.88514957057735e-02
9.65071428571429e-02 1.12758281477922e+01 7.82702271213343e-02
9.97785714285714e-02 1.10012792011046e+01 7.76485343948088e-02
1.03050000000000e-01 1.07334150952269e+01 7.69903145613192e-02
1.06321428571429e-01 1.04720730665193e+01 7.62991540678475e-02
1.09592857142857e-01 1.02170943105082e+01 7.55783579367249e-02
1.12864285714286e-01 9.96832389321118e+00 7.48309756363567e-02
1.16135714285714e-01 9.72561064943184e+00 7.40598240549986e-02
1.19407142857143e-01 9.48880709642486e+00 7.32675073291854e-02
1.22678571428571e-01 9.25776934398797e+00 7.24564354825613e-02
1.25950000000000e-01 9.03235700226408e+00 7.16288401801376e-02
1.29221428571429e-01 8.81243310265504e+00 7.07867892436467e-02
1.32492857142857e-01 8.59786400871906e+00 6.99321997177782e-02
1.35764285714286e-01 8.38851934052038e+00 6.90668495608108e-02
1.39035714285714e-01 8.18427189015112e+00 6.81923883880236e-02
1.42307142857143e-01 7.98499754828480e+00 6.73103467830251e-02
1.45578571428571e-01 7.79057522856766e+00 6.64221455229527e-02
1.48850000000000e-01 7.60088679068604e+00 6.55291032832469e-02
1.52121428571429e-01 7.41581697297257e+00 6.46324439786120e-02
1.55392857142857e-01 7.23525331819790e+00 6.37333034864650e-02
1.58664285714286e-01 7.05908610919828e+00 6.28327357375595e-02
1.61935714285714e-01 6.88720829844134e+00 6.19317184399162e-02
1.65207142857143e-01 6.71951544574682e+00 6.10311580082056e-02
1.68478571428571e-01 6.55590565468871e+00 6.01318947009450e-02
1.71750000000000e-01 6.39627950825085e+00 5.92347068108227e-02
1.75021428571429e-01 6.24054001160210e+00 5.83403147782011e-02
1.78292857142857e-01 6.08859253012326e+00 5.74493850017363e-02
1.81564285714286e-01 5.94034473479619e+00 5.65625333126249e-02
1.84835714285714e-01 5.79570654334137e+00 5.56803282994676e-02
1.88107142857143e-01 5.65459006751222e+00 5.48032941314091e-02
1.91378571428571e-01 5.51690955959337e+00 5.39319136527384e-02
1.94650000000000e-01 5.38258135850481e+00 5.30666308273662e-02
1.97921428571429e-01 5.25152384132033e+00 5.22078532073887e-02
2.01192857142857e-01 5.12365737142018e+00 5.13559542372904e-02
2.04464285714286e-01 4.99890425225105e+00 5.05112753599084e-02
2.07735714285714e-01 4.87718867805782e+00 4.96741280636129e-02
2.11007142857143e-01 4.75843668933766e+00 4.88447955856599e-02
2.14278571428571e-01 4.64257612782799e+00 4.80235348788268e-02
2.17550000000000e-01 4.52953659131726e+00 4.72105781052162e-02
2.20821428571429e-01 4.41924939263210e+00 4.64061341879856e-02
2.24092857142857e-01 4.31164751620831e+00 4.56103902670362e-02
2.27364285714286e-01 4.20666557899002e+00 4.48235130288633e-02
2.30635714285714e-01 4.10423978914716e+00 4.40456500178778e-02
2.33907142857143e-01 4.00430790845975e+00 4.32769306995113e-02
2.37178571428571e-01 3.90680921444646e+00 4.25174677569353e-02
2.40450000000000e-01 3.81168446244850e+00 4.17673580315907e-02
2.43721428571429e-01 3.71887585097125e+00 4.10266835294571e-02
2.46992857142857e-01 3.62832698527489e+00 4.02955123680472e-02
2.50264285714286e-01 3.53998284434140e+00 3.95738996391095e-02
2.53535714285714e-01 3.45378974625612e+00 3.88618882711193e-02
2.56807142857143e-01 3.36969531646463e+00 3.81595097064048e-02
2.60078571428571e-01 3.28764845590786e+00 3.74667847780877e-02
2.63350000000000e-01 3.20759930919199e+00 3.67837243126080e-02
2.66621428571429e-01 3.12949923532229e+00 3.61103297955294e-02
2.69892857142857e-01 3.05330077715902e+00 3.54465939992409e-02
2.73164285714286e-01 2.97895763352974e+00 3.47925015519397e-02
2.76435714285714e-01 2.90642463018223e+00 3.41480295145397e-02
2.79707142857143e-01 2.83565769300991e+00 3.35131478159542e-02
2.82978571428571e-01 2.76661382124011e+00 3.28878198563432e-02
2.86250000000000e-01 2.69925106070259e+00 3.22720028957304e-02
2.89521428571429e-01 2.63352847913084e+00 3.16656484996560e-02
2.92792857142857e-01 2.56940614052565e+00 3.10687029595839e-02
2.96064285714286e-01 2.50684508162364e+00 3.04811076712052e-02
2.99335714285714e-01 2.44580728751388e+00 2.99027995238747e-02
3.02607142857143e-01 2.38625566906238e+00 2.93337111801201e-02
3.05878571428571e-01 2.32815404035177e+00 2.87737714950989e-02
3.09150000000000e-01 2.27146709622493e+00 2.82229057663934e-02
3.12421428571429e-01 2.21616039144999e+00 2.76810360335831e-02
3.15692857142857e-01 2.16220031919485e+00 2.71480813607101e-02
3.18964285714286e-01 2.10955409117948e+00 2.66239580878963e-02
3.22235714285714e-01 2.05818971720013e+00 2.61085800948904e-02
3.25507142857143e-01 2.00807598609986e+00 2.56018589783084e-02
3.28778571428571e-01 1.95918244678522e+00 2.51037043449402e-02
3.32050000000000e-01 1.91147938935666e+00 2.46140239699040e-02
3.35321428571429e-01 1.86493782753899e+00 2.41327239974758e-02
3.38592857142857e-01 1.81952948060206e+00 2.36597091301424e-02
3.41864285714286e-01 1.77522675662551e+00 2.31948827946775e-02
3.45135714285714e-01 1.73200273529953e+00 2.27381473197700e-02
3.48407142857143e-01 1.68983115188802e+00 2.22894040453219e-02
3.51678571428571e-01 1.64868638125499e+00 2.18485535277732e-02
3.54950000000000e-01 1.60854342200574e+00 2.14154956371322e-02
3.58221428571429e-01 1.56937788167516e+00 2.09901296902147e-02
3.61492857142857e-01 1.53116596153906e+00 2.05723545756861e-02
3.64764285714286e-01 1.49388444250694e+00 2.01620688617758e-02
3.68035714285714e-01 1.45751067067160e+00 1.97591709146318e-02
3.71307142857143e-01 1.42202254379692e+00 1.93635589622227e-02
3.74578571428571e-01 1.38739849787653e+00 1.89751312376035e-02
3.77850000000000e-01 1.35361749380339e+00 1.85937860350044e-02
3.81121428571429e-01 1.32065900488573e+00 1.82194217964509e-02
3.84392857142857e-01 1.28850300408440e+00 1.78519371926385e-02
3.87664285714286e-01 1.25712995212334e+00 1.74912311906122e-02
3.90935714285714e-01 1.22652078534658e+00 1.71372031309724e-02
3.94207142857143e-01 1.19665690433474e+00 1.67897527614659e-02
3.97478571428571e-01 1.16752016259453e+00 1.64487803361426e-02
4.00750000000000e-01 1.13909285535219e+00 1.61141866440797e-02
4.04021428571429e-01 1.11135770903321e+00 1.57858730637430e-02
4.07292857142857e-01 1.08429787053635e+00 1.54637416133112e-02
4.10564285714286e-01 1.05789689721504e+00 1.51476949908750e-02
4.13835714285714e-01 1.03213874667159e+00 1.48376366230159e-02
4.17107142857143e-01 1.00700776716836e+00 1.45334706783118e-02
4.20378571428571e-01 9.82488688110251e-01 1.42351021350061e-02
4.23650000000000e-01 9.58566610622446e-01 1.39424367916021e-02
4.26921428571429e-01 9.35226998686521e-01 1.36553812989319e-02
4.30192857142857e-01 9.12455670124819e-01 1.33738431893902e-02
4.33464285714286e-01 8.90238788159552e-01 1.30977308983521e-02
4.36735714285714e-01 8.68562852834099e-01 1.28269537928777e-02
4.40007142857143e-01 8.47414692936721e-01 1.25614221721169e-02
4.43278571428571e-01 8.26781457991736e-01 1.23010473124740e-02
4.46550000000000e-01 8.06650610336841e-01 1.20457414664022e-02
4.49821428571429e-01 7.87009917655692e-01 1.17954178791589e-02
4.53092857142857e-01 7.67847445399029e-01 1.15499908035777e-02
4.56364285714286e-01 7.49151549673926e-01 1.13093755087802e-02
4.59635714285714e-01 7.30910870031932e-01 1.10734882951726e-02
4.62907142857143e-01 7.13114322667368e-01 1.08422464865462e-02
4.66178571428571e-01 6.95751093678001e-01 1.06155684591809e-02
4.69450000000000e-01 6.78810632402751e-01 1.03933736331961e-02
4.72721428571429e-01 6.62282645131438e-01 1.01755824789074e-02
4.75992857142857e-01 6.46157088733055e-01 9.96211652180912e-03
4.79264285714286e-01 6.30424164666163e-01 9.75289834283806e-03
4.82535714285714e-01 6.15074312915536e-01 9.54785158403132e-03
4.85807142857143e-01 6.00098206264306e-01 9.34690093561522e-03
4.89078571428571e-01 5.85486744622896e-01 9.14997215369994e-03
4.92350000000000e-01 5.71231049426217e-01 8.95699204718057e-03
4.95621428571429e-01 5.57322458335524e-01 8.76788847716788e-03
4.98892857142857e-01 5.43752519881087e-01 8.58259035548083e-03
5.02164285714286e-01 5.30512988417429e-01 8.40102763945492e-03
5.05435714285714e-01 5.17595819025133e-01 8.22313133136018e-03
5.08707142857143e-01 5.04993162687627e-01 8.04883346272969e-03
5.11978571428571e-01 4.92697361519024e-01 7.87806710401656e-03
5.15250000000000e-01 4.80700944052049e-01 7.71076634909379e-03
5.18521428571429e-01 4.68996620775889e-01 7.54686631021201e-03
5.21792857142857e-01 4.57577279631428e-01 7.38630311233146e-03
5.25064285714286e-01 4.46435981762613e-01 7.22901388457135e-03
5.28335714285714e-01 4.35565957229479e-01 7.07493675558573e-03
5.31607142857143e-01 4.24960600946931e-01 6.92401083665732e-03
5.34878571428571e-01 4.14613468668994e-01 6.77617622576409e-03
5.38150000000000e-01 4.04518273025660e-01 6.63137399106392e-03
5.41421428571429e-01 3.94668879765093e-01 6.48954616310683e-03
5.44692857142857e-01 3.85059303965502e-01 6.35063572664504e-03
5.47964285714286e-01 3.75683706457230e-01 6.21458661018287e-03
5.51235714285714e-01 3.66536390217698e-01 6.08134367886480e-03
5.54507142857143e-01 3.57611796951963e-01 5.95085271735109e-03
5.57778571428571e-01 3.48904503713484e-01 5.82306043006926e-03
5.61050000000000e-01 3.40409219570705e-01 5.69791442460545e-03
5.64321428571429e-01 3.32120782442628e-01 5.57536320238001e-03
5.67592857142857e-01 3.24034155913133e-01 5.45535614907855e-03
5.70864285714286e-01 3.16144426218088e-01 5.33784352330936e-03
5.74135714285714e-01 3.08446799213571e-01 5.22277644809414e-03
5.77407142857143e-01 3.00936597496912e-01 5.11010689418526e-03
5.80678571428571e-01 2.93609257563077e-01 4.99978767778687e-03
5.83950000000000e-01 2.86460327000814e-01 4.89177244444954e-03
5.87221428571429e-01 2.79485461828050e-01 4.78601565904428e-03
5.90492857142857e-01 2.72680423812702e-01 4.68247259560358e-03
5.93764285714286e-01 2.66041077935724e-01 4.58109932576951e-03
5.97035714285714e-01 2.59563389841308e-01 4.48185270964295e-03
6.00307142857143e-01 2.53243423413082e-01 4.38469037995335e-03
6.03578571428571e-01 2.47077338381206e-01 4.28957073817491e-03
6.06850000000000e-01 2.41061387963872e-01 4.19645293929196e-03
6.10121428571429e-01 2.35191916623685e-01 4.10529688163958e-03
6.13392857142857e-01 2.29465357814340e-01 4.01606319668914e-03
6.16664285714286e-01 2.23878231844517e-01 3.92871323773832e-03
6.19935714285714e-01 2.18427143733348e-01 3.84320907063463e-03
6.23207142857143e-01 2.13108781169880e-01 3.75951345903445e-03
6.26478571428571e-01 2.07919912499444e-01 3.67758985957526e-03
6.29750000000000e-01 2.02857384739711e-01 3.59740240772181e-03
6.33021428571429e-01 1.97918121691622e-01 3.51891590784913e-03
6.36292857142857e-01 1.93099122044164e-01 3.44209582332329e-03
6.39564285714286e-01 1.88397457575852e-01 3.36690826572125e-03
6.42835714285714e-01 1.83810271350978e-01 3.29331998577121e-03
6.46107142857143e-01 1.79334776001791e-01 3.22129835981798e-03
6.49378571428571e-01 1.74968252034018e-01 3.15081138451857e-03
6.52650000000000e-01 1.70708046157944e-01 3.08182766386894e-03
6.55921428571429e-01 1.66551569697934e-01 3.01431639976849e-03
6.59192857142857e-01 1.62496296998330e-01 2.94824738261717e-03
6.62464285714286e-01 1.58539763909233e-01 2.88359098123622e-03
6.65735714285714e-01 1.54679566269324e-01 2.82031813424367e-03
6.69007142857143e-01 1.50913358459761e-01 2.75840033776195e-03
6.72278571428571e-01 1.47238851978269e-01 2.69780963996212e-03
6.75550000000000e-01 1.43653814035187e-01 2.63851862929655e-03
6.78821428571429e-01 1.40156066214428e-01 2.58050042568681e-03
6.82092857142857e-01 1.36743483132620e-01 2.52372867176616e-03
6.85364285714286e-01 1.33413991164273e-01 2.46817752359052e-03
6.88635714285714e-01 1.30165567165623e-01 2.41382164257919e-03
6.91907142857143e-01 1.26996237257279e-01 2.36063618444717e-03
6.95178571428571e-01 1.23904075624324e-01 2.30859679381845e-03
6.98450000000000e-01 1.20887203335234e-01 2.25767959364169e-03
7.01721428571429e-01 1.17943787214556e-01 2.20786117707464e-03
7.04992857142857e-01 1.15072038715031e-01 2.15911859943629e-03
7.08264285714286e-01 1.12270212844342e-01 2.11142936974174e-03
7.11535714285714e-01 1.09536607091643e-01 2.06477144327592e-03
7.14807142857143e-01 1.06869560402816e-01 2.01912321169805e-03
7.18078571428571e-01 1.04267452170738e-01 1.97446349786922e-03
7.21350000000000e-01 1.01728701241685e-01 1.93077154639655e-03
7.24621428571429e-01 9.92517649662788e-02 1.88802701624029e-03
7.27892857142857e-01 9.68351382507303e-02 1.84620997339537e-03
7.31164285714286e-01 9.44773526533222e-02 1.80530088324556e-03
7.34435714285714e-01 9.21769754814095e-02 1.76528060379502e-03
7.37707142857143e-01 8.99326089288242e-02 1.72613037687189e-03
7.40978571428571e-01 8.77428892261791e-02 1.68783182325995e-03
7.44250000000000e-01 8.56064858049678e-02 1.65036693429847e-03
7.47521428571429e-01 8.35221004986159e-02 1.61371806520632e-03
7.50792857142857e-01 8.14884667443820e-02 1.57786792848234e-03
7.54064285714286e-01 7.95043488227447e-02 1.54279958704957e-03
7.57335714285714e-01 7.75685410977893e-02 1.50849644814009e-03
7.60607142857143e-01 7.56798672911142e-02 1.47494225551339e-03
7.63878571428571e-01 7.38371797668053e-02 1.44212108494295e-03
7.67150000000000e-01 7.20393588281954e-02 1.41001733678908e-03
7.70421428571429e-01 7.02853120452921e-02 1.37861573001322e-03
7.73692857142857e-01 6.85739735833972e-02 1.34790129626753e-03
7.76964285714286e-01 6.69043035628125e-02 1.31785937378405e-03
7.80235714285714e-01 6.52752874198288e-02 1.28847560188932e-03
7.83507142857143e-01 6.36859352955447e-02 1.25973591414860e-03
7.86778571428571e-01 6.21352814341666e-02 1.23162653423045e-03
7.90050000000000e-01 6.06223835913645e-02 1.20413396936601e-03
7.93321428571429e-01 5.91463224680990e-02 1.17724500501380e-03
7.96592857142857e-01 5.77062011458285e-02 1.15094669959678e-03
7.99864285714286e-01 5.63011445475106e-02 1.12522637908297e-03
8.03135714285714e-01 5.49302989000368e-02 1.10007163209394e-03
8.06407142857143e-01 5.35928312197838e-02 1.07547030388598e-03
8.09678571428571e-01 5.22879288062787e-02 1.05141049259636e-03
8.12950000000000e-01 5.10147987444349e-02 1.02788054350323e-03
8.16221428571429e-01 4.97726674279552e-02 1.00486904429370e-03
8.19492857142857e-01 4.85607800841960e-02 9.82364820399943e-04
8.22764285714286e-01 4.73784003204484e-02 9.60356930213636e-04
8.26035714285714e-01 4.62248096717050e-02 9.38834660745758e-04
8.29307142857143e-01 4.50993071676401e-02 9.17787522358622e-04
8.32578571428571e-01 4.40012089065249e-02 8.97205245384524e-04
8.35850000000000e-01 4.29298476364414e-02 8.77077775103239e-04
8.39121428571429e-01 4.18845723540970e-02 8.57395267563010e-04
8.42392857142857e-01 4.08647479051065e-02 8.38148085464474e-04
8.45664285714286e-01 3.98697546020662e-02 8.19326793950198e-04
8.48935714285714e-01 3.88989878441014e-02 8.00922156770118e-04
8.52207142857143e-01 3.79518577523915e-02 7.82925131682972e-04
8.55478571428571e-01 3.70277888116152e-02 7.65326867429668e-04
8.58750000000000e-01 3.61262195176082e-02 7.48118699350130e-04
8.62021428571429e-01 3.52466020396622e-02 7.31292145706012e-04
8.65292857142857e-01 3.43884018842476e-02 7.14838904061004e-04
8.68564285714286e-01 3.35510975735273e-02 6.98750847588130e-04
8.71835714285714e-01 3.27341803252851e-02 6.83020021694287e-04
8.75107142857143e-01 3.19371537461498e-02 6.67638640015435e-04
8.78378571428571e-01 3.11595335298678e-02 6.52599081721892e-04
8.81650000000000e-01 3.04008471608589e-02 6.37893887701948e-04
8.84921428571429e-01 2.96606336299578e-02 6.23515757336277e-04
8.88192857142857e-01 2.89384431515056e-02 6.09457545324585e-04
8.91464285714286e-01 2.82338368927416e-02 5.95712258456043e-04
8.94735714285714e-01 2.75463867045266e-02 5.82273052647400e-04
8.98007142857143e-01 2.68756748631347e-02 5.69133229462463e-04
9.01278571428571e-01 2.62212938163459e-02 5.56286233723840e-04
9.04550000000000e-01 2.55828459340295e-02 5.43725650196841e-04
9.07821428571429e-01 2.49599432688751e-02 5.31445200767890e-04
9.11092857142857e-01 2.43522073183787e-02 5.19438741669993e-04
9.14364285714286e-01 2.37592687970636e-02 5.07700260665198e-04
9.17635714285714e-01 2.31807674099358e-02 4.96223874452850e-04
9.20907142857143e-01 2.26163516351550e-02 4.85003825650310e-04
9.24178571428571e-01 2.20656785103694e-02 4.74034480684555e-04
9.27450000000000e-01 2.15284134228646e-02 4.63310326915999e-04
9.30721428571429e-01 2.10042299081645e-02 4.52825970176386e-04
9.33992857142857e-01 2.04928094497870e-02 4.42576132348790e-04
9.37264285714286e-01 1.99938412875174e-02 4.32555648914827e-04
9.40535714285714e-01 1.95070222268117e-02 4.22759466692371e-04
9.43807142857143e-01 1.90320564558772e-02 4.13182641220741e-04
9.47078571428571e-01 1.85686553658714e-02 4.03820334905718e-04
9.50350000000000e-01 1.81165373743379e-02 3.94667814528995e-04
9.53621428571429e-01 1.76754277556864e-02 3.85720449104406e-04
9.56892857142857e-01 1.72450584727215e-02 3.76973707771628e-04
9.60164285714286e-01 1.68251680152651e-02 3.68423157665080e-04
9.63435714285714e-01 1.64155012398005e-02 3.60064461943563e-04
9.66707142857143e-01 1.60158092155174e-02 3.51893377529104e-04
9.69978571428571e-01 1.56258490730061e-02 3.43905753479766e-04
9.73250000000000e-01 1.52453838557002e-02 3.36097528836238e-04
9.76521428571429e-01 1.48741823771911e-02 3.28464730758831e-04
9.79792857142857e-01 1.45120190794863e-02 3.21003472697708e-04
9.83064285714286e-01 1.41586738971785e-02 3.13709952544543e-04
9.86335714285714e-01 1.38139321225318e-02 3.06580450919735e-04
9.89607142857143e-01 1.34775842759043e-02 2.99611329219726e-04
9.92878571428571e-01 1.31494259784227e-02 2.92799028193401e-04
9.96150000000000e-01 1.28292578269881e-02 2.86140066082629e-04
9.99421428571429e-01 1.25168852741778e-02 2.79631036886543e-04
1.00269285714286e+00 1.22121185097171e-02 2.73268609217253e-04
1.00596428571429e+00 1.19147723434690e-02 2.67049524258175e-04
1.00923571428571e+00 1.16246660953819e-02 2.60970594087705e-04
1.01250714285714e+00 1.13416234846815e-02 2.55028700606878e-04
1.01577857142857e+00 1.10654725227580e-02 2.49220793874723e-04
1.01905000000000e+00 1.07960454086571e-02 2.43543890314861e-04
1.02232142857143e+00 1.05331784291663e-02 2.37995072333731e-04
1.02559285714286e+00 1.02767118530822e-02 2.32571486236972e-04
1.02886428571429e+00 1.00264898405136e-02 2.27270340096969e-04
1.03213571428571e+00 9.78236034602862e-03 2.22088903562311e-04
