Energy (eV)          EEDF (eV^-(3/2))     First Anisotropy
9.16666666666667e-03 4.25048118341247e-01 2.63959169182353e-04
2.75000000000000e-02 4.20989974144004e-01 4.35254112254886e-04
4.58333333333333e-02 4.16970575042446e-01 5.72951207384934e-04
6.41666666666667e-02 4.12989551134142e-01 6.76571900302986e-04
8.25000000000000e-02 4.09046536027724e-01 7.62178359100383e-04
1.00833333333333e-01 4.05141166829777e-01 8.35867668351357e-04
1.19166666666667e-01 4.01273084121009e-01 9.00807009363332e-04
1.37500000000000e-01 3.97441931916090e-01 9.58916002787487e-04
1.55833333333333e-01 3.93647357594248e-01 1.01147239719781e-03
1.74166666666667e-01 3.89889011955919e-01 1.05938252476184e-03
1.92500000000000e-01 3.86166549104808e-01 1.10331969295329e-03
2.10833333333333e-01 3.82479626431440e-01 1.14380204322246e-03
2.29166666666667e-01 3.78827904635227e-01 1.18123957022011e-03
2.47500000000000e-01 3.75211047634292e-01 1.21596410333648e-03
2.65833333333333e-01 3.71628722543003e-01 1.24824926639384e-03
2.84166666666667e-01 3.68080599682524e-01 1.27832426562893e-03
3.02500000000000e-01 3.64566352506192e-01 1.30638369665394e-03
3.20833333333333e-01 3.61085657574814e-01 1.33259468973748e-03
3.39166666666667e-01 3.57638194559938e-01 1.35710224595565e-03
3.57500000000000e-01 3.54223646179317e-01 1.38003329232621e-03
3.75833333333333e-01 3.50841698171379e-01 1.40149980694586e-03
3.94166666666667e-01 3.47492039293633e-01 1.42160127744042e-03
4.12500000000000e-01 3.44174361265283e-01 1.44042665454742e-03
4.30833333333333e-01 3.40888358741528e-01 1.45805591543841e-03
4.49166666666667e-01 3.37633729308568e-01 1.47456134135157e-03
4.67500000000000e-01 3.34410173431615e-01 1.49000856614478e-03
4.85833333333333e-01 3.31217394429364e-01 1.50445743758076e-03
5.04166666666667e-01 3.28055098466551e-01 1.51796274278906e-03
5.22500000000000e-01 3.24922994506237e-01 1.53057481839525e-03
5.40833333333333e-01 3.21820794284622e-01 1.54234006082628e-03
5.59166666666667e-01 3.18748212301815e-01 1.55330136725496e-03
5.77500000000000e-01 3.15704965777623e-01 1.56349851363505e-03
5.95833333333333e-01 3.12690774626796e-01 1.57296847469531e-03
6.14166666666667e-01 3.09705361448497e-01 1.58174570684330e-03
6.32500000000000e-01 3.06748451485013e-01 1.58986239449501e-03
6.50833333333333e-01 3.03819772597520e-01 1.59734866004617e-03
6.69166666666667e-01 3.00919055254569e-01 1.60423275356218e-03
6.87500000000000e-01 2.98046032493326e-01 1.61054122006784e-03
7.05833333333333e-01 2.95200439895867e-01 1.61629904252349e-03
7.24166666666667e-01 2.92382015576964e-01 1.62152977377025e-03
7.42500000000000e-01 2.89590500147510e-01 1.62625565414765e-03
7.60833333333333e-01 2.86825636691382e-01 1.63049771188688e-03
7.79166666666667e-01 2.84087170752709e-01 1.63427585778846e-03
7.97500000000000e-01 2.81374850301244e-01 1.63760897039186e-03
8.15833333333333e-01 2.78688425709791e-01 1.64051496830958e-03
8.34166666666667e-01 2.76027649741115e-01 1.64301088000263e-03
8.52500000000000e-01 2.73392277515053e-01 1.64511290704300e-03
8.70833333333333e-01 2.70782066486513e-01 1.64683647738256e-03
8.89166666666667e-01 2.68196776432143e-01 1.64819629798438e-03
9.07500000000000e-01 2.65636169419013e-01 1.64920640286719e-03
9.25833333333333e-01 2.63100009783186e-01 1.64988019307415e-03
9.44166666666667e-01 2.60588064116242e-01 1.65023047718984e-03
9.62500000000000e-01 2.58100101235388e-01 1.65026950854775e-03
9.80833333333333e-01 2.55635892162603e-01 1.65000901570466e-03
9.99166666666667e-01 2.53195210111080e-01 1.64946023303965e-03
1.01750000000000e+00 2.50777830463633e-01 1.64863393589710e-03
1.03583333333333e+00 2.48383530717490e-01 1.64754045363891e-03
1.05416666666667e+00 2.46012090540653e-01 1.64618969964089e-03
1.07250000000000e+00 2.43663291680929e-01 1.64459120629902e-03
1.09083333333333e+00 2.41336917949087e-01 1.64275412273993e-03
1.10916666666667e+00 2.39032755262756e-01 1.64068724570950e-03
1.12750000000000e+00 2.36750591561587e-01 1.63839904834465e-03
1.14583333333333e+00 2.34490216790628e-01 1.63589767512170e-03
1.16416666666667e+00 2.32251422939980e-01 1.63319096847974e-03
1.18250000000000e+00 2.30034003965468e-01 1.63028649370186e-03
1.20083333333333e+00 2.27837755772271e-01 1.62719153193161e-03
1.21916666666667e+00 2.25662476250807e-01 1.62391310340774e-03
1.23750000000000e+00 2.23507965202389e-01 1.62045798924213e-03
1.25583333333333e+00 2.21374024323137e-01 1.61683272309982e-03
1.27416666666667e+00 2.19260457236496e-01 1.61304361169929e-03
1.29250000000000e+00 2.17167069423429e-01 1.60909675407693e-03
1.31083333333333e+00 2.15093668206619e-01 1.60499803236217e-03
1.32916666666667e+00 2.13040062779982e-01 1.60075313003933e-03
1.34750000000000e+00 2.11006064142994e-01 1.59636754914750e-03
1.36583333333333e+00 2.08991485085200e-01 1.59184660046640e-03
1.38416666666667e+00 2.06996140213033e-01 1.58719541992148e-03
1.40250000000000e+00 2.05019845887915e-01 1.58241898406635e-03
1.42083333333333e+00 2.03062420211094e-01 1.57752209991116e-03
1.43916666666667e+00 2.01123683048033e-01 1.57250941976871e-03
1.45750000000000e+00 1.99203455969980e-01 1.56738545529115e-03
1.47583333333333e+00 1.97301562239138e-01 1.56215456711292e-03
1.49416666666667e+00 1.95417826830856e-01 1.55682097837297e-03
1.51250000000000e+00 1.93552076378406e-01 1.55138878752077e-03
1.53083333333333e+00 1.91704139158477e-01 1.54586195790136e-03
1.54916666666667e+00 1.89873845111391e-01 1.54024433014193e-03
1.56750000000000e+00 1.88061025788831e-01 1.53453963389983e-03
1.58583333333333e+00 1.86265514339669e-01 1.52875147748411e-03
1.60416666666667e+00 1.84487145528386e-01 1.52288335925878e-03
1.62250000000000e+00 1.82725755685540e-01 1.51693867847276e-03
1.64083333333333e+00 1.80981182693923e-01 1.51092072498796e-03
1.65916666666667e+00 1.79253266005357e-01 1.50483268982349e-03
1.67750000000000e+00 1.77541846593693e-01 1.49867767518229e-03
1.69583333333333e+00 1.75846766941313e-01 1.49245868433735e-03
1.71416666666667e+00 1.74167871054428e-01 1.48617863141952e-03
1.73250000000000e+00 1.72505004418458e-01 1.47984035073556e-03
1.75083333333333e+00 1.70858013984847e-01 1.47344658684986e-03
1.76916666666667e+00 1.69226748185026e-01 1.46700000370186e-03
1.78750000000000e+00 1.67611056887985e-01 1.46050319329455e-03
1.80583333333333e+00 1.66010791387419e-01 1.45395866599841e-03
1.82416666666667e+00 1.64425804414461e-01 1.44736885907043e-03
1.84250000000000e+00 1.62855950097309e-01 1.44073614477964e-03
1.86083333333333e+00 1.61301083948696e-01 1.43406282095207e-03
1.87916666666667e+00 1.59761062877499e-01 1.42735111895218e-03
1.89750000000000e+00 1.58235745150290e-01 1.42060321130239e-03
1.91583333333333e+00 1.56724990379126e-01 1.41382120248137e-03
1.93416666666667e+00 1.55228659532126e-01 1.40700713641979e-03
1.95250000000000e+00 1.53746614896831e-01 1.40016300366220e-03
1.97083333333333e+00 1.52278720068303e-01 1.39329073242636e-03
1.98916666666667e+00 1.50824839958764e-01 1.38639219565817e-03
2.00750000000000e+00 1.49384840762648e-01 1.37946921777779e-03
2.02583333333333e+00 1.47958589945010e-01 1.37252356600375e-03
2.04416666666667e+00 1.46545956250295e-01 1.36555695700601e-03
2.06250000000000e+00 1.45146809668994e-01 1.35857106327244e-03
2.08083333333333e+00 1.43761021426344e-01 1.35156750469868e-03
2.09916666666667e+00 1.42388463990315e-01 1.34454785487331e-03
2.11750000000000e+00 1.41029011039756e-01 1.33751364709635e-03
2.13583333333333e+00 1.39682537453399e-01 1.33046636623391e-03
2.15416666666667e+00 1.38348919317113e-01 1.32340745466512e-03
2.17250000000000e+00 1.37028033893471e-01 1.31633831798014e-03
2.19083333333333e+00 1.35719759611034e-01 1.30926031709704e-03
2.20916666666667e+00 1.34423976070948e-01 1.30217477389665e-03
2.22750000000000e+00 1.33140564017836e-01 1.29508297662493e-03
2.24583333333333e+00 1.31869405329369e-01 1.28798617226785e-03
2.26416666666667e+00 1.30610383022253e-01 1.28088557189737e-03
2.28250000000000e+00 1.29363381224375e-01 1.27378235580007e-03
2.30083333333333e+00 1.28128285164658e-01 1.26667766610504e-03
2.31916666666667e+00 1.26904981178476e-01 1.25957261186193e-03
2.33750000000000e+00 1.25693356681000e-01 1.25246827391498e-03
2.35583333333333e+00 1.24493300157317e-01 1.24536569777837e-03
2.37416666666667e+00 1.23304701167330e-01 1.23826589846509e-03
2.39250000000000e+00 1.22127450320234e-01 1.23116986512403e-03
2.41083333333333e+00 1.20961439264894e-01 1.22407855415629e-03
2.42916666666667e+00 1.19806560694272e-01 1.21699289381161e-03
2.44750000000000e+00 1.18662708320972e-01 1.20991378860426e-03
2.46583333333333e+00 1.17529776867873e-01 1.20284211266419e-03
2.48416666666667e+00 1.16407662072121e-01 1.19577871411587e-03
2.50250000000000e+00 1.15296260661682e-01 1.18872441928714e-03
2.52083333333333e+00 1.14195470346234e-01 1.18168002628860e-03
2.53916666666667e+00 1.13105189820752e-01 1.17464630918868e-03
2.55750000000000e+00 1.12025318743018e-01 1.16762402202854e-03
2.57583333333333e+00 1.10955757724768e-01 1.16061389262245e-03
2.59416666666667e+00 1.09896408334895e-01 1.15361662654178e-03
2.61250000000000e+00 1.08847173077885e-01 1.14663291094761e-03
2.63083333333333e+00 1.07807955385188e-01 1.13966340860561e-03
2.64916666666667e+00 1.06778659618095e-01 1.13270876169017e-03
2.66750000000000e+00 1.05759191047028e-01 1.12576959544544e-03
2.68583333333333e+00 1.04749455843158e-01 1.11884651240783e-03
2.70416666666667e+00 1.03749361080954e-01 1.11194009604076e-03
2.72250000000000e+00 1.02758814718308e-01 1.10505091423419e-03
2.74083333333333e+00 1.01777725588378e-01 1.09817951372779e-03
2.75916666666667e+00 1.00806003401846e-01 1.09132642358602e-03
2.77750000000000e+00 9.98435587278296e-02 1.08449215854519e-03
2.79583333333333e+00 9.88903029859489e-02 1.07767721363057e-03
2.81416666666667e+00 9.79461484483147e-02 1.07088206748075e-03
2.83250000000000e+00 9.70110082211911e-02 1.06410718555050e-03
2.85083333333333e+00 9.60847962372767e-02 1.05735301491536e-03
2.86916666666667e+00 9.51674272574489e-02 1.05061998745351e-03
2.88750000000000e+00 9.42588168531387e-02 1.04390852291214e-03
2.90583333333333e+00 9.33588813988244e-02 1.03721902389308e-03
2.92416666666667e+00 9.24675380735473e-02 1.03055187889968e-03
2.94250000000000e+00 9.15847048439691e-02 1.02390746527390e-03
2.96083333333333e+00 9.07103004570705e-02 1.01728614435696e-03
2.97916666666667e+00 8.98442444414582e-02 1.01068826440796e-03
2.99750000000000e+00 8.89864570910716e-02 1.00411416341859e-03
3.01583333333333e+00 8.81368594580829e-02 9.97564164442432e-04
3.03416666666667e+00 8.72953733540106e-02 9.91038578392187e-04
3.05250000000000e+00 8.64619213340471e-02 9.84537706738146e-04
3.07083333333333e+00 8.56364266901551e-02 9.78061837000096e-04
3.08916666666667e+00 8.48188134520020e-02 9.71611245429345e-04
3.10750000000000e+00 8.40090063718819e-02 9.65186199596619e-04
3.12583333333333e+00 8.32069309180017e-02 9.58786954040969e-04
3.14416666666667e+00 8.24125132752526e-02 9.52413752842201e-04
3.16250000000000e+00 8.16256803306986e-02 9.46066832103821e-04
3.18083333333333e+00 8.08463596670484e-02 9.39746415753145e-04
3.19916666666667e+00 8.00744795632763e-02 9.33452718009580e-04
3.21750000000000e+00 7.93099689806530e-02 9.27185945767673e-04
3.23583333333333e+00 7.85527575563982e-02 9.20946294543078e-04
3.25416666666667e+00 7.78027756041628e-02 9.14733950841614e-04
3.27250000000000e+00 7.70599541005794e-02 9.08549094447049e-04
3.29083333333333e+00 7.63242246790896e-02 9.02391894507945e-04
3.30916666666667e+00 7.55955196303003e-02 8.96262511812069e-04
3.32750000000000e+00 7.48737718890298e-02 8.90161100983509e-04
3.34583333333333e+00 7.41589150283074e-02 8.84087806705208e-04
3.36416666666667e+00 7.34508832596116e-02 8.78042765903248e-04
3.38250000000000e+00 7.27496114203935e-02 8.72026109857331e-04
3.40083333333333e+00 7.20550349682414e-02 8.66037960554264e-04
3.41916666666667e+00 7.13670899810133e-02 8.60078432786266e-04
3.43750000000000e+00 7.06857131448150e-02 8.54147636178884e-04
3.45583333333333e+00 7.00108417483275e-02 8.48245671670542e-04
3.47416666666667e+00 6.93424136828411e-02 8.42372633528816e-04
3.49250000000000e+00 6.86803674306702e-02 8.36528611299472e-04
3.51083333333333e+00 6.80246420596386e-02 8.30713686407625e-04
3.52916666666667e+00 6.73751772230239e-02 8.24927934095744e-04
3.54750000000000e+00 6.67319131483911e-02 8.19171425297384e-04
3.56583333333333e+00 6.60947906322309e-02 8.13444223355471e-04
3.58416666666667e+00 6.54637510398225e-02 8.07746385885315e-04
3.60250000000000e+00 6.48387362944687e-02 8.02077966576593e-04
3.62083333333333e+00 6.42196888722834e-02 7.96439012024500e-04
3.63916666666667e+00 6.36065518019800e-02 7.90829563521314e-04
3.65750000000000e+00 6.29992686544912e-02 7.85249658789457e-04
3.67583333333333e+00 6.23977835379018e-02 7.79699328921486e-04
3.69416666666667e+00 6.18020410971693e-02 7.74178600103407e-04
3.71250000000000e+00 6.12119865041131e-02 7.68687495281713e-04
3.73083333333333e+00 6.06275654524891e-02 7.63226031208584e-04
3.74916666666667e+00 6.00487241576473e-02 7.57794220099593e-04
3.76750000000000e+00 5.94754093468771e-02 7.52392071237713e-04
3.78583333333333e+00 5.89075682546183e-02 7.47019588119730e-04
3.80416666666667e+00 5.83451486220635e-02 7.41676770051316e-04
3.82250000000000e+00 5.77880986878430e-02 7.36363613690750e-04
3.84083333333333e+00 5.72363671833708e-02 7.31080110292900e-04
3.85916666666667e+00 5.66899033323949e-02 7.25826247244292e-04
3.87750000000000e+00 5.61486568420104e-02 7.20602009548986e-04
3.89583333333333e+00 5.56125778981348e-02 7.15407377166732e-04
3.91416666666667e+00 5.50816171650130e-02 7.10242326490459e-04
3.93250000000000e+00 5.45557257765446e-02 7.05106831776837e-04
3.95083333333333e+00 5.40348553318855e-02 7.00000862575201e-04
3.96916666666667e+00 5.35189578949117e-02 6.94924385149927e-04
3.98750000000000e+00 5.30079859858491e-02 6.89877363857845e-04
4.00583333333333e+00 5.25018925769977e-02 6.84859758664748e-04
4.02416666666667e+00 5.20006310921584e-02 6.79871526515015e-04
4.04250000000000e+00 5.15041553985530e-02 6.74912622658011e-04
4.06083333333333e+00 5.10124198026688e-02 6.69982998248988e-04
4.07916666666667e+00 5.05253790496516e-02 6.65082601668091e-04
4.09750000000000e+00 5.00429883155052e-02 6.60211379797968e-04
4.11583333333333e+00 4.95652032030524e-02 6.55369275706077e-04
4.13416666666667e+00 4.90919797412984e-02 6.50556229915033e-04
4.15250000000000e+00 4.86232743778991e-02 6.45772181633448e-04
4.17083333333333e+00 4.81590439752350e-02 6.41017066516705e-04
4.18916666666667e+00 4.76992458097486e-02 6.36290817890709e-04
4.20750000000000e+00 4.72438375646711e-02 6.31593367937761e-04
4.22583333333333e+00 4.67927773262067e-02 6.26924645533076e-04
4.24416666666667e+00 4.63460235828461e-02 6.22284577423793e-04
4.26250000000000e+00 4.59035352183428e-02 6.17673089371625e-04
4.28083333333333e+00 4.54652715080040e-02 6.13090104062504e-04
4.29916666666667e+00 4.50311921179839e-02 6.08535542242669e-04
4.31750000000000e+00 4.46012570984996e-02 6.04009323819793e-04
4.33583333333333e+00 4.41754268802257e-02 5.99511365843095e-04
4.35416666666667e+00 4.37536622735704e-02 5.95041583598201e-04
4.37250000000000e+00 4.33359244621221e-02 5.90599891668523e-04
4.39083333333333e+00 4.29221749991445e-02 5.86186201983331e-04
4.40916666666667e+00 4.25123758068382e-02 5.81800424872940e-04
4.42750000000000e+00 4.21064891700090e-02 5.77442470091891e-04
4.44583333333333e+00 4.17044777326614e-02 5.73112244932585e-04
4.46416666666667e+00 4.13063044972478e-02 5.68809655242517e-04
4.48250000000000e+00 4.09119328185497e-02 5.64534606410665e-04
4.50083333333333e+00 4.05213264003681e-02 5.60287001544322e-04
4.51916666666667e+00 4.01344492947605e-02 5.56066742449822e-04
4.53750000000000e+00 3.97512658961297e-02 5.51873730583611e-04
4.55583333333333e+00 3.93717409380056e-02 5.47707865290164e-04
4.57416666666667e+00 3.89958394922749e-02 5.43569044747605e-04
4.59250000000000e+00 3.86235269634671e-02 5.39457166884742e-04
4.61083333333333e+00 3.82547690856277e-02 5.35372127677935e-04
4.62916666666667e+00 3.78895319215402e-02 5.31313822062921e-04
4.64750000000000e+00 3.75277818572041e-02 5.27282144819239e-04
4.66583333333333e+00 3.71694855987952e-02 5.23276988923995e-04
4.68416666666667e+00 3.68146101718829e-02 5.19298246431151e-04
4.70250000000000e+00 3.64631229160923e-02 5.15345809324596e-04
4.72083333333333e+00 3.61149914821497e-02 5.11419567926739e-04
4.73916666666667e+00 3.57701838310969e-02 5.07519411746597e-04
4.75750000000000e+00 3.54286682291302e-02 5.03645230302624e-04
4.77583333333333e+00 3.50904132447295e-02 4.99796911584407e-04
4.79416666666667e+00 3.47553877478699e-02 4.95974342870613e-04
4.81250000000000e+00 3.44235609050323e-02 4.92177411522737e-04
4.83083333333333e+00 3.40949021764131e-02 4.88406003497970e-04
4.84916666666667e+00 3.37693813151350e-02 4.84660004138300e-04
4.86750000000000e+00 3.34469683624222e-02 4.80939298936249e-04
4.88583333333333e+00 3.31276336448897e-02 4.77243772097079e-04
4.90416666666667e+00 3.28113477737528e-02 4.73573307300109e-04
4.92250000000000e+00 3.24980816401634e-02 4.69927788437565e-04
4.94083333333333e+00 3.21878064125738e-02 4.66307098224465e-04
4.95916666666667e+00 3.18804935359489e-02 4.62711118933077e-04
4.97750000000000e+00 3.15761147272554e-02 4.59139733105951e-04
4.99583333333333e+00 3.12746419729001e-02 4.55592822211837e-04
5.01416666666667e+00 3.09760475279444e-02 4.52070267354341e-04
5.03250000000000e+00 3.06803039117415e-02 4.48571949960022e-04
5.05083333333333e+00 3.03873839054469e-02 4.45097750478724e-04
5.06916666666667e+00 3.00972605512367e-02 4.41647549067454e-04
5.08750000000000e+00 2.98099071480868e-02 4.38221226254501e-04
5.10583333333333e+00 2.95252972493545e-02 4.34818661682650e-04
5.12416666666667e+00 2.92434046620001e-02 4.31439734769188e-04
5.14250000000000e+00 2.89642034425049e-02 4.28084325346860e-04
5.16083333333333e+00 2.86876678945200e-02 4.24752312448570e-04
5.17916666666667e+00 2.84137725680936e-02 4.21443574944398e-04
5.19750000000000e+00 2.81424922557216e-02 4.18157992160227e-04
5.21583333333333e+00 2.78738019900635e-02 4.14895442702491e-04
5.23416666666667e+00 2.76076770431739e-02 4.11655805073089e-04
5.25250000000000e+00 2.73440929226832e-02 4.08438958266540e-04
5.27083333333333e+00 2.70830253695764e-02 4.05244780633345e-04
5.28916666666667e+00 2.68244503574321e-02 4.02073150473601e-04
5.30750000000000e+00 2.65683440887265e-02 3.98923946613484e-04
5.32583333333333e+00 2.63146829926751e-02 3.95797047305929e-04
5.34416666666667e+00 2.60634437244785e-02 3.92692330803722e-04
5.36250000000000e+00 2.58146031617458e-02 3.89609675916065e-04
5.38083333333333e+00 2.55681384023980e-02 3.86548960945304e-04
5.39916666666667e+00 2.53240267639201e-02 3.83510064240205e-04
5.41750000000000e+00 2.50822457799010e-02 3.80492864733398e-04
5.43583333333333e+00 2.48427731979956e-02 3.77497240912910e-04
5.45416666666667e+00 2.46055869791847e-02 3.74523071356299e-04
5.47250000000000e+00 2.43706652944270e-02 3.71570235249673e-04
5.49083333333333e+00 2.41379865226779e-02 3.68638611392854e-04
5.50916666666667e+00 2.39075292501588e-02 3.65728078715155e-04
5.52750000000000e+00 2.36792722671155e-02 3.62838516776566e-04
5.54583333333333e+00 2.34531945658945e-02 3.59969804805421e-04
5.56416666666667e+00 2.32292753402193e-02 3.57121822196449e-04
5.58250000000000e+00 2.30074939820543e-02 3.54294448994771e-04
5.60083333333333e+00 2.27878300797344e-02 3.51487564965001e-04
5.61916666666667e+00 2.25702634172511e-02 3.48701050072207e-04
5.63750000000000e+00 2.23547739712166e-02 3.45934784949385e-04
5.65583333333333e+00 2.21413419090459e-02 3.43188649996852e-04
5.67416666666667e+00 2.19299475882529e-02 3.40462525846770e-04
5.69250000000000e+00 2.17205715535109e-02 3.37756293814653e-04
5.71083333333333e+00 2.15131945348869e-02 3.35069835028078e-04
5.72916666666667e+00 2.13077974471462e-02 3.32403030875339e-04
5.74750000000000e+00 2.11043613869076e-02 3.29755763441566e-04
5.76583333333333e+00 2.09028676309273e-02 3.27127914665777e-04
5.78416666666667e+00 2.07032976354131e-02 3.24519366774217e-04
