Energy (eV)          EEDF (eV^-(3/2))     First Anisotropy
6.72727272727273e-04 1.24760225610105e+02 8.79883051585619e-02
2.01818181818182e-03 1.20912369958172e+02 1.43535664669377e-01
3.36363636363636e-03 1.17183189902669e+02 1.84882373441580e-01
4.70909090909091e-03 1.13569025239230e+02 2.13625332881284e-01
6.05454545454545e-03 1.10066328666621e+02 2.35481252098038e-01
7.40000000000000e-03 1.06671662282160e+02 2.52695889045863e-01
8.74545454545455e-03 1.03381694220174e+02 2.66473075232713e-01
1.00909090909091e-02 1.00193195372677e+02 2.77563956867919e-01
1.14363636363636e-02 9.71030362219410e+01 2.86482083080891e-01
1.27818181818182e-02 9.41081837840202e+01 2.93600751231214e-01
1.41272727272727e-02 9.12056985983863e+01 2.99203489617504e-01
1.54727272727273e-02 8.83927318828082e+01 3.03512847678230e-01
1.68181818181818e-02 8.56665227067578e+01 3.06708015273932e-01
1.81636363636364e-02 8.30243952874322e+01 3.08936213849618e-01
1.95090909090909e-02 8.04637563805900e+01 3.10320389593409e-01
2.08545454545455e-02 7.79820927118559e+01 3.10964600309422e-01
2.22000000000000e-02 7.55769685312779e+01 3.10957902541197e-01
2.35454545454545e-02 7.32460232031478e+01 3.10377229019234e-01
2.48909090909091e-02 7.09869689069031e+01 3.09289566321869e-01
2.62363636363636e-02 6.87975883752095e+01 3.07753634672472e-01
2.75818181818182e-02 6.66757327328448e+01 3.05821205817926e-01
2.89272727272727e-02 6.46193193736005e+01 3.03538152369343e-01
3.02727272727273e-02 6.26263299291399e+01 3.00945294618906e-01
3.16181818181818e-02 6.06948082784263e+01 2.98079091720680e-01
3.29636363636364e-02 5.88228586290206e+01 2.94972212640860e-01
3.43090909090909e-02 5.70086436631431e+01 2.91654011487941e-01
3.56545454545455e-02 5.52503827252553e+01 2.88150927326266e-01
3.70000000000000e-02 5.35463500828549e+01 2.84486822947843e-01
3.83454545454545e-02 5.18948732246934e+01 2.80683274045486e-01
3.96909090909091e-02 5.02943312266872e+01 2.76759817705634e-01
4.10363636363636e-02 4.87431531539535e+01 2.72734167252629e-01
4.23818181818182e-02 4.72398165255404e+01 2.68622399043685e-01
4.37272727272727e-02 4.57828458138987e+01 2.64439115726799e-01
4.50727272727273e-02 4.43708110024991e+01 2.60197589630194e-01
4.64181818181818e-02 4.30023261779349e+01 2.55909889091333e-01
4.77636363636364e-02 4.16760481700993e+01 2.51586990624457e-01
4.91090909090909e-02 4.03906752371893e+01 2.47238878352278e-01
5.04545454545455e-02 3.91449457836072e+01 2.42874632851093e-01
5.18000000000000e-02 3.79376371259028e+01 2.38502510628730e-01
5.31454545454546e-02 3.67675642887336e+01 2.34130015483068e-01
5.44909090909091e-02 3.56335788455755e+01 2.29763962726461e-01
5.58363636363636e-02 3.45345677879738e+01 2.25410537164190e-01
5.71818181818182e-02 3.34694524365067e+01 2.21075345536332e-01
5.85272727272727e-02 3.24371873788529e+01 2.16763464083900e-01
5.98727272727273e-02 3.14367594467621e+01 2.12479481777229e-01
6.12181818181818e-02 3.04671867193696e+01 2.08227539591121e-01
6.25636363636364e-02 2.95275175596465e+01 2.04011366503119e-01
6.39090909090909e-02 2.86168296821681e+01 1.99834312205997e-01
6.52545454545455e-02 2.77342292454915e+01 1.95699377136854e-01
6.66000000000000e-02 2.68788499771319e+01 1.91609239968277e-01
6.79454545454545e-02 2.60498523211431e+01 1.87566282849651e-01
6.92909090909091e-02 2.52464226161609e+01 1.83572614587827e-01
7.06363636363636e-02 2.44677722948244e+01 1.79630091984634e-01
7.19818181818182e-02 2.37131371116725e+01 1.75740339475639e-01
7.33272727272727e-02 2.29817763912489e+01 1.71904767247217e-01
7.46727272727273e-02 2.22729723028322e+01 1.68124587955106e-01
7.60181818181818e-02 2.15860291546181e+01 1.64400832115570e-01
7.73636363636364e-02 2.09202727110030e+01 1.60734362442304e-01
7.87090909090909e-02 2.02750495318530e+01 1.57125886994341e-01
8.00545454545455e-02 1.96497263297785e+01 1.53575971408191e-01
8.14000000000000e-02 1.90436893498740e+01 1.50085050206990e-01
8.27454545454546e-02 1.84563437660640e+01 1.46653437291502e-01
8.40909090909091e-02 1.78871130984779e+01 1.43281335657640e-01
8.54363636363636e-02 1.73354386464909e+01 1.39968846420773e-01
8.67818181818182e-02 1.68007789414515e+01 1.36715977181131e-01
8.81272727272727e-02 1.62826092141856e+01 1.33522649799408e-01
8.94727272727273e-02 1.57804208809329e+01 1.30388707616854e-01
9.08181818181818e-02 1.52937210434298e+01 1.27313922131110e-01
9.21636363636364e-02 1.48220320051863e+01 1.24297999270198e-01
9.35090909090909e-02 1.43648908032415e+01 1.21340585148913e-01
9.48545454545455e-02 1.39218487529476e+01 1.18441271460044e-01
9.62000000000000e-02 1.34924710083677e+01 1.15599600471459e-01
9.75454545454545e-02 1.30763361347257e+01 1.12815069678978e-01
9.88909090909091e-02 1.26730356954843e+01 1.10087136124311e-01
1.00236363636364e-01 1.22821738507781e+01 1.07415220410062e-01
1.01581818181818e-01 1.19033669694051e+01 1.04798710483039e-01
1.02927272727273e-01 1.15362432529594e+01 1.02236964962641e-01
1.04272727272727e-01 1.11804423677946e+01 9.97293164941211e-02
1.05618181818182e-01 1.08356150951212e+01 9.72750748389989e-02
1.06963636363636e-01 1.05014229880086e+01 9.48735293804302e-02
1.08309090909091e-01 1.01775380353695e+01 9.25239519190010e-02
1.09654545454545e-01 9.86364234506251e+00 9.02255989969814e-02
1.11000000000000e-01 9.55942782706036e+00 8.79777141510370e-02
1.12345454545455e-01 9.26459589566553e+00 8.57795299488551e-02
1.13690909090909e-01 8.97885717204560e+00 8.36302699275388e-02
1.15036363636364e-01 8.70193120441605e+00 8.15291503399760e-02
1.16381818181818e-01 8.43354618875314e+00 7.94753818189676e-02
1.17727272727273e-01 8.17343870586535e+00 7.74681708704709e-02
1.19072727272727e-01 7.92135345916761e+00 7.55067212626921e-02
1.20418181818182e-01 7.67704302682807e+00 7.35902354405215e-02
1.21763636363636e-01 7.44026761877692e+00 7.17179155228551e-02
1.23109090909091e-01 7.21079483897467e+00 6.98889645440727e-02
1.24454545454545e-01 6.98839946045092e+00 6.81025874161749e-02
1.25800000000000e-01 6.77286320124299e+00 6.63579918789000e-02
1.27145454545455e-01 6.56397451302435e+00 6.46543893345589e-02
1.28490909090909e-01 6.36152837072002e+00 6.29909956486449e-02
1.29836363636364e-01 6.16532607390694e+00 6.13670318473272e-02
1.31181818181818e-01 5.97517504926841e+00 5.97817247873930e-02
1.32527272727273e-01 5.79088866399751e+00 5.82343077338847e-02
1.33872727272727e-01 5.61228604030433e+00 5.67240208920971e-02
1.35218181818182e-01 5.43919187959559e+00 5.52501119759043e-02
1.36563636363636e-01 5.27143629032771e+00 5.38118365174602e-02
1.37909090909091e-01 5.10885461975918e+00 5.24084583586239e-02
1.39254545454545e-01 4.95128729432207e+00 5.10392499717667e-02
1.40600000000000e-01 4.79857966110457e+00 4.97034927899518e-02
1.41945454545455e-01 4.65058183787609e+00 4.84004774738270e-02
1.43290909090909e-01 4.50714856423598e+00 4.71295041711236e-02
1.44636363636364e-01 4.36813906071008e+00 4.58898827193670e-02
1.45981818181818e-01 4.23341688897460e+00 4.46809328439288e-02
1.47327272727273e-01 4.10284981947690e+00 4.35019843051098e-02
1.48672727272727e-01 3.97630970017994e+00 4.23523770268632e-02
1.50018181818182e-01 3.85367233187116e+00 4.12314612599504e-02
1.51363636363636e-01 3.73481734620317e+00 4.01385975817002e-02
1.52709090909091e-01 3.61962808659552e+00 3.90731570277180e-02
1.54054545454545e-01 3.50799149499943e+00 3.80345211173654e-02
1.55400000000000e-01 3.39979799971930e+00 3.70220818948426e-02
1.56745454545455e-01 3.29494140903080e+00 3.60352419350980e-02
1.58090909090909e-01 3.19331880583778e+00 3.50734143531517e-02
1.59436363636364e-01 3.09483044772991e+00 3.41360227818397e-02
1.60781818181818e-01 2.99937966805763e+00 3.32225013539740e-02
1.62127272727273e-01 2.90687278204028e+00 3.23322946561557e-02
1.63472727272727e-01 2.81721899386741e+00 3.14648576769855e-02
1.64818181818182e-01 2.73033030828436e+00 3.06196557841116e-02
1.66163636363636e-01 2.64612144418791e+00 2.97961645967325e-02
1.67509090909091e-01 2.56450975030624e+00 2.89938699527507e-02
1.68854545454545e-01 2.48541512489130e+00 2.82122678089588e-02
1.70200000000000e-01 2.40875993631659e+00 2.74508641570478e-02
1.71545454545455e-01 2.33446894763289e+00 2.67091749200819e-02
1.72890909090909e-01 2.26246924200166e+00 2.59867258560908e-02
1.74236363636364e-01 2.19269015182005e+00 2.52830524441521e-02
1.75581818181818e-01 2.12506318869499e+00 2.45976997778337e-02
1.76927272727273e-01 2.05952197686114e+00 2.39302224429481e-02
1.78272727272727e-01 1.99600218741880e+00 2.32801843954675e-02
1.79618181818182e-01 1.93444147565039e+00 2.26471588622783e-02
1.80963636363636e-01 1.87477941980529e+00 2.20307281744515e-02
1.82309090909091e-01 1.81695746139514e+00 2.14304836679788e-02
1.83654545454545e-01 1.76091884824827e+00 2.08460255419364e-02
1.85000000000000e-01 1.70660857829840e+00 2.02769627305242e-02
1.86345454545455e-01 1.65397334608925e+00 1.97229127643964e-02
1.87690909090909e-01 1.60296148998504e+00 1.91835016397036e-02
1.89036363636364e-01 1.55352294191643e+00 1.86583636775763e-02
1.90381818181818e-01 1.50560917780433e+00 1.81471413912380e-02
1.91727272727273e-01 1.45917317035097e+00 1.76494853445991e-02
1.93072727272727e-01 1.41416934248123e+00 1.71650540133534e-02
1.94418181818182e-01 1.37055352290636e+00 1.66935136636284e-02
1.95763636363636e-01 1.32828290275433e+00 1.62345381867963e-02
1.97109090909091e-01 1.28731599329073e+00 1.57878089822074e-02
1.98454545454545e-01 1.24761258554419e+00 1.53530148127093e-02
1.99800000000000e-01 1.20913371050790e+00 1.49298516715415e-02
2.01145454545455e-01 1.17184160121203e+00 1.45180226435275e-02
2.02490909090909e-01 1.13569965534718e+00 1.41172377732944e-02
2.03836363636364e-01 1.10067239963565e+00 1.37272139284425e-02
2.05181818181818e-01 1.06672545472921e+00 1.33476746695488e-02
2.06527272727273e-01 1.03382550174007e+00 1.29783501157052e-02
2.07872727272727e-01 1.00194024927448e+00 1.26189768132595e-02
2.09218181818182e-01 9.71038401934470e-01 1.22692976178058e-02
2.10563636363636e-01 9.41089629591244e-01 1.19290615475607e-02
2.11909090909091e-01 9.12064537443579e-01 1.15980236707174e-02
2.13254545454545e-01 8.83934637395021e-01 1.12759449753387e-02
2.14600000000000e-01 8.56672319873220e-01 1.09625922482349e-02
2.15945454545455e-01 8.30250826942386e-01 1.06577379509611e-02
2.17290909090909e-01 8.04644225837056e-01 1.03611601017399e-02
2.18636363636364e-01 7.79827383704692e-01 1.00726421548709e-02
2.19981818181818e-01 7.55775942749507e-01 9.79197288584583e-03
2.21327272727273e-01 7.32466296506443e-01 9.51894627427955e-03
2.22672727272727e-01 7.09875566497040e-01 9.25336138998198e-03
2.24018181818182e-01 6.87981579903602e-01 8.99502228891436e-03
2.25363636363636e-01 6.66762847799859e-01 8.74373789040449e-03
2.26709090909091e-01 6.46198543945429e-01 8.49932187842687e-03
2.28054545454545e-01 6.26268484495851e-01 8.26159259165852e-03
2.29400000000000e-01 6.06953108046772e-01 8.03037292046568e-03
2.30745454545455e-01 5.88233456574332e-01 7.80549020257938e-03
2.32090909090909e-01 5.70091156693150e-01 7.58677612355300e-03
2.33436363636364e-01 5.52508401752511e-01 7.37406661610957e-03
2.34781818181818e-01 5.35467934234269e-01 7.16720176406919e-03
2.36127272727273e-01 5.18953028934789e-01 6.96602570534508e-03
2.37472727272727e-01 5.02947476433407e-01 6.77038653771102e-03
2.38818181818182e-01 4.87435567268786e-01 6.58013623188230e-03
2.40163636363636e-01 4.72402076515645e-01 6.39513053229045e-03
2.41509090909091e-01 4.57832248765632e-01 6.21522887489477e-03
2.42854545454545e-01 4.43711783745247e-01 6.04029429777120e-03
2.44200000000000e-01 4.30026822183457e-01 5.87019335696576e-03
2.45545454545455e-01 4.16763932301890e-01 5.70479604188393e-03
2.46890909090909e-01 4.03910096541896e-01 5.54397569443575e-03
2.48236363636364e-01 3.91452698874129e-01 5.38760892782307e-03
2.49581818181818e-01 3.79379512332759e-01 5.23557554891036e-03
2.50927272727273e-01 3.67678687094781e-01 5.08775848033140e-03
2.52272727272727e-01 3.56338738772262e-01 4.94404368490466e-03
2.53618181818182e-01 3.45348537197687e-01 4.80432009542953e-03
2.54963636363636e-01 3.34697295496742e-01 4.66847953638621e-03
2.56309090909091e-01 3.24374559450402e-01 4.53641665769512e-03
2.57654545454545e-01 3.14370197301058e-01 4.40802886382870e-03
2.59000000000000e-01 3.04674389743695e-01 4.28321624687834e-03
2.60345454545455e-01 2.95277620350366e-01 4.16188151959330e-03
2.61690909090909e-01 2.86170666169951e-01 4.04392995131453e-03
2.63036363636364e-01 2.77344588733498e-01 3.92926930393290e-03
2.64381818181818e-01 2.68790725225538e-01 3.81780977060274e-03
2.65727272727273e-01 2.60500680035067e-01 3.70946391452494e-03
2.67072727272727e-01 2.52466316463655e-01 3.60414660958752e-03
2.68418181818182e-01 2.44679748777591e-01 3.50177498494745e-03
2.69763636363636e-01 2.37133334466055e-01 3.40226836427989e-03
2.71109090909091e-01 2.29819666706136e-01 3.30554821356280e-03
2.72454545454545e-01 2.22731567137848e-01 3.21153808587470e-03
2.73800000000000e-01 2.15862078775369e-01 3.12016356913971e-03
2.75145454545455e-01 2.09204459220382e-01 3.03135223404851e-03
2.76490909090909e-01 2.02752174004287e-01 2.94503358418190e-03
2.77836363636364e-01 1.96498890213279e-01 2.86113900633314e-03
2.79181818181818e-01 1.90438470235325e-01 2.77960172292269e-03
2.80527272727273e-01 1.84564965772006e-01 2.70035674462996e-03
2.81872727272727e-01 1.78872611965645e-01 2.62334082448527e-03
2.83218181818182e-01 1.73355821766801e-01 2.54849241483890e-03
2.84563636363636e-01 1.68009180449268e-01 2.47575162081487e-03
2.85909090909091e-01 1.62827440272776e-01 2.40506015980726e-03
2.87254545454545e-01 1.57805515362432e-01 2.33636131906002e-03
2.88600000000000e-01 1.52938476687917e-01 2.26959991542966e-03
2.89945454545455e-01 1.48221547253604e-01 2.20472225540153e-03
2.91290909090909e-01 1.43650097382973e-01 2.14167609676560e-03
2.92636363636364e-01 1.39219640200571e-01 2.08041061055253e-03
2.93981818181818e-01 1.34925827203083e-01 2.02087634454373e-03
2.95327272727273e-01 1.30764444015432e-01 1.96302518704624e-03
2.96672727272727e-01 1.26731406231070e-01 1.90681033179617e-03
2.98018181818182e-01 1.22822755420439e-01 1.85218624495721e-03
2.99363636363636e-01 1.19034655244884e-01 1.79910862980092e-03
3.00709090909091e-01 1.15363387675978e-01 1.74753439566531e-03
3.02054545454545e-01 1.11805349366537e-01 1.69742162568752e-03
3.03400000000000e-01 1.08357048094399e-01 1.64872954614528e-03
3.04745454545455e-01 1.05015099353640e-01 1.60141849606337e-03
3.06090909090909e-01 1.01776223014511e-01 1.55544989806111e-03
3.07436363636364e-01 9.86372401215107e-02 1.51078622946334e-03
3.08781818181818e-01 9.55950697563428e-02 1.46739099458712e-03
3.10127272727273e-01 9.26467260302813e-02 1.42522869728964e-03
3.11472727272727e-01 8.97893151378106e-02 1.38426481437793e-03
3.12818181818182e-01 8.70200325280255e-02 1.34446577054055e-03
3.14163636363636e-01 8.43361601513665e-02 1.30579891175086e-03
3.15509090909091e-01 8.17350637815243e-02 1.26823248170008e-03
3.16854545454545e-01 7.92141904436223e-02 1.23173559744901e-03
3.18200000000000e-01 7.67710658952780e-02 1.19627822626100e-03
3.19545454545455e-01 7.44032922108550e-02 1.16183116267957e-03
3.20890909090909e-01 7.21085454156259e-02 1.12836600652840e-03
3.22236363636364e-01 6.98845732166250e-02 1.09585514115089e-03
3.23581818181818e-01 6.77291927806051e-02 1.06427171252305e-03
3.24927272727273e-01 6.56402886025957e-02 1.03358960860020e-03
3.26272727272727e-01 6.36158104189124e-02 1.00378343931593e-03
3.27618181818182e-01 6.16537712027147e-02 9.74828517684675e-04
3.28963636363636e-01 5.97522452133355e-02 9.46700839897051e-04
3.30309090909091e-01 5.79093660991785e-02 9.19377067561071e-04
3.31654545454545e-01 5.61233250751462e-02 8.92834509448212e-04
3.33000000000000e-01 5.43923691383899e-02 8.67051104103826e-04
3.34345454545455e-01 5.27147993563461e-02 8.42005402669003e-04
3.35690909090909e-01 5.10889691909266e-02 8.17676552384798e-04
3.37036363636364e-01 4.95132828904536e-02 7.94044280301654e-04
3.38381818181818e-01 4.79861939156969e-02 7.71088877634245e-04
3.39727272727273e-01 4.65062034294029e-02 7.48791184315113e-04
3.41072727272727e-01 4.50718588179893e-02 7.27132574037903e-04
3.42418181818182e-01 4.36817522711516e-02 7.06094940099890e-04
3.43763636363636e-01 4.23345193998240e-02 6.85660680581046e-04
3.45109090909091e-01 4.10288378922956e-02 6.65812685043563e-04
3.46454545454545e-01 3.97634262226327e-02 6.46534320919432e-04
3.47800000000000e-01 3.85370423868081e-02 6.27809420528916e-04
3.49145454545455e-01 3.73484826895123e-02 6.09622268274459e-04
3.50490909090909e-01 3.61965805570916e-02 5.91957588337415e-04
3.51836363636364e-01 3.50802053979913e-02 5.74800532543983e-04
3.53181818181818e-01 3.39982614878337e-02 5.58136668706460e-04
3.54527272727273e-01 3.29496868990255e-02 5.41951969127481e-04
3.55872727272727e-01 3.19334524535901e-02 5.26232799469724e-04
3.57218181818182e-01 3.09485607166604e-02 5.10965908203656e-04
3.58563636363636e-01 2.99940450173102e-02 4.96138415618862e-04
3.59909090909091e-01 2.90689684965510e-02 4.81737803912843e-04
3.61254545454545e-01 2.81724231920637e-02 4.67751907084889e-04
3.62600000000000e-01 2.73035291429223e-02 4.54168901289474e-04
3.63945454545455e-01 2.64614335298783e-02 4.40977295331232e-04
3.65290909090909e-01 2.56453098344897e-02 4.28165921529217e-04
3.66636363636364e-01 2.48543570315871e-02 4.15723926717150e-04
3.67981818181818e-01 2.40877987995011e-02 4.03640763592581e-04
3.69327272727273e-01 2.33448827615434e-02 3.91906182196533e-04
3.70672727272727e-01 2.26248797442270e-02 3.80510221664562e-04
3.72018181818182e-01 2.19270830640510e-02 3.69443202395429e-04
3.73363636363636e-01 2.12508078337651e-02 3.58695717933107e-04
3.74709090909091e-01 2.05953902879647e-02 3.48258627612511e-04
3.76054545454545e-01 1.99601871345026e-02 3.38123049084719e-04
3.77400000000000e-01 1.93445749203001e-02 3.28280351176221e-04
3.78745454545455e-01 1.87479494221273e-02 3.18722146860184e-04
3.80090909090909e-01 1.81697250509513e-02 3.09440286498205e-04
3.81436363636364e-01 1.76093342796958e-02 3.00426851189318e-04
3.82781818181818e-01 1.70662270837845e-02 2.91674146374414e-04
3.84127272727273e-01 1.65398704036353e-02 2.83174695543299e-04
3.85472727272727e-01 1.60297476191998e-02 2.74921234142514e-04
3.86818181818182e-01 1.55353580445819e-02 2.66906703784528e-04
3.88163636363636e-01 1.50562164365294e-02 2.59124246269024e-04
3.89509090909091e-01 1.45918525166766e-02 2.51567198145641e-04
3.90854545454545e-01 1.41418105119407e-02 2.44229085203188e-04
3.92200000000000e-01 1.37056487052738e-02 2.37103617201282e-04
3.93545454545455e-01 1.32829390039574e-02 2.30184682689326e-04
3.94890909090909e-01 1.28732665176527e-02 2.23466344023094e-04
3.96236363636364e-01 1.24762291529003e-02 2.16942832464730e-04
3.97581818181818e-01 1.20914372168095e-02 2.10608543469324e-04
3.98927272727273e-01 1.17185130361727e-02 2.04458032051084e-04
4.00272727272727e-01 1.13570905852360e-02 1.98486008297514e-04
4.01618181818182e-01 1.10068151275919e-02 1.92687333100908e-04
4.02963636363636e-01 1.06673428679468e-02 1.87057013766953e-04
4.04309090909091e-01 1.03383406136695e-02 1.81590200007274e-04
4.05654545454545e-01 1.00194854491088e-02 1.76282179887916e-04
4.07000000000000e-01 9.71046441735183e-03 1.71128375953536e-04
4.08345454545455e-01 9.41097421431148e-03 1.66124341418870e-04
4.09690909090909e-01 9.12072088982116e-03 1.61265756504306e-04
4.11036363636364e-01 8.83941956029320e-03 1.56548424835605e-04
4.12381818181818e-01 8.56679412797477e-03 1.51968269979608e-04
4.13727272727273e-01 8.30257701104939e-03 1.47521332041070e-04
4.15072727272727e-01 8.04650887995109e-03 1.43203764368257e-04
4.16418181818182e-01 7.79833840361609e-03 1.39011830415130e-04
4.17763636363636e-01 7.55782200276148e-03 1.34941900523384e-04
4.19109090909091e-01 7.32472361011712e-03 1.30990448976802e-04
4.20454545454545e-01 7.09881443964626e-03 1.27154051029837e-04
4.21800000000000e-01 6.87987276110269e-03 1.23429380063370e-04
4.23145454545455e-01 6.66768368326091e-03 1.19813204791842e-04
4.24490909090909e-01 6.46203894217115e-03 1.16302386575269e-04
