Energy (eV)          EEDF (eV^-(3/2))     First Anisotropy
1.21111111111111e-02 2.01795172272102e-01 1.12742044748651e-04
3.63333333333333e-02 2.00245576458607e-01 1.86079923426985e-04
6.05555555555556e-02 1.98707880073413e-01 2.45410295548644e-04
8.47777777777778e-02 1.97181991738187e-01 2.90340486359674e-04
1.09000000000000e-01 1.95667820780993e-01 3.27694204366677e-04
1.33222222222222e-01 1.94165277224155e-01 3.60054445438917e-04
1.57444444444444e-01 1.92674271780677e-01 3.88759407654975e-04
1.81666666666667e-01 1.91194715839650e-01 4.14618069317487e-04
2.05888888888889e-01 1.89726521489506e-01 4.38167535907976e-04
2.30111111111111e-01 1.88269601483366e-01 4.59787828442089e-04
2.54333333333333e-01 1.86823869244327e-01 4.79760555797071e-04
2.78555555555556e-01 1.85389238860709e-01 4.98301897391573e-04
3.02777777777778e-01 1.83965625075846e-01 5.15582495212118e-04
3.27000000000000e-01 1.82552943297827e-01 5.31740126705368e-04
3.51222222222222e-01 1.81151109578947e-01 5.46888137701082e-04
3.75444444444444e-01 1.79760040616204e-01 5.61121256420918e-04
3.99666666666667e-01 1.78379653742851e-01 5.74519724639968e-04
4.23888888888889e-01 1.77009866934279e-01 5.87152309616663e-04
4.48111111111111e-01 1.75650598791916e-01 5.99078547704852e-04
4.72333333333333e-01 1.74301768542221e-01 6.10350445841512e-04
4.96555555555556e-01 1.72963296031996e-01 6.21013796462503e-04
5.20777777777778e-01 1.71635101720999e-01 6.31109206130681e-04
5.45000000000000e-01 1.70317106685066e-01 6.40672913331853e-04
5.69222222222222e-01 1.69009232603343e-01 6.49737445429648e-04
5.93444444444444e-01 1.67711401756420e-01 6.58332150831436e-04
6.17666666666667e-01 1.66423537019626e-01 6.66483635286291e-04
6.41888888888889e-01 1.65145561864853e-01 6.74216123664855e-04
6.66111111111111e-01 1.63877400349432e-01 6.81551761669471e-04
6.90333333333333e-01 1.62618977113844e-01 6.88510867965343e-04
7.14555555555555e-01 1.61370217377291e-01 6.95112148650462e-04
7.38777777777778e-01 1.60131046931550e-01 7.01372878666450e-04
7.63000000000000e-01 1.58901392141678e-01 7.07309058199528e-04
7.87222222222222e-01 1.57681179936411e-01 7.12935547390656e-04
8.11444444444444e-01 1.56470337805608e-01 7.18266181982125e-04
8.35666666666667e-01 1.55268793794509e-01 7.23313873926439e-04
8.59888888888889e-01 1.54076476503843e-01 7.28090700048522e-04
8.84111111111111e-01 1.52893315081110e-01 7.32607979864205e-04
9.08333333333333e-01 1.51719239217883e-01 7.36876343059848e-04
9.32555555555555e-01 1.50554179145650e-01 7.40905790146673e-04
9.56777777777778e-01 1.49398065630455e-01 7.44705745326053e-04
9.81000000000000e-01 1.48250829972449e-01 7.48285104444120e-04
1.00522222222222e+00 1.47112403998071e-01 7.51652277320465e-04
1.02944444444444e+00 1.45982720060510e-01 7.54815228212872e-04
1.05366666666667e+00 1.44861711017329e-01 7.57781504465800e-04
1.07788888888889e+00 1.43749310264436e-01 7.60558269807445e-04
1.10211111111111e+00 1.42645451698167e-01 7.63152336676758e-04
1.12633333333333e+00 1.41550069722410e-01 7.65570185673861e-04
1.15055555555556e+00 1.40463099244859e-01 7.67817991838542e-04
1.17477777777778e+00 1.39384475663938e-01 7.69901640583471e-04
1.19900000000000e+00 1.38314134892716e-01 7.71826749885074e-04
1.22322222222222e+00 1.37252013326913e-01 7.73598690829027e-04
1.24744444444444e+00 1.36198047850683e-01 7.75222599929310e-04
1.27166666666667e+00 1.35152175824693e-01 7.76703390784690e-04
1.29588888888889e+00 1.34114335107277e-01 7.78045770464676e-04
1.32011111111111e+00 1.33084464025494e-01 7.79254254827791e-04
1.34433333333333e+00 1.32062501379949e-01 7.80333175149115e-04
1.36855555555556e+00 1.31048386441259e-01 7.81286691489141e-04
1.39277777777778e+00 1.30042058939217e-01 7.82118798205244e-04
1.41700000000000e+00 1.29043459080999e-01 7.82833335681599e-04
1.44122222222222e+00 1.28052527525518e-01 7.83434001413838e-04
1.46544444444444e+00 1.27069205387380e-01 7.83924354726405e-04
1.48966666666667e+00 1.26093434226878e-01 7.84307821470314e-04
1.51388888888889e+00 1.25125156066297e-01 7.84587703324437e-04
1.53811111111111e+00 1.24164313366423e-01 7.84767186649625e-04
1.56233333333333e+00 1.23210849029860e-01 7.84849344276879e-04
1.58655555555556e+00 1.22264706397705e-01 7.84837143468338e-04
1.61077777777778e+00 1.21325829240365e-01 7.84733447407765e-04
1.63500000000000e+00 1.20394161771756e-01 7.84541022378708e-04
1.65922222222222e+00 1.19469648628224e-01 7.84262544654785e-04
1.68344444444444e+00 1.18552234871262e-01 7.83900602114583e-04
1.70766666666667e+00 1.17641865978953e-01 7.83457696028780e-04
1.73188888888889e+00 1.16738487858798e-01 7.82936247054756e-04
1.75611111111111e+00 1.15842046828234e-01 7.82338601022281e-04
1.78033333333333e+00 1.14952489616911e-01 7.81667028728693e-04
1.80455555555556e+00 1.14069763363571e-01 7.80923731252519e-04
1.82877777777778e+00 1.13193815608134e-01 7.80110839741880e-04
1.85300000000000e+00 1.12324594302980e-01 7.79230420300029e-04
1.87722222222222e+00 1.11462047795287e-01 7.78284478730649e-04
1.90144444444444e+00 1.10606124828880e-01 7.77274960769229e-04
1.92566666666667e+00 1.09756774536816e-01 7.76203752538797e-04
1.94988888888889e+00 1.08913946451629e-01 7.75072684785122e-04
1.97411111111111e+00 1.08077590488906e-01 7.73883537007194e-04
1.99833333333333e+00 1.07247656948823e-01 7.72638036399223e-04
2.02255555555556e+00 1.06424096513220e-01 7.71337861701493e-04
2.04677777777778e+00 1.05606860238698e-01 7.69984642243295e-04
2.07100000000000e+00 1.04795899565707e-01 7.68579961532703e-04
2.09522222222222e+00 1.03991166303528e-01 7.67125360774551e-04
2.11944444444444e+00 1.03192612631503e-01 7.65622338457930e-04
2.14366666666667e+00 1.02400191092532e-01 7.64072350171294e-04
2.16788888888889e+00 1.01613854601363e-01 7.62476811799054e-04
2.19211111111111e+00 1.00833556430561e-01 7.60837102663471e-04
2.21633333333333e+00 1.00059250211501e-01 7.59154564115488e-04
2.24055555555556e+00 9.92908899316396e-02 7.57430502495248e-04
2.26477777777778e+00 9.85284299284331e-02 7.55666187860797e-04
2.28900000000000e+00 9.77718248967261e-02 7.53862856774790e-04
2.31322222222222e+00 9.70210298758493e-02 7.52021715053750e-04
2.33744444444444e+00 9.62760002503903e-02 7.50143937057226e-04
2.36166666666667e+00 9.55366917444416e-02 7.48230665191763e-04
2.38588888888889e+00 9.48030604283713e-02 7.46283012440282e-04
2.41011111111111e+00 9.40750627067130e-02 7.44302064862857e-04
2.43433333333333e+00 9.33526553187629e-02 7.42288880072192e-04
2.45855555555556e+00 9.26357953360298e-02 7.40244489607654e-04
2.48277777777778e+00 9.19244401568354e-02 7.38169897556471e-04
2.50700000000000e+00 9.12185475123767e-02 7.36066082803981e-04
2.53122222222222e+00 9.05180754555338e-02 7.33934001264757e-04
2.55544444444444e+00 8.98229823613018e-02 7.31774585045210e-04
2.57966666666667e+00 8.91332269216699e-02 7.29588741802767e-04
2.60388888888889e+00 8.84487681511914e-02 7.27377356816381e-04
2.62811111111111e+00 8.77695653764432e-02 7.25141295043108e-04
2.65233333333333e+00 8.70955782363285e-02 7.22881399592755e-04
2.67655555555556e+00 8.64267666796942e-02 7.20598493690123e-04
2.70077777777778e+00 8.57630909605095e-02 7.18293379291368e-04
2.72500000000000e+00 8.51045116428698e-02 7.15966838953405e-04
2.74922222222222e+00 8.44509895912163e-02 7.13619637694392e-04
2.77344444444444e+00 8.38024859705151e-02 7.11252522118480e-04
2.79766666666667e+00 8.31589622416715e-02 7.08866219717824e-04
2.82188888888889e+00 8.25203801661407e-02 7.06461440610035e-04
2.84611111111111e+00 8.18867017966884e-02 7.04038879269727e-04
2.87033333333333e+00 8.12578894774737e-02 7.01599213058006e-04
2.89455555555556e+00 8.06339058418240e-02 6.99143103881101e-04
2.91877777777778e+00 8.00147138079070e-02 6.96671196852450e-04
2.94300000000000e+00 7.94002765828845e-02 6.94184121878450e-04
2.96722222222222e+00 7.87905576543092e-02 6.91682495241287e-04
2.99144444444444e+00 7.81855207901158e-02 6.89166918731841e-04
3.01566666666667e+00 7.75851300344966e-02 6.86637978942187e-04
3.03988888888889e+00 7.69893497117341e-02 6.84096248750241e-04
3.06411111111111e+00 7.63981444180563e-02 6.81542288803337e-04
3.08833333333333e+00 7.58114790215542e-02 6.78976646128614e-04
3.11255555555556e+00 7.52293186601042e-02 6.76399855558094e-04
3.13677777777778e+00 7.46516287374681e-02 6.73812438461229e-04
3.16100000000000e+00 7.40783749267529e-02 6.71214904110835e-04
3.18522222222222e+00 7.35095231628054e-02 6.68607751049797e-04
3.20944444444444e+00 7.29450396420614e-02 6.65991466256390e-04
3.23366666666667e+00 7.23848908188214e-02 6.63366524452951e-04
3.25788888888889e+00 7.18290434084494e-02 6.60733389391869e-04
3.28211111111111e+00 7.12774643801567e-02 6.58092515143261e-04
3.30633333333333e+00 7.07301209567957e-02 6.55444344797113e-04
3.33055555555556e+00 7.01869806129213e-02 6.52789311702717e-04
3.35477777777778e+00 6.96480110712627e-02 6.50127838282064e-04
3.37900000000000e+00 6.91131803056161e-02 6.47460337220322e-04
3.40322222222222e+00 6.85824565340889e-02 6.44787212659130e-04
3.42744444444444e+00 6.80558082188439e-02 6.42108859406437e-04
3.45166666666667e+00 6.75332040627264e-02 6.39425662274898e-04
3.47588888888889e+00 6.70146130119402e-02 6.36737997207414e-04
3.50011111111111e+00 6.65000042496273e-02 6.34046232405995e-04
3.52433333333333e+00 6.59893471955707e-02 6.31350727127904e-04
3.54855555555556e+00 6.54826115043842e-02 6.28651832773830e-04
3.57277777777778e+00 6.49797670623129e-02 6.25949891784932e-04
3.59700000000000e+00 6.44807839896561e-02 6.23245238689795e-04
3.62122222222222e+00 6.39856326347430e-02 6.20538201155317e-04
3.64544444444444e+00 6.34942835736000e-02 6.17829099246190e-04
3.66966666666667e+00 6.30067076068874e-02 6.15118244799878e-04
3.69388888888889e+00 6.25228757621427e-02 6.12405942419679e-04
3.71811111111111e+00 6.20427592880467e-02 6.09692490471977e-04
3.74233333333333e+00 6.15663296540607e-02 6.06978179974198e-04
3.76655555555556e+00 6.10935585487362e-02 6.04263295557482e-04
3.79077777777778e+00 6.06244178768057e-02 6.01548114445963e-04
3.81500000000000e+00 6.01588797612157e-02 5.98832907383904e-04
3.83922222222222e+00 5.96969165377365e-02 5.96117939567596e-04
3.86344444444444e+00 5.92385007545736e-02 5.93403469955701e-04
3.88766666666667e+00 5.87836051695786e-02 5.90689750683659e-04
3.91188888888889e+00 5.83322027521339e-02 5.87977027945375e-04
3.93611111111111e+00 5.78842666780136e-02 5.85265542879609e-04
3.96033333333333e+00 5.74397703289746e-02 5.82555530545636e-04
3.98455555555556e+00 5.69986872911790e-02 5.79847220779615e-04
4.00877777777778e+00 5.65609913525421e-02 5.77140837252682e-04
4.03300000000000e+00 5.61266565044409e-02 5.74436598296732e-04
4.05722222222222e+00 5.56956569368755e-02 5.71734717735092e-04
4.08144444444444e+00 5.52679670380428e-02 5.69035404243068e-04
4.10566666666667e+00 5.48435613917911e-02 5.66338860802123e-04
4.12988888888889e+00 5.44224147792046e-02 5.63645285486753e-04
4.15411111111111e+00 5.40045021739850e-02 5.60954872256272e-04
4.17833333333333e+00 5.35897987420105e-02 5.58267810012504e-04
4.20255555555556e+00 5.31782798398640e-02 5.55584283365371e-04
4.22677777777778e+00 5.27699210124107e-02 5.52904471765363e-04
4.25100000000000e+00 5.23646979942345e-02 5.50228550242177e-04
4.27522222222222e+00 5.19625867052834e-02 5.47556690148447e-04
4.29944444444444e+00 5.15635632504175e-02 5.44889058568486e-04
4.32366666666667e+00 5.11676039170831e-02 5.42225817811475e-04
4.34788888888889e+00 5.07746851766439e-02 5.39567126116546e-04
4.37211111111111e+00 5.03847836802207e-02 5.36913138362771e-04
4.39633333333333e+00 4.99978762582301e-02 5.34264005203366e-04
4.42055555555556e+00 4.96139399190110e-02 5.31619873752654e-04
4.44477777777778e+00 4.92329518466083e-02 5.28980886787828e-04
4.46900000000000e+00 4.88548894019809e-02 5.26347183412317e-04
4.49322222222222e+00 4.84797301190725e-02 5.23718899723967e-04
4.51744444444444e+00 4.81074517043448e-02 5.21096168269204e-04
4.54166666666667e+00 4.77380320346486e-02 5.18479117573696e-04
4.56588888888889e+00 4.73714491583420e-02 5.15867872776335e-04
4.59011111111111e+00 4.70076812915337e-02 5.13262556268024e-04
4.61433333333333e+00 4.66467068176107e-02 5.10663286896500e-04
4.63855555555556e+00 4.62885042859567e-02 5.08070180584761e-04
4.66277777777778e+00 4.59330524099219e-02 5.05483349597115e-04
4.68700000000000e+00 4.55803300678369e-02 5.02902903136590e-04
4.71122222222222e+00 4.52303162994610e-02 5.00328947947186e-04
4.73544444444444e+00 4.48829903055085e-02 4.97761587810702e-04
4.75966666666667e+00 4.45383314456962e-02 4.95200923112626e-04
4.78388888888889e+00 4.41963192396830e-02 4.92647051413820e-04
4.80811111111111e+00 4.38569333636702e-02 4.90100068026889e-04
4.83233333333333e+00 4.35201536499254e-02 4.87560065286060e-04
4.85655555555556e+00 4.31859600855869e-02 4.85027133105373e-04
4.88077777777778e+00 4.28543328108003e-02 4.82501358304075e-04
4.90500000000000e+00 4.25252521195704e-02 4.79982825146077e-04
4.92922222222222e+00 4.21986984565427e-02 4.77471615884044e-04
4.95344444444444e+00 4.18746524165298e-02 4.74967810295930e-04
4.97766666666667e+00 4.15530947427186e-02 4.72471485283995e-04
5.00188888888889e+00 4.12340063274582e-02 4.69982715391514e-04
5.02611111111111e+00 4.09173682091780e-02 4.67501573324070e-04
5.05033333333333e+00 4.06031615719131e-02 4.65028129279158e-04
5.07455555555556e+00 4.02913677441888e-02 4.62562451451197e-04
5.09877777777778e+00 3.99819681973093e-02 4.60104605411468e-04
5.12300000000000e+00 3.96749445460704e-02 4.57654654596337e-04
5.14722222222222e+00 3.93702785458399e-02 4.55212660800034e-04
5.17144444444444e+00 3.90679520920873e-02 4.52778683747773e-04
5.19566666666667e+00 3.87679472187365e-02 4.50352780725624e-04
5.21988888888889e+00 3.84702460988251e-02 4.47935007048633e-04
5.24411111111111e+00 3.81748310417052e-02 4.45525416533208e-04
5.26833333333333e+00 3.78816844925757e-02 4.43124060881455e-04
5.29255555555556e+00 3.75907890314405e-02 4.40730990138970e-04
5.31677777777778e+00 3.73021273715360e-02 4.38346252124966e-04
5.34100000000000e+00 3.70156823599256e-02 4.35969892875074e-04
5.36522222222222e+00 3.67314369748463e-02 4.33601957088213e-04
5.38944444444444e+00 3.64493743252464e-02 4.31242487733648e-04
5.41366666666667e+00 3.61694776492698e-02 4.28891525709591e-04
5.43788888888889e+00 3.58917303148066e-02 4.26549110267926e-04
5.46211111111111e+00 3.56161158169465e-02 4.24215279443087e-04
5.48633333333333e+00 3.53426177775210e-02 4.21890069486558e-04
5.51055555555556e+00 3.50712199441310e-02 4.19573515282587e-04
5.53477777777778e+00 3.48019061886992e-02 4.17265649824367e-04
5.55900000000000e+00 3.45346605079659e-02 4.14966504616176e-04
5.58322222222222e+00 3.42694670210731e-02 4.12676110079469e-04
5.60744444444444e+00 3.40063099691126e-02 4.10394495191105e-04
5.63166666666667e+00 3.37451737137315e-02 4.08121687168555e-04
5.65588888888889e+00 3.34860427375884e-02 4.05857711855929e-04
5.68011111111111e+00 3.32289016420355e-02 4.03602594113791e-04
5.70433333333333e+00 3.29737351466712e-02 4.01356357299736e-04
5.72855555555556e+00 3.27205280884338e-02 3.99119023646441e-04
5.75277777777778e+00 3.24692654202676e-02 3.96890613780050e-04
5.77700000000000e+00 3.22199322115337e-02 3.94671147085934e-04
5.80122222222222e+00 3.19725136458084e-02 3.92460642078264e-04
5.82544444444444e+00 3.17269950204442e-02 3.90259116066989e-04
5.84966666666667e+00 3.14833617452839e-02 3.88066584867494e-04
5.87388888888889e+00 3.12415993430390e-02 3.85883063151948e-04
5.89811111111111e+00 3.10016934471751e-02 3.83708564804246e-04
5.92233333333333e+00 3.07636298014788e-02 3.81543102442638e-04
5.94655555555556e+00 3.05273942592114e-02 3.79386687763992e-04
5.97077777777778e+00 3.02929727818796e-02 3.77239331100891e-04
5.99500000000000e+00 3.00603514395739e-02 3.75101041754823e-04
6.01922222222222e+00 2.98295164089599e-02 3.72971828332838e-04
6.04344444444444e+00 2.96004539728533e-02 3.70851698440927e-04
6.06766666666667e+00 2.93731505190344e-02 3.68740658416380e-04
6.09188888888889e+00 2.91475925405586e-02 3.66638713647885e-04
6.11611111111111e+00 2.89237666338264e-02 3.64545868899097e-04
6.14033333333333e+00 2.87016594981649e-02 3.62462127869812e-04
6.16455555555556e+00 2.84812579350380e-02 3.60387493509801e-04
6.18877777777778e+00 2.82625488469128e-02 3.58321967611478e-04
6.21300000000000e+00 2.80455192375362e-02 3.56265551113632e-04
6.23722222222222e+00 2.78301562100999e-02 3.54218244408514e-04
6.26144444444444e+00 2.76164469668311e-02 3.52180047059531e-04
6.28566666666667e+00 2.74043788078979e-02 3.50150957554439e-04
6.30988888888889e+00 2.71939391316633e-02 3.48130973597392e-04
6.33411111111111e+00 2.69851154329207e-02 3.46120092404130e-04
6.35833333333333e+00 2.67778953024911e-02 3.44118310298501e-04
6.38255555555556e+00 2.65722664264870e-02 3.42125622998848e-04
6.40677777777778e+00 2.63682165852649e-02 3.40142025243223e-04
6.43100000000000e+00 2.61657336536503e-02 3.38167511066688e-04
6.45522222222222e+00 2.59648055992597e-02 3.36202074081639e-04
6.47944444444444e+00 2.57654204821067e-02 3.34245707217816e-04
6.50366666666667e+00 2.55675664535920e-02 3.32298402494711e-04
6.52788888888889e+00 2.53712317567081e-02 3.30360151288233e-04
6.55211111111111e+00 2.51764047244256e-02 3.28430944600394e-04
6.57633333333333e+00 2.49830737793062e-02 3.26510772688106e-04
6.60055555555556e+00 2.47912274328159e-02 3.24599625324801e-04
6.62477777777778e+00 2.46008542843576e-02 3.22697491455542e-04
6.64900000000000e+00 2.44119430214519e-02 3.20804359450292e-04
6.67322222222222e+00 2.42244824182007e-02 3.18920217360131e-04
6.69744444444444e+00 2.40384613349101e-02 3.17045052677775e-04
6.72166666666667e+00 2.38538687171570e-02 3.15178852127679e-04
6.74588888888889e+00 2.36706935959526e-02 3.13321601909769e-04
6.77011111111111e+00 2.34889250862645e-02 3.11473287945902e-04
6.79433333333333e+00 2.33085523866467e-02 3.09633895538372e-04
6.81855555555556e+00 2.31295647785985e-02 3.07803409609109e-04
6.84277777777778e+00 2.29519516256704e-02 3.05981814382104e-04
6.86700000000000e+00 2.27757023736073e-02 3.04169093615082e-04
6.89122222222222e+00 2.26008065489408e-02 3.02365230833787e-04
6.91544444444444e+00 2.24272537586289e-02 3.00570209111298e-04
6.93966666666667e+00 2.22550336891929e-02 2.98784010874493e-04
6.96388888888889e+00 2.20841361068460e-02 2.97006618126944e-04
6.98811111111111e+00 2.19145508561384e-02 2.95238012674430e-04
7.01233333333333e+00 2.17462678596047e-02 2.93478175810605e-04
7.03655555555556e+00 2.15792771171649e-02 2.91727088535825e-04
7.06077777777778e+00 2.14135687052981e-02 2.89984731264733e-04
7.08500000000000e+00 2.12491327771538e-02 2.88251084038246e-04
7.10922222222222e+00 2.10859595612607e-02 2.86526126737985e-04
7.13344444444444e+00 2.09240393611834e-02 2.84809838882942e-04
7.15766666666667e+00 2.07633625547239e-02 2.83102199450874e-04
7.18188888888889e+00 2.06039195940204e-02 2.81403187082356e-04
7.20611111111111e+00 2.04457010043050e-02 2.79712780287267e-04
7.23033333333333e+00 2.02886973835666e-02 2.78030957155342e-04
7.25455555555556e+00 2.01328994019932e-02 2.76357695556579e-04
7.27877777777778e+00 1.99782978012066e-02 2.74692972871833e-04
7.30300000000000e+00 1.98248833943470e-02 2.73036766186936e-04
7.32722222222222e+00 1.96726470648883e-02 2.71389052489174e-04
7.35144444444444e+00 1.95215797663105e-02 2.69749808479746e-04
7.37566666666667e+00 1.93716725213615e-02 2.68119010409010e-04
7.39988888888889e+00 1.92229164221307e-02 2.66496634263449e-04
7.42411111111111e+00 1.90753026289081e-02 2.64882655954758e-04
7.44833333333333e+00 1.89288223698642e-02 2.63277051053305e-04
7.47255555555556e+00 1.87834669405291e-02 2.61679794971713e-04
7.49677777777778e+00 1.86392277030847e-02 2.60090862716659e-04
7.52100000000000e+00 1.84960960864259e-02 2.58510229066737e-04
7.54522222222222e+00 1.83540635850731e-02 2.56937868752497e-04
7.56944444444444e+00 1.82131217588607e-02 2.55373756283580e-04
7.59366666666667e+00 1.80732622322534e-02 2.53817865796640e-04
7.61788888888889e+00 1.79344766943987e-02 2.52270171226706e-04
7.64211111111111e+00 1.77967568980792e-02 2.50730646480559e-04
