Energy (eV)          EEDF (eV^-(3/2))     First Anisotropy
1.62068965517241e-03 2.81072192889529e+00 1.35520777525611e-03
4.86206896551724e-03 2.79399687882023e+00 2.23870124918376e-03
8.10344827586207e-03 2.77737135026419e+00 2.95763976566768e-03
1.13448275862069e-02 2.76084475102550e+00 3.50522558887639e-03
1.45862068965517e-02 2.74441649247034e+00 3.96308155920586e-03
1.78275862068966e-02 2.72808598929022e+00 4.36202653580873e-03
2.10689655172414e-02 2.71185265991355e+00 4.71798887590423e-03
2.43103448275862e-02 2.69571592610622e+00 5.04057523042632e-03
2.75517241379310e-02 2.67967521307761e+00 5.33614901558185e-03
3.07931034482759e-02 2.66372994945878e+00 5.60920222838094e-03
3.40344827586207e-02 2.64787956728123e+00 5.86305599820251e-03
3.72758620689655e-02 2.63212350195657e+00 6.10025401407526e-03
4.05172413793103e-02 2.61646119225674e+00 6.32279961071761e-03
4.37586206896552e-02 2.60089208029341e+00 6.53230665671454e-03
4.70000000000000e-02 2.58541561149804e+00 6.73009987035838e-03
5.02413793103448e-02 2.57003123457211e+00 6.91728392686576e-03
5.34827586206897e-02 2.55473840155990e+00 7.09479253128115e-03
5.67241379310345e-02 2.53953656773373e+00 7.26342415152263e-03
5.99655172413793e-02 2.52442519160739e+00 7.42386859584544e-03
6.32068965517242e-02 2.50940373491682e+00 7.57672718108232e-03
6.64482758620690e-02 2.49447166260081e+00 7.72252828340136e-03
6.96896551724138e-02 2.47962844278214e+00 7.86173950904995e-03
7.29310344827586e-02 2.46487354674859e+00 7.99477734600390e-03
7.61724137931035e-02 2.45020644893405e+00 8.12201490887224e-03
7.94137931034483e-02 2.43562662689977e+00 8.24378822274374e-03
8.26551724137931e-02 2.42113356129885e+00 8.36040136054595e-03
8.58965517241379e-02 2.40672673590943e+00 8.47213069814043e-03
8.91379310344828e-02 2.39240563756358e+00 8.57922845922693e-03
9.23793103448276e-02 2.37816975614696e+00 8.68192567906397e-03
9.56206896551724e-02 2.36401858458066e+00 8.78043471704575e-03
9.88620689655172e-02 2.34995161880307e+00 8.87495139925580e-03
1.02103448275862e-01 2.33596835769803e+00 8.96565681348399e-03
1.05344827586207e-01 2.32206830328049e+00 9.05271890864205e-03
1.08586206896552e-01 2.30825096042910e+00 9.13629388663164e-03
1.11827586206897e-01 2.29451583685196e+00 9.21652728702603e-03
1.15068965517241e-01 2.28086244342904e+00 9.29355506993018e-03
1.18310344827586e-01 2.26729029382607e+00 9.36750455492297e-03
1.21551724137931e-01 2.25379890460318e+00 9.43849517277066e-03
1.24793103448276e-01 2.24038779509580e+00 9.50663913383649e-03
1.28034482758621e-01 2.22705648770815e+00 9.57204208387140e-03
1.31275862068966e-01 2.21380450757926e+00 9.63480370611886e-03
1.34517241379310e-01 2.20063138258140e+00 9.69501811141614e-03
1.37758620689655e-01 2.18753664358677e+00 9.75277433001145e-03
1.41000000000000e-01 2.17451982416107e+00 9.80815675430481e-03
1.44241379310345e-01 2.16158046056085e+00 9.86124539728762e-03
1.47482758620690e-01 2.14871809197693e+00 9.91211626211447e-03
1.50724137931035e-01 2.13593226025236e+00 9.96084167736620e-03
1.53965517241379e-01 2.12322250987821e+00 1.00074904674790e-02
1.57206896551724e-01 2.11058838821710e+00 1.00521282379587e-02
1.60448275862069e-01 2.09802944524264e+00 1.00948176360939e-02
1.63689655172414e-01 2.08554523353352e+00 1.01356184611336e-02
1.66931034482759e-01 2.07313530847988e+00 1.01745878897020e-02
1.70172413793103e-01 2.06079922804151e+00 1.02117806700383e-02
1.73413793103448e-01 2.04853655280859e+00 1.02472492436977e-02
1.76655172413793e-01 2.03634684592070e+00 1.02810438606113e-02
1.79896551724138e-01 2.02422967325037e+00 1.03132127347229e-02
1.83137931034483e-01 2.01218460318522e+00 1.03438022015349e-02
1.86379310344828e-01 2.00021120662044e+00 1.03728567495237e-02
1.89620689655172e-01 1.98830905712902e+00 1.04004191610586e-02
1.92862068965517e-01 1.97647773075770e+00 1.04265306435086e-02
1.96103448275862e-01 1.96471680601925e+00 1.04512308413762e-02
1.99344827586207e-01 1.95302586405072e+00 1.04745579551284e-02
2.02586206896552e-01 1.94140448842228e+00 1.04965488522020e-02
2.05827586206897e-01 1.92985226512866e+00 1.05172390651178e-02
2.09068965517241e-01 1.91836878273711e+00 1.05366628931226e-02
2.12310344827586e-01 1.90695363220766e+00 1.05548534865886e-02
2.15551724137931e-01 1.89560640693438e+00 1.05718428792202e-02
2.18793103448276e-01 1.88432670268205e+00 1.05876620207215e-02
2.22034482758621e-01 1.87311411772008e+00 1.06023408489954e-02
2.25275862068966e-01 1.86196825265790e+00 1.06159083694234e-02
2.28517241379310e-01 1.85088871043559e+00 1.06283926338226e-02
2.31758620689655e-01 1.83987509644945e+00 1.06398208145223e-02
2.35000000000000e-01 1.82892701839619e+00 1.06502192744028e-02
2.38241379310345e-01 1.81804408626371e+00 1.06596135408327e-02
2.41482758620690e-01 1.80722591244883e+00 1.06680283717166e-02
2.44724137931035e-01 1.79647211160990e+00 1.06754878180401e-02
2.47965517241379e-01 1.78578230065733e+00 1.06820151941564e-02
2.51206896551724e-01 1.77515609886441e+00 1.06876331371758e-02
2.54448275862069e-01 1.76459312772762e+00 1.06923636633891e-02
2.57689655172414e-01 1.75409301095685e+00 1.06962281359257e-02
2.60931034482759e-01 1.74365537458002e+00 1.06992473185693e-02
2.64172413793103e-01 1.73327984681034e+00 1.07014414180687e-02
2.67413793103448e-01 1.72296605807335e+00 1.07028300861365e-02
2.70655172413793e-01 1.71271364095780e+00 1.07034324233371e-02
2.73896551724138e-01 1.70252223031160e+00 1.07032670171083e-02
2.77137931034483e-01 1.69239146311846e+00 1.07023519872099e-02
2.80379310344828e-01 1.68232097848822e+00 1.07007049504214e-02
2.83620689655172e-01 1.67231041774731e+00 1.06983430644224e-02
2.86862068965517e-01 1.66235942432132e+00 1.06952830697062e-02
2.90103448275862e-01 1.65246764372527e+00 1.06915412535861e-02
2.93344827586207e-01 1.64263472364928e+00 1.06871334908788e-02
2.96586206896552e-01 1.63286031384651e+00 1.06820752828154e-02
2.99827586206897e-01 1.62314406612345e+00 1.06763817206868e-02
3.03068965517241e-01 1.61348563442103e+00 1.06700675237024e-02
3.06310344827586e-01 1.60388467470772e+00 1.06631470675681e-02
3.09551724137931e-01 1.59434084499915e+00 1.06556343791067e-02
3.12793103448276e-01 1.58485380531718e+00 1.06475431327834e-02
3.16034482758621e-01 1.57542321776491e+00 1.06388866770015e-02
3.19275862068966e-01 1.56604874642658e+00 1.06296780672801e-02
3.22517241379310e-01 1.55673005735793e+00 1.06199300302663e-02
3.25758620689655e-01 1.54746681865730e+00 1.06096549961900e-02
3.29000000000000e-01 1.53825870036989e+00 1.05988651300681e-02
3.32241379310345e-01 1.52910537447814e+00 1.05875722959766e-02
3.35482758620690e-01 1.52000651496934e+00 1.05757880876960e-02
3.38724137931035e-01 1.51096179774386e+00 1.05635238581778e-02
3.41965517241379e-01 1.50197090060562e+00 1.05507906841878e-02
3.45206896551724e-01 1.49303350332641e+00 1.05375993953014e-02
3.48448275862069e-01 1.48414928755786e+00 1.05239606018402e-02
3.51689655172414e-01 1.47531793682204e+00 1.05098846599669e-02
3.54931034482759e-01 1.46653913657260e+00 1.04953816991774e-02
3.58172413793103e-01 1.45781257411043e+00 1.04804616423403e-02
3.61413793103448e-01 1.44913793859709e+00 1.04651341974600e-02
3.64655172413793e-01 1.44051492102138e+00 1.04494088511194e-02
3.67896551724138e-01 1.43194321425621e+00 1.04332948872334e-02
3.71137931034483e-01 1.42342251297908e+00 1.04168014118017e-02
3.74379310344828e-01 1.41495251366284e+00 1.03999373195255e-02
3.77620689655172e-01 1.40653291462994e+00 1.03827113182713e-02
3.80862068965517e-01 1.39816341597591e+00 1.03651319526791e-02
3.84103448275862e-01 1.38984371956032e+00 1.03472075713809e-02
3.87344827586207e-01 1.38157352905845e+00 1.03289463503900e-02
3.90586206896552e-01 1.37335254988777e+00 1.03103563156854e-02
3.93827586206897e-01 1.36518048919891e+00 1.02914453110547e-02
3.97068965517241e-01 1.35705705592505e+00 1.02722210204673e-02
4.00310344827586e-01 1.34898196071114e+00 1.02526909840243e-02
4.03551724137931e-01 1.34095491592394e+00 1.02328625893215e-02
4.06793103448276e-01 1.33297563562318e+00 1.02127430642844e-02
4.10034482758621e-01 1.32504383560762e+00 1.01923394922140e-02
4.13275862068966e-01 1.31715923334816e+00 1.01716588322030e-02
4.16517241379310e-01 1.30932154797905e+00 1.01507078886732e-02
4.19758620689655e-01 1.30153050034190e+00 1.01294933316108e-02
4.23000000000000e-01 1.29378581292116e+00 1.01080217161712e-02
4.26241379310345e-01 1.28608720983553e+00 1.00862994528589e-02
4.29482758620690e-01 1.27843441687999e+00 1.00643328270052e-02
4.32724137931035e-01 1.27082716146361e+00 1.00421280176262e-02
4.35965517241379e-01 1.26326517260104e+00 1.00196910682506e-02
4.39206896551724e-01 1.25574818095275e+00 9.99702790566763e-03
4.42448275862069e-01 1.24827591876506e+00 9.97414435810391e-03
4.45689655172414e-01 1.24084811986167e+00 9.95104612669483e-03
4.48931034482759e-01 1.23346451968221e+00 9.92773880353734e-03
4.52172413793104e-01 1.22612485522439e+00 9.90422788434966e-03
4.55413793103448e-01 1.21882886505091e+00 9.88051876016137e-03
4.58655172413793e-01 1.21157628926512e+00 9.85661671024245e-03
4.61896551724138e-01 1.20436686954719e+00 9.83252691411759e-03
4.65137931034483e-01 1.19720034909909e+00 9.80825446822013e-03
4.68379310344828e-01 1.19007647263643e+00 9.78380435898740e-03
4.71620689655172e-01 1.18299498642306e+00 9.75918147942761e-03
4.74862068965517e-01 1.17595563821790e+00 9.73439064519506e-03
4.78103448275862e-01 1.16895817726695e+00 9.70943656830177e-03
4.81344827586207e-01 1.16200235433641e+00 9.68432387313450e-03
4.84586206896552e-01 1.15508792166131e+00 9.65905711199904e-03
4.87827586206897e-01 1.14821463293764e+00 9.63364073943701e-03
4.91068965517241e-01 1.14138224335404e+00 9.60807912770494e-03
4.94310344827586e-01 1.13459050954224e+00 9.58237657750344e-03
4.97551724137931e-01 1.12783918958214e+00 9.55653731021519e-03
5.00793103448276e-01 1.12112804298044e+00 9.53056546121901e-03
5.04034482758621e-01 1.11445683070056e+00 9.50446509010651e-03
5.07275862068966e-01 1.10782531511533e+00 9.47824019504805e-03
5.10517241379310e-01 1.10123325999932e+00 9.45189468859570e-03
5.13758620689655e-01 1.09468043055751e+00 9.42543241197933e-03
5.17000000000000e-01 1.08816659337949e+00 9.39885714901272e-03
5.20241379310345e-01 1.08169151643196e+00 9.37217260246276e-03
5.23482758620690e-01 1.07525496908619e+00 9.34538240790845e-03
5.26724137931035e-01 1.06885672207371e+00 9.31849014721600e-03
5.29965517241379e-01 1.06249654747894e+00 9.29149932546411e-03
5.33206896551724e-01 1.05617421876550e+00 9.26441338437600e-03
5.36448275862069e-01 1.04988951073342e+00 9.23723571539562e-03
5.39689655172414e-01 1.04364219951171e+00 9.20996963715202e-03
5.42931034482759e-01 1.03743206258378e+00 9.18261840847699e-03
5.46172413793104e-01 1.03125887874588e+00 9.15518523736493e-03
5.49413793103448e-01 1.02512242811054e+00 9.12767327395307e-03
5.52655172413793e-01 1.01902249208824e+00 9.10008560441524e-03
5.55896551724138e-01 1.01295885341130e+00 9.07242525951144e-03
5.59137931034483e-01 1.00693129609422e+00 9.04469522673668e-03
5.62379310344828e-01 1.00093960542658e+00 9.01689842909469e-03
5.65620689655172e-01 9.94983567996019e-01 8.98903773720825e-03
5.68862068965517e-01 9.89062971649764e-01 8.96111598110912e-03
5.72103448275862e-01 9.83177605487686e-01 8.93313592951068e-03
5.75344827586207e-01 9.77327259884318e-01 8.90510030157226e-03
5.78586206896552e-01 9.71511726451615e-01 8.87701177835435e-03
5.81827586206897e-01 9.65730798032091e-01 8.84887298257935e-03
5.85068965517241e-01 9.59984268719996e-01 8.82068649005228e-03
5.88310344827586e-01 9.54271933825205e-01 8.79245483746813e-03
5.91551724137931e-01 9.48593589875596e-01 8.76418051600737e-03
5.94793103448276e-01 9.42949034600795e-01 8.73586596573389e-03
5.98034482758621e-01 9.37338066952173e-01 8.70751358305517e-03
6.01275862068966e-01 9.31760487068286e-01 8.67912573141580e-03
6.04517241379310e-01 9.26216096268252e-01 8.65070472222795e-03
6.07758620689655e-01 9.20704697070982e-01 8.62225282552317e-03
6.11000000000000e-01 9.15226093161633e-01 8.59377228034442e-03
6.14241379310345e-01 9.09780089385112e-01 8.56526527612134e-03
6.17482758620690e-01 9.04366491764568e-01 8.53673396303723e-03
6.20724137931035e-01 8.98985107468831e-01 8.50818046213500e-03
6.23965517241379e-01 8.93635744806024e-01 8.47960684712788e-03
6.27206896551724e-01 8.88318213241348e-01 8.45101515448149e-03
6.30448275862069e-01 8.83032323365493e-01 8.42240739325093e-03
6.33689655172414e-01 8.77777886888332e-01 8.39378552731812e-03
6.36931034482759e-01 8.72554716656050e-01 8.36515148519546e-03
6.40172413793104e-01 8.67362626620470e-01 8.33650716669928e-03
6.43413793103448e-01 8.62201431840486e-01 8.30785443724770e-03
6.46655172413793e-01 8.57070948467948e-01 8.27919512284231e-03
6.49896551724138e-01 8.51970993763857e-01 8.25053101645586e-03
6.53137931034483e-01 8.46901386068944e-01 8.22186388724036e-03
6.56379310344828e-01 8.41861944797611e-01 8.19319546377688e-03
6.59620689655173e-01 8.36852490453519e-01 8.16452744325837e-03
6.62862068965517e-01 8.31872844601000e-01 8.13586150044974e-03
6.66103448275862e-01 8.26922829859107e-01 8.10719927132893e-03
6.69344827586207e-01 8.22002269916621e-01 8.07854236202792e-03
6.72586206896552e-01 8.17110989504277e-01 8.04989235756086e-03
6.75827586206897e-01 8.12248814388906e-01 8.02125080584713e-03
6.79068965517241e-01 8.07415571387890e-01 7.99261922641279e-03
6.82310344827586e-01 8.02611088342181e-01 7.96399911629439e-03
6.85551724137931e-01 7.97835194117155e-01 7.93539194486639e-03
6.88793103448276e-01 7.93087718589979e-01 7.90679914927407e-03
6.92034482758621e-01 7.88368492663299e-01 7.87822214008529e-03
6.95275862068966e-01 7.83677348239330e-01 7.84966230948357e-03
6.98517241379310e-01 7.79014118214211e-01 7.82112101619289e-03
7.01758620689655e-01 7.74378636491190e-01 7.79259959363945e-03
7.05000000000000e-01 7.69770737955431e-01 7.76409935793157e-03
7.08241379310345e-01 7.65190258468469e-01 7.73562159313174e-03
7.11482758620690e-01 7.60637034880910e-01 7.70716755921510e-03
7.14724137931035e-01 7.56110905007937e-01 7.67873849984510e-03
7.17965517241379e-01 7.51611707623853e-01 7.65033562798403e-03
7.21206896551724e-01 7.47139282474325e-01 7.62196013364908e-03
7.24448275862069e-01 7.42693470252560e-01 7.59361319149549e-03
7.27689655172414e-01 7.38274112593938e-01 7.56529594675716e-03
7.30931034482759e-01 7.33881052087815e-01 7.53700952280264e-03
7.34172413793103e-01 7.29514132254352e-01 7.50875502624984e-03
7.37413793103448e-01 7.25173197544837e-01 7.48053354237863e-03
7.40655172413793e-01 7.20858093330613e-01 7.45234613106228e-03
7.43896551724138e-01 7.16568665914267e-01 7.42419383166801e-03
7.47137931034483e-01 7.12304762507349e-01 7.39607767018598e-03
7.50379310344828e-01 7.08066231225207e-01 7.36799864595305e-03
7.53620689655172e-01 7.03852921097772e-01 7.33995773876166e-03
7.56862068965517e-01 6.99664682047873e-01 7.31195591580643e-03
7.60103448275862e-01 6.95501364886167e-01 7.28399411871345e-03
7.63344827586207e-01 6.91362821321532e-01 7.25607327047217e-03
7.66586206896552e-01 6.87248903939967e-01 7.22819428221245e-03
7.69827586206897e-01 6.83159466199606e-01 7.20035804053157e-03
7.73068965517241e-01 6.79094362440737e-01 7.17256541425079e-03
7.76310344827586e-01 6.75053447865272e-01 7.14481725897705e-03
7.79551724137931e-01 6.71036578536737e-01 7.11711441294491e-03
7.82793103448276e-01 6.67043611370305e-01 7.08945769332354e-03
7.86034482758621e-01 6.63074404142313e-01 7.06184790058993e-03
7.89275862068966e-01 6.59128815470485e-01 7.03428582491331e-03
7.92517241379310e-01 6.55206704809138e-01 7.00677223417688e-03
7.95758620689655e-01 6.51307932458358e-01 6.97930788034132e-03
7.99000000000000e-01 6.47432359544743e-01 6.95189350567190e-03
8.02241379310345e-01 6.43579848016693e-01 6.92452983103003e-03
8.05482758620690e-01 6.39750260653262e-01 6.89721756208539e-03
8.08724137931035e-01 6.35943461045401e-01 6.86995739539087e-03
8.11965517241379e-01 6.32159313591334e-01 6.84275000694105e-03
8.15206896551724e-01 6.28397683505092e-01 6.81559605823164e-03
8.18448275862069e-01 6.24658436798252e-01 6.78849620219201e-03
8.21689655172414e-01 6.20941440275382e-01 6.76145107200024e-03
8.24931034482759e-01 6.17246561542285e-01 6.73446128699391e-03
8.28172413793104e-01 6.13573668988209e-01 6.70752745665703e-03
8.31413793103448e-01 6.09922631785545e-01 6.68065017693043e-03
8.34655172413793e-01 6.06293319881041e-01 6.65383002692804e-03
8.37896551724138e-01 6.02685604003627e-01 6.62706757275801e-03
8.41137931034483e-01 5.99099355647272e-01 6.60036337311526e-03
8.44379310344828e-01 5.95534447066607e-01 6.57371796870685e-03
8.47620689655172e-01 5.91990751284476e-01 6.54713188782721e-03
8.50862068965517e-01 5.88468142075228e-01 6.52060565181581e-03
8.54103448275862e-01 5.84966493960420e-01 6.49413976471843e-03
8.57344827586207e-01 5.81485682216103e-01 6.46773471873140e-03
8.60586206896552e-01 5.78025582856543e-01 6.44139099953047e-03
8.63827586206897e-01 5.74586072629996e-01 6.41510907616460e-03
8.67068965517241e-01 5.71167029025736e-01 6.38888940636965e-03
8.70310344827586e-01 5.67768330258200e-01 6.36273244014191e-03
8.73551724137931e-01 5.64389855266502e-01 6.33663861639450e-03
8.76793103448276e-01 5.61031483706489e-01 6.31060835997501e-03
8.80034482758621e-01 5.57693095957427e-01 6.28464208509417e-03
8.83275862068966e-01 5.54374573106692e-01 6.25874020035866e-03
8.86517241379310e-01 5.51075796945718e-01 6.23290309920787e-03
8.89758620689655e-01 5.47796649976439e-01 6.20713116492820e-03
8.93000000000000e-01 5.44537015396377e-01 6.18142477556565e-03
8.96241379310345e-01 5.41296777094650e-01 6.15578429457525e-03
8.99482758620690e-01 5.38075819658198e-01 6.13021007571930e-03
9.02724137931035e-01 5.34874028357243e-01 6.10470246786653e-03
9.05965517241379e-01 5.31691289141361e-01 6.07926180584847e-03
9.09206896551724e-01 5.28527488645501e-01 6.05388841524205e-03
9.12448275862069e-01 5.25382514175802e-01 6.02858261705848e-03
9.15689655172414e-01 5.22256253705736e-01 6.00334471880352e-03
9.18931034482759e-01 5.19148595881917e-01 5.97817501914756e-03
9.22172413793104e-01 5.16059430010274e-01 5.95307381106573e-03
9.25413793103448e-01 5.12988646055418e-01 5.92804137887066e-03
9.28655172413793e-01 5.09936134633597e-01 5.90307799555720e-03
9.31896551724138e-01 5.06901787018221e-01 5.87818392581576e-03
9.35137931034483e-01 5.03885495126512e-01 5.85335943046355e-03
9.38379310344828e-01 5.00887151515801e-01 5.82860475797791e-03
9.41620689655173e-01 4.97906649388857e-01 5.80392014891163e-03
9.44862068965517e-01 4.94943882580865e-01 5.77930584021955e-03
9.48103448275862e-01 4.91998745555791e-01 5.75476205697910e-03
9.51344827586207e-01 4.89071133411525e-01 5.73028901670465e-03
9.54586206896552e-01 4.86160941867184e-01 5.70588693357467e-03
9.57827586206897e-01 4.83268067259532e-01 5.68155601033590e-03
9.61068965517242e-01 4.80392406547953e-01 5.65729644251576e-03
9.64310344827586e-01 4.77533857302064e-01 5.63310842125191e-03
9.67551724137931e-01 4.74692317700986e-01 5.60899213059728e-03
9.70793103448276e-01 4.71867686526963e-01 5.58494774510790e-03
9.74034482758621e-01 4.69059863170080e-01 5.56097543255807e-03
9.77275862068966e-01 4.66268747616307e-01 5.53707535793876e-03
9.80517241379310e-01 4.63494240444052e-01 5.51324767578878e-03
9.83758620689655e-01 4.60736242828733e-01 5.48949253417819e-03
9.87000000000000e-01 4.57994656531100e-01 5.46581007861500e-03
9.90241379310345e-01 4.55269383893856e-01 5.44220044454303e-03
9.93482758620690e-01 4.52560327846068e-01 5.41866376123566e-03
9.96724137931035e-01 4.49867391891772e-01 5.39520015561417e-03
9.99965517241379e-01 4.47190480106657e-01 5.37180974851598e-03
1.00320689655172e+00 4.44529497134735e-01 5.34849264882403e-03
1.00644827586207e+00 4.41884348197592e-01 5.32524896087338e-03
1.00968965517241e+00 4.39254939075686e-01 5.30207877647546e-03
1.01293103448276e+00 4.36641176134665e-01 5.27898220295750e-03
1.01617241379310e+00 4.34042966248038e-01 5.25595934211266e-03
1.01941379310345e+00 4.31460216868222e-01 5.23301026638681e-03
1.02265517241379e+00 4.28892835998331e-01 5.21013505490485e-03
