Energy (eV)          EEDF (eV^-(3/2))     First Anisotropy
1.02187500000000e-01 3.83040213555848e-02 3.56616817816883e-05
3.06562500000000e-01 3.74861082881177e-02 5.84553694636512e-05
5.10937500000000e-01 3.66856602742477e-02 7.60311387129344e-05
7.15312500000000e-01 3.59023043793565e-02 8.87115447804856e-05
9.19687500000000e-01 3.51356756321704e-02 9.87450031635580e-05
1.12406250000000e+00 3.43854168547167e-02 1.07001131612759e-04
1.32843750000000e+00 3.36511784959122e-02 1.13939662885851e-04
1.53281250000000e+00 3.29326184687043e-02 1.19843937280766e-04
1.73718750000000e+00 3.22294019906909e-02 1.24905587592021e-04
1.94156250000000e+00 3.15412014281419e-02 1.29262623368100e-04
2.14593750000000e+00 3.08676961433530e-02 1.33019055522487e-04
2.35031250000000e+00 3.02085723452577e-02 1.36256016202607e-04
2.55468750000000e+00 2.95635229432299e-02 1.39038519766870e-04
2.75906250000000e+00 2.89322474040084e-02 1.41419804310556e-04
2.96343750000000e+00 2.83144516116759e-02 1.43444244110283e-04
3.16781250000000e+00 2.77098477306281e-02 1.45149374698364e-04
3.37218750000000e+00 2.71181540714696e-02 1.46567343788000e-04
3.57656250000000e+00 2.65390949597720e-02 1.47725977659787e-04
3.78093750000000e+00 2.59724006076357e-02 1.48649582311565e-04
3.98531250000000e+00 2.54178069879935e-02 1.49359556954579e-04
4.18968750000000e+00 2.48750557115984e-02 1.49874871769998e-04
4.39406250000000e+00 2.43438939066383e-02 1.50212445541901e-04
4.59843750000000e+00 2.38240741009212e-02 1.50387448145765e-04
4.80281250000000e+00 2.33153541065758e-02 1.50413545757986e-04
5.00718750000000e+00 2.28174969072145e-02 1.50303101790450e-04
5.21156250000000e+00 2.23302705475061e-02 1.50067343166474e-04
5.41593750000000e+00 2.18534480251056e-02 1.49716499151939e-04
5.62031250000000e+00 2.13868071848922e-02 1.49259918224255e-04
5.82468750000000e+00 2.09301306154659e-02 1.48706167196108e-04
6.02906250000000e+00 2.04832055478539e-02 1.48063115873243e-04
6.23343750000000e+00 2.00458237563794e-02 1.47338009822217e-04
6.43781250000000e+00 1.96177814616486e-02 1.46537533290599e-04
6.64218750000000e+00 1.91988792356077e-02 1.45667863913271e-04
6.84656250000000e+00 1.87889219086281e-02 1.44734720522020e-04
7.05093750000000e+00 1.83877184785757e-02 1.43743405128539e-04
7.25531250000000e+00 1.79950820218210e-02 1.42698839956322e-04
7.45968750000000e+00 1.76108296061507e-02 1.41605600242515e-04
7.66406250000000e+00 1.72347822055379e-02 1.40467943407242e-04
7.86843750000000e+00 1.68667646167323e-02 1.39289835088500e-04
8.07281250000000e+00 1.65066053776323e-02 1.38074972460084e-04
8.27718750000000e+00 1.61541366873990e-02 1.36826805184274e-04
8.48156250000000e+00 1.58091943282770e-02 1.35548554297141e-04
8.68593750000000e+00 1.54716175890838e-02 1.34243229279789e-04
8.89031250000000e+00 1.51412491903334e-02 1.32913643532032e-04
9.09468750000000e+00 1.48179352109585e-02 1.31562428434244e-04
9.29906250000000e+00 1.45015250165981e-02 1.30192046157446e-04
9.50343750000000e+00 1.41918711894150e-02 1.28804801359998e-04
9.70781250000000e+00 1.38888294594134e-02 1.27402851891037e-04
9.91218750000000e+00 1.35922586372220e-02 1.25988218605310e-04
1.01165625000000e+01 1.33020205483134e-02 1.24562794380827e-04
1.03209375000000e+01 1.30179799686268e-02 1.23128352419531e-04
1.05253125000000e+01 1.27400045615669e-02 1.21686553901465e-04
1.07296875000000e+01 1.24679648163468e-02 1.20238955054633e-04
1.09340625000000e+01 1.22017339876479e-02 1.18787013695575e-04
1.11384375000000e+01 1.19411880365690e-02 1.17332095289404e-04
1.13428125000000e+01 1.16862055728347e-02 1.15875478572687e-04
1.15471875000000e+01 1.14366677982396e-02 1.14418360777859e-04
1.17515625000000e+01 1.11924584512990e-02 1.12961862493687e-04
1.19559375000000e+01 1.09534637530817e-02 1.11507032192735e-04
1.21603125000000e+01 1.07195723541998e-02 1.10054850453615e-04
1.23646875000000e+01 1.04906752829301e-02 1.08606233902996e-04
1.25690625000000e+01 1.02666658944432e-02 1.07162038899888e-04
1.27734375000000e+01 1.00474398211174e-02 1.05723064982565e-04
1.29778125000000e+01 9.83289492391251e-03 1.04290058096509e-04
1.31821875000000e+01 9.62293124478264e-03 1.02863713620077e-04
1.33865625000000e+01 9.41745096010526e-03 1.01444679203046e-04
1.35909375000000e+01 9.21635833510424e-03 1.00033557431845e-04
1.37953125000000e+01 9.01955967924636e-03 9.86309083340159e-05
1.39996875000000e+01 8.82696330259023e-03 9.72372517334031e-05
1.42040625000000e+01 8.63847947306725e-03 9.58530694665633e-05
1.44084375000000e+01 8.45402037467476e-03 9.44788074699849e-05
1.46128125000000e+01 8.27350006656195e-03 9.31148777469444e-05
1.48171875000000e+01 8.09683444298939e-03 9.17616602220956e-05
1.50215625000000e+01 7.92394119414350e-03 9.04195044912214e-05
1.52259375000000e+01 7.75473976778787e-03 8.90887314730080e-05
1.54303125000000e+01 7.58915133173332e-03 8.77696349691634e-05
1.56346875000000e+01 7.42709873710944e-03 8.64624831387067e-05
1.58390625000000e+01 7.26850648242035e-03 8.51675198918316e-05
1.60434375000000e+01 7.11330067836799e-03 8.38849662083278e-05
1.62478125000000e+01 6.96140901342657e-03 8.26150213851796e-05
1.64521875000000e+01 6.81276072015209e-03 8.13578642176508e-05
1.66565625000000e+01 6.66728654221128e-03 8.01136541178163e-05
1.68609375000000e+01 6.52491870211453e-03 7.88825321742536e-05
1.70653125000000e+01 6.38559086963789e-03 7.76646221563414e-05
1.72696875000000e+01 6.24923813091933e-03 7.64600314663607e-05
1.74740625000000e+01 6.11579695821488e-03 7.52688520424037e-05
1.76784375000000e+01 5.98520518030060e-03 7.40911612148729e-05
1.78828125000000e+01 5.85740195350652e-03 7.29270225191780e-05
1.80871875000000e+01 5.73232773336919e-03 7.17764864670703e-05
1.82915625000000e+01 5.60992424688939e-03 7.06395912788848e-05
1.84959375000000e+01 5.49013446538239e-03 6.95163635788345e-05
1.87003125000000e+01 5.37290257790782e-03 6.84068190553554e-05
1.89046875000000e+01 5.25817396526695e-03 6.73109630883696e-05
1.91090625000000e+01 5.14589517455523e-03 6.62287913452311e-05
1.93134375000000e+01 5.03601389425813e-03 6.51602903470081e-05
1.95178125000000e+01 4.92847892987891e-03 6.41054380066570e-05
1.97221875000000e+01 4.82324018008662e-03 6.30642041405423e-05
1.99265625000000e+01 4.72024861337363e-03 6.20365509546833e-05
2.01309375000000e+01 4.61945624521139e-03 6.10224335070167e-05
2.03353125000000e+01 4.52081611569415e-03 6.00218001468980e-05
2.05396875000000e+01 4.42428226766000e-03 5.90345929329967e-05
2.07440625000000e+01 4.32980972527902e-03 5.80607480306593e-05
2.09484375000000e+01 4.23735447309880e-03 5.71001960897698e-05
2.11528125000000e+01 4.14687343553726e-03 5.61528626040785e-05
2.13571875000000e+01 4.05832445681341e-03 5.52186682529051e-05
2.15615625000000e+01 3.97166628130671e-03 5.42975292260861e-05
2.17659375000000e+01 3.88685853433575e-03 5.33893575329840e-05
2.19703125000000e+01 3.80386170334736e-03 5.24940612963252e-05
2.21746875000000e+01 3.72263711950748e-03 5.16115450316036e-05
2.23790625000000e+01 3.64314693968501e-03 5.07417099127468e-05
2.25834375000000e+01 3.56535412882045e-03 4.98844540246971e-05
2.27878125000000e+01 3.48922244267098e-03 4.90396726035283e-05
2.29921875000000e+01 3.41471641092400e-03 4.82072582646975e-05
2.31965625000000e+01 3.34180132067126e-03 4.73871012199846e-05
2.34009375000000e+01 3.27044320023585e-03 4.65790894836582e-05
2.36053125000000e+01 3.20060880334457e-03 4.57831090683685e-05
2.38096875000000e+01 3.13226559363819e-03 4.49990441712505e-05
2.40140625000000e+01 3.06538172951259e-03 4.42267773506915e-05
2.42184375000000e+01 2.99992604928349e-03 4.34661896941991e-05
2.44228125000000e+01 2.93586805666797e-03 4.27171609777808e-05
2.46271875000000e+01 2.87317790657608e-03 4.19795698172259e-05
2.48315625000000e+01 2.81182639120574e-03 4.12532938116682e-05
2.50359375000000e+01 2.75178492643463e-03 4.05382096797762e-05
2.52403125000000e+01 2.69302553850267e-03 3.98341933889174e-05
2.54446875000000e+01 2.63552085097879e-03 3.91411202776167e-05
2.56490625000000e+01 2.57924407200607e-03 3.84588651716108e-05
2.58534375000000e+01 2.52416898181922e-03 3.77873024937990e-05
2.60578125000000e+01 2.47026992052858e-03 3.71263063683628e-05
2.62621875000000e+01 2.41752177616504e-03 3.64757507193206e-05
2.64665625000000e+01 2.36589997298012e-03 3.58355093637755e-05
2.66709375000000e+01 2.31538045999599e-03 3.52054561000928e-05
2.68753125000000e+01 2.26593969979993e-03 3.45854647912400e-05
2.70796875000000e+01 2.21755465757809e-03 3.39754094435087e-05
2.72840625000000e+01 2.17020279038337e-03 3.33751642808280e-05
2.74884375000000e+01 2.12386203663254e-03 3.27846038148700e-05
2.76928125000000e+01 2.07851080582754e-03 3.22036029111410e-05
2.78971875000000e+01 2.03412796849635e-03 3.16320368512372e-05
2.81015625000000e+01 1.99069284634856e-03 3.10697813914383e-05
2.83059375000000e+01 1.94818520264127e-03 3.05167128178137e-05
2.85103125000000e+01 1.90658523275059e-03 2.99727079979927e-05
2.87146875000000e+01 1.86587355494455e-03 2.94376444297516e-05
2.89190625000000e+01 1.82603120135298e-03 2.89114002865687e-05
2.91234375000000e+01 1.78703960913026e-03 2.83938544602775e-05
2.93278125000000e+01 1.74888061180676e-03 2.78848866009587e-05
2.95321875000000e+01 1.71153643082493e-03 2.73843771541961e-05
2.97365625000000e+01 1.67498966725615e-03 2.68922073958132e-05
2.99409375000000e+01 1.63922329369444e-03 2.64082594642123e-05
3.01453125000000e+01 1.60422064632327e-03 2.59324163904249e-05
3.03496875000000e+01 1.56996541715174e-03 2.54645621259781e-05
3.05540625000000e+01 1.53644164641661e-03 2.50045815686819e-05
3.07584375000000e+01 1.50363371514649e-03 2.45523605864315e-05
3.09628125000000e+01 1.47152633788487e-03 2.41077860391194e-05
3.11671875000000e+01 1.44010455556851e-03 2.36707457987452e-05
3.13715625000000e+01 1.40935372855789e-03 2.32411287678091e-05
3.15759375000000e+01 1.37925952981649e-03 2.28188248960704e-05
3.17803125000000e+01 1.34980793823577e-03 2.24037251957483e-05
3.19846875000000e+01 1.32098523210256e-03 2.19957217552390e-05
3.21890625000000e+01 1.29277798270604e-03 2.15947077514225e-05
3.23934375000000e+01 1.26517304808125e-03 2.12005774606263e-05
3.25978125000000e+01 1.23815756688607e-03 2.08132262683109e-05
3.28021875000000e+01 1.21171895240910e-03 2.04325506775404e-05
3.30065625000000e+01 1.18584488670536e-03 2.00584483162974e-05
3.32109375000000e+01 1.16052331485733e-03 1.96908179437003e-05
3.34153125000000e+01 1.13574243935840e-03 1.93295594551778e-05
3.36196875000000e+01 1.11149071461641e-03 1.89745738866521e-05
3.38240625000000e+01 1.08775684157440e-03 1.86257634177828e-05
3.40284375000000e+01 1.06452976244634e-03 1.82830313743173e-05
3.42328125000000e+01 1.04179865556520e-03 1.79462822295955e-05
3.44371875000000e+01 1.01955293034107e-03 1.76154216052536e-05
3.46415625000000e+01 9.97782222326948e-04 1.72903562711661e-05
3.48459375000000e+01 9.76476388389816e-04 1.69709941446699e-05
3.50503125000000e+01 9.55625501984919e-04 1.66572442891056e-05
3.52546875000000e+01 9.35219848530905e-04 1.63490169117173e-05
3.54590625000000e+01 9.15249920883727e-04 1.60462233609423e-05
3.56634375000000e+01 8.95706414907196e-04 1.57487761231258e-05
3.58678125000000e+01 8.76580225138119e-04 1.54565888186948e-05
3.60721875000000e+01 8.57862440543991e-04 1.51695761978186e-05
3.62765625000000e+01 8.39544340371282e-04 1.48876541355890e-05
3.64809375000000e+01 8.21617390082376e-04 1.46107396267470e-05
3.66853125000000e+01 8.04073237379264e-04 1.43387507799827e-05
3.68896875000000e+01 7.86903708312147e-04 1.40716068118357e-05
3.70940625000000e+01 7.70100803471136e-04 1.38092280402189e-05
3.72984375000000e+01 7.53656694259264e-04 1.35515358775915e-05
3.75028125000000e+01 7.37563719245089e-04 1.32984528238020e-05
3.77071875000000e+01 7.21814380593172e-04 1.30499024586247e-05
3.79115625000000e+01 7.06401340570785e-04 1.28058094340084e-05
3.81159375000000e+01 6.91317418129203e-04 1.25660994660581e-05
3.83203125000000e+01 6.76555585558006e-04 1.23306993267697e-05
3.85246875000000e+01 6.62108965210811e-04 1.20995368355333e-05
3.87290625000000e+01 6.47970826300931e-04 1.18725408504246e-05
3.89334375000000e+01 6.34134581765448e-04 1.16496412592997e-05
3.91378125000000e+01 6.20593785196254e-04 1.14307689707087e-05
3.93421875000000e+01 6.07342127836623e-04 1.12158559046449e-05
3.95465625000000e+01 5.94373435641914e-04 1.10048349831411e-05
3.97509375000000e+01 5.81681666403035e-04 1.07976401207294e-05
3.99553125000000e+01 5.69260906931339e-04 1.05942062147759e-05
4.01596875000000e+01 5.57105370303622e-04 1.03944691357032e-05
4.03640625000000e+01 5.45209393165953e-04 1.01983657171126e-05
4.05684375000000e+01 5.33567433095079e-04 1.00058337458174e-05
4.07728125000000e+01 5.22174066016165e-04 9.81681195179651e-06
4.09771875000000e+01 5.11023983675680e-04 9.63123999808148e-06
4.11815625000000e+01 5.00111991168242e-04 9.44905847058497e-06
4.13859375000000e+01 4.89433004516276e-04 9.27020886787894e-06
4.15903125000000e+01 4.78982048301345e-04 9.09463359093353e-06
4.17946875000000e+01 4.68754253346073e-04 8.92227593282356e-06
4.19990625000000e+01 4.58744854445556e-04 8.75308006841093e-06
4.22034375000000e+01 4.48949188147216e-04 8.58699104401089e-06
4.24078125000000e+01 4.39362690578070e-04 8.42395476704892e-06
4.26121875000000e+01 4.29980895318382e-04 8.26391799571521e-06
4.28165625000000e+01 4.20799431320729e-04 8.10682832862299e-06
4.30209375000000e+01 4.11814020873498e-04 7.95263419447758e-06
4.32253125000000e+01 4.03020477607863e-04 7.80128484176092e-06
4.34296875000000e+01 3.94414704547334e-04 7.65273032843722e-06
4.36340625000000e+01 3.85992692198937e-04 7.50692151168594e-06
4.38384375000000e+01 3.77750516685169e-04 7.36381003766612e-06
4.40428125000000e+01 3.69684337915827e-04 7.22334833131691e-06
4.42471875000000e+01 3.61790397798891e-04 7.08548958619873e-06
4.44515625000000e+01 3.54065018489591e-04 6.95018775437919e-06
4.46559375000000e+01 3.46504600676881e-04 6.81739753636701e-06
4.48603125000000e+01 3.39105621906487e-04 6.68707437109916e-06
4.50646875000000e+01 3.31864634939774e-04 6.55917442598342e-06
4.52690625000000e+01 3.24778266147651e-04 6.43365458699961e-06
4.54734375000000e+01 3.17843213938770e-04 6.31047244886283e-06
4.56778125000000e+01 3.11056247221292e-04 6.18958630525157e-06
4.58821875000000e+01 3.04414203897501e-04 6.07095513910359e-06
4.60865625000000e+01 2.97913989390554e-04 5.95453861298157e-06
4.62909375000000e+01 2.91552575202695e-04 5.84029705951063e-06
4.64953125000000e+01 2.85326997504262e-04 5.72819147189068e-06
4.66996875000000e+01 2.79234355752810e-04 5.61818349448517e-06
4.69040625000000e+01 2.73271811341730e-04 5.51023541348787e-06
4.71084375000000e+01 2.67436586277720e-04 5.40431014766944e-06
4.73128125000000e+01 2.61725961886500e-04 5.30037123920580e-06
4.75171875000000e+01 2.56137277546159e-04 5.19838284458945e-06
4.77215625000000e+01 2.50667929447552e-04 5.09830972562459e-06
4.79259375000000e+01 2.45315369381169e-04 5.00011724050849e-06
4.81303125000000e+01 2.40077103549902e-04 4.90377133499860e-06
4.83346875000000e+01 2.34950691407168e-04 4.80923853366733e-06
4.85390625000000e+01 2.29933744519839e-04 4.71648593124566e-06
4.87434375000000e+01 2.25023925455457e-04 4.62548118405540e-06
4.89478125000000e+01 2.20218946693204e-04 4.53619250153162e-06
4.91521875000000e+01 2.15516569558128e-04 4.44858863783518e-06
4.93565625000000e+01 2.10914603178132e-04 4.36263888355654e-06
4.95609375000000e+01 2.06410903463229e-04 4.27831305751082e-06
4.97653125000000e+01 2.02003372106592e-04 4.19558149862456e-06
4.99696875000000e+01 1.97689955606941e-04 4.11441505791463e-06
5.01740625000000e+01 1.93468644311799e-04 4.03478509055899e-06
5.03784375000000e+01 1.89337471481183e-04 3.95666344806022e-06
5.05828125000000e+01 1.85294512371281e-04 3.88002247050137e-06
5.07871875000000e+01 1.81337883337706e-04 3.80483497889415e-06
5.09915625000000e+01 1.77465740957885e-04 3.73107426761979e-06
5.11959375000000e+01 1.73676281172200e-04 3.65871409696191e-06
5.14003125000000e+01 1.69967738443463e-04 3.58772868573201e-06
5.16046875000000e+01 1.66338384934337e-04 3.51809270398675e-06
5.18090625000000e+01 1.62786529702324e-04 3.44978126583689e-06
5.20134375000000e+01 1.59310517911944e-04 3.38276992234797e-06
5.22178125000000e+01 1.55908730063735e-04 3.31703465453218e-06
5.24221875000000e+01 1.52579581239716e-04 3.25255186643089e-06
5.26265625000000e+01 1.49321520364960e-04 3.18929837828780e-06
5.28309375000000e+01 1.46133029484940e-04 3.12725141981198e-06
5.30353125000000e+01 1.43012623058300e-04 3.06638862353056e-06
5.32396875000000e+01 1.39958847264732e-04 3.00668801823054e-06
5.34440625000000e+01 1.36970279327632e-04 2.94812802248885e-06
5.36484375000000e+01 1.34045526851214e-04 2.89068743829083e-06
5.38528125000000e+01 1.31183227171784e-04 2.83434544473607e-06
5.40571875000000e+01 1.28382046722867e-04 2.77908159183066e-06
5.42615625000000e+01 1.25640680413886e-04 2.72487579436619e-06
5.44659375000000e+01 1.22957851022114e-04 2.67170832588421e-06
5.46703125000000e+01 1.20332308597602e-04 2.61955981272534e-06
5.48746875000000e+01 1.17762829880820e-04 2.56841122816304e-06
5.50790625000000e+01 1.15248217732734e-04 2.51824388662070e-06
5.52834375000000e+01 1.12787300577047e-04 2.46903943797166e-06
5.54878125000000e+01 1.10378931854353e-04 2.42077986192142e-06
5.56921875000000e+01 1.08021989487950e-04 2.37344746247115e-06
5.58965625000000e+01 1.05715375361050e-04 2.32702486246202e-06
5.61009375000000e+01 1.03458014805165e-04 2.28149499819936e-06
5.63053125000000e+01 1.01248856099407e-04 2.23684111415592e-06
5.65096875000000e+01 9.90868699804844e-05 2.19304675775363e-06
5.67140625000000e+01 9.69710491631612e-05 2.15009577422287e-06
5.69184375000000e+01 9.49004078709547e-05 2.10797230153849e-06
5.71228125000000e+01 9.28739813768553e-05 2.06666076543197e-06
5.73271875000000e+01 9.08908255538533e-05 2.02614587447870e-06
5.75315625000000e+01 8.89500164350627e-05 1.98641261525971e-06
5.77359375000000e+01 8.70506497832387e-05 1.94744624759696e-06
5.79403125000000e+01 8.51918406694867e-05 1.90923229986137e-06
5.81446875000000e+01 8.33727230609672e-05 1.87175656435292e-06
5.83490625000000e+01 8.15924494174052e-05 1.83500509275176e-06
5.85534375000000e+01 7.98501902962145e-05 1.79896419163970e-06
5.87578125000000e+01 7.81451339660546e-05 1.76362041809126e-06
5.89621875000000e+01 7.64764860286392e-05 1.72896057533340e-06
5.91665625000000e+01 7.48434690486196e-05 1.69497170847297e-06
5.93709375000000e+01 7.32453221913726e-05 1.66164110029132e-06
5.95753125000000e+01 7.16813008685215e-05 1.62895626710510e-06
5.97796875000000e+01 7.01506763910272e-05 1.59690495469256e-06
5.99840625000000e+01 6.86527356296864e-05 1.56547513428425e-06
6.01884375000000e+01 6.71867806828798e-05 1.53465499861760e-06
6.03928125000000e+01 6.57521285514141e-05 1.50443295805447e-06
6.05971875000000e+01 6.43481108203082e-05 1.47479763676085e-06
6.08015625000000e+01 6.29740733473732e-05 1.44573786894787e-06
6.10059375000000e+01 6.16293759584432e-05 1.41724269517333e-06
6.12103125000000e+01 6.03133921491131e-05 1.38930135870307e-06
6.14146875000000e+01 5.90255087928460e-05 1.36190330193131e-06
6.16190625000000e+01 5.77651258553126e-05 1.33503816285897e-06
6.18234375000000e+01 5.65316561148310e-05 1.30869577162962e-06
6.20278125000000e+01 5.53245248887759e-05 1.28286614712184e-06
6.22321875000000e+01 5.41431697658293e-05 1.25753949359746e-06
6.24365625000000e+01 5.29870403439496e-05 1.23270619740495e-06
6.26409375000000e+01 5.18555979739348e-05 1.20835682373695e-06
6.28453125000000e+01 5.07483155084618e-05 1.18448211344151e-06
6.30496875000000e+01 4.96646770564849e-05 1.16107297988595e-06
6.32540625000000e+01 4.86041777428782e-05 1.13812050587286e-06
6.34584375000000e+01 4.75663234732104e-05 1.11561594060737e-06
6.36628125000000e+01 4.65506307035431e-05 1.09355069671500e-06
6.38671875000000e+01 4.55566262151434e-05 1.07191634730934e-06
6.40715625000000e+01 4.45838468940083e-05 1.05070462310883e-06
6.42759375000000e+01 4.36318395150965e-05 1.02990740960196e-06
6.44803125000000e+01 4.27001605311673e-05 1.00951674426017e-06
