Energy (eV)          EEDF (eV^-(3/2))     First Anisotropy
1.52666666666667e-03 2.30656067553064e+01 1.99076140390137e-02
4.58000000000000e-03 2.25410099799809e+01 3.26089259964286e-02
7.63333333333333e-03 2.20283444651260e+01 4.23531858100064e-02
1.06866666666667e-02 2.15273388509799e+01 4.93465998388896e-02
1.37400000000000e-02 2.10377279490234e+01 5.48497589312326e-02
1.67933333333333e-02 2.05592525987920e+01 5.93513318668096e-02
1.98466666666667e-02 2.00916595397241e+01 6.31101963845462e-02
2.29000000000000e-02 1.96347012680048e+01 6.62862077168156e-02
2.59533333333333e-02 1.91881359078735e+01 6.89876696185840e-02
2.90066666666667e-02 1.87517270878612e+01 7.12927023234608e-02
3.20600000000000e-02 1.83252438106800e+01 7.32602631586496e-02
3.51133333333333e-02 1.79084603319180e+01 7.49363964486990e-02
3.81666666666667e-02 1.75011560435173e+01 7.63580372364014e-02
4.12200000000000e-02 1.71031153537054e+01 7.75554560808603e-02
4.42733333333333e-02 1.67141275734030e+01 7.85539004075377e-02
4.73266666666667e-02 1.63339868068968e+01 7.93747370996368e-02
5.03800000000000e-02 1.59624918404747e+01 8.00362719458576e-02
5.34333333333333e-02 1.55994460362480e+01 8.05543522985451e-02
5.64866666666667e-02 1.52446572297578e+01 8.09428205000542e-02
5.95400000000000e-02 1.48979376264495e+01 8.12138614623842e-02
6.25933333333333e-02 1.45591037024910e+01 8.13782734411520e-02
6.56466666666667e-02 1.42279761089745e+01 8.14456824678770e-02
6.87000000000000e-02 1.39043795755581e+01 8.14247142964077e-02
7.17533333333333e-02 1.35881428178513e+01 8.13231337770443e-02
7.48066666666667e-02 1.32790984478421e+01 8.11479593445260e-02
7.78600000000000e-02 1.29770828841459e+01 8.09055578600155e-02
8.09133333333333e-02 1.26819362655367e+01 8.06017237403249e-02
8.39666666666667e-02 1.23935023672316e+01 8.02417457784452e-02
8.70200000000000e-02 1.21116285172528e+01 7.98304638773158e-02
9.00733333333333e-02 1.18361655157061e+01 7.93723174269032e-02
9.31266666666667e-02 1.15669675565619e+01 7.88713870519642e-02
9.61800000000000e-02 1.13038921496888e+01 7.83314307455371e-02
9.92333333333333e-02 1.10468000455026e+01 7.77559152023813e-02
1.02286666666667e-01 1.07955551618976e+01 7.71480433059963e-02
1.05340000000000e-01 1.05500245121034e+01 7.65107784747194e-02
1.08393333333333e-01 1.03100781315786e+01 7.58468656244325e-02
1.11446666666667e-01 1.00755890153225e+01 7.51588502331517e-02
1.14500000000000e-01 9.84643304498254e+00 7.44490955146538e-02
1.17553333333333e-01 9.62248892361769e+00 7.37197968124397e-02
1.20606666666667e-01 9.40363811617602e+00 7.29729953844384e-02
1.23660000000000e-01 9.18976478188991e+00 7.22105907928262e-02
1.26713333333333e-01 8.98075571333989e+00 7.14343512583921e-02
1.29766666666667e-01 8.77650028058208e+00 7.06459238217939e-02
1.32820000000000e-01 8.57689036839111e+00 6.98468435540552e-02
1.35873333333333e-01 8.38182031934944e+00 6.90385411909148e-02
1.38926666666667e-01 8.19118688144355e+00 6.82223508093256e-02
1.41980000000000e-01 8.00488914976447e+00 6.73995168349856e-02
1.45033333333333e-01 7.82282851336310e+00 6.65711997880114e-02
1.48086666666667e-01 7.64490860613149e+00 6.57384822032582e-02
1.51140000000000e-01 7.47103525261268e+00 6.49023740669131e-02
1.54193333333333e-01 7.30111641837722e+00 6.40638172157767e-02
1.57246666666667e-01 7.13506216400799e+00 6.32236899835846e-02
1.60300000000000e-01 6.97278459470527e+00 6.23828114891795e-02
1.63353333333333e-01 6.81419781395451e+00 6.15419450539528e-02
1.66406666666667e-01 6.65921788043742e+00 6.07018019028199e-02
1.69460000000000e-01 6.50776276114755e+00 5.98630445944984e-02
1.72513333333333e-01 6.35975228813358e+00 5.90262897087353e-02
1.75566666666667e-01 6.21510811816515e+00 5.81921108318115e-02
1.78620000000000e-01 6.07375368909980e+00 5.73610413337422e-02
1.81673333333333e-01 5.93561417949932e+00 5.65335765030369e-02
1.84726666666667e-01 5.80061647088597e+00 5.57101759812591e-02
1.87780000000000e-01 5.66868910712351e+00 5.48912660347607e-02
1.90833333333333e-01 5.53976225671736e+00 5.40772412651430e-02
1.93886666666667e-01 5.41376767750387e+00 5.32684666130691e-02
1.96940000000000e-01 5.29063867882816e+00 5.24652792330257e-02
1.99993333333333e-01 5.17031008635059e+00 5.16679898736166e-02
2.03046666666667e-01 5.05271820901992e+00 5.08768845400559e-02
2.06100000000000e-01 4.93780080384767e+00 5.00922260531268e-02
2.09153333333333e-01 4.82549704305534e+00 4.93142551695796e-02
2.12206666666667e-01 4.71574748318959e+00 4.85431919709474e-02
2.15260000000000e-01 4.60849403230888e+00 4.77792371684012e-02
2.18313333333333e-01 4.50367991931642e+00 4.70225730164842e-02
2.21366666666667e-01 4.40124966508333e+00 4.62733644801792e-02
2.24420000000000e-01 4.30114905187745e+00 4.55317603332371e-02
2.27473333333333e-01 4.20332509473713e+00 4.47978939061114e-02
2.30526666666667e-01 4.10772601447575e+00 4.40718840716753e-02
2.33580000000000e-01 4.01430120919561e+00 4.33538361741860e-02
2.36633333333333e-01 3.92300122756699e+00 4.26438426431666e-02
2.39686666666667e-01 3.83377774359492e+00 4.19419838295845e-02
2.42740000000000e-01 3.74658353007247e+00 4.12483287948260e-02
2.45793333333333e-01 3.66137243363870e+00 4.05629358154491e-02
2.48846666666667e-01 3.57809935119536e+00 3.98858530951510e-02
2.51900000000000e-01 3.49672020516472e+00 3.92171194372192e-02
2.54953333333333e-01 3.41719192020840e+00 3.85567646599093e-02
2.58006666666667e-01 3.33947240118820e+00 3.79048102045760e-02
2.61060000000000e-01 3.26352051010369e+00 3.72612697105225e-02
2.64113333333333e-01 3.18929604436138e+00 3.66261493568045e-02
2.67166666666667e-01 3.11675971618064e+00 3.59994483830516e-02
2.70220000000000e-01 3.04587313109498e+00 3.53811595821124e-02
2.73273333333333e-01 2.97659876766855e+00 3.47712695810263e-02
2.76326666666667e-01 2.90889995825394e+00 3.41697592880506e-02
2.79380000000000e-01 2.84274086894957e+00 3.35766043157306e-02
2.82433333333333e-01 2.77808648066728e+00 3.29917752113803e-02
2.85486666666667e-01 2.71490257115458e+00 3.24152378414603e-02
2.88540000000000e-01 2.65315569630816e+00 3.18469537555026e-02
2.91593333333333e-01 2.59281317250273e+00 3.12868803745470e-02
2.94646666666667e-01 2.53384305979572e+00 3.07349713221208e-02
2.97700000000000e-01 2.47621414450410e+00 3.01911767376869e-02
3.00753333333333e-01 2.41989592271042e+00 2.96554434299852e-02
3.03806666666667e-01 2.36485858457328e+00 2.91277151623293e-02
3.06860000000000e-01 2.31107299808094e+00 2.86079329228333e-02
3.09913333333333e-01 2.25851069365639e+00 2.80960350483949e-02
3.12966666666667e-01 2.20714384950142e+00 2.75919574707915e-02
3.16020000000000e-01 2.15694527644688e+00 2.70956339497847e-02
3.19073333333333e-01 2.10788840358350e+00 2.66069961725055e-02
3.22126666666667e-01 2.05994726457227e+00 2.61259739658205e-02
3.25180000000000e-01 2.01309648351651e+00 2.56524954974694e-02
3.28233333333333e-01 1.96731126155023e+00 2.51864873548198e-02
3.31286666666667e-01 1.92256736405167e+00 2.47278747281399e-02
3.34340000000000e-01 1.87884110746770e+00 2.42765815841421e-02
3.37393333333333e-01 1.83610934679590e+00 2.38325307274321e-02
3.40446666666667e-01 1.79434946364226e+00 2.33956439586311e-02
3.43500000000000e-01 1.75353935393311e+00 2.29658422240564e-02
3.46553333333333e-01 1.71365741623150e+00 2.25430456626506e-02
3.49606666666667e-01 1.67468254058366e+00 2.21271737423244e-02
3.52660000000000e-01 1.63659409705836e+00 2.17181453889647e-02
3.55713333333333e-01 1.59937192484194e+00 2.13158790211899e-02
3.58766666666667e-01 1.56299632182180e+00 2.09202926678056e-02
3.61820000000000e-01 1.52744803389712e+00 2.05313040788745e-02
3.64873333333333e-01 1.49270824480069e+00 2.01488307502792e-02
3.67926666666667e-01 1.45875856637106e+00 1.97727900247754e-02
3.70980000000000e-01 1.42558102858234e+00 1.94030991874832e-02
3.74033333333333e-01 1.39315807004439e+00 1.90396754819286e-02
3.77086666666667e-01 1.36147252891846e+00 1.86824361968405e-02
3.80140000000000e-01 1.33050763361735e+00 1.83312987480937e-02
3.83193333333333e-01 1.30024699393883e+00 1.79861806876511e-02
3.86246666666667e-01 1.27067459258239e+00 1.76469997779554e-02
3.89300000000000e-01 1.24177477647447e+00 1.73136740620846e-02
3.92353333333333e-01 1.21353224849289e+00 1.69861218667984e-02
3.95406666666667e-01 1.18593205954517e+00 1.66642618661309e-02
3.98460000000000e-01 1.15895960047662e+00 1.63480131412840e-02
4.01513333333333e-01 1.13260059434638e+00 1.60372951787987e-02
4.04566666666667e-01 1.10684108903032e+00 1.57320279247453e-02
4.07620000000000e-01 1.08166744967264e+00 1.54321318356792e-02
4.10673333333333e-01 1.05706635147676e+00 1.51375278728070e-02
4.13726666666667e-01 1.03302477279827e+00 1.48481375479854e-02
4.16780000000000e-01 1.00952998810327e+00 1.45638829668939e-02
4.19833333333333e-01 9.86569561239942e-01 1.42846868199346e-02
4.22886666666667e-01 9.64131338989067e-01 1.40104724210963e-02
4.25940000000000e-01 9.42203444495113e-01 1.37411637443497e-02
4.28993333333333e-01 9.20774270986309e-01 1.34766854119083e-02
4.32046666666667e-01 8.99832475752619e-01 1.32169627268808e-02
4.35100000000000e-01 8.79366974017675e-01 1.29619217037654e-02
4.38153333333333e-01 8.59366933077486e-01 1.27114890546068e-02
4.41206666666667e-01 8.39821766677652e-01 1.24655922162411e-02
4.44260000000000e-01 8.20721129296426e-01 1.22241593756570e-02
4.47313333333333e-01 8.02054910674176e-01 1.19871194545020e-02
4.50366666666667e-01 7.83813230563455e-01 1.17544021316248e-02
4.53420000000000e-01 7.65986433395519e-01 1.15259378639723e-02
4.56473333333333e-01 7.48565083174499e-01 1.13016578698320e-02
4.59526666666667e-01 7.31539958575677e-01 1.10814941472863e-02
4.62580000000000e-01 7.14902047969671e-01 1.08653794912341e-02
4.65633333333333e-01 6.98642544656994e-01 1.06532474756941e-02
4.68686666666667e-01 6.82752842291529e-01 1.04450324687127e-02
4.71740000000000e-01 6.67224530238300e-01 1.02406696460227e-02
4.74793333333333e-01 6.52049389125754e-01 1.00400949726840e-02
4.77846666666667e-01 6.37219386572905e-01 9.84324521491781e-03
4.80900000000000e-01 6.22726672858281e-01 9.65005795085355e-03
4.83953333333333e-01 6.08563576768733e-01 9.46047155173965e-03
4.87006666666667e-01 5.94722601610161e-01 9.27442519111851e-03
4.90060000000000e-01 5.81196421166724e-01 9.09185885305585e-03
4.93113333333333e-01 5.67977875826408e-01 8.91271331311860e-03
4.96166666666667e-01 5.55059968856568e-01 8.73693014525395e-03
4.99220000000000e-01 5.42435862633885e-01 8.56445172784750e-03
5.02273333333333e-01 5.30098875028260e-01 8.39522122463155e-03
5.05326666666667e-01 5.18042475925622e-01 8.22918258958695e-03
5.08380000000000e-01 5.06260283710462e-01 8.06628057113451e-03
5.11433333333333e-01 4.94746061890818e-01 7.90646069310998e-03
5.14486666666667e-01 4.83493715851985e-01 7.74966925796854e-03
5.17540000000000e-01 4.72497289574653e-01 7.59585334937559e-03
5.20593333333333e-01 4.61750962484922e-01 7.44496081336143e-03
5.23646666666667e-01 4.51249046423605e-01 7.29694026007369e-03
5.26700000000000e-01 4.40985982584164e-01 7.15174106500063e-03
5.29753333333333e-01 4.30956338572747e-01 7.00931335039894e-03
5.32806666666667e-01 4.21154805578798e-01 6.86960798580859e-03
5.35860000000000e-01 4.11576195518042e-01 6.73257658811339e-03
5.38913333333333e-01 4.02215438288540e-01 6.59817150331750e-03
5.41966666666667e-01 3.93067579129264e-01 6.46634580601100e-03
5.45020000000000e-01 3.84127775954369e-01 6.33705329844708e-03
5.48073333333333e-01 3.75391296792201e-01 6.21024849272736e-03
5.51126666666667e-01 3.66853517319377e-01 6.08588660938364e-03
5.54180000000000e-01 3.58509918373504e-01 5.96392357562825e-03
5.57233333333333e-01 3.50356083562956e-01 5.84431600799665e-03
5.60286666666667e-01 3.42387696964801e-01 5.72702121018891e-03
5.63340000000000e-01 3.34600540804020e-01 5.61199717063048e-03
5.66393333333333e-01 3.26990493222652e-01 5.49920254560941e-03
5.69446666666667e-01 3.19553526130709e-01 5.38859665650356e-03
5.72500000000000e-01 3.12285703040727e-01 5.28013948677193e-03
5.75553333333333e-01 3.05183176985651e-01 5.17379166561368e-03
5.78606666666667e-01 2.98242188512596e-01 5.06951446469122e-03
5.81660000000000e-01 2.91459063662308e-01 4.96726979465661e-03
5.84713333333333e-01 2.84830212025880e-01 4.86702018935254e-03
5.87766666666667e-01 2.78352124871875e-01 4.76872880212711e-03
5.90820000000000e-01 2.72021373260982e-01 4.67235940198600e-03
5.93873333333333e-01 2.65834606232317e-01 4.57787635834879e-03
5.96926666666667e-01 2.59788549055042e-01 4.48524463703927e-03
5.99980000000000e-01 2.53880001469174e-01 4.39442979614214e-03
6.03033333333333e-01 2.48105835992812e-01 4.30539797132196e-03
6.06086666666667e-01 2.42462996290004e-01 4.21811587156132e-03
6.09140000000000e-01 2.36948495529242e-01 4.13255077479125e-03
6.12193333333333e-01 2.31559414803567e-01 4.04867051377555e-03
6.15246666666667e-01 2.26292901606956e-01 3.96644347165928e-03
6.18300000000000e-01 2.21146168302621e-01 3.88583857743217e-03
6.21353333333333e-01 2.16116490648467e-01 3.80682529237713e-03
6.24406666666667e-01 2.11201206374791e-01 3.72937360548336e-03
6.27460000000000e-01 2.06397713755037e-01 3.65345402879413e-03
6.30513333333333e-01 2.01703470229574e-01 3.57903758441480e-03
6.33566666666667e-01 1.97115991077981e-01 3.50609579983701e-03
6.36620000000000e-01 1.92632848085398e-01 3.43460070321501e-03
6.39673333333333e-01 1.88251668258066e-01 3.36452481092573e-03
6.42726666666667e-01 1.83970132583923e-01 3.29584112284455e-03
6.45780000000000e-01 1.79785974788136e-01 3.22852311758754e-03
6.48833333333333e-01 1.75696980134301e-01 3.16254474061394e-03
6.51886666666667e-01 1.71700984267464e-01 3.09788039948777e-03
6.54940000000000e-01 1.67795872052887e-01 3.03450495911828e-03
6.57993333333333e-01 1.63979576457168e-01 2.97239373039331e-03
6.61046666666667e-01 1.60250077468241e-01 2.91152246545569e-03
6.64100000000000e-01 1.56605401011774e-01 2.85186735296958e-03
6.67153333333333e-01 1.53043617906912e-01 2.79340500727136e-03
6.70206666666667e-01 1.49562842858107e-01 2.73611246368562e-03
6.73260000000000e-01 1.46161233443983e-01 2.67996717384032e-03
6.76313333333333e-01 1.42836989142698e-01 2.62494699532127e-03
6.79366666666667e-01 1.39588350390858e-01 2.57103018704823e-03
6.82420000000000e-01 1.36413597639972e-01 2.51819540465815e-03
6.85473333333333e-01 1.33311050446814e-01 2.46642169064817e-03
6.88526666666667e-01 1.30279066594947e-01 2.41568846982914e-03
6.91580000000000e-01 1.27316041214252e-01 2.36597554479290e-03
6.94633333333333e-01 1.24420405931957e-01 2.31726308652803e-03
6.97686666666667e-01 1.21590628052598e-01 2.26953162996506e-03
7.00740000000000e-01 1.18825209736421e-01 2.22276206954091e-03
7.03793333333333e-01 1.16122687207008e-01 2.17693565027111e-03
7.06846666666667e-01 1.13481629985817e-01 2.13203396339829e-03
7.09900000000000e-01 1.10900640125495e-01 2.08803894206438e-03
7.12953333333333e-01 1.08378351470345e-01 2.04493285282298e-03
7.16006666666667e-01 1.05913428941802e-01 2.00269829140009e-03
7.19060000000000e-01 1.03504567822991e-01 1.96131817848268e-03
7.22113333333333e-01 1.01150493068513e-01 1.92077575165452e-03
7.25166666666667e-01 9.88499586374645e-02 1.88105456127646e-03
7.28220000000000e-01 9.66017468258184e-02 1.84213846639773e-03
7.31273333333333e-01 9.44046676222322e-02 1.80401162709867e-03
7.34326666666667e-01 9.22575580854595e-02 1.76665850049620e-03
7.37380000000000e-01 9.01592817213489e-02 1.73006383678233e-03
7.40433333333333e-01 8.81087278816081e-02 1.69421267195761e-03
7.43486666666667e-01 8.61048111826529e-02 1.65909032396547e-03
7.46540000000000e-01 8.41464709242407e-02 1.62468238886161e-03
7.49593333333333e-01 8.22326705283274e-02 1.59097473392168e-03
7.52646666666667e-01 8.03623969965971e-02 1.55795349390714e-03
7.55700000000000e-01 7.85346603679460e-02 1.52560506736767e-03
7.58753333333333e-01 7.67484931947587e-02 1.49391611010701e-03
7.61806666666667e-01 7.50029500365453e-02 1.46287353158190e-03
7.64860000000000e-01 7.32971069536783e-02 1.43246449133850e-03
7.67913333333333e-01 7.16300610185927e-02 1.40267639282076e-03
7.70966666666667e-01 7.00009298431293e-02 1.37349687990293e-03
7.74020000000000e-01 6.84088511061001e-02 1.34491383346012e-03
7.77073333333333e-01 6.68529820970832e-02 1.31691536550386e-03
7.80126666666667e-01 6.53324992752302e-02 1.28948981584779e-03
7.83180000000000e-01 6.38465978283983e-02 1.26262574881184e-03
7.86233333333333e-01 6.23944912473667e-02 1.23631194766998e-03
7.89286666666667e-01 6.09754109140151e-02 1.21053741144811e-03
7.92340000000000e-01 5.95886056899111e-02 1.18529135176057e-03
7.95393333333333e-01 5.82333415189205e-02 1.16056318755546e-03
7.98446666666667e-01 5.69089010428017e-02 1.13634254204331e-03
8.01500000000000e-01 5.56145832172807e-02 1.11261923966388e-03
8.04553333333333e-01 5.43497029411606e-02 1.08938330111519e-03
8.07606666666667e-01 5.31135906975087e-02 1.06662494041060e-03
8.10660000000000e-01 5.19055921953804e-02 1.04433456197392e-03
8.13713333333333e-01 5.07250680236624e-02 1.02250275593825e-03
8.16766666666667e-01 4.95713933161482e-02 1.00112029532917e-03
8.19820000000000e-01 4.84439574171976e-02 9.80178133285320e-04
8.22873333333333e-01 4.73421635586630e-02 9.59667398614095e-04
8.25926666666667e-01 4.62654285472649e-02 9.39579393097973e-04
8.28980000000000e-01 4.52131824525861e-02 9.19905588837671e-04
8.32033333333333e-01 4.41848683055424e-02 9.00637624051921e-04
8.35086666666667e-01 4.31799418065740e-02 8.81767300503923e-04
8.38140000000000e-01 4.21978710344819e-02 8.63286580963801e-04
8.41193333333333e-01 4.12381361650059e-02 8.45187585240348e-04
8.44246666666667e-01 4.03002291984465e-02 8.27462587724229e-04
8.47300000000000e-01 3.93836536879506e-02 8.10104014966379e-04
8.50353333333333e-01 3.84879244768566e-02 7.93104441929942e-04
8.53406666666667e-01 3.76125674444529e-02 7.76456589646799e-04
8.56460000000000e-01 3.67571192524138e-02 7.60153322908314e-04
8.59513333333333e-01 3.59211270996588e-02 7.44187646726307e-04
8.62566666666667e-01 3.51041484850427e-02 7.28552704099253e-04
8.65620000000000e-01 3.43057509707265e-02 7.13241773811767e-04
8.68673333333333e-01 3.35255119533852e-02 6.98248267093812e-04
8.71726666666667e-01 3.27630184427004e-02 6.83565725492908e-04
8.74780000000000e-01 3.20178668405364e-02 6.69187818778667e-04
8.77833333333333e-01 3.12896627274050e-02 6.55108341789886e-04
8.80886666666667e-01 3.05780206557095e-02 6.41321212409091e-04
8.83940000000000e-01 2.98825639436691e-02 6.27820469568314e-04
8.86993333333333e-01 2.92029244760244e-02 6.14600270274294e-04
8.90046666666667e-01 2.85387425110496e-02 6.01654887681576e-04
8.93100000000000e-01 2.78896664882412e-02 5.88978709195757e-04
8.96153333333333e-01 2.72553528423127e-02 5.76566233667406e-04
8.99206666666667e-01 2.66354658230605e-02 5.64412069559972e-04
9.02260000000000e-01 2.60296773158956e-02 5.52510933146772e-04
9.05313333333333e-01 2.54376666682423e-02 5.40857645864634e-04
9.08366666666667e-01 2.48591205214015e-02 5.29447132572892e-04
9.11420000000000e-01 2.42937326430675e-02 5.18274419840399e-04
9.14473333333333e-01 2.37412037653041e-02 5.07334633450343e-04
9.17526666666667e-01 2.32012414276056e-02 4.96622996746681e-04
9.20580000000000e-01 2.26735598205988e-02 4.86134829007480e-04
9.23633333333333e-01 2.21578796348240e-02 4.75865543092762e-04
9.26686666666667e-01 2.16539279142484e-02 4.65810643874720e-04
9.29740000000000e-01 2.11614379104060e-02 4.55965726693799e-04
9.32793333333333e-01 2.06801489412625e-02 4.46326475141813e-04
9.35846666666667e-01 2.02098062544861e-02 4.36888659572422e-04
9.38900000000000e-01 1.97501608913276e-02 4.27648135636400e-04
9.41953333333333e-01 1.93009695548965e-02 4.18600842192629e-04
9.45006666666667e-01 1.88619944825398e-02 4.09742799895335e-04
9.48060000000000e-01 1.84330033188110e-02 4.01070109805084e-04
9.51113333333333e-01 1.80137689925312e-02 3.92578951420678e-04
9.54166666666667e-01 1.76040695976681e-02 3.84265581339745e-04
9.57220000000000e-01 1.72036882747874e-02 3.76126331942102e-04
9.60273333333333e-01 1.68124130963130e-02 3.68157609535863e-04
9.63326666666667e-01 1.64300369553397e-02 3.60355893088082e-04
