Energy (eV)          EEDF (eV^-(3/2))     First Anisotropy
5.04545454545455e-03 2.17906549706189e+00 1.70402391521639e-03
1.51363636363636e-02 2.14505218795825e+00 2.80128448994749e-03
2.52272727272727e-02 2.11156979690111e+00 3.66493178717876e-03
3.53181818181818e-02 2.07861003673197e+00 4.30126437241974e-03
4.54090909090909e-02 2.04616474963333e+00 4.81584740014215e-03
5.55000000000000e-02 2.01422590512836e+00 5.24913271702440e-03
6.55909090909091e-02 1.98278559814075e+00 5.62232189709611e-03
7.56818181818182e-02 1.95183604687668e+00 5.94837636522765e-03
8.57727272727273e-02 1.92136959106952e+00 6.23599605193527e-03
9.58636363636364e-02 1.89137869002219e+00 6.49140229304014e-03
1.05954545454545e-01 1.86185592071131e+00 6.71925329409329e-03
1.16045454545455e-01 1.83279397606943e+00 6.92316104118548e-03
1.26136363636364e-01 1.80418566301786e+00 7.10600446984708e-03
1.36227272727273e-01 1.77602390076033e+00 7.27012983206626e-03
1.46318181818182e-01 1.74830171902635e+00 7.41748462828452e-03
1.56409090909091e-01 1.72101225634575e+00 7.54971038396565e-03
1.66500000000000e-01 1.69414875835033e+00 7.66820888093138e-03
1.76590909090909e-01 1.66770457595546e+00 7.77419060939291e-03
1.86681818181818e-01 1.64167316416752e+00 7.86871107033039e-03
1.96772727272727e-01 1.61604807999552e+00 7.95269846834566e-03
2.06863636363636e-01 1.59082298101829e+00 8.02697514063543e-03
2.16954545454545e-01 1.56599162381462e+00 8.09227446200995e-03
2.27045454545455e-01 1.54154786241790e+00 8.14925432043053e-03
2.37136363636364e-01 1.51748564679432e+00 8.19850799437018e-03
2.47227272727273e-01 1.49379902134667e+00 8.24057302806322e-03
2.57318181818182e-01 1.47048212343951e+00 8.27593854425692e-03
2.67409090909091e-01 1.44752918194815e+00 8.30505132326014e-03
2.77500000000000e-01 1.42493451583018e+00 8.32832090464725e-03
2.87590909090909e-01 1.40269253264455e+00 8.34612386962597e-03
2.97681818181818e-01 1.38079772739710e+00 8.35880751338697e-03
3.07772727272727e-01 1.35924468094267e+00 8.36669298998614e-03
3.17863636363636e-01 1.33802805872433e+00 8.37007798670613e-03
3.27954545454545e-01 1.31714260945298e+00 8.36923906487895e-03
3.38045454545455e-01 1.29658316380761e+00 8.36443369064141e-03
3.48136363636364e-01 1.27634463315565e+00 8.35590201063798e-03
3.58227272727273e-01 1.25642200829393e+00 8.34386841187397e-03
3.68318181818182e-01 1.23681035820860e+00 8.32854289782355e-03
3.78409090909091e-01 1.21750482885468e+00 8.31012230720665e-03
3.88500000000000e-01 1.19850064195460e+00 8.28879140230817e-03
3.98590909090909e-01 1.17979309377038e+00 8.26472382146976e-03
4.08681818181818e-01 1.16137755407766e+00 8.23808295441804e-03
4.18772727272727e-01 1.14324946487858e+00 8.20902272956041e-03
4.28863636363636e-01 1.12540433932167e+00 8.17768829924909e-03
4.38954545454545e-01 1.10783776059134e+00 8.14421667760261e-03
4.49045454545455e-01 1.09054538081462e+00 8.10873731369470e-03
4.59136363636364e-01 1.07352291998498e+00 8.07137261211969e-03
4.69227272727273e-01 1.05676616490320e+00 8.03223840698973e-03
4.79318181818182e-01 1.04027096813442e+00 7.99144439454809e-03
4.89409090909091e-01 1.02403324698163e+00 7.94909452883297e-03
4.99500000000000e-01 1.00804898247518e+00 7.90528738787011e-03
5.09590909090909e-01 9.92314218348371e-01 7.86011649615298e-03
5.19681818181818e-01 9.76825060148821e-01 7.81367063842740e-03
5.29772727272727e-01 9.61577674182330e-01 7.76603414971050e-03
5.39863636363636e-01 9.46568286595326e-01 7.71728716520708e-03
5.49954545454545e-01 9.31793182440813e-01 7.66750586565982e-03
5.60045454545455e-01 9.17248704758881e-01 7.61676270122829e-03
5.70136363636364e-01 9.02931253671522e-01 7.56512659926662e-03
5.80227272727273e-01 8.88837285491757e-01 7.51266315748468e-03
5.90318181818182e-01 8.74963311846471e-01 7.45943482378084e-03
6.00409090909091e-01 8.61305898813015e-01 7.40550106385772e-03
6.10500000000000e-01 8.47861666069283e-01 7.35091852035363e-03
6.20590909090909e-01 8.34627286036594e-01 7.29574115097071e-03
6.30681818181818e-01 8.21599483118469e-01 7.24002037078883e-03
6.40772727272727e-01 8.08775032826461e-01 7.18380518606460e-03
6.50863636363636e-01 7.96150761003581e-01 7.12714230597504e-03
6.60954545454545e-01 7.83723543038664e-01 7.07007625839215e-03
6.71045454545455e-01 7.71490303093002e-01 7.01264949600357e-03
6.81136363636364e-01 7.59448013339014e-01 6.95490249614218e-03
6.91227272727273e-01 7.47593693210908e-01 6.89687385481147e-03
7.01318181818182e-01 7.35924408666922e-01 6.83860037532818e-03
7.11409090909091e-01 7.24437271463132e-01 6.78011715193902e-03
7.21500000000000e-01 7.13129438438581e-01 6.72145765084793e-03
7.31590909090909e-01 7.01998110796997e-01 6.66265377856973e-03
7.41681818181818e-01 6.91040533458484e-01 6.60373595674262e-03
7.51772727272727e-01 6.80253994332494e-01 6.54473319327633e-03
7.61863636363636e-01 6.69635823661849e-01 6.48567313906807e-03
7.71954545454545e-01 6.59183393361951e-01 6.42658215021967e-03
7.82045454545455e-01 6.48894116370313e-01 6.36748534495154e-03
7.92136363636364e-01 6.38765446006215e-01 6.30840665761813e-03
8.02227272727273e-01 6.28794875340424e-01 6.24936889002040e-03
8.12318181818182e-01 6.18979936574687e-01 6.19039376018019e-03
8.22409090909091e-01 6.09318200430929e-01 6.13150194871509e-03
8.32500000000000e-01 5.99807275549986e-01 6.07271314458602e-03
8.42590909090909e-01 5.90444807889089e-01 6.01404608219937e-03
8.52681818181818e-01 5.81228480171601e-01 5.95551858473776e-03
8.62772727272727e-01 5.72156011280599e-01 5.89714760570233e-03
8.72863636363636e-01 5.63225155705405e-01 5.83894926013957e-03
8.82954545454546e-01 5.54433702985804e-01 5.78093886107997e-03
8.93045454545455e-01 5.45779477164936e-01 5.72313095266018e-03
9.03136363636364e-01 5.37260336250715e-01 5.66553934174417e-03
9.13227272727273e-01 5.28874171685699e-01 5.60817712813477e-03
9.23318181818182e-01 5.20618907825186e-01 5.55105673345151e-03
9.33409090909091e-01 5.12492501423479e-01 5.49418992873313e-03
9.43500000000000e-01 5.04492941128162e-01 5.43758786211790e-03
9.53590909090909e-01 4.96618246974374e-01 5.38126108022410e-03
9.63681818181818e-01 4.88866469918795e-01 5.32521955494154e-03
9.73772727272727e-01 4.81235691332848e-01 5.26947270926918e-03
9.83863636363636e-01 4.73724022536073e-01 5.21402943542536e-03
9.93954545454546e-01 4.66329604328665e-01 5.15889811746735e-03
1.00404545454545e+00 4.59050606531303e-01 5.10408665279170e-03
1.01413636363636e+00 4.51885227525359e-01 5.04960246931921e-03
1.02422727272727e+00 4.44831693821056e-01 4.99545254424621e-03
1.03431818181818e+00 4.37888259611230e-01 4.94164342442160e-03
1.04440909090909e+00 4.31053206339230e-01 4.88818124233464e-03
1.05450000000000e+00 4.24324842273560e-01 4.83507172247330e-03
1.06459090909091e+00 4.17701502148727e-01 4.78232022810527e-03
1.07468181818182e+00 4.11181546572030e-01 4.72993175578282e-03
1.08477272727273e+00 4.04763361801252e-01 4.67791092858348e-03
1.09486363636364e+00 3.98445359283275e-01 4.62626204250953e-03
1.10495454545455e+00 3.92225975260895e-01 4.57498906910008e-03
1.11504545454545e+00 3.86103670385779e-01 4.52409566843473e-03
1.12513636363636e+00 3.80076929337409e-01 4.47358520160005e-03
1.13522727272727e+00 3.74144260448149e-01 4.42346074269807e-03
1.14531818181818e+00 3.68304195333985e-01 4.37372509041787e-03
1.15540909090909e+00 3.62555288531087e-01 4.32438077912952e-03
1.16550000000000e+00 3.56896117138041e-01 4.27543008142114e-03
1.17559090909091e+00 3.51325280509022e-01 4.22687504310231e-03
1.18568181818182e+00 3.45841399769321e-01 4.17871747650573e-03
1.19577272727273e+00 3.40443117613665e-01 4.13095895287863e-03
1.20586363636364e+00 3.35129097923120e-01 4.08360083741114e-03
1.21595454545455e+00 3.29898025434397e-01 4.03664428933293e-03
1.22604545454545e+00 3.24748605414307e-01 3.99009027041456e-03
1.23613636363636e+00 3.19679563339266e-01 3.94393955312856e-03
1.24622727272727e+00 3.14689644579930e-01 3.89819272852504e-03
1.25631818181818e+00 3.09777614090615e-01 3.85285021383396e-03
1.26640909090909e+00 3.04942256103617e-01 3.80791225976205e-03
1.27650000000000e+00 3.00182373828295e-01 3.76337895098284e-03
1.28659090909091e+00 2.95496789189696e-01 3.71925023278678e-03
1.29668181818182e+00 2.90884342431136e-01 3.67552590428415e-03
1.30677272727273e+00 2.86343891934343e-01 3.63220561093083e-03
1.31686363636364e+00 2.81874313900705e-01 3.58928887138014e-03
1.32695454545455e+00 2.77474502073116e-01 3.54677507631761e-03
1.33704545454545e+00 2.73143367462176e-01 3.50466349410030e-03
1.34713636363636e+00 2.68879838076619e-01 3.46295327617341e-03
1.35722727272727e+00 2.64682858658055e-01 3.42164346230302e-03
1.36731818181818e+00 2.60551390419751e-01 3.38073298563270e-03
1.37740909090909e+00 2.56484410789524e-01 3.34022067753868e-03
1.38750000000000e+00 2.52480913156644e-01 3.30010526703317e-03
1.39759090909091e+00 2.48539906649654e-01 3.26038540131182e-03
1.40768181818182e+00 2.44660415809218e-01 3.22105963935700e-03
1.41777272727273e+00 2.40841480429630e-01 3.18212644502631e-03
1.42786363636364e+00 2.37082155293148e-01 3.14358420786860e-03
1.43795454545455e+00 2.33381509936052e-01 3.10543124137037e-03
1.44804545454545e+00 2.29738628418343e-01 3.06766578672113e-03
1.45813636363636e+00 2.26152609097021e-01 3.03028601642980e-03
1.46822727272727e+00 2.22622564402963e-01 2.99329003782015e-03
1.47831818181818e+00 2.19147620621223e-01 2.95667589640943e-03
1.48840909090909e+00 2.15726917674779e-01 2.92044157915104e-03
1.49850000000000e+00 2.12359608911655e-01 2.88458501328916e-03
1.50859090909091e+00 2.09044860916373e-01 2.84910408235035e-03
1.51868181818182e+00 2.05781853239889e-01 2.81399662035168e-03
1.52877272727273e+00 2.02569778261107e-01 2.77926040561132e-03
1.53886363636364e+00 1.99407840965187e-01 2.74489317702189e-03
1.54895454545455e+00 1.96295258746776e-01 2.71089263207783e-03
1.55904545454545e+00 1.93231261216301e-01 2.67725642938779e-03
1.56913636363636e+00 1.90215090009282e-01 2.64398219108528e-03
1.57922727272727e+00 1.87245998598657e-01 2.61106750515829e-03
1.58931818181818e+00 1.84323252109998e-01 2.57850992770078e-03
1.59940909090909e+00 1.81446127139624e-01 2.54630698507075e-03
1.60950000000000e+00 1.78613911575549e-01 2.51445617250218e-03
1.61959090909091e+00 1.75825904437681e-01 2.48295496664025e-03
1.62968181818182e+00 1.73081415654370e-01 2.45180082041291e-03
1.63977272727273e+00 1.70379765942180e-01 2.42099115759167e-03
1.64986363636364e+00 1.67720286620695e-01 2.39052338559676e-03
1.65995454545455e+00 1.65102319447012e-01 2.36039489350723e-03
1.67004545454545e+00 1.62525216452823e-01 2.33060305372285e-03
1.68013636363636e+00 1.59988339784028e-01 2.30114522355598e-03
1.69022727272727e+00 1.57491061542880e-01 2.27201874676851e-03
1.70031818181818e+00 1.55032763632566e-01 2.24322095505554e-03
1.71040909090909e+00 1.52612837604223e-01 2.21474916946467e-03
1.72050000000000e+00 1.50230684506341e-01 2.18660069894034e-03
1.73059090909091e+00 1.47885714749465e-01 2.15877285020464e-03
1.74068181818182e+00 1.45577347920955e-01 2.13126292327900e-03
1.75077272727273e+00 1.43305012681123e-01 2.10406820676089e-03
1.76086363636364e+00 1.41068146608393e-01 2.07718598795124e-03
1.77095454545455e+00 1.38866196060095e-01 2.05061355095543e-03
1.78104545454545e+00 1.36698616035437e-01 2.02434817776258e-03
1.79113636363636e+00 1.34564870040604e-01 1.99838714927616e-03
1.80122727272727e+00 1.32464429955986e-01 1.97272774630709e-03
1.81131818181818e+00 1.30396775905460e-01 1.94736725053077e-03
1.82140909090909e+00 1.28361396127712e-01 1.92230294539940e-03
1.83150000000000e+00 1.26357786849574e-01 1.89753211471682e-03
1.84159090909091e+00 1.24385452171567e-01 1.87305205046187e-03
1.85168181818182e+00 1.22443903914100e-01 1.84886004891344e-03
1.86177272727273e+00 1.20532661528078e-01 1.82495340658034e-03
1.87186363636364e+00 1.18651251965360e-01 1.80132942824465e-03
1.88195454545455e+00 1.16799209561669e-01 1.77798542520656e-03
1.89204545454545e+00 1.14976075921340e-01 1.75491871596302e-03
1.90213636363636e+00 1.13181399803857e-01 1.73212662685194e-03
1.91222727272727e+00 1.11414737012179e-01 1.70960649267109e-03
1.92231818181818e+00 1.09675650282792e-01 1.68735565727268e-03
1.93240909090909e+00 1.07963709177484e-01 1.66537147412628e-03
1.94250000000000e+00 1.06278489976804e-01 1.64365130497760e-03
1.95259090909091e+00 1.04619575583305e-01 1.62219252606542e-03
1.96268181818182e+00 1.02986555393677e-01 1.60099252478891e-03
1.97277272727273e+00 1.01379025222046e-01 1.58004869621972e-03
1.98286363636364e+00 9.97965871915278e-02 1.55935844951136e-03
1.99295454545455e+00 9.82388496357448e-02 1.53891920631045e-03
2.00304545454545e+00 9.67054270018905e-02 1.51872840115942e-03
2.01313636363636e+00 9.51959397552946e-02 1.49878348187524e-03
2.02322727272727e+00 9.37100142854957e-02 1.47908190991094e-03
2.03331818181818e+00 9.22472828137646e-02 1.45962116070070e-03
2.04340909090909e+00 9.08073833020759e-02 1.44039872398313e-03
2.05350000000000e+00 8.93899593635007e-02 1.42141210256967e-03
2.06359090909091e+00 8.79946601804544e-02 1.40265881729966e-03
2.07368181818182e+00 8.66211403982674e-02 1.38413640418681e-03
2.08377272727273e+00 8.52690600595406e-02 1.36584241144115e-03
2.09386363636364e+00 8.39380845133121e-02 1.34777440459081e-03
2.10395454545455e+00 8.26278843322286e-02 1.32992996506393e-03
2.11404545454545e+00 8.13381352310092e-02 1.31230669040244e-03
2.12413636363636e+00 8.00685179861786e-02 1.29490219445920e-03
2.13422727272727e+00 7.88187183570644e-02 1.27771410758365e-03
2.14431818181818e+00 7.75884270080158e-02 1.26074007679649e-03
2.15440909090909e+00 7.63773394318407e-02 1.24397776594906e-03
2.16450000000000e+00 7.51851558744377e-02 1.22742485461170e-03
2.17459090909091e+00 7.40115812657570e-02 1.21107904203264e-03
2.18468181818182e+00 7.28563251311281e-02 1.19493804470232e-03
2.19477272727273e+00 7.17191015351912e-02 1.17899959381780e-03
2.20486363636364e+00 7.05996290057870e-02 1.16326143938492e-03
2.21495454545455e+00 6.94976304642901e-02 1.14772134896546e-03
2.22504545454545e+00 6.84128331570301e-02 1.13237710776275e-03
2.23513636363636e+00 6.73449685877796e-02 1.11722651869601e-03
2.24522727272727e+00 6.62937724513052e-02 1.10226740246719e-03
2.25531818181818e+00 6.52589845679469e-02 1.08749759762069e-03
2.26540909090909e+00 6.42403488192214e-02 1.07291496059252e-03
2.27550000000000e+00 6.32376130844306e-02 1.05851736471852e-03
2.28559090909091e+00 6.22505291823827e-02 1.04430270340394e-03
2.29568181818182e+00 6.12788527974516e-02 1.03026888804934e-03
2.30577272727273e+00 6.03223434317685e-02 1.01641384589589e-03
2.31586363636364e+00 5.93807643414259e-02 1.00273552331763e-03
2.32595454545455e+00 5.84538824778813e-02 9.89231884722376e-04
2.33604545454545e+00 5.75414684302760e-02 9.75900912552333e-04
2.34613636363636e+00 5.66432963686518e-02 9.62740607276909e-04
2.35622727272727e+00 5.57591439880607e-02 9.49748987380838e-04
2.36631818181818e+00 5.48887924535405e-02 9.36924089347953e-04
2.37640909090909e+00 5.40320263459510e-02 9.24263967637654e-04
2.38650000000000e+00 5.31886336086565e-02 9.11766693807921e-04
2.39659090909091e+00 5.23584054983460e-02 8.99430359057326e-04
2.40668181818182e+00 5.15411365233327e-02 8.87253072461899e-04
2.41677272727273e+00 5.07366244028461e-02 8.75232959146854e-04
2.42686363636364e+00 4.99446700135417e-02 8.63368162933195e-04
2.43695454545455e+00 4.91650773402160e-02 8.51656845379017e-04
2.44704545454545e+00 4.83976534272913e-02 8.40097185725134e-04
2.45713636363636e+00 4.76422083310560e-02 8.28687380835557e-04
2.46722727272727e+00 4.68985550726551e-02 8.17425645135109e-04
2.47731818181818e+00 4.61665095918102e-02 8.06310210544580e-04
2.48740909090909e+00 4.54458907012626e-02 7.95339326411081e-04
2.49750000000000e+00 4.47365200419281e-02 7.84511258737639e-04
2.50759090909091e+00 4.40382220414095e-02 7.73824292224958e-04
2.51768181818182e+00 4.33508238624751e-02 7.63276728774559e-04
2.52777272727273e+00 4.26741553684403e-02 7.52866885939220e-04
2.53786363636364e+00 4.20080490783054e-02 7.42593099053624e-04
2.54795454545455e+00 4.13523401253024e-02 7.32453720401797e-04
2.55804545454545e+00 4.07068662160893e-02 7.22447119128885e-04
2.56813636363636e+00 4.00714675905799e-02 7.12571681149585e-04
2.57822727272727e+00 3.94459869824045e-02 7.02825809055180e-04
2.58831818181818e+00 3.88302695799837e-02 6.93207922019263e-04
2.59840909090909e+00 3.82241629882115e-02 6.83716455700497e-04
2.60850000000000e+00 3.76275171907361e-02 6.74349861569307e-04
2.61859090909091e+00 3.70401845149700e-02 6.65106608549874e-04
2.62868181818182e+00 3.64620195890446e-02 6.55985181750733e-04
2.63877272727273e+00 3.58928793124003e-02 6.46984081152491e-04
2.64886363636364e+00 3.53326228181521e-02 6.38101823325265e-04
2.65895454545455e+00 3.47811114382239e-02 6.29336940708116e-04
2.66904545454545e+00 3.42382086690268e-02 6.20687981501678e-04
2.67913636363636e+00 3.37037801376726e-02 6.12153509558846e-04
2.68922727272727e+00 3.31776935687172e-02 6.03732104275014e-04
2.69931818181818e+00 3.26598187514207e-02 5.95422360477759e-04
2.70940909090909e+00 3.21500275075187e-02 5.87222888314742e-04
2.71950000000000e+00 3.16481936594973e-02 5.79132312667847e-04
2.72959090909091e+00 3.11541930010904e-02 5.71149274475022e-04
2.73968181818182e+00 3.06679032612965e-02 5.63272429654545e-04
2.74977272727273e+00 3.01892040794176e-02 5.55500447994587e-04
2.75986363636364e+00 2.97179769734808e-02 5.47832014538929e-04
2.76995454545455e+00 2.92541053109131e-02 5.40265828965040e-04
2.78004545454545e+00 2.87974742796740e-02 5.32800605467876e-04
2.79013636363636e+00 2.83479708598377e-02 5.25435072642585e-04
2.80022727272727e+00 2.79054837956214e-02 5.18167973367299e-04
2.81031818181818e+00 2.74699035678475e-02 5.10998064686038e-04
2.82040909090909e+00 2.70411223668373e-02 5.03924117690712e-04
2.83050000000000e+00 2.66190340657266e-02 4.96944917012926e-04
2.84059090909091e+00 2.62035341955944e-02 4.90059261889078e-04
2.85068181818182e+00 2.57945199153710e-02 4.83265965249358e-04
2.86077272727273e+00 2.53918899906679e-02 4.76563852778490e-04
2.87086363636364e+00 2.49955447672768e-02 4.69951764034938e-04
2.88095454545455e+00 2.46053861465043e-02 4.63428551915334e-04
2.89104545454545e+00 2.42213175608921e-02 4.56993082536265e-04
2.90113636363636e+00 2.38432439503145e-02 4.50644235115650e-04
2.91122727272727e+00 2.34710717384520e-02 4.44380901854553e-04
2.92131818181818e+00 2.31047088096296e-02 4.38201987819469e-04
2.93140909090909e+00 2.27440644860174e-02 4.32106410824351e-04
2.94150000000000e+00 2.23890495051869e-02 4.26093100991008e-04
2.95159090909091e+00 2.20395759991480e-02 4.20161001607999e-04
2.96168181818182e+00 2.16955574691725e-02 4.14309068359529e-04
2.97177272727273e+00 2.13569087678530e-02 4.08536268531282e-04
2.98186363636364e+00 2.10235460768584e-02 4.02841581915060e-04
2.99195454545455e+00 2.06953868861884e-02 3.97224000348498e-04
3.00204545454545e+00 2.03723499737518e-02 3.91682527599414e-04
3.01213636363636e+00 2.00543553852627e-02 3.86216179250157e-04
3.02222727272727e+00 1.97413244144519e-02 3.80823982582709e-04
3.03231818181818e+00 1.94331795835865e-02 3.75504976464479e-04
3.04240909090909e+00 1.91298446242932e-02 3.70258211234118e-04
3.05250000000000e+00 1.88312444586811e-02 3.65082748322174e-04
3.06259090909091e+00 1.85373051816753e-02 3.59977660944171e-04
3.07268181818182e+00 1.82479540399464e-02 3.54942033448125e-04
3.08277272727273e+00 1.79631194167135e-02 3.49974960643336e-04
3.09286363636364e+00 1.76827308130710e-02 3.45075548532067e-04
3.10295454545455e+00 1.74067188305396e-02 3.40242913914537e-04
3.11304545454545e+00 1.71350151538897e-02 3.35476184278794e-04
3.12313636363636e+00 1.68675525342322e-02 3.30774497690856e-04
3.13322727272727e+00 1.66042647723745e-02 3.26137002685668e-04
3.14331818181818e+00 1.63450867024358e-02 3.21562858158916e-04
3.15340909090909e+00 1.60899541757176e-02 3.17051233259149e-04
3.16350000000000e+00 1.58388040448264e-02 3.12601307061045e-04
3.17359090909091e+00 1.55915741487876e-02 3.08212269124952e-04
3.18368181818182e+00 1.53482032954049e-02 3.03883318944985e-04
