Energy (eV)          EEDF (eV^-(3/2))     First Anisotropy
3.80555555555556e-02 5.02846022802272e-02 3.13966840958361e-05
1.14166666666667e-01 4.98042845059974e-02 5.17712836118222e-05
1.90277777777778e-01 4.93285547204327e-02 6.81493502212868e-05
2.66388888888889e-01 4.88573690987471e-02 8.04740887491332e-05
3.42500000000000e-01 4.83906842351409e-02 9.06560422827650e-05
4.18611111111111e-01 4.79284571372170e-02 9.94204442801916e-05
4.94722222222222e-01 4.74706452259200e-02 1.07144025760347e-04
5.70833333333333e-01 4.70172063273702e-02 1.14055123722777e-04
6.46944444444444e-01 4.65680986705666e-02 1.20305726301604e-04
7.23055555555556e-01 4.61232808835215e-02 1.26003642396293e-04
7.99166666666667e-01 4.56827119894326e-02 1.31228962416844e-04
8.75277777777778e-01 4.52463514029262e-02 1.36043320498149e-04
9.51388888888889e-01 4.48141589263024e-02 1.40495486748651e-04
1.02750000000000e+00 4.43860947458310e-02 1.44624933248096e-04
1.10361111111111e+00 4.39621194260207e-02 1.48464208577979e-04
1.17972222222222e+00 4.35421939127433e-02 1.52040577839655e-04
1.25583333333333e+00 4.31262795222240e-02 1.55377189162839e-04
1.33194444444444e+00 4.27143379402102e-02 1.58493923803062e-04
1.40805555555556e+00 4.23063312184383e-02 1.61408030689006e-04
1.48416666666667e+00 4.19022217711109e-02 1.64134608435630e-04
1.56027777777778e+00 4.15019723714864e-02 1.66686977791794e-04
1.63638888888889e+00 4.11055461484172e-02 1.69076973712093e-04
1.71250000000000e+00 4.07129065829524e-02 1.71315177666949e-04
1.78861111111111e+00 4.03240175027745e-02 1.73411103507864e-04
1.86472222222222e+00 3.99388430856088e-02 1.75373349614908e-04
1.94083333333333e+00 3.95573478490208e-02 1.77209723837201e-04
2.01694444444444e+00 3.91794966495070e-02 1.78927345765848e-04
2.09305555555556e+00 3.88052546792573e-02 1.80532732990841e-04
2.16916666666667e+00 3.84345874629373e-02 1.82031873416274e-04
2.24527777777778e+00 3.80674608545346e-02 1.83430286494461e-04
2.32138888888889e+00 3.77038410342004e-02 1.84733075409070e-04
2.39750000000000e+00 3.73436945051343e-02 1.85944971990311e-04
2.47361111111111e+00 3.69869880890479e-02 1.87070374700538e-04
2.54972222222222e+00 3.66336889275368e-02 1.88113382423210e-04
2.62583333333333e+00 3.62837644745416e-02 1.89077823927712e-04
2.70194444444444e+00 3.59371824948841e-02 1.89967282712542e-04
2.77805555555556e+00 3.55939110612965e-02 1.90785119538749e-04
2.85416666666667e+00 3.52539185514761e-02 1.91534492121355e-04
2.93027777777778e+00 3.49171736451825e-02 1.92218372559215e-04
3.00638888888889e+00 3.45836453213465e-02 1.92839562818309e-04
3.08250000000000e+00 3.42533028552125e-02 1.93400708680328e-04
3.15861111111111e+00 3.39261158144696e-02 1.93904311618561e-04
3.23472222222222e+00 3.36020540596112e-02 1.94352740172299e-04
3.31083333333333e+00 3.32810877379448e-02 1.94748240208913e-04
3.38694444444444e+00 3.29631872819307e-02 1.95092943422351e-04
3.46305555555556e+00 3.26483234064587e-02 1.95388875607728e-04
3.53916666666667e+00 3.23364671061466e-02 1.95637964015215e-04
3.61527777777778e+00 3.20275896526753e-02 1.95842044032966e-04
3.69138888888889e+00 3.17216625921386e-02 1.96002865274259e-04
3.76750000000000e+00 3.14186577424218e-02 1.96122097257575e-04
3.84361111111111e+00 3.11185471898246e-02 1.96201334104698e-04
3.91972222222222e+00 3.08213032888657e-02 1.96242099454095e-04
3.99583333333333e+00 3.05268986573259e-02 1.96245850994819e-04
4.07194444444445e+00 3.02353061745406e-02 1.96213984004783e-04
4.14805555555556e+00 2.99464989789021e-02 1.96147835107204e-04
4.22416666666667e+00 2.96604504653824e-02 1.96048685614442e-04
4.30027777777778e+00 2.93771342830868e-02 1.95917764620351e-04
4.37638888888889e+00 2.90965243328243e-02 1.95756251864602e-04
4.45250000000000e+00 2.88185947647030e-02 1.95565280494511e-04
4.52861111111111e+00 2.85433199751418e-02 1.95345939209237e-04
4.60472222222222e+00 2.82706746063571e-02 1.95099274771437e-04
4.68083333333333e+00 2.80006335421567e-02 1.94826294363156e-04
4.75694444444444e+00 2.77331719062586e-02 1.94527967246556e-04
4.83305555555556e+00 2.74682650599984e-02 1.94205226736993e-04
4.90916666666667e+00 2.72058886000591e-02 1.93858971942352e-04
4.98527777777778e+00 2.69460183562250e-02 1.93490069391701e-04
5.06138888888889e+00 2.66886303891545e-02 1.93099354562058e-04
5.13750000000000e+00 2.64337009881741e-02 1.92687633400965e-04
5.21361111111111e+00 2.61812066686112e-02 1.92255683395848e-04
5.28972222222222e+00 2.59311241710979e-02 1.91804255023865e-04
5.36583333333333e+00 2.56834304579432e-02 1.91334073129010e-04
5.44194444444445e+00 2.54381027115117e-02 1.90845837759559e-04
5.51805555555556e+00 2.51951183321221e-02 1.90340225320805e-04
5.59416666666667e+00 2.49544549359638e-02 1.89817889572343e-04
5.67027777777778e+00 2.47160903530372e-02 1.89279462570528e-04
5.74638888888889e+00 2.44800026251105e-02 1.88725555560034e-04
5.82250000000000e+00 2.42461700036966e-02 1.88156759895327e-04
5.89861111111111e+00 2.40145709476580e-02 1.87573647601914e-04
5.97472222222222e+00 2.37851841224107e-02 1.86976772293023e-04
6.05083333333333e+00 2.35579883967572e-02 1.86366670049005e-04
6.12694444444444e+00 2.33329628413446e-02 1.85743859854741e-04
6.20305555555556e+00 2.31100867267373e-02 1.85108844329539e-04
6.27916666666667e+00 2.28893395215059e-02 1.84462110342441e-04
6.35527777777778e+00 2.26707008903383e-02 1.83804129597885e-04
6.43138888888889e+00 2.24541506921645e-02 1.83135359193530e-04
6.50750000000000e+00 2.22396689783022e-02 1.82456242219235e-04
6.58361111111111e+00 2.20272359902967e-02 1.81767208057353e-04
6.65972222222222e+00 2.18168321590768e-02 1.81068673004048e-04
6.73583333333333e+00 2.16084381021654e-02 1.80361040870211e-04
6.81194444444445e+00 2.14020346222267e-02 1.79644703209652e-04
6.88805555555556e+00 2.11976027052974e-02 1.78920039810970e-04
6.96416666666667e+00 2.09951235190352e-02 1.78187419099367e-04
7.04027777777778e+00 2.07945784109843e-02 1.77447198521172e-04
7.11638888888889e+00 2.05959489068573e-02 1.76699724912143e-04
7.19250000000000e+00 2.03992167088326e-02 1.75945334909188e-04
7.26861111111111e+00 2.02043636936022e-02 1.75184355108274e-04
7.34472222222222e+00 2.00113719115119e-02 1.74417102508851e-04
7.42083333333333e+00 1.98202235840890e-02 1.73643884946485e-04
7.49694444444444e+00 1.96309011026807e-02 1.72865001205833e-04
7.57305555555556e+00 1.94433870268320e-02 1.72080741368754e-04
7.64916666666667e+00 1.92576640826782e-02 1.71291387088663e-04
7.72527777777778e+00 1.90737151613549e-02 1.70497211854246e-04
7.80138888888889e+00 1.88915233174215e-02 1.69698481243188e-04
7.87750000000000e+00 1.87110717672999e-02 1.68895453217893e-04
7.95361111111111e+00 1.85323438875046e-02 1.68088378202424e-04
8.02972222222222e+00 1.83553232137898e-02 1.67277499414004e-04
8.10583333333333e+00 1.81799934389474e-02 1.66463053187413e-04
8.18194444444445e+00 1.80063384115355e-02 1.65645269022232e-04
8.25805555555556e+00 1.78343421343907e-02 1.64824369838960e-04
8.33416666666667e+00 1.76639887631538e-02 1.64000572173136e-04
8.41027777777778e+00 1.74952626048112e-02 1.63174086362649e-04
8.48638888888889e+00 1.73281481162486e-02 1.62345116728547e-04
8.56250000000000e+00 1.71626299028195e-02 1.61513861795075e-04
8.63861111111111e+00 1.69986927167378e-02 1.60680514319260e-04
8.71472222222222e+00 1.68363214562456e-02 1.59845261546385e-04
8.79083333333333e+00 1.66755011636443e-02 1.59008285461127e-04
8.86694444444444e+00 1.65162170241107e-02 1.58169762796553e-04
8.94305555555556e+00 1.63584543643329e-02 1.57329865228498e-04
9.01916666666667e+00 1.62021986511579e-02 1.56488759516935e-04
9.09527777777778e+00 1.60474354902533e-02 1.55646607642795e-04
9.17138888888889e+00 1.58941506247815e-02 1.54803566940435e-04
9.24750000000000e+00 1.57423299340858e-02 1.53959790266032e-04
9.32361111111111e+00 1.55919594322292e-02 1.53115425999102e-04
9.39972222222222e+00 1.54430252671925e-02 1.52270618244545e-04
9.47583333333333e+00 1.52955137191071e-02 1.51425507031999e-04
9.55194444444444e+00 1.51494111991564e-02 1.50580228302493e-04
9.62805555555556e+00 1.50047042483240e-02 1.49734914059677e-04
9.70416666666667e+00 1.48613795361534e-02 1.48889692475248e-04
9.78027777777778e+00 1.47194238595211e-02 1.48044687991195e-04
9.85638888888889e+00 1.45788241414193e-02 1.47200021419033e-04
9.93250000000000e+00 1.44395674297519e-02 1.46355810071682e-04
1.00086111111111e+01 1.43016408960034e-02 1.45512167855038e-04
1.00847222222222e+01 1.41650318340666e-02 1.44669205073519e-04
1.01608333333333e+01 1.40297276600168e-02 1.43827028879125e-04
1.02369444444444e+01 1.38957159095793e-02 1.42985743464204e-04
1.03130555555556e+01 1.37629842375377e-02 1.42145449777810e-04
1.03891666666667e+01 1.36315204165958e-02 1.41306245753419e-04
1.04652777777778e+01 1.35013123362541e-02 1.40468226386844e-04
1.05413888888889e+01 1.33723480016925e-02 1.39631483812709e-04
1.06175000000000e+01 1.32446155326654e-02 1.38796107695189e-04
1.06936111111111e+01 1.31181031612301e-02 1.37962184338654e-04
1.07697222222222e+01 1.29927992342264e-02 1.37129797401568e-04
1.08458333333333e+01 1.28686922086066e-02 1.36299028617899e-04
1.09219444444444e+01 1.27457706515820e-02 1.35469956875327e-04
1.09980555555556e+01 1.26240232395702e-02 1.34642658611044e-04
1.10741666666667e+01 1.25034387571499e-02 1.33817207872991e-04
1.11502777777778e+01 1.23840060960311e-02 1.32993676380105e-04
1.12263888888889e+01 1.22657142540302e-02 1.32172133581604e-04
1.13025000000000e+01 1.21485523340560e-02 1.31352646996121e-04
1.13786111111111e+01 1.20325095420921e-02 1.30535281412981e-04
1.14547222222222e+01 1.19175751892728e-02 1.29720099519100e-04
1.15308333333333e+01 1.18037386878003e-02 1.28907162533010e-04
1.16069444444444e+01 1.16909895510110e-02 1.28096529378269e-04
1.16830555555556e+01 1.15793173924102e-02 1.27288257028429e-04
1.17591666666667e+01 1.14687119247136e-02 1.26482400554893e-04
1.18352777777778e+01 1.13591629589025e-02 1.25679013174085e-04
1.19113888888889e+01 1.12506604032832e-02 1.24878146294000e-04
1.19875000000000e+01 1.11431942625579e-02 1.24079849810293e-04
1.20636111111111e+01 1.10367546360265e-02 1.23284171389075e-04
1.21397222222222e+01 1.09313317193299e-02 1.22491157019601e-04
1.22158333333333e+01 1.08269158008679e-02 1.21700851573650e-04
1.22919444444444e+01 1.07234972618050e-02 1.20913298064151e-04
1.23680555555556e+01 1.06210665751851e-02 1.20128537947351e-04
1.24441666666667e+01 1.05196143050526e-02 1.19346611160625e-04
1.25202777777778e+01 1.04191311055849e-02 1.18567556159832e-04
1.25963888888889e+01 1.03196077202308e-02 1.17791409956206e-04
1.26725000000000e+01 1.02210349808574e-02 1.17018208376100e-04
1.27486111111111e+01 1.01234038061443e-02 1.16247985416873e-04
1.28247222222222e+01 1.00267052030514e-02 1.15480773735749e-04
1.29008333333333e+01 9.93093026366574e-03 1.14716605144895e-04
1.29769444444444e+01 9.83607016516270e-03 1.13955509946191e-04
1.30530555555556e+01 9.74211616899322e-03 1.13197517197024e-04
1.31291666666667e+01 9.64905962007812e-03 1.12442654740413e-04
1.32052777777778e+01 9.55689194601215e-03 1.11690949234819e-04
1.32813888888889e+01 9.46560465627365e-03 1.10942426183660e-04
1.33575000000000e+01 9.37518934144233e-03 1.10197110164065e-04
1.34336111111111e+01 9.28563767176177e-03 1.09455024248158e-04
1.35097222222222e+01 9.19694139837767e-03 1.08716190436664e-04
1.35858333333333e+01 9.10909235055505e-03 1.07980630098220e-04
1.36619444444444e+01 9.02208243560568e-03 1.07248363372150e-04
1.37380555555556e+01 8.93590363814266e-03 1.06519409403056e-04
1.38141666666667e+01 8.85054801934142e-03 1.05793786364983e-04
1.38902777777778e+01 8.76600771620956e-03 1.05071511485397e-04
1.39663888888889e+01 8.68227494086193e-03 1.04352601068922e-04
1.40425000000000e+01 8.59934197980319e-03 1.03637070699486e-04
1.41186111111111e+01 8.51720119263881e-03 1.02924934720117e-04
1.41947222222222e+01 8.43584501312123e-03 1.02216206618397e-04
1.42708333333333e+01 8.35526594668789e-03 1.01510899417192e-04
1.43469444444444e+01 8.27545657036425e-03 1.00809025138122e-04
1.44230555555556e+01 8.19640953207995e-03 1.00110595009212e-04
1.44991666666667e+01 8.11811754999108e-03 9.94156194844107e-05
1.45752777777778e+01 8.04057341181031e-03 9.87241082629511e-05
1.46513888888889e+01 7.96376997414204e-03 9.80360703085795e-05
1.47275000000000e+01 7.88770016182429e-03 9.73515140286400e-05
1.48036111111111e+01 7.81235696677104e-03 9.66704468062186e-05
1.48797222222222e+01 7.73773344885716e-03 9.59928753434888e-05
1.49558333333333e+01 7.66382273373563e-03 9.53188060098816e-05
1.50319444444444e+01 7.59061801272311e-03 9.46482443597957e-05
1.51080555555556e+01 7.51811254217277e-03 9.39811953168306e-05
1.51841666666667e+01 7.44629964285261e-03 9.33176631896163e-05
1.52602777777778e+01 7.37517269933100e-03 9.26576516875307e-05
1.53363888888889e+01 7.30472515936690e-03 9.20011639363376e-05
1.54125000000000e+01 7.23495053330615e-03 9.13482026372102e-05
1.54886111111111e+01 7.16584239304023e-03 9.06987696457159e-05
1.55647222222222e+01 7.09739437275562e-03 9.00528662781795e-05
1.56408333333333e+01 7.02960016699460e-03 8.94104936224326e-05
1.57169444444444e+01 6.96245353052916e-03 8.87716521040054e-05
1.57930555555556e+01 6.89594827778560e-03 8.81363416499478e-05
1.58691666666667e+01 6.83007828227445e-03 8.75045617016854e-05
1.59452777777778e+01 6.76483747602677e-03 8.68763112278285e-05
1.60213888888889e+01 6.70021984903477e-03 8.62515887369255e-05
1.60975000000000e+01 6.63621944869822e-03 8.56303924189615e-05
1.61736111111111e+01 6.57283037888650e-03 8.50127197662802e-05
1.62497222222222e+01 6.51004680057371e-03 8.43985678473397e-05
1.63258333333333e+01 6.44786293011279e-03 8.37879335844923e-05
1.64019444444444e+01 6.38627303910203e-03 8.31808133635259e-05
1.64780555555556e+01 6.32527145385733e-03 8.25772031795752e-05
1.65541666666667e+01 6.26485255488930e-03 8.19770986476219e-05
1.66302777777778e+01 6.20501077638615e-03 8.13804950129454e-05
1.67063888888889e+01 6.14574060570067e-03 8.07873871615346e-05
1.67825000000000e+01 6.08703658284239e-03 8.01977697462252e-05
1.68586111111111e+01 6.02889329963184e-03 7.96116368451697e-05
1.69347222222222e+01 5.97130540023903e-03 7.90289822067997e-05
1.70108333333333e+01 5.91426757964489e-03 7.84497994984455e-05
1.70869444444444e+01 5.85777458350384e-03 7.78740819546725e-05
1.71630555555556e+01 5.80182120765976e-03 7.73018225074663e-05
1.72391666666667e+01 5.74640229766632e-03 7.67330137947964e-05
1.73152777777778e+01 5.69151274831267e-03 7.61676481691635e-05
1.73913888888889e+01 5.63714750315289e-03 7.56057177061259e-05
1.74675000000000e+01 5.58330155404015e-03 7.50472143168923e-05
1.75436111111111e+01 5.52996994036331e-03 7.44921294404587e-05
1.76197222222222e+01 5.47714774950352e-03 7.39404542630573e-05
1.76958333333333e+01 5.42483011546064e-03 7.33921799409388e-05
1.77719444444444e+01 5.37301221871454e-03 7.28472972834640e-05
1.78480555555556e+01 5.32168928578106e-03 7.23057968694137e-05
1.79241666666667e+01 5.27085658877213e-03 7.17676690539790e-05
1.80002777777778e+01 5.22050944496062e-03 7.12329039757567e-05
1.80763888888889e+01 5.17064321634877e-03 7.07014915637207e-05
1.81525000000000e+01 5.12125330924090e-03 7.01734216378762e-05
1.82286111111111e+01 5.07233517355360e-03 6.96486836315920e-05
1.83047222222222e+01 5.02388430320301e-03 6.91272667883964e-05
1.83808333333333e+01 4.97589623487672e-03 6.86091603618203e-05
1.84569444444444e+01 4.92836654789586e-03 6.80943533296358e-05
1.85330555555556e+01 4.88129086380785e-03 6.75828344979005e-05
1.86091666666667e+01 4.83466484598284e-03 6.70745925066713e-05
1.86852777777778e+01 4.78848419921463e-03 6.65696158357173e-05
1.87613888888889e+01 4.74274466932475e-03 6.60678928102232e-05
1.88375000000000e+01 4.69744204277061e-03 6.55694116908688e-05
1.89136111111111e+01 4.65257214602162e-03 6.50741604232673e-05
1.89897222222222e+01 4.60813084588748e-03 6.45821268146197e-05
1.90658333333333e+01 4.56411404841898e-03 6.40932987131470e-05
1.91419444444444e+01 4.52051769877224e-03 6.36076637502725e-05
1.92180555555556e+01 4.47733778083523e-03 6.31252094337978e-05
1.92941666666667e+01 4.43457031685761e-03 6.26459231525684e-05
1.93702777777778e+01 4.39221136708464e-03 6.21697921811256e-05
1.94463888888889e+01 4.35025702939406e-03 6.16968036843736e-05
1.95225000000000e+01 4.30870343893663e-03 6.12269447982847e-05
1.95986111111111e+01 4.26754676757147e-03 6.07602024036698e-05
1.96747222222222e+01 4.22678322414428e-03 6.02965632848992e-05
1.97508333333333e+01 4.18640905350220e-03 5.98360142911454e-05
1.98269444444444e+01 4.14642053636155e-03 5.93785421036612e-05
1.99030555555556e+01 4.10681398896521e-03 5.89241333192962e-05
1.99791666666667e+01 4.06758576274313e-03 5.84727744542947e-05
2.00552777777778e+01 4.02873224397650e-03 5.80244519480901e-05
2.01313888888889e+01 3.99024985346471e-03 5.75791521671042e-05
2.02075000000000e+01 3.95213504619562e-03 5.71368614771175e-05
2.02836111111111e+01 3.91438431083411e-03 5.66975660389240e-05
2.03597222222222e+01 3.87699416995768e-03 5.62612519510527e-05
2.04358333333333e+01 3.83996117917259e-03 5.58279053947621e-05
2.05119444444444e+01 3.80328192698594e-03 5.53975124238692e-05
2.05880555555556e+01 3.76695303449136e-03 5.49700590396962e-05
2.06641666666667e+01 3.73097115505764e-03 5.45455311941360e-05
2.07402777777778e+01 3.69533297402067e-03 5.41239147927315e-05
2.08163888888889e+01 3.66003520837798e-03 5.37051956977637e-05
2.08925000000000e+01 3.62507460648629e-03 5.32893597932065e-05
2.09686111111111e+01 3.59044794759792e-03 5.28763928000703e-05
2.10447222222222e+01 3.55615204206011e-03 5.24662804048115e-05
2.11208333333333e+01 3.52218373052128e-03 5.20590083898231e-05
2.11969444444444e+01 3.48853988380795e-03 5.16545624435419e-05
2.12730555555556e+01 3.45521740263644e-03 5.12529282277453e-05
2.13491666666667e+01 3.42221321732732e-03 5.08540913800247e-05
2.14252777777778e+01 3.38952428752280e-03 5.04580375162689e-05
2.15013888888889e+01 3.35714760190655e-03 5.00647522331618e-05
2.15775000000000e+01 3.32508017792629e-03 4.96742211665308e-05
2.16536111111111e+01 3.29331906137332e-03 4.92864298243964e-05
2.17297222222222e+01 3.26186132655095e-03 4.89013637025944e-05
2.18058333333333e+01 3.23070407556095e-03 4.85190084022896e-05
2.18819444444444e+01 3.19984443818580e-03 4.81393494583239e-05
2.19580555555556e+01 3.16927957162425e-03 4.77623723996928e-05
2.20341666666667e+01 3.13900666022940e-03 4.73880627515245e-05
2.21102777777778e+01 3.10902291524944e-03 4.70164060370733e-05
2.21863888888889e+01 3.07932557457066e-03 4.66473877797241e-05
2.22625000000000e+01 3.04991190246308e-03 4.62809935554397e-05
2.23386111111111e+01 3.02077918919879e-03 4.59172088417661e-05
2.24147222222222e+01 2.99192475119402e-03 4.55560191220006e-05
2.24908333333333e+01 2.96334593036726e-03 4.51974099910824e-05
2.25669444444444e+01 2.93504009402693e-03 4.48413670003623e-05
2.26430555555556e+01 2.90700463462892e-03 4.44878757119895e-05
2.27191666666667e+01 2.87923696953626e-03 4.41369217004807e-05
2.27952777777778e+01 2.85173454078138e-03 4.37884905543051e-05
2.28713888888889e+01 2.82449481483038e-03 4.34425678774774e-05
2.29475000000000e+01 2.79751528234965e-03 4.30991393367424e-05
2.30236111111111e+01 2.77079345785940e-03 4.27581905249456e-05
2.30997222222222e+01 2.74432687985324e-03 4.24197070549364e-05
2.31758333333333e+01 2.71811311022023e-03 4.20836746550474e-05
2.32519444444444e+01 2.69214973413820e-03 4.17500790286503e-05
2.33280555555556e+01 2.66643435985136e-03 4.14189059030978e-05
2.34041666666667e+01 2.64096461844986e-03 4.10901410309565e-05
2.34802777777778e+01 2.61573816365172e-03 4.07637701912492e-05
2.35563888888889e+01 2.59075267158663e-03 4.04397791907132e-05
2.36325000000000e+01 2.56600584058184e-03 4.01181539062634e-05
2.37086111111111e+01 2.54149539084747e-03 3.97988801613222e-05
2.37847222222222e+01 2.51721906457690e-03 3.94819438105222e-05
2.38608333333333e+01 2.49317462542599e-03 3.91673308258268e-05
2.39369444444444e+01 2.46935985841213e-03 3.88550271694264e-05
2.40130555555556e+01 2.44577256971018e-03 3.85450188378056e-05
