Energy (eV)          EEDF (eV^-(3/2))     First Anisotropy
2.00847457627119e-02 6.25396092704635e-02 3.05370280104024e-05
6.02542372881356e-02 6.21747677620392e-02 5.04478237648370e-05
1.00423728813559e-01 6.18120546532707e-02 6.66565060961838e-05
1.40593220338983e-01 6.14514575268850e-02 7.90067534462310e-05
1.80762711864407e-01 6.10929640419842e-02 8.93371771518126e-05
2.20932203389830e-01 6.07365619235689e-02 9.83418767013573e-05
2.61101694915254e-01 6.03822389730389e-02 1.06379531882570e-04
3.01271186440678e-01 6.00299830593937e-02 1.13666434436402e-04
3.41440677966102e-01 5.96797821253216e-02 1.20345833372325e-04
3.81610169491525e-01 5.93316241814157e-02 1.26518834102375e-04
4.21779661016949e-01 5.89854973103186e-02 1.32260176824031e-04
4.61949152542373e-01 5.86413896623537e-02 1.37627097156239e-04
5.02118644067797e-01 5.82992894586149e-02 1.42664665305451e-04
5.42288135593220e-01 5.79591849874363e-02 1.47409183925920e-04
5.82457627118644e-01 5.76210646068164e-02 1.51890446874184e-04
6.22627118644068e-01 5.72849167414438e-02 1.56133295483195e-04
6.62796610169492e-01 5.69507298846655e-02 1.60158723252420e-04
7.02966101694915e-01 5.66184925959093e-02 1.63984680204558e-04
7.43135593220339e-01 5.62881935023182e-02 1.67626671400820e-04
7.83305084745763e-01 5.59598212964728e-02 1.71098210941247e-04
8.23474576271186e-01 5.56333647373673e-02 1.74411171773483e-04
8.63644067796610e-01 5.53088126499822e-02 1.77576059964852e-04
9.03813559322034e-01 5.49861539236766e-02 1.80602231716251e-04
9.43983050847458e-01 5.46653775133949e-02 1.83498067704666e-04
9.84152542372881e-01 5.43464724377898e-02 1.86271114553949e-04
1.02432203389831e+00 5.40294277796207e-02 1.88928200201962e-04
1.06449152542373e+00 5.37142326866146e-02 1.91475529982824e-04
1.10466101694915e+00 5.34008763687769e-02 1.93918766317204e-04
1.14483050847458e+00 5.30893480990814e-02 1.96263095210758e-04
1.18500000000000e+00 5.27796372130898e-02 1.98513283286129e-04
1.22516949152542e+00 5.24717331060509e-02 2.00673724563605e-04
1.26533898305085e+00 5.21656252402556e-02 2.02748482364134e-04
1.30550847457627e+00 5.18613031368197e-02 2.04741325453178e-04
1.34567796610169e+00 5.15587563779895e-02 2.06655757307991e-04
1.38584745762712e+00 5.12579746067813e-02 2.08495043056001e-04
1.42601694915254e+00 5.09589475266468e-02 2.10262232611018e-04
1.46618644067797e+00 5.06616649011070e-02 2.11960181296841e-04
1.50635593220339e+00 5.03661165514373e-02 2.13591566613823e-04
1.54652542372881e+00 5.00722923622982e-02 2.15158904700704e-04
1.58669491525424e+00 4.97801822753186e-02 2.16664564998138e-04
1.62686440677966e+00 4.94897762908006e-02 2.18110781563409e-04
1.66703389830508e+00 4.92010644673877e-02 2.19499664496179e-04
1.70720338983051e+00 4.89140369217237e-02 2.20833210150951e-04
1.74737288135593e+00 4.86286838264728e-02 2.22113309060489e-04
1.78754237288136e+00 4.83449954149615e-02 2.23341754564793e-04
1.82771186440678e+00 4.80629619757976e-02 2.24520250653844e-04
1.86788135593220e+00 4.77825738542433e-02 2.25650417506402e-04
1.90805084745763e+00 4.75038214518797e-02 2.26733797716740e-04
1.94822033898305e+00 4.72266952262907e-02 2.27771861655493e-04
1.98838983050847e+00 4.69511856907290e-02 2.28766012631479e-04
2.02855932203390e+00 4.66772834124417e-02 2.29717590494871e-04
2.06872881355932e+00 4.64049790164448e-02 2.30627876276343e-04
2.10889830508475e+00 4.61342631810543e-02 2.31498096482182e-04
2.14906779661017e+00 4.58651266389647e-02 2.32329425647157e-04
2.18923728813559e+00 4.55975601769350e-02 2.33122989765050e-04
2.22940677966102e+00 4.53315546354755e-02 2.33879869437259e-04
2.26957627118644e+00 4.50671009073644e-02 2.34601101765360e-04
2.30974576271186e+00 4.48041899408748e-02 2.35287683334212e-04
2.34991525423729e+00 4.45428127358863e-02 2.35940573009899e-04
2.39008474576271e+00 4.42829603447835e-02 2.36560693260558e-04
2.43025423728814e+00 4.40246238721456e-02 2.37148932376452e-04
2.47042372881356e+00 4.37677944744505e-02 2.37706146287376e-04
2.51059322033898e+00 4.35124633597674e-02 2.38233160485975e-04
2.55076271186441e+00 4.32586217864620e-02 2.38730770901810e-04
2.59093220338983e+00 4.30062610659097e-02 2.39199745839435e-04
2.63110169491525e+00 4.27553725591537e-02 2.39640827819109e-04
2.67127118644068e+00 4.25059476776340e-02 2.40054734144110e-04
2.71144067796610e+00 4.22579778828943e-02 2.40442158337237e-04
2.75161016949153e+00 4.20114546862917e-02 2.40803771477222e-04
2.79177966101695e+00 4.17663696478266e-02 2.41140222605193e-04
2.83194915254237e+00 4.15227143785127e-02 2.41452140146090e-04
2.87211864406780e+00 4.12804805374044e-02 2.41740133271203e-04
2.91228813559322e+00 4.10396598322155e-02 2.42004792112566e-04
2.95245762711864e+00 4.08002440190328e-02 2.42246688804104e-04
2.99262711864407e+00 4.05622249020388e-02 2.42466378255039e-04
3.03279661016949e+00 4.03255943332288e-02 2.42664399075729e-04
3.07296610169492e+00 4.00903442113678e-02 2.42841273675797e-04
3.11313559322034e+00 3.98564664840265e-02 2.42997509310841e-04
3.15330508474576e+00 3.96239531449706e-02 2.43133599094623e-04
3.19347457627119e+00 3.93927962346717e-02 2.43250021979576e-04
3.23364406779661e+00 3.91629878400350e-02 2.43347243508538e-04
3.27381355932203e+00 3.89345200941304e-02 2.43425716518633e-04
3.31398305084746e+00 3.87073851752372e-02 2.43485881087508e-04
3.35415254237288e+00 3.84815753086483e-02 2.43528165371306e-04
3.39432203389830e+00 3.82570827643137e-02 2.43552986420416e-04
3.43449152542373e+00 3.80338998572785e-02 2.43560750044056e-04
3.47466101694915e+00 3.78120189474189e-02 2.43551851400084e-04
3.51483050847458e+00 3.75914324391831e-02 2.43526675378095e-04
3.55500000000000e+00 3.73721327813304e-02 2.43485597132267e-04
3.59516949152542e+00 3.71541124660674e-02 2.43428981923562e-04
3.63533898305085e+00 3.69373640306213e-02 2.43357185790242e-04
3.67550847457627e+00 3.67218800551384e-02 2.43270556204427e-04
3.71567796610169e+00 3.65076531630505e-02 2.43169431859231e-04
3.75584745762712e+00 3.62946760208219e-02 2.43054143128820e-04
3.79601694915254e+00 3.60829413377003e-02 2.42925012343684e-04
3.83618644067797e+00 3.58724418654661e-02 2.42782354208690e-04
3.87635593220339e+00 3.56631703976464e-02 2.42626475587984e-04
3.91652542372881e+00 3.54551197708946e-02 2.42457676058734e-04
3.95669491525424e+00 3.52482828631059e-02 2.42276248456217e-04
3.99686440677966e+00 3.50426525937232e-02 2.42082478619318e-04
4.03703389830508e+00 3.48382219234963e-02 2.41876645761233e-04
4.07720338983051e+00 3.46349838542408e-02 2.41659022817636e-04
4.11737288135593e+00 3.44329314281089e-02 2.41429876203938e-04
4.15754237288136e+00 3.42320577288306e-02 2.41189466295466e-04
4.19771186440678e+00 3.40323558799858e-02 2.40938047901619e-04
4.23788135593220e+00 3.38338190452697e-02 2.40675869993027e-04
4.27805084745763e+00 3.36364404282582e-02 2.40403176015866e-04
4.31822033898305e+00 3.34402132721770e-02 2.40120204051060e-04
4.35838983050847e+00 3.32451308596692e-02 2.39827187102225e-04
4.39855932203390e+00 3.30511865121265e-02 2.39524352836959e-04
4.43872881355932e+00 3.28583735907877e-02 2.39211924000708e-04
4.47889830508475e+00 3.26666854951739e-02 2.38890118826988e-04
4.51906779661017e+00 3.24761156633114e-02 2.38559150755603e-04
4.55923728813559e+00 3.22866575715080e-02 2.38219228697611e-04
4.59940677966102e+00 3.20983047341292e-02 2.37870557284272e-04
4.63957627118644e+00 3.19110507029741e-02 2.37513336603152e-04
4.67974576271186e+00 3.17248890682705e-02 2.37147762567608e-04
4.71991525423729e+00 3.15398134572302e-02 2.36774027283839e-04
4.76008474576271e+00 3.13558175342425e-02 2.36392318768501e-04
4.80025423728814e+00 3.11728950006564e-02 2.36002821180609e-04
4.84042372881356e+00 3.09910395945666e-02 2.35605714920292e-04
4.88059322033898e+00 3.08102450905983e-02 2.35201176842479e-04
4.92076271186441e+00 3.06305052993305e-02 2.34789379993417e-04
4.96093220338983e+00 3.04518140681829e-02 2.34370493938186e-04
5.00110169491525e+00 3.02741652800987e-02 2.33944685086738e-04
5.04127118644068e+00 3.00975528537061e-02 2.33512116415546e-04
5.08144067796610e+00 2.99219707431106e-02 2.33072947669370e-04
5.12161016949153e+00 2.97474129376885e-02 2.32627335550777e-04
5.16177966101695e+00 2.95738734615455e-02 2.32175433460650e-04
5.20194915254237e+00 2.94013463743248e-02 2.31717391796206e-04
5.24211864406780e+00 2.92298257699840e-02 2.31253358248234e-04
5.28228813559322e+00 2.90593057769350e-02 2.30783477528842e-04
5.32245762711864e+00 2.88897805578429e-02 2.30307891552320e-04
5.36262711864407e+00 2.87212443094269e-02 2.29826739499785e-04
5.40279661016949e+00 2.85536912622612e-02 2.29340157986099e-04
5.44296610169491e+00 2.83871156802728e-02 2.28848280807503e-04
5.48313559322034e+00 2.82215118614657e-02 2.28351239210590e-04
5.52330508474576e+00 2.80568741367987e-02 2.27849162160972e-04
5.56347457627119e+00 2.78931968703023e-02 2.27342176080349e-04
5.60364406779661e+00 2.77304744588859e-02 2.26830405007169e-04
5.64381355932203e+00 2.75687013321462e-02 2.26313970747422e-04
5.68398305084746e+00 2.74078719518945e-02 2.25792992629761e-04
5.72415254237288e+00 2.72479808128188e-02 2.25267587753472e-04
5.76432203389830e+00 2.70890224414374e-02 2.24737871236412e-04
5.80449152542373e+00 2.69309913961999e-02 2.24203955960730e-04
5.84466101694915e+00 2.67738822673003e-02 2.23665952719243e-04
5.88483050847458e+00 2.66176896764923e-02 2.23123970259701e-04
5.92500000000000e+00 2.64624082769051e-02 2.22578115420062e-04
5.96516949152542e+00 2.63080327526029e-02 2.22028492893192e-04
6.00533898305085e+00 2.61545578191807e-02 2.21475205453441e-04
6.04550847457627e+00 2.60019782228001e-02 2.20918354183458e-04
6.08567796610169e+00 2.58502887402724e-02 2.20358038230919e-04
6.12584745762712e+00 2.56994841788795e-02 2.19794354940566e-04
6.16601694915254e+00 2.55495593761968e-02 2.19227399890983e-04
6.20618644067797e+00 2.54005091999160e-02 2.18657267016664e-04
6.24635593220339e+00 2.52523285474336e-02 2.18084048382938e-04
6.28652542372881e+00 2.51050123463888e-02 2.17507834394049e-04
6.32669491525424e+00 2.49585555537724e-02 2.16928714001673e-04
6.36686440677966e+00 2.48129531559948e-02 2.16346774472709e-04
6.40703389830508e+00 2.46682001687146e-02 2.15762101509269e-04
6.44720338983051e+00 2.45242916366682e-02 2.15174779361250e-04
6.48737288135593e+00 2.43812226332799e-02 2.14584890609878e-04
6.52754237288136e+00 2.42389882611569e-02 2.13992516361945e-04
6.56771186440678e+00 2.40975836512543e-02 2.13397736444567e-04
6.60788135593220e+00 2.39570039629315e-02 2.12800629182411e-04
6.64805084745763e+00 2.38172443837874e-02 2.12201271508659e-04
6.68822033898305e+00 2.36783001294952e-02 2.11599738991562e-04
6.72838983050847e+00 2.35401664436391e-02 2.10996105937159e-04
6.76855932203390e+00 2.34028385973491e-02 2.10390445183128e-04
6.80872881355932e+00 2.32663118897486e-02 2.09782828278421e-04
6.84889830508475e+00 2.31305816471806e-02 2.09173325663511e-04
6.88906779661017e+00 2.29956432232527e-02 2.08562006458590e-04
6.92923728813559e+00 2.28614919986786e-02 2.07948938565316e-04
6.96940677966102e+00 2.27281233811202e-02 2.07334188762242e-04
7.00957627118644e+00 2.25955328048413e-02 2.06717822507197e-04
7.04974576271186e+00 2.24637157311207e-02 2.06099904105812e-04
7.08991525423729e+00 2.23326676475238e-02 2.05480496880761e-04
7.13008474576271e+00 2.22023840679408e-02 2.04859662968975e-04
7.17025423728813e+00 2.20728605324327e-02 2.04237463416363e-04
7.21042372881356e+00 2.19440926070786e-02 2.03613958197485e-04
7.25059322033898e+00 2.18160758838245e-02 2.02989206303429e-04
7.29076271186441e+00 2.16888059801579e-02 2.02363265553941e-04
7.33093220338983e+00 2.15622785394828e-02 2.01736192754115e-04
7.37110169491525e+00 2.14364892304424e-02 2.01108043851865e-04
7.41127118644068e+00 2.13114337469481e-02 2.00478873745403e-04
7.45144067796610e+00 2.11871078080318e-02 1.99848736370744e-04
7.49161016949153e+00 2.10635071577001e-02 1.99217684783765e-04
7.53177966101695e+00 2.09406275646251e-02 1.98585770980421e-04
7.57194915254237e+00 2.08184648224910e-02 1.97953046044363e-04
7.61211864406780e+00 2.06970147493556e-02 1.97319560295287e-04
7.65228813559322e+00 2.05762731876736e-02 1.96685363104775e-04
7.69245762711864e+00 2.04562360041536e-02 1.96050502978261e-04
7.73262711864407e+00 2.03368990896169e-02 1.95415027569930e-04
7.77279661016949e+00 2.02182583588569e-02 1.94778983758696e-04
7.81296610169492e+00 2.01003097503489e-02 1.94142417477498e-04
7.85313559322034e+00 1.99830492265646e-02 1.93505373851124e-04
7.89330508474576e+00 1.98664727733775e-02 1.92867897334733e-04
7.93347457627119e+00 1.97505764000786e-02 1.92230031539230e-04
7.97364406779661e+00 1.96353561392397e-02 1.91591819307357e-04
8.01381355932203e+00 1.95208080465776e-02 1.90953302784952e-04
8.05398305084746e+00 1.94069282006787e-02 1.90314523257733e-04
8.09415254237288e+00 1.92937127032891e-02 1.89675521281476e-04
8.13432203389831e+00 1.91811576787538e-02 1.89036336812929e-04
8.17449152542373e+00 1.90692592740276e-02 1.88397009042839e-04
8.21466101694915e+00 1.89580136585431e-02 1.87757576467518e-04
8.25483050847458e+00 1.88474170240794e-02 1.87118076900270e-04
8.29500000000000e+00 1.87374655846320e-02 1.86478547537777e-04
8.33516949152542e+00 1.86281555761526e-02 1.85839024805179e-04
8.37533898305085e+00 1.85194832568140e-02 1.85199544477980e-04
8.41550847457627e+00 1.84114449064859e-02 1.84560141804671e-04
8.45567796610169e+00 1.83040368267404e-02 1.83920851348432e-04
8.49584745762712e+00 1.81972553407252e-02 1.83281707053816e-04
8.53601694915254e+00 1.80910967930380e-02 1.82642742256778e-04
8.57618644067797e+00 1.79855575496015e-02 1.82003989746573e-04
8.61635593220339e+00 1.78806339974175e-02 1.81365481618791e-04
8.65652542372881e+00 1.77763225448087e-02 1.80727249389633e-04
8.69669491525424e+00 1.76726196209284e-02 1.80089324110990e-04
8.73686440677966e+00 1.75695216757614e-02 1.79451736220289e-04
8.77703389830508e+00 1.74670251800025e-02 1.78814515602789e-04
8.81720338983051e+00 1.73651266249355e-02 1.78177691649972e-04
8.85737288135593e+00 1.72638225221995e-02 1.77541293118998e-04
8.89754237288136e+00 1.71631094040131e-02 1.76905348241047e-04
8.93771186440678e+00 1.70629838227095e-02 1.76269884830393e-04
8.97788135593220e+00 1.69634423507352e-02 1.75634930140935e-04
9.01805084745763e+00 1.68644815805320e-02 1.75000510924997e-04
9.05822033898305e+00 1.67660981244208e-02 1.74366653441252e-04
9.09838983050847e+00 1.66682886144852e-02 1.73733383509298e-04
9.13855932203390e+00 1.65710497023509e-02 1.73100726376362e-04
9.17872881355932e+00 1.64743780593900e-02 1.72468706819120e-04
9.21889830508475e+00 1.63782703762858e-02 1.71837349246231e-04
9.25906779661017e+00 1.62827233630278e-02 1.71206677562261e-04
9.29923728813559e+00 1.61877337487981e-02 1.70576715222754e-04
9.33940677966102e+00 1.60932982818605e-02 1.69947485285881e-04
9.37957627118644e+00 1.59994137293489e-02 1.69319010284966e-04
9.41974576271186e+00 1.59060768774572e-02 1.68691312325138e-04
9.45991525423729e+00 1.58132845310274e-02 1.68064413180680e-04
9.50008474576271e+00 1.57210335135411e-02 1.67438334165042e-04
9.54025423728813e+00 1.56293206670111e-02 1.66813096182897e-04
9.58042372881356e+00 1.55381428518731e-02 1.66188719736449e-04
9.62059322033898e+00 1.54474969468783e-02 1.65565224973892e-04
9.66076271186441e+00 1.53573798488937e-02 1.64942631568443e-04
9.70093220338983e+00 1.52677884730761e-02 1.64320958809374e-04
9.74110169491525e+00 1.51787197524846e-02 1.63700225693660e-04
9.78127118644068e+00 1.50901706380699e-02 1.63080450802622e-04
9.82144067796610e+00 1.50021380985705e-02 1.62461652350882e-04
9.86161016949153e+00 1.49146191204083e-02 1.61843848232192e-04
9.90177966101695e+00 1.48276107074985e-02 1.61227055903821e-04
9.94194915254237e+00 1.47411098814104e-02 1.60611292473045e-04
9.98211864406780e+00 1.46551136810006e-02 1.59996574823700e-04
1.00222881355932e+01 1.45696191623150e-02 1.59382919418642e-04
1.00624576271186e+01 1.44846233986607e-02 1.58770342346557e-04
1.01026271186441e+01 1.44001234804185e-02 1.58158859407592e-04
1.01427966101695e+01 1.43161165149431e-02 1.57548486077680e-04
1.01829661016949e+01 1.42325996264644e-02 1.56939237135837e-04
1.02231355932203e+01 1.41495699567970e-02 1.56331127806810e-04
1.02633050847458e+01 1.40670246628053e-02 1.55724173005136e-04
1.03034745762712e+01 1.39849609187558e-02 1.55118386571142e-04
1.03436440677966e+01 1.39033759153998e-02 1.54513782431938e-04
1.03838135593220e+01 1.38222668598768e-02 1.53910374218829e-04
1.04239830508475e+01 1.37416309756194e-02 1.53308175271819e-04
1.04641525423729e+01 1.36614655022578e-02 1.52707198644002e-04
1.05043220338983e+01 1.35817676955254e-02 1.52107457105694e-04
1.05444915254237e+01 1.35025348271654e-02 1.51508963148809e-04
1.05846610169492e+01 1.34237641848368e-02 1.50911728991238e-04
1.06248305084746e+01 1.33454530720218e-02 1.50315766580865e-04
1.06650000000000e+01 1.32675988079336e-02 1.49721087255618e-04
1.07051694915254e+01 1.31901987281438e-02 1.49127702784033e-04
1.07453389830508e+01 1.31132501823222e-02 1.48535624676176e-04
1.07855084745763e+01 1.30367505363258e-02 1.47944863487288e-04
1.08256779661017e+01 1.29606971713788e-02 1.47355429875024e-04
1.08658474576271e+01 1.28850874839828e-02 1.46767334250541e-04
1.09060169491525e+01 1.28099188858274e-02 1.46180586782276e-04
1.09461864406780e+01 1.27351888037016e-02 1.45595197399470e-04
1.09863559322034e+01 1.26608946794061e-02 1.45011175795685e-04
1.10265254237288e+01 1.25870339696656e-02 1.44428531432500e-04
1.10666949152542e+01 1.25136041460416e-02 1.43847273543017e-04
1.11068644067797e+01 1.24406026948459e-02 1.43267411135286e-04
1.11470338983051e+01 1.23680271170546e-02 1.42688952681928e-04
1.11872033898305e+01 1.22958749288645e-02 1.42111907068702e-04
1.12273728813559e+01 1.22241436596727e-02 1.41536282965877e-04
1.12675423728814e+01 1.21528308539367e-02 1.40962088192876e-04
1.13077118644068e+01 1.20819340704392e-02 1.40389330682065e-04
1.13478813559322e+01 1.20114508822046e-02 1.39818018160282e-04
1.13880508474576e+01 1.19413788764153e-02 1.39248158152015e-04
1.14282203389831e+01 1.18717156543295e-02 1.38679757982277e-04
1.14683898305085e+01 1.18024588311993e-02 1.38112824779555e-04
1.15085593220339e+01 1.17336060361888e-02 1.37547365478985e-04
1.15487288135593e+01 1.16651549122930e-02 1.36983386825196e-04
1.15888983050847e+01 1.15971031162572e-02 1.36420895375150e-04
1.16290677966102e+01 1.15294483184965e-02 1.35859897214640e-04
1.16692372881356e+01 1.14621882035901e-02 1.35300398823819e-04
1.17094067796610e+01 1.13953204684724e-02 1.34742406503170e-04
1.17495762711864e+01 1.13288428240919e-02 1.34185925793345e-04
1.17897457627119e+01 1.12627529947511e-02 1.33630962354592e-04
1.18299152542373e+01 1.11970487180282e-02 1.33077521675838e-04
1.18700847457627e+01 1.11317277447001e-02 1.32525609077415e-04
1.19102542372881e+01 1.10667878386646e-02 1.31975229713357e-04
1.19504237288136e+01 1.10022267768647e-02 1.31426388573904e-04
1.19905932203390e+01 1.09380423492124e-02 1.30879090488246e-04
1.20307627118644e+01 1.08742323585126e-02 1.30333340126820e-04
1.20709322033898e+01 1.08107946203881e-02 1.29789141740278e-04
1.21111016949153e+01 1.07477269637231e-02 1.29246499955617e-04
1.21512711864407e+01 1.06850272290267e-02 1.28705419247882e-04
1.21914406779661e+01 1.06226932699287e-02 1.28165903406183e-04
1.22316101694915e+01 1.05607229525803e-02 1.27627956342627e-04
1.22717796610169e+01 1.04991141555809e-02 1.27091581824510e-04
1.23119491525424e+01 1.04378647699061e-02 1.26556783476526e-04
1.23521186440678e+01 1.03769726988344e-02 1.26023564782981e-04
1.23922881355932e+01 1.03164358578764e-02 1.25491929089782e-04
1.24324576271186e+01 1.02562521747031e-02 1.24961879606593e-04
1.24726271186441e+01 1.01964195890750e-02 1.24433419409043e-04
1.25127966101695e+01 1.01369360527715e-02 1.23906551440716e-04
1.25529661016949e+01 1.00777995295211e-02 1.23381278274322e-04
1.25931355932203e+01 1.00190079953954e-02 1.22857602839346e-04
1.26333050847458e+01 9.96055943734071e-03 1.22335527938928e-04
1.26734745762712e+01 9.90245185451507e-03 1.21815055761531e-04
