Energy (eV)          EEDF (eV^-(3/2))     First Anisotropy
7.97222222222222e-02 4.67148950929571e-02 4.10669840345197e-05
2.39166666666667e-01 4.58262381712492e-02 6.73948259240554e-05
3.98611111111111e-01 4.49544861582103e-02 8.78671391603479e-05
5.58055555555556e-01 4.40993174748627e-02 1.02765651294029e-04
7.17500000000000e-01 4.32604166549142e-02 1.14661022581653e-04
8.76944444444444e-01 4.24374742363682e-02 1.24543738686752e-04
1.03638888888889e+00 4.16301866416647e-02 1.32935601066351e-04
1.19583333333333e+00 4.08382560708037e-02 1.40157159690098e-04
1.35527777777778e+00 4.00613903826153e-02 1.46424561295001e-04
1.51472222222222e+00 3.92993030046153e-02 1.51893040321904e-04
1.67416666666667e+00 3.85517128081379e-02 1.56679297236203e-04
1.83361111111111e+00 3.78183440091394e-02 1.60874158292796e-04
1.99305555555556e+00 3.70989260782015e-02 1.64550263329046e-04
2.15250000000000e+00 3.63931936245019e-02 1.67766994205664e-04
2.31194444444444e+00 3.57008863127590e-02 1.70573775933726e-04
2.47138888888889e+00 3.50217487535790e-02 1.73012368610830e-04
2.63083333333333e+00 3.43555304217954e-02 1.75118506770931e-04
2.79027777777778e+00 3.37019855524521e-02 1.76923102467987e-04
2.94972222222222e+00 3.30608730609040e-02 1.78453147333850e-04
3.10916666666667e+00 3.24319564459378e-02 1.79732403022053e-04
3.26861111111111e+00 3.18150037035569e-02 1.80781936521176e-04
3.42805555555556e+00 3.12097872470399e-02 1.81620543883996e-04
3.58750000000000e+00 3.06160838153992e-02 1.82265088462291e-04
3.74694444444444e+00 3.00336743981732e-02 1.82730774637377e-04
3.90638888888889e+00 2.94623441478861e-02 1.83031371828197e-04
4.06583333333333e+00 2.89018823071718e-02 1.83179399430580e-04
4.22527777777778e+00 2.83520821249913e-02 1.83186281049249e-04
4.38472222222222e+00 2.78127407860829e-02 1.83062473907509e-04
4.54416666666667e+00 2.72836593318960e-02 1.82817578983786e-04
4.70361111111111e+00 2.67646425876196e-02 1.82460433888397e-04
4.86305555555556e+00 2.62554990934916e-02 1.81999193512169e-04
5.02250000000000e+00 2.57560410297484e-02 1.81441399212810e-04
5.18194444444444e+00 2.52660841515591e-02 1.80794038894045e-04
5.34138888888889e+00 2.47854477170312e-02 1.80063599490818e-04
5.50083333333333e+00 2.43139544243845e-02 1.79256112916253e-04
5.66027777777778e+00 2.38514303428679e-02 1.78377196589394e-04
5.81972222222222e+00 2.33977048521159e-02 1.77432089142971e-04
5.97916666666667e+00 2.29526105765883e-02 1.76425682545974e-04
6.13861111111111e+00 2.25159833240453e-02 1.75362549980184e-04
6.29805555555556e+00 2.20876620271124e-02 1.74246971485738e-04
6.45750000000000e+00 2.16674886810167e-02 1.73082956652749e-04
6.61694444444444e+00 2.12553082880342e-02 1.71874265071588e-04
6.77638888888889e+00 2.08509687976865e-02 1.70624424845520e-04
6.93583333333333e+00 2.04543210531739e-02 1.69336749304614e-04
7.09527777777778e+00 2.00652187339273e-02 1.68014352224940e-04
7.25472222222222e+00 1.96835183039646e-02 1.66660161579924e-04
7.41416666666667e+00 1.93090789572021e-02 1.65276932399044e-04
7.57361111111111e+00 1.89417625656403e-02 1.63867257954219e-04
7.73305555555556e+00 1.85814336298650e-02 1.62433580553805e-04
7.89250000000000e+00 1.82279592271228e-02 1.60978201206203e-04
8.05194444444444e+00 1.78812089641574e-02 1.59503288529487e-04
8.21138888888889e+00 1.75410549273048e-02 1.58010886999537e-04
8.37083333333333e+00 1.72073716370470e-02 1.56502924530378e-04
8.53027777777778e+00 1.68800360000453e-02 1.54981219519369e-04
8.68972222222222e+00 1.65589272653517e-02 1.53447487297989e-04
8.84916666666667e+00 1.62439269786566e-02 1.51903346357606e-04
9.00861111111111e+00 1.59349189386733e-02 1.50350323693317e-04
9.16805555555556e+00 1.56317891553007e-02 1.48789860197173e-04
9.32750000000000e+00 1.53344258062030e-02 1.47223315490295e-04
9.48694444444445e+00 1.50427191968844e-02 1.45651972446122e-04
9.64638888888889e+00 1.47565617189421e-02 1.44077041442484e-04
9.80583333333333e+00 1.44758478116105e-02 1.42499664310676e-04
9.96527777777778e+00 1.42004739216211e-02 1.40920918058311e-04
1.01247222222222e+01 1.39303384661629e-02 1.39341818170032e-04
1.02841666666667e+01 1.36653417955576e-02 1.37763322565745e-04
1.04436111111111e+01 1.34053861522275e-02 1.36186333581699e-04
1.06030555555556e+01 1.31503756432393e-02 1.34611701559553e-04
1.07625000000000e+01 1.29002161949830e-02 1.33040227448801e-04
1.09219444444444e+01 1.26548155281039e-02 1.31472665243896e-04
1.10813888888889e+01 1.24140831141273e-02 1.29909724493084e-04
1.12408333333333e+01 1.21779301511080e-02 1.28352072456656e-04
1.14002777777778e+01 1.19462695221069e-02 1.26800336345953e-04
1.15597222222222e+01 1.17190157715496e-02 1.25255104981784e-04
1.17191666666667e+01 1.14960850673613e-02 1.23716931837657e-04
1.18786111111111e+01 1.12773951704103e-02 1.22186335201651e-04
1.20380555555556e+01 1.10628654096957e-02 1.20663800936269e-04
1.21975000000000e+01 1.08524166452333e-02 1.19149783893579e-04
1.23569444444444e+01 1.06459712459971e-02 1.17644709358312e-04
1.25163888888889e+01 1.04434530543585e-02 1.16148974581694e-04
1.26758333333333e+01 1.02447873647109e-02 1.14662950073819e-04
1.28352777777778e+01 1.00499008893915e-02 1.13186980988157e-04
1.29947222222222e+01 9.85872173797379e-03 1.11721388076077e-04
1.31541666666667e+01 9.67117938602383e-03 1.10266469763717e-04
1.33136111111111e+01 9.48720464934485e-03 1.08822501968091e-04
1.34730555555556e+01 9.30672966260295e-03 1.07389739995240e-04
1.36325000000000e+01 9.12968784877220e-03 1.05968419391154e-04
1.37919444444444e+01 8.95601389993648e-03 1.04558756834161e-04
1.39513888888889e+01 8.78564374798994e-03 1.03160951115051e-04
1.41108333333333e+01 8.61851454606218e-03 1.01775183942161e-04
1.42702777777778e+01 8.45456464041925e-03 1.00401620832949e-04
1.44297222222222e+01 8.29373355249598e-03 9.90404116774444e-05
1.45891666666667e+01 8.13596195301998e-03 9.76916922088188e-05
1.47486111111111e+01 7.98119164031369e-03 9.63555836818422e-05
1.49080555555556e+01 7.82936552197371e-03 9.50321942236285e-05
1.50675000000000e+01 7.68042758961864e-03 9.37216193581569e-05
1.52269444444444e+01 7.53432290230294e-03 9.24239425737839e-05
1.53863888888889e+01 7.39099756228772e-03 9.11392359686329e-05
1.55458333333333e+01 7.25039869901080e-03 8.98675607648922e-05
1.57052777777778e+01 7.11247444583698e-03 8.86089678989683e-05
1.58647222222222e+01 6.97717392456807e-03 8.73634983564694e-05
1.60241666666667e+01 6.84444722395383e-03 8.61311842406574e-05
1.61836111111111e+01 6.71424538141840e-03 8.49120484099485e-05
1.63430555555556e+01 6.58652036741292e-03 8.37061054624423e-05
1.65025000000000e+01 6.46122506448494e-03 8.25133620628190e-05
1.66619444444444e+01 6.33831325302335e-03 8.13338173091691e-05
1.68213888888889e+01 6.21773959116651e-03 8.01674631665018e-05
1.69808333333333e+01 6.09945960103603e-03 7.90142847999093e-05
1.71402777777778e+01 5.98342964944869e-03 7.78742609722974e-05
1.72997222222222e+01 5.86960693462402e-03 7.67473642411633e-05
1.74591666666667e+01 5.75794946830139e-03 7.56335617493447e-05
1.76186111111111e+01 5.64841606035391e-03 7.45328148669456e-05
1.77780555555556e+01 5.54096630545951e-03 7.34450799214387e-05
1.79375000000000e+01 5.43556056571329e-03 7.23703084009651e-05
1.80969444444444e+01 5.33215995842247e-03 7.13084471929777e-05
1.82563888888889e+01 5.23072633940946e-03 7.02594388789872e-05
1.84158333333333e+01 5.13122229123244e-03 6.92232219513312e-05
1.85752777777778e+01 5.03361110715082e-03 6.81997310840843e-05
1.87347222222222e+01 4.93785677975762e-03 6.71888972443063e-05
1.88941666666667e+01 4.84392398607356e-03 6.61906482852332e-05
1.90536111111111e+01 4.75177807459437e-03 6.52049086131569e-05
1.92130555555556e+01 4.66138505395948e-03 6.42315997357560e-05
1.93725000000000e+01 4.57271157848193e-03 6.32706403863613e-05
1.95319444444444e+01 4.48572493772859e-03 6.23219466787489e-05
1.96913888888889e+01 4.40039304262087e-03 6.13854323086988e-05
1.98508333333333e+01 4.31668441538288e-03 6.04610086942928e-05
2.00102777777778e+01 4.23456817618988e-03 5.95485851612780e-05
2.01697222222222e+01 4.15401403347200e-03 5.86480690007272e-05
2.03291666666667e+01 4.07499227147393e-03 5.77593659185178e-05
2.04886111111111e+01 3.99747373935210e-03 5.68823797353008e-05
2.06480555555556e+01 3.92142984155656e-03 5.60170128022340e-05
2.08075000000000e+01 3.84683252577182e-03 5.51631660740137e-05
2.09669444444444e+01 3.77365427404086e-03 5.43207392079055e-05
2.11263888888889e+01 3.70186809117896e-03 5.34896307015818e-05
2.12858333333333e+01 3.63144749621419e-03 5.26697379824412e-05
2.14452777777778e+01 3.56236651125530e-03 5.18609575342711e-05
2.16047222222222e+01 3.49459965323786e-03 5.10631849212599e-05
2.17641666666667e+01 3.42812192353096e-03 5.02763151311782e-05
2.19236111111111e+01 3.36290879876074e-03 4.95002423103129e-05
2.20830555555556e+01 3.29893622265659e-03 4.87348600809202e-05
2.22425000000000e+01 3.23618059598943e-03 4.79800615808531e-05
2.24019444444444e+01 3.17461876902416e-03 4.72357395251455e-05
2.25613888888889e+01 3.11422803185074e-03 4.65017862997180e-05
2.27208333333333e+01 3.05498610710777e-03 4.57780940164095e-05
2.28802777777778e+01 2.99687114069090e-03 4.50645545989094e-05
2.30397222222222e+01 2.93986169473801e-03 4.43610597858269e-05
2.31991666666667e+01 2.88393673893895e-03 4.36675013942122e-05
2.33586111111111e+01 2.82907564281252e-03 4.29837710882587e-05
2.35180555555556e+01 2.77525816880093e-03 4.23097606230205e-05
2.36775000000000e+01 2.72246446386673e-03 4.16453618622950e-05
2.38369444444444e+01 2.67067505308377e-03 4.09904668149562e-05
2.39963888888889e+01 2.61987083156093e-03 4.03449676978474e-05
2.41558333333333e+01 2.57003305826472e-03 3.97087569676937e-05
2.43152777777778e+01 2.52114334825699e-03 3.90817273785457e-05
2.44747222222222e+01 2.47318366674102e-03 3.84637719721340e-05
2.46341666666667e+01 2.42613632178999e-03 3.78547842811057e-05
2.47936111111111e+01 2.37998395784776e-03 3.72546581288425e-05
2.49530555555556e+01 2.33470954988516e-03 3.66632878173351e-05
2.51125000000000e+01 2.29029639637653e-03 3.60805681310640e-05
2.52719444444444e+01 2.24672811386371e-03 3.55063943563343e-05
2.54313888888889e+01 2.20398863020487e-03 3.49406623225596e-05
2.55908333333333e+01 2.16206217933595e-03 3.43832684186320e-05
2.57502777777778e+01 2.12093329478107e-03 3.38341096303864e-05
2.59097222222222e+01 2.08058680460444e-03 3.32930835235811e-05
2.60691666666667e+01 2.04100782532251e-03 3.27600884011573e-05
2.62286111111111e+01 2.00218175643476e-03 3.22350231309826e-05
2.63880555555556e+01 1.96409427548192e-03 3.17177872911110e-05
2.65475000000000e+01 1.92673133217169e-03 3.12082811648489e-05
2.67069444444444e+01 1.89007914377237e-03 3.07064057487413e-05
2.68663888888889e+01 1.85412418946569e-03 3.02120627786971e-05
2.70258333333333e+01 1.81885320590846e-03 2.97251547360054e-05
2.71852777777778e+01 1.78425318180359e-03 2.92455848707871e-05
2.73447222222222e+01 1.75031135362380e-03 2.87732571811015e-05
2.75041666666667e+01 1.71701520051221e-03 2.83080765349188e-05
2.76636111111111e+01 1.68435243968011e-03 2.78499485225016e-05
2.78230555555556e+01 1.65231102223032e-03 2.73987795689583e-05
2.79825000000000e+01 1.62087912824108e-03 2.69544769239870e-05
2.81419444444444e+01 1.59004516286599e-03 2.65169486624055e-05
2.83013888888889e+01 1.55979775160748e-03 2.60861036996717e-05
2.84608333333333e+01 1.53012573655949e-03 2.56618517911368e-05
2.86202777777778e+01 1.50101817186317e-03 2.52441035457044e-05
2.87797222222222e+01 1.47246432008714e-03 2.48327704033330e-05
2.89391666666667e+01 1.44445364795424e-03 2.44277647297986e-05
2.90986111111111e+01 1.41697582246897e-03 2.40289996905631e-05
2.92580555555556e+01 1.39002070738910e-03 2.36363893381212e-05
2.94175000000000e+01 1.36357835910964e-03 2.32498485987651e-05
2.95769444444444e+01 1.33763902336274e-03 2.28692932683479e-05
2.97363888888889e+01 1.31219313125999e-03 2.24946400204455e-05
2.98958333333333e+01 1.28723129611360e-03 2.21258064013238e-05
3.00552777777778e+01 1.26274430963089e-03 2.17627108368188e-05
3.02147222222222e+01 1.23872313885221e-03 2.14052726096792e-05
3.03741666666667e+01 1.21515892256868e-03 2.10534119332677e-05
3.05336111111111e+01 1.19204296806373e-03 2.07070498440351e-05
3.06930555555556e+01 1.16936674813360e-03 2.03661082693580e-05
3.08525000000000e+01 1.14712189763957e-03 2.00305100128967e-05
3.10119444444444e+01 1.12530021071726e-03 1.97001787474548e-05
3.11713888888889e+01 1.10389363746131e-03 1.93750390180956e-05
3.13308333333333e+01 1.08289428123738e-03 1.90550162345368e-05
3.14902777777778e+01 1.06229439549413e-03 1.87400366734021e-05
3.16497222222222e+01 1.04208638117423e-03 1.84300274563044e-05
3.18091666666667e+01 1.02226278371043e-03 1.81249166071984e-05
3.19686111111111e+01 1.00281629028386e-03 1.78246329608695e-05
3.21280555555556e+01 9.83739727308933e-04 1.75291062156387e-05
3.22875000000000e+01 9.65026057544288e-04 1.72382669183456e-05
3.24469444444444e+01 9.46668377733984e-04 1.69520464555837e-05
3.26063888888889e+01 9.28659915829243e-04 1.66703770534315e-05
3.27658333333333e+01 9.10994028716668e-04 1.63931917684483e-05
3.29252777777778e+01 8.93664199546502e-04 1.61204244868335e-05
3.30847222222222e+01 8.76664035544677e-04 1.58520099037857e-05
3.32441666666667e+01 8.59987265493159e-04 1.55878835681333e-05
3.34036111111111e+01 8.43627737423091e-04 1.53279818045572e-05
3.35630555555556e+01 8.27579416492353e-04 1.50722417545293e-05
3.37225000000000e+01 8.11836382563889e-04 1.48206013615869e-05
3.38819444444444e+01 7.96392828212813e-04 1.45729993618201e-05
3.40413888888889e+01 7.81243056397479e-04 1.43293752813938e-05
3.42008333333333e+01 7.66381478540238e-04 1.40896694269491e-05
3.43602777777778e+01 7.51802612287686e-04 1.38538228827654e-05
3.45197222222222e+01 7.37501079662370e-04 1.36217774916807e-05
3.46791666666667e+01 7.23471604948827e-04 1.33934758898100e-05
3.48386111111111e+01 7.09709012752641e-04 1.31688614405062e-05
3.49980555555556e+01 6.96208226209824e-04 1.29478782661388e-05
3.51575000000000e+01 6.82964264956344e-04 1.27304712340731e-05
3.53169444444444e+01 6.69972243444985e-04 1.25165859469929e-05
3.54763888888889e+01 6.57227368992543e-04 1.23061687390560e-05
3.56358333333333e+01 6.44724940158989e-04 1.20991666662343e-05
3.57952777777778e+01 6.32460344869343e-04 1.18955275022559e-05
3.59547222222222e+01 6.20429058852866e-04 1.16951997212132e-05
3.61141666666667e+01 6.08626643869087e-04 1.14981325245443e-05
3.62736111111111e+01 5.97048746074756e-04 1.13042757850087e-05
3.64330555555556e+01 5.85691094513525e-04 1.11135800713262e-05
3.65925000000000e+01 5.74549499413044e-04 1.09259966350974e-05
3.67519444444444e+01 5.63619850763899e-04 1.07414774013499e-05
3.69113888888889e+01 5.52898116681765e-04 1.05599749639159e-05
3.70708333333333e+01 5.42380342039029e-04 1.03814425760584e-05
3.72302777777778e+01 5.32062646889513e-04 1.02058341457427e-05
3.73897222222222e+01 5.21941225150836e-04 1.00331042199475e-05
3.75491666666667e+01 5.12012343115479e-04 9.86320800560684e-06
3.77086111111111e+01 5.02272338076803e-04 9.69610132211175e-06
3.78680555555556e+01 4.92717617055411e-04 9.53174062038151e-06
3.80275000000000e+01 4.83344655370653e-04 9.37008297084882e-06
3.81869444444444e+01 4.74149995441162e-04 9.21108605446512e-06
3.83463888888889e+01 4.65130245410883e-04 9.05470815771729e-06
3.85058333333333e+01 4.56282077994133e-04 8.90090816375382e-06
3.86652777777778e+01 4.47602229154065e-04 8.74964554736632e-06
3.88247222222222e+01 4.39087496990616e-04 8.60088036095391e-06
3.89841666666667e+01 4.30734740490596e-04 8.45457325074721e-06
3.91436111111111e+01 4.22540878371690e-04 8.31068541655981e-06
3.93030555555556e+01 4.14502888008610e-04 8.16917862651921e-06
3.94625000000000e+01 4.06617804234537e-04 8.03001520615450e-06
3.96219444444444e+01 3.98882718328966e-04 7.89315803000401e-06
3.97813888888889e+01 3.91294776864861e-04 7.75857051655297e-06
3.99408333333333e+01 3.83851180734110e-04 7.62621661998349e-06
4.01002777777778e+01 3.76549184038637e-04 7.49606082512523e-06
4.02597222222222e+01 3.69386093152084e-04 7.36806813498104e-06
4.04191666666667e+01 3.62359265670403e-04 7.24220408326828e-06
4.05786111111111e+01 3.55466109439261e-04 7.11843470032737e-06
4.07380555555556e+01 3.48704081648792e-04 6.99672652446812e-06
4.08975000000000e+01 3.42070687827780e-04 6.87704659215017e-06
4.10569444444444e+01 3.35563480989757e-04 6.75936243026340e-06
4.12163888888889e+01 3.29180060665521e-04 6.64364205117560e-06
4.13758333333333e+01 3.22918072080992e-04 6.52985394516604e-06
4.15352777777778e+01 3.16775205226592e-04 6.41796707551709e-06
4.16947222222222e+01 3.10749194065691e-04 6.30795086748852e-06
4.18541666666667e+01 3.04837815653421e-04 6.19977521798267e-06
4.20136111111111e+01 2.99038889318388e-04 6.09341046667942e-06
4.21730555555556e+01 2.93350275899665e-04 5.98882740474574e-06
4.23325000000000e+01 2.87769876902589e-04 5.88599726606205e-06
4.24919444444444e+01 2.82295633778507e-04 5.78489172020230e-06
4.26513888888889e+01 2.76925527112726e-04 5.68548286771201e-06
4.28108333333333e+01 2.71657575931072e-04 5.58774323324139e-06
4.29702777777778e+01 2.66489836918758e-04 5.49164576088774e-06
4.31297222222222e+01 2.61420403752769e-04 5.39716380449319e-06
4.32891666666667e+01 2.56447406361831e-04 5.30427113506750e-06
4.34486111111111e+01 2.51569010237971e-04 5.21294191635489e-06
4.36080555555556e+01 2.46783415793472e-04 5.12315071149203e-06
4.37675000000000e+01 2.42088857652214e-04 5.03487247521593e-06
4.39269444444444e+01 2.37483604042260e-04 4.94808254753516e-06
4.40863888888889e+01 2.32965956114168e-04 4.86275664931224e-06
4.42458333333333e+01 2.28534247356213e-04 4.77887087608377e-06
4.44052777777778e+01 2.24186842938628e-04 4.69640169371782e-06
4.45647222222222e+01 2.19922139150625e-04 4.61532592990859e-06
4.47241666666667e+01 2.15738562778847e-04 4.53562077985256e-06
4.48836111111111e+01 2.11634570528156e-04 4.45726378557183e-06
4.50430555555556e+01 2.07608648479769e-04 4.38023284097751e-06
4.52025000000000e+01 2.03659311496297e-04 4.30450618498416e-06
4.53619444444444e+01 1.99785102709575e-04 4.23006239584479e-06
4.55213888888889e+01 1.95984592948331e-04 4.15688038707581e-06
4.56808333333333e+01 1.92256380245122e-04 4.08493940193397e-06
4.58402777777778e+01 1.88599089285760e-04 4.01421900942093e-06
4.59997222222222e+01 1.85011370934639e-04 3.94469909685134e-06
4.61591666666667e+01 1.81491901712643e-04 3.87635987417076e-06
4.63186111111111e+01 1.78039383309850e-04 3.80918185646168e-06
4.64780555555556e+01 1.74652542128962e-04 3.74314586777027e-06
4.66375000000000e+01 1.71330128785742e-04 3.67823303504674e-06
4.67969444444444e+01 1.68070917677224e-04 3.61442478310500e-06
4.69563888888889e+01 1.64873706501134e-04 3.55170283090510e-06
4.71158333333333e+01 1.61737315840215e-04 3.49004918664456e-06
4.72752777777778e+01 1.58660588699912e-04 3.42944614412129e-06
4.74347222222222e+01 1.55642390108211e-04 3.36987627625774e-06
4.75941666666667e+01 1.52681606677052e-04 3.31132243836446e-06
4.77536111111111e+01 1.49777146192355e-04 3.25376775334138e-06
4.79130555555556e+01 1.46927937229369e-04 3.19719561454841e-06
4.80725000000000e+01 1.44132928733156e-04 3.14158968049142e-06
4.82319444444444e+01 1.41391089654611e-04 3.08693387035969e-06
4.83913888888889e+01 1.38701408546890e-04 3.03321236066418e-06
4.85508333333333e+01 1.36062893215018e-04 2.98040958089613e-06
4.87102777777778e+01 1.33474570327646e-04 2.92851021024414e-06
4.88697222222222e+01 1.30935485079748e-04 2.87749917196455e-06
4.90291666666667e+01 1.28444700824148e-04 2.82736163582911e-06
4.91886111111111e+01 1.26001298726612e-04 2.77808300560833e-06
4.93480555555556e+01 1.23604377441799e-04 2.72964892120419e-06
4.95075000000000e+01 1.21253052760945e-04 2.68204525400469e-06
4.96669444444444e+01 1.18946457305075e-04 2.63525810294903e-06
4.98263888888889e+01 1.16683740186061e-04 2.58927379150995e-06
4.99858333333333e+01 1.14464066711303e-04 2.54407886386945e-06
5.01452777777778e+01 1.12286618057653e-04 2.49966008197571e-06
5.03047222222222e+01 1.10150590987128e-04 2.45600442066000e-06
