Energy (eV)          EEDF (eV^-(3/2))     First Anisotropy
2.01818181818182e-04 6.89452262044120e+01 2.70076698555602e-02
6.05454545454546e-04 6.85139551572098e+01 4.46078178300772e-02
1.00909090909091e-03 6.80853818275043e+01 5.89151404536587e-02
1.41272727272727e-03 6.76594893400269e+01 6.98014457581742e-02
1.81636363636364e-03 6.72362609257487e+01 7.88947779070971e-02
2.22000000000000e-03 6.68156799188602e+01 8.68101195454381e-02
2.62363636363636e-03 6.63977297604130e+01 9.38654502103072e-02
3.02727272727273e-03 6.59823939926921e+01 1.00252626558330e-01
3.43090909090909e-03 6.55696562629602e+01 1.06098785221867e-01
3.83454545454545e-03 6.51595003196626e+01 1.11493709237778e-01
4.23818181818182e-03 6.47519100123740e+01 1.16503805652524e-01
4.64181818181818e-03 6.43468692929905e+01 1.21179956674294e-01
5.04545454545455e-03 6.39443622130825e+01 1.25562251644557e-01
5.44909090909091e-03 6.35443729235788e+01 1.29682998977300e-01
5.85272727272727e-03 6.31468856754880e+01 1.33568728954363e-01
6.25636363636364e-03 6.27518848178286e+01 1.37241573882740e-01
6.66000000000000e-03 6.23593547971857e+01 1.40720247941560e-01
7.06363636363636e-03 6.19692801581711e+01 1.44020760849301e-01
7.46727272727273e-03 6.15816455413700e+01 1.47156948992674e-01
7.87090909090909e-03 6.11964356841157e+01 1.50140878328450e-01
8.27454545454545e-03 6.08136354188612e+01 1.52983155179924e-01
8.67818181818182e-03 6.04332296726787e+01 1.55693169434877e-01
9.08181818181818e-03 6.00552034674795e+01 1.58279287514814e-01
9.48545454545455e-03 5.96795419185749e+01 1.60749007242590e-01
9.88909090909091e-03 5.93062302341653e+01 1.63109083408020e-01
1.02927272727273e-02 5.89352537152213e+01 1.65365630688368e-01
1.06963636363636e-02 5.85665977540168e+01 1.67524208554295e-01
1.11000000000000e-02 5.82002478369451e+01 1.69589892335798e-01
1.15036363636364e-02 5.78361895370277e+01 1.71567332464558e-01
1.19072727272727e-02 5.74744085214681e+01 1.73460804772978e-01
1.23109090909091e-02 5.71148905434013e+01 1.75274253282766e-01
1.27145454545455e-02 5.67576214469422e+01 1.77011326480398e-01
1.31181818181818e-02 5.64025871664188e+01 1.78675409177468e-01
1.35218181818182e-02 5.60497737208121e+01 1.80269649473977e-01
1.39254545454545e-02 5.56991672182147e+01 1.81796982186321e-01
1.43290909090909e-02 5.53507538551264e+01 1.83260149853520e-01
1.47327272727273e-02 5.50045199113823e+01 1.84661720593012e-01
1.51363636363636e-02 5.46604517541439e+01 1.86004103813458e-01
1.55400000000000e-02 5.43185358372103e+01 1.87289564625118e-01
1.59436363636364e-02 5.39787586963861e+01 1.88520236027671e-01
1.63472727272727e-02 5.36411069543184e+01 1.89698130034169e-01
1.67509090909091e-02 5.33055673148194e+01 1.90825147597464e-01
1.71545454545455e-02 5.29721265661311e+01 1.91903087217564e-01
1.75581818181818e-02 5.26407715802893e+01 1.92933653202314e-01
1.79618181818182e-02 5.23114893091438e+01 1.93918462624554e-01
1.83654545454545e-02 5.19842667873129e+01 1.94859051598916e-01
1.87690909090909e-02 5.16590911315818e+01 1.95756881419871e-01
1.91727272727273e-02 5.13359495371978e+01 1.96613343671325e-01
1.95763636363636e-02 5.10148292805682e+01 1.97429764869087e-01
1.99800000000000e-02 5.06957177186694e+01 1.98207411129581e-01
2.03836363636364e-02 5.03786022855987e+01 1.98947491947166e-01
2.07872727272727e-02 5.00634704959570e+01 1.99651163881038e-01
2.11909090909091e-02 4.97503099406069e+01 2.00319533939213e-01
2.15945454545455e-02 4.94391082889540e+01 2.00953662450762e-01
2.19981818181818e-02 4.91298532883885e+01 2.01554566157278e-01
2.24018181818182e-02 4.88225327612345e+01 2.02123220660498e-01
2.28054545454545e-02 4.85171346068437e+01 2.02660562679187e-01
2.32090909090909e-02 4.82136468010598e+01 2.03167492523198e-01
2.36127272727273e-02 4.79120573933443e+01 2.03644875999230e-01
2.40163636363636e-02 4.76123545087112e+01 2.04093546175717e-01
2.44200000000000e-02 4.73145263472000e+01 2.04514305394535e-01
2.48236363636364e-02 4.70185611811696e+01 2.04907926731761e-01
2.52272727272727e-02 4.67244473577893e+01 2.05275155552895e-01
2.56309090909091e-02 4.64321732957101e+01 2.05616710970010e-01
2.60345454545455e-02 4.61417274867338e+01 2.05933286999991e-01
2.64381818181818e-02 4.58530984953098e+01 2.06225554032083e-01
2.68418181818182e-02 4.55662749560961e+01 2.06494159858751e-01
2.72454545454545e-02 4.52812455755053e+01 2.06739730639257e-01
2.76490909090909e-02 4.49979991312178e+01 2.06962872136451e-01
2.80527272727273e-02 4.47165244698662e+01 2.07164170548099e-01
2.84563636363636e-02 4.44368105084742e+01 2.07344193286088e-01
2.88600000000000e-02 4.41588462339783e+01 2.07503490030805e-01
2.92636363636364e-02 4.38826207010299e+01 2.07642593371818e-01
2.96672727272727e-02 4.36081230338926e+01 2.07762019579200e-01
3.00709090909091e-02 4.33353424237430e+01 2.07862269339054e-01
3.04745454545455e-02 4.30642681299298e+01 2.07943828272682e-01
3.08781818181818e-02 4.27948894795144e+01 2.08007167761321e-01
3.12818181818182e-02 4.25271958652643e+01 2.08052745429923e-01
3.16854545454545e-02 4.22611767468259e+01 2.08081005603354e-01
3.20890909090909e-02 4.19968216502782e+01 2.08092380028109e-01
3.24927272727273e-02 4.17341201662174e+01 2.08087288270544e-01
3.28963636363636e-02 4.14730619508541e+01 2.08066138092964e-01
3.33000000000000e-02 4.12136367255745e+01 2.08029326090663e-01
3.37036363636364e-02 4.09558342751127e+01 2.07977237991151e-01
3.41072727272727e-02 4.06996444490285e+01 2.07910249084069e-01
3.45109090909091e-02 4.04450571594699e+01 2.07828724638341e-01
3.49145454545455e-02 4.01920623821409e+01 2.07733020145693e-01
3.53181818181818e-02 3.99406501558795e+01 2.07623481845171e-01
3.57218181818182e-02 3.96908105809731e+01 2.07500446964297e-01
3.61254545454546e-02 3.94425338200648e+01 2.07364243947540e-01
3.65290909090909e-02 3.91958100977417e+01 2.07215192928292e-01
3.69327272727273e-02 3.89506296989207e+01 2.07053605929175e-01
3.73363636363636e-02 3.87069829696989e+01 2.06879787051910e-01
3.77400000000000e-02 3.84648603169492e+01 2.06694032904708e-01
3.81436363636364e-02 3.82242522067737e+01 2.06496632742730e-01
3.85472727272727e-02 3.79851491656743e+01 2.06287868729902e-01
3.89509090909091e-02 3.77475417786650e+01 2.06068016197535e-01
3.93545454545455e-02 3.75114206900276e+01 2.05837343756518e-01
3.97581818181818e-02 3.72767766029219e+01 2.05596113662753e-01
4.01618181818182e-02 3.70436002779496e+01 2.05344581939704e-01
4.05654545454546e-02 3.68118825338634e+01 2.05082998494541e-01
4.09690909090909e-02 3.65816142471874e+01 2.04811607453798e-01
4.13727272727273e-02 3.63527863508350e+01 2.04530647264861e-01
4.17763636363636e-02 3.61253898347775e+01 2.04240350792040e-01
4.21800000000000e-02 3.58994157456700e+01 2.03940945626254e-01
4.25836363636364e-02 3.56748551855242e+01 2.03632654145898e-01
4.29872727272727e-02 3.54516993126476e+01 2.03315693687700e-01
4.33909090909091e-02 3.52299393400305e+01 2.02990276718674e-01
4.37945454545455e-02 3.50095665359413e+01 2.02656610881348e-01
4.41981818181818e-02 3.47905722235659e+01 2.02314899266020e-01
4.46018181818182e-02 3.45729477797683e+01 2.01965340471175e-01
4.50054545454545e-02 3.43566846356518e+01 2.01608128660311e-01
4.54090909090909e-02 3.41417742762060e+01 2.01243453815767e-01
4.58127272727273e-02 3.39282082391123e+01 2.00871501787707e-01
4.62163636363636e-02 3.37159781152725e+01 2.00492454339966e-01
4.66200000000000e-02 3.35050755484629e+01 2.00106489387471e-01
4.70236363636364e-02 3.32954922341825e+01 1.99713781015127e-01
4.74272727272727e-02 3.30872199204149e+01 1.99314499595639e-01
4.78309090909091e-02 3.28802504062344e+01 1.98908811910419e-01
4.82345454545455e-02 3.26745755422788e+01 1.98496881159159e-01
4.86381818181818e-02 3.24701872304151e+01 1.98078867172864e-01
4.90418181818182e-02 3.22670774226598e+01 1.97654926440017e-01
4.94454545454545e-02 3.20652381216254e+01 1.97225212130703e-01
4.98490909090909e-02 3.18646613801927e+01 1.96789874297395e-01
5.02527272727273e-02 3.16653393004678e+01 1.96349059894680e-01
5.06563636363636e-02 3.14672640342041e+01 1.95902912797096e-01
5.10600000000000e-02 3.12704277824799e+01 1.95451573988847e-01
5.14636363636364e-02 3.10748227946920e+01 1.94995181559887e-01
5.18672727272727e-02 3.08804413691777e+01 1.94533870790890e-01
5.22709090909091e-02 3.06872758519993e+01 1.94067774242213e-01
5.26745454545455e-02 3.04953186373228e+01 1.93597021744075e-01
5.30781818181818e-02 3.03045621671065e+01 1.93121740569262e-01
5.34818181818182e-02 3.01149989301535e+01 1.92642055439960e-01
5.38854545454545e-02 2.99266214624681e+01 1.92158088533215e-01
5.42890909090909e-02 2.97394223469516e+01 1.91669959645015e-01
5.46927272727273e-02 2.95533942124853e+01 1.91177786193403e-01
5.50963636363636e-02 2.93685297342673e+01 1.90681683220303e-01
5.55000000000000e-02 2.91848216335135e+01 1.90181763547685e-01
5.59036363636364e-02 2.90022626765709e+01 1.89678137761267e-01
5.63072727272727e-02 2.88208456754285e+01 1.89170914274085e-01
5.67109090909091e-02 2.86405634866508e+01 1.88660199394357e-01
5.71145454545455e-02 2.84614090116807e+01 1.88146097305170e-01
5.75181818181818e-02 2.82833751965502e+01 1.87628710208268e-01
5.79218181818182e-02 2.81064550310435e+01 1.87108138319736e-01
5.83254545454545e-02 2.79306415489817e+01 1.86584479864670e-01
5.87290909090909e-02 2.77559278279407e+01 1.86057831214598e-01
5.91327272727273e-02 2.75823069884390e+01 1.85528286881030e-01
5.95363636363636e-02 2.74097721942081e+01 1.84995939508001e-01
5.99400000000000e-02 2.72383166519142e+01 1.84460880003573e-01
6.03436363636364e-02 2.70679336103724e+01 1.83923197517003e-01
6.07472727272727e-02 2.68986163609685e+01 1.83382979487686e-01
6.11509090909091e-02 2.67303582367173e+01 1.82840311698508e-01
6.15545454545455e-02 2.65631526125055e+01 1.82295278250084e-01
6.19581818181818e-02 2.63969929048227e+01 1.81747961682857e-01
6.23618181818182e-02 2.62318725710172e+01 1.81198442966357e-01
6.27654545454546e-02 2.60677851095250e+01 1.80646801487723e-01
6.31690909090909e-02 2.59047240596066e+01 1.80093115168918e-01
6.35727272727273e-02 2.57426830006249e+01 1.79537460454744e-01
6.39763636363636e-02 2.55816555522616e+01 1.78979912300188e-01
6.43800000000000e-02 2.54216353742584e+01 1.78420544283025e-01
6.47836363636364e-02 2.52626161657174e+01 1.77859428577712e-01
6.51872727272727e-02 2.51045916654498e+01 1.77296635994114e-01
6.55909090909091e-02 2.49475556511410e+01 1.76732236020414e-01
6.59945454545455e-02 2.47915019395450e+01 1.76166296794865e-01
6.63981818181818e-02 2.46364243862334e+01 1.75598885211015e-01
6.68018181818182e-02 2.44823168849321e+01 1.75030066903413e-01
6.72054545454546e-02 2.43291733677041e+01 1.74459906232706e-01
6.76090909090909e-02 2.41769878047043e+01 1.73888466386982e-01
6.80127272727273e-02 2.40257542035347e+01 1.73315809366825e-01
6.84163636363636e-02 2.38754666094173e+01 1.72741995969743e-01
6.88200000000000e-02 2.37261191049533e+01 1.72167085887853e-01
6.92236363636364e-02 2.35777058094971e+01 1.71591137680595e-01
6.96272727272727e-02 2.34302208794463e+01 1.71014208805900e-01
7.00309090909091e-02 2.32836585074973e+01 1.70436355655450e-01
7.04345454545455e-02 2.31380129228003e+01 1.69857633525691e-01
7.08381818181818e-02 2.29932783907262e+01 1.69278096709490e-01
7.12418181818182e-02 2.28494492122720e+01 1.68697798480053e-01
7.16454545454546e-02 2.27065197242066e+01 1.68116791074304e-01
7.20490909090909e-02 2.25644842988422e+01 1.67535125781411e-01
7.24527272727273e-02 2.24233373434564e+01 1.66952852926375e-01
7.28563636363636e-02 2.22830733004299e+01 1.66370021853083e-01
7.32600000000000e-02 2.21436866470220e+01 1.65786681009864e-01
7.36636363636364e-02 2.20051718948088e+01 1.65202877922160e-01
7.40672727272727e-02 2.18675235899245e+01 1.64618659218089e-01
7.44709090909091e-02 2.17307363123954e+01 1.64034070657887e-01
7.48745454545455e-02 2.15948046762631e+01 1.63449157105159e-01
7.52781818181818e-02 2.14597233293672e+01 1.62863962607475e-01
7.56818181818182e-02 2.13254869528111e+01 1.62278530379564e-01
7.60854545454546e-02 2.11920902610773e+01 1.61692902785993e-01
7.64890909090909e-02 2.10595280018147e+01 1.61107121419145e-01
7.68927272727273e-02 2.09277949553184e+01 1.60521227082294e-01
7.72963636363636e-02 2.07968859346388e+01 1.59935259772184e-01
7.77000000000000e-02 2.06667957853727e+01 1.59349258754535e-01
7.81036363636364e-02 2.05375193851572e+01 1.58763262537388e-01
7.85072727272727e-02 2.04090516438704e+01 1.58177308892371e-01
7.89109090909091e-02 2.02813875030340e+01 1.57591434879591e-01
7.93145454545455e-02 2.01545219359102e+01 1.57005676819783e-01
7.97181818181818e-02 2.00284499472998e+01 1.56420070365648e-01
8.01218181818182e-02 1.99031665730598e+01 1.55834650484984e-01
8.05254545454546e-02 1.97786668801944e+01 1.55249451443316e-01
8.09290909090909e-02 1.96549459666567e+01 1.54664506873030e-01
8.13327272727273e-02 1.95319989608798e+01 1.54079849756531e-01
8.17363636363636e-02 1.94098210218617e+01 1.53495512408917e-01
8.21400000000000e-02 1.92884073389710e+01 1.52911526545015e-01
8.25436363636364e-02 1.91677531314901e+01 1.52327923253816e-01
8.29472727272727e-02 1.90478536487818e+01 1.51744733016371e-01
8.33509090909091e-02 1.89287041697521e+01 1.51161985727049e-01
8.37545454545455e-02 1.88103000029253e+01 1.50579710666954e-01
8.41581818181818e-02 1.86926364862564e+01 1.49997936567441e-01
8.45618181818182e-02 1.85757089866944e+01 1.49416691593527e-01
8.49654545454546e-02 1.84595129002536e+01 1.48836003326907e-01
8.53690909090909e-02 1.83440436518286e+01 1.48255898827624e-01
8.57727272727273e-02 1.82292966947700e+01 1.47676404617600e-01
8.61763636363636e-02 1.81152675109502e+01 1.47097546663753e-01
8.65800000000000e-02 1.80019516105825e+01 1.46519350437858e-01
8.69836363636364e-02 1.78893445318072e+01 1.45941840892257e-01
8.73872727272727e-02 1.77774418408306e+01 1.45365042475065e-01
8.77909090909091e-02 1.76662391314398e+01 1.44788979148526e-01
8.81945454545455e-02 1.75557320250610e+01 1.44213674363821e-01
8.85981818181818e-02 1.74459161705838e+01 1.43639151117878e-01
8.90018181818182e-02 1.73367872439664e+01 1.43065431937394e-01
8.94054545454546e-02 1.72283409482895e+01 1.42492538862440e-01
8.98090909090909e-02 1.71205730135842e+01 1.41920493501658e-01
9.02127272727273e-02 1.70134791964472e+01 1.41349317016434e-01
9.06163636363636e-02 1.69070552800910e+01 1.40779030104698e-01
9.10200000000000e-02 1.68012970741752e+01 1.40209653054556e-01
9.14236363636364e-02 1.66962004144312e+01 1.39641205721375e-01
9.18272727272727e-02 1.65917611627769e+01 1.39073707540841e-01
9.22309090909091e-02 1.64879752068789e+01 1.38507177544926e-01
9.26345454545455e-02 1.63848384601959e+01 1.37941634338168e-01
9.30381818181818e-02 1.62823468618149e+01 1.37377096148667e-01
9.34418181818182e-02 1.61804963760927e+01 1.36813580812852e-01
9.38454545454546e-02 1.60792829926966e+01 1.36251105759822e-01
9.42490909090909e-02 1.59787027264434e+01 1.35689688060947e-01
9.46527272727273e-02 1.58787516169501e+01 1.35129344414799e-01
9.50563636363636e-02 1.57794257286714e+01 1.34570091131713e-01
9.54600000000000e-02 1.56807211507418e+01 1.34011944182037e-01
9.58636363636364e-02 1.55826339966347e+01 1.33454919174618e-01
9.62672727272727e-02 1.54851604042582e+01 1.32899031368114e-01
9.66709090909091e-02 1.53882965355570e+01 1.32344295684938e-01
9.70745454545455e-02 1.52920385765447e+01 1.31790726689046e-01
9.74781818181818e-02 1.51963827371516e+01 1.31238338631873e-01
9.78818181818182e-02 1.51013252508976e+01 1.30687145437892e-01
9.82854545454546e-02 1.50068623749224e+01 1.30137160689787e-01
9.86890909090909e-02 1.49129903898350e+01 1.29588397673143e-01
9.90927272727273e-02 1.48197055993960e+01 1.29040869362197e-01
9.94963636363636e-02 1.47270043305444e+01 1.28494588405238e-01
9.99000000000000e-02 1.46348829332504e+01 1.27949567156024e-01
1.00303636363636e-01 1.45433377803140e+01 1.27405817732404e-01
1.00707272727273e-01 1.44523652667369e+01 1.26863351850670e-01
1.01110909090909e-01 1.43619618110473e+01 1.26322180944676e-01
1.01514545454545e-01 1.42721238536292e+01 1.25782316338974e-01
1.01918181818182e-01 1.41828478566109e+01 1.25243768896690e-01
1.02321818181818e-01 1.40941303053034e+01 1.24706549206250e-01
1.02725454545455e-01 1.40059677064727e+01 1.24170667768529e-01
1.03129090909091e-01 1.39183565882303e+01 1.23636134640832e-01
1.03532727272727e-01 1.38312935014250e+01 1.23102959618790e-01
1.03936363636364e-01 1.37447750179673e+01 1.22571152418729e-01
1.04340000000000e-01 1.36587977307209e+01 1.22040722330564e-01
1.04743636363636e-01 1.35733582548503e+01 1.21511678449745e-01
1.05147272727273e-01 1.34884532257135e+01 1.20984029634729e-01
1.05550909090909e-01 1.34040793006861e+01 1.20457784442638e-01
1.05954545454545e-01 1.33202331575640e+01 1.19932951364466e-01
1.06358181818182e-01 1.32369114944571e+01 1.19409538491190e-01
1.06761818181818e-01 1.31541110310710e+01 1.18887553683890e-01
1.07165454545455e-01 1.30718285071559e+01 1.18367004744490e-01
1.07569090909091e-01 1.29900606824037e+01 1.17847899090133e-01
1.07972727272727e-01 1.29088043376870e+01 1.17330243918961e-01
1.08376363636364e-01 1.28280562735560e+01 1.16814046376548e-01
1.08780000000000e-01 1.27478133101349e+01 1.16299313238365e-01
1.09183636363636e-01 1.26680722883238e+01 1.15786051121373e-01
1.09587272727273e-01 1.25888300679065e+01 1.15274266444969e-01
1.09990909090909e-01 1.25100835291792e+01 1.14763965371740e-01
1.10394545454545e-01 1.24318295715151e+01 1.14255154022312e-01
1.10798181818182e-01 1.23540651132641e+01 1.13747838169789e-01
1.11201818181818e-01 1.22767870928959e+01 1.13242023394913e-01
1.11605454545455e-01 1.21999924676061e+01 1.12737715242016e-01
1.12009090909091e-01 1.21236782132182e+01 1.12234918920991e-01
1.12412727272727e-01 1.20478413252904e+01 1.11733639458534e-01
1.12816363636364e-01 1.19724788177629e+01 1.11233881850215e-01
1.13220000000000e-01 1.18975877228606e+01 1.10735650769754e-01
1.13623636363636e-01 1.18231650921659e+01 1.10238950762241e-01
1.14027272727273e-01 1.17492079949179e+01 1.09743786208292e-01
1.14430909090909e-01 1.16757135194680e+01 1.09250161269498e-01
1.14834545454545e-01 1.16026787719884e+01 1.08758080084812e-01
1.15238181818182e-01 1.15301008763774e+01 1.08267546490769e-01
1.15641818181818e-01 1.14579769752806e+01 1.07778564163140e-01
1.16045454545455e-01 1.13863042288362e+01 1.07291136759508e-01
1.16449090909091e-01 1.13150798145822e+01 1.06805267646291e-01
1.16852727272727e-01 1.12443009284457e+01 1.06320960036865e-01
1.17256363636364e-01 1.11739647835249e+01 1.05838217130640e-01
1.17660000000000e-01 1.11040686099969e+01 1.05357041846716e-01
1.18063636363636e-01 1.10346096560769e+01 1.04877437000502e-01
1.18467272727273e-01 1.09655851864875e+01 1.04399405270779e-01
1.18870909090909e-01 1.08969924837610e+01 1.03922949149476e-01
1.19274545454545e-01 1.08288288470758e+01 1.03448071121354e-01
1.19678181818182e-01 1.07610915921676e+01 1.02974773407626e-01
1.20081818181818e-01 1.06937780522421e+01 1.02503058095438e-01
1.20485454545455e-01 1.06268855768446e+01 1.02032927268289e-01
1.20889090909091e-01 1.05604115317722e+01 1.01564382755870e-01
1.21292727272727e-01 1.04943532999592e+01 1.01097426260351e-01
1.21696363636364e-01 1.04287082803786e+01 1.00632059483604e-01
1.22100000000000e-01 1.03634738879552e+01 1.00168283883078e-01
1.22503636363636e-01 1.02986475544246e+01 9.97061008333904e-02
1.22907272727273e-01 1.02342267269528e+01 9.92455115960437e-02
1.23310909090909e-01 1.01702088693038e+01 9.87865172731669e-02
1.23714545454545e-01 1.01065914607899e+01 9.83291189720558e-02
1.24118181818182e-01 1.00433719961870e+01 9.78733175701029e-02
1.24521818181818e-01 9.98054798655367e+00 9.74191138332154e-02
1.24925454545455e-01 9.91811695820942e+00 9.69665085352596e-02
1.25329090909091e-01 9.85607645265259e+00 9.65155022286348e-02
1.25732727272727e-01 9.79442402735393e+00 9.60660953598035e-02
1.26136363636364e-01 9.73315725476401e+00 9.56182883858384e-02
1.26540000000000e-01 9.67227372223189e+00 9.51720815505021e-02
1.26943636363636e-01 9.61177103277521e+00 9.47274750321673e-02
1.27347272727273e-01 9.55164680383338e+00 9.42844689159825e-02
