Energy (eV)          EEDF (eV^-(3/2))     First Anisotropy
6.97674418604651e-03 4.91412212187968e-01 2.79375880082376e-04
2.09302325581395e-02 4.87477711641790e-01 4.61032064095418e-04
3.48837209302326e-02 4.83574712761363e-01 6.07828486645692e-04
4.88372093023256e-02 4.79702963307101e-01 7.18873594137227e-04
6.27906976744186e-02 4.75862213080943e-01 8.11092436745013e-04
7.67441860465116e-02 4.72052213887623e-01 8.90894809065064e-04
9.06976744186047e-02 4.68272719523757e-01 9.61603027682721e-04
1.04651162790698e-01 4.64523485746973e-01 1.02522643275104e-03
1.18604651162791e-01 4.60804270275471e-01 1.08309967828938e-03
1.32558139534884e-01 4.57114832778286e-01 1.13616749465882e-03
1.46511627906977e-01 4.53454934810354e-01 1.18513026442462e-03
1.60465116279070e-01 4.49824339889762e-01 1.23052587308941e-03
1.74418604651163e-01 4.46222813398573e-01 1.27277909183972e-03
1.88372093023256e-01 4.42650122580093e-01 1.31223302433056e-03
2.02325581395349e-01 4.39106036580458e-01 1.34917005030888e-03
2.16279069767442e-01 4.35590326357004e-01 1.38382626469565e-03
2.30232558139535e-01 4.32102764735897e-01 1.41640173814613e-03
2.44186046511628e-01 4.28643126343550e-01 1.44706800374175e-03
2.58139534883721e-01 4.25211187598237e-01 1.47597362048970e-03
2.72093023255814e-01 4.21806726736014e-01 1.50324840926471e-03
2.86046511627907e-01 4.18429523753862e-01 1.52900672328710e-03
3.00000000000000e-01 4.15079360399651e-01 1.55334999931985e-03
3.13953488372093e-01 4.11756020191421e-01 1.57636879485580e-03
3.27906976744186e-01 4.08459288358589e-01 1.59814441921148e-03
3.41860465116279e-01 4.05188951871159e-01 1.61875025749351e-03
3.55813953488372e-01 4.01944799393788e-01 1.63825286203044e-03
3.69767441860465e-01 3.98726621274772e-01 1.65671284412158e-03
3.83720930232558e-01 3.95534209558845e-01 1.67418562716050e-03
3.97674418604651e-01 3.92367357946419e-01 1.69072207947605e-03
4.11627906976744e-01 3.89225861782328e-01 1.70636904058438e-03
4.25581395348837e-01 3.86109518065406e-01 1.72116977889314e-03
4.39534883720930e-01 3.83018125404842e-01 1.73516437912303e-03
4.53488372093023e-01 3.79951484036766e-01 1.74839007561322e-03
4.67441860465116e-01 3.76909395789229e-01 1.76088154565787e-03
4.81395348837209e-01 3.73891664070834e-01 1.77267115549781e-03
4.95348837209302e-01 3.70898093876959e-01 1.78378918313653e-03
5.09302325581395e-01 3.67928491757679e-01 1.79426401388462e-03
5.23255813953488e-01 3.64982665806498e-01 1.80412230500071e-03
5.37209302325581e-01 3.62060425664750e-01 1.81338913942982e-03
5.51162790697674e-01 3.59161582486827e-01 1.82208815834900e-03
5.65116279069767e-01 3.56285948949871e-01 1.83024167893943e-03
5.79069767441860e-01 3.53433339225307e-01 1.83787080365623e-03
5.93023255813953e-01 3.50603568967724e-01 1.84499551038464e-03
6.06976744186047e-01 3.47796455317346e-01 1.85163474017811e-03
6.20930232558140e-01 3.45011816873482e-01 1.85780647633137e-03
6.34883720930233e-01 3.42249473683616e-01 1.86352780930570e-03
6.48837209302326e-01 3.39509247244757e-01 1.86881500184995e-03
6.62790697674419e-01 3.36790960478621e-01 1.87368354812986e-03
6.76744186046512e-01 3.34094437720843e-01 1.87814822140974e-03
6.90697674418605e-01 3.31419504721461e-01 1.88222312411997e-03
7.04651162790698e-01 3.28765988617876e-01 1.88592173046167e-03
7.18604651162791e-01 3.26133717939126e-01 1.88925692523575e-03
7.32558139534884e-01 3.23522522583229e-01 1.89224104274327e-03
7.46511627906977e-01 3.20932233806755e-01 1.89488589625026e-03
7.60465116279070e-01 3.18362684224274e-01 1.89720281061949e-03
7.74418604651163e-01 3.15813707786973e-01 1.89920265241023e-03
7.88372093023256e-01 3.13285139772395e-01 1.90089585235216e-03
8.02325581395349e-01 3.10776816783327e-01 1.90229243190470e-03
8.16279069767442e-01 3.08288576724533e-01 1.90340202510868e-03
8.30232558139535e-01 3.05820258804738e-01 1.90423389871685e-03
8.44186046511628e-01 3.03371703516905e-01 1.90479697377325e-03
8.58139534883721e-01 3.00942752628332e-01 1.90509984018602e-03
8.72093023255814e-01 2.98533249178877e-01 1.90515077514463e-03
8.86046511627907e-01 2.96143037462208e-01 1.90495776030417e-03
9.00000000000000e-01 2.93771963016092e-01 1.90452849314923e-03
9.13953488372093e-01 2.91419872620252e-01 1.90387040271092e-03
9.27906976744186e-01 2.89086614276016e-01 1.90299066184424e-03
9.41860465116279e-01 2.86772037206750e-01 1.90189619861293e-03
9.55813953488372e-01 2.84475991840439e-01 1.90059370950841e-03
9.69767441860465e-01 2.82198329800322e-01 1.89908966700124e-03
9.83720930232558e-01 2.79938903902315e-01 1.89739033092719e-03
9.97674418604651e-01 2.77697568138373e-01 1.89550175785819e-03
1.01162790697674e+00 2.75474177673780e-01 1.89342981199003e-03
1.02558139534884e+00 2.73268588820553e-01 1.89118017030301e-03
1.03953488372093e+00 2.71080659049906e-01 1.88875832854853e-03
1.05348837209302e+00 2.68910246974179e-01 1.88616961319051e-03
1.06744186046512e+00 2.66757212337783e-01 1.88341918231934e-03
1.08139534883721e+00 2.64621416027596e-01 1.88051204494190e-03
1.09534883720930e+00 2.62502720004921e-01 1.87745305871202e-03
1.10930232558140e+00 2.60400987356136e-01 1.87424692723861e-03
1.12325581395349e+00 2.58316082263807e-01 1.87089821867452e-03
1.13720930232558e+00 2.56247869997881e-01 1.86741136666332e-03
1.15116279069767e+00 2.54196216907069e-01 1.86379067154441e-03
1.16511627906977e+00 2.52160990427406e-01 1.86004031681052e-03
1.17906976744186e+00 2.50142059021508e-01 1.85616436587155e-03
1.19302325581395e+00 2.48139292222692e-01 1.85216675850634e-03
1.20697674418605e+00 2.46152560608853e-01 1.84805132691465e-03
1.22093023255814e+00 2.44181735794059e-01 1.84382179564921e-03
1.23488372093023e+00 2.42226690420344e-01 1.83948178537846e-03
1.24883720930233e+00 2.40287298149432e-01 1.83503481299203e-03
1.26279069767442e+00 2.38363433669644e-01 1.83048430560187e-03
1.27674418604651e+00 2.36454972642221e-01 1.82583359672680e-03
1.29069767441860e+00 2.34561791739241e-01 1.82108592224482e-03
1.30465116279070e+00 2.32683768620176e-01 1.81624443419812e-03
1.31860465116279e+00 2.30820781924044e-01 1.81131220002245e-03
1.33255813953488e+00 2.28972711261542e-01 1.80629220207073e-03
1.34651162790698e+00 2.27139437220721e-01 1.80118734999347e-03
1.36046511627907e+00 2.25320841318580e-01 1.79600047671775e-03
1.37441860465116e+00 2.23516806034421e-01 1.79073433423983e-03
1.38837209302326e+00 2.21727214788453e-01 1.78539160591339e-03
1.40232558139535e+00 2.19951951934297e-01 1.77997490531756e-03
1.41627906976744e+00 2.18190902751504e-01 1.77448677541352e-03
1.43023255813953e+00 2.16443953450196e-01 1.76892969960966e-03
1.44418604651163e+00 2.14710991127244e-01 1.76330609768962e-03
1.45813953488372e+00 2.12991903795728e-01 1.75761832158674e-03
1.47209302325581e+00 2.11286580365337e-01 1.75186866642296e-03
1.48604651162791e+00 2.09594910635207e-01 1.74605936916100e-03
1.50000000000000e+00 2.07916785286810e-01 1.74019260753333e-03
1.51395348837209e+00 2.06252095887728e-01 1.73427051001508e-03
1.52790697674419e+00 2.04600734851841e-01 1.72829515179680e-03
1.54186046511628e+00 2.02962595465437e-01 1.72226855062727e-03
1.55581395348837e+00 2.01337571869192e-01 1.71619267680236e-03
1.56976744186047e+00 1.99725559051347e-01 1.71006945169663e-03
1.58372093023256e+00 1.98126452840931e-01 1.70390074655711e-03
1.59767441860465e+00 1.96540149910811e-01 1.69768839155181e-03
1.61162790697674e+00 1.94966547741413e-01 1.69143417184554e-03
1.62558139534884e+00 1.93405544643928e-01 1.68513982356364e-03
1.63953488372093e+00 1.91857039743708e-01 1.67880704288333e-03
1.65348837209302e+00 1.90320932973755e-01 1.67243748450793e-03
1.66744186046512e+00 1.88797125068268e-01 1.66603276038770e-03
1.68139534883721e+00 1.87285517565082e-01 1.65959444797327e-03
1.69534883720930e+00 1.85786012772520e-01 1.65312408642960e-03
1.70930232558140e+00 1.84298513790062e-01 1.64662317275181e-03
1.72325581395349e+00 1.82822924493021e-01 1.64009317007791e-03
1.73720930232558e+00 1.81359149526321e-01 1.63353550614805e-03
1.75116279069767e+00 1.79907094298362e-01 1.62695157199480e-03
1.76511627906977e+00 1.78466664982930e-01 1.62034272950389e-03
1.77906976744186e+00 1.77037768488842e-01 1.61371030778590e-03
1.79302325581395e+00 1.75620312478401e-01 1.60705559946089e-03
1.80697674418605e+00 1.74214205353215e-01 1.60037986828890e-03
1.82093023255814e+00 1.72819356248257e-01 1.59368434764205e-03
1.83488372093023e+00 1.71435675026031e-01 1.58697024125279e-03
1.84883720930233e+00 1.70063072270722e-01 1.58023872190847e-03
1.86279069767442e+00 1.68701459289639e-01 1.57349093830643e-03
1.87674418604651e+00 1.67350748085687e-01 1.56672801161805e-03
1.89069767441860e+00 1.66010851373630e-01 1.55995103197580e-03
1.90465116279070e+00 1.64681682567073e-01 1.55316106540618e-03
1.91860465116279e+00 1.63363155772884e-01 1.54635915234359e-03
1.93255813953488e+00 1.62055185785638e-01 1.53954630634462e-03
1.94651162790698e+00 1.60757688088678e-01 1.53272352041158e-03
1.96046511627907e+00 1.59470578828800e-01 1.52589176372805e-03
1.97441860465116e+00 1.58193774830831e-01 1.51905197832448e-03
1.98837209302326e+00 1.56927193585532e-01 1.51220508548187e-03
2.00232558139535e+00 1.55670753244284e-01 1.50535198429108e-03
2.01627906976744e+00 1.54424372613788e-01 1.49849355039834e-03
2.03023255813953e+00 1.53187971156825e-01 1.49163064185286e-03
2.04418604651163e+00 1.51961468968914e-01 1.48476409601250e-03
2.05813953488372e+00 1.50744786791411e-01 1.47789472638527e-03
2.07209302325581e+00 1.49537846000252e-01 1.47102332855735e-03
2.08604651162791e+00 1.48340568600879e-01 1.46415067880457e-03
2.10000000000000e+00 1.47152877223204e-01 1.45727753287735e-03
2.11395348837209e+00 1.45974695122091e-01 1.45040463141955e-03
2.12790697674419e+00 1.44805946155814e-01 1.44353269703997e-03
2.14186046511628e+00 1.43646554797839e-01 1.43666243132517e-03
2.15581395348837e+00 1.42496446126331e-01 1.42979452033742e-03
2.16976744186046e+00 1.41355545819317e-01 1.42292963328259e-03
2.18372093023256e+00 1.40223780149890e-01 1.41606842133945e-03
2.19767441860465e+00 1.39101075986468e-01 1.40921152269031e-03
2.21162790697674e+00 1.37987360772871e-01 1.40235955975267e-03
2.22558139534884e+00 1.36882562538937e-01 1.39551313635697e-03
2.23953488372093e+00 1.35786609890732e-01 1.38867284285448e-03
2.25348837209302e+00 1.34699432005935e-01 1.38183925484311e-03
2.26744186046512e+00 1.33620958629271e-01 1.37501293204431e-03
2.28139534883721e+00 1.32551120072580e-01 1.36819442298049e-03
2.29534883720930e+00 1.31489847196369e-01 1.36138426236020e-03
2.30930232558140e+00 1.30437071419389e-01 1.35458296841410e-03
2.32325581395349e+00 1.29392724709483e-01 1.34779104764674e-03
2.33720930232558e+00 1.28356739579193e-01 1.34100899362158e-03
2.35116279069767e+00 1.27329049081405e-01 1.33423728588669e-03
2.36511627906977e+00 1.26309586809258e-01 1.32747639432932e-03
2.37906976744186e+00 1.25298286879044e-01 1.32072677670795e-03
2.39302325581395e+00 1.24295083938846e-01 1.31398887613872e-03
2.40697674418605e+00 1.23299913159990e-01 1.30726312552209e-03
2.42093023255814e+00 1.22312710232848e-01 1.30054994638600e-03
2.43488372093023e+00 1.21333411362692e-01 1.29384974912676e-03
2.44883720930233e+00 1.20361953265569e-01 1.28716293199374e-03
2.46279069767442e+00 1.19398273168063e-01 1.28048988510124e-03
2.47674418604651e+00 1.18442308791598e-01 1.27383098812132e-03
2.49069767441860e+00 1.17493998360135e-01 1.26718660793401e-03
2.50465116279070e+00 1.16553280592239e-01 1.26055710270862e-03
2.51860465116279e+00 1.15620094697133e-01 1.25394282081533e-03
2.53255813953488e+00 1.14694380370760e-01 1.24734409985826e-03
2.54651162790698e+00 1.13776077795441e-01 1.24076127042040e-03
2.56046511627907e+00 1.12865127625281e-01 1.23419465388699e-03
2.57441860465116e+00 1.11961470993134e-01 1.22764456023006e-03
2.58837209302326e+00 1.11065049503171e-01 1.22111129181944e-03
2.60232558139535e+00 1.10175805227113e-01 1.21459514238946e-03
2.61627906976744e+00 1.09293680700484e-01 1.20809639611924e-03
2.63023255813953e+00 1.08418618922175e-01 1.20161533113100e-03
2.64418604651163e+00 1.07550563340867e-01 1.19515221743813e-03
2.65813953488372e+00 1.06689457861334e-01 1.18870731485627e-03
2.67209302325581e+00 1.05835246837475e-01 1.18228087656476e-03
2.68604651162791e+00 1.04987875068721e-01 1.17587314812681e-03
2.70000000000000e+00 1.04147287796469e-01 1.16948436661552e-03
2.71395348837209e+00 1.03313430703565e-01 1.16311476388508e-03
2.72790697674419e+00 1.02486249901663e-01 1.15676456463599e-03
2.74186046511628e+00 1.01665691936933e-01 1.15043398444572e-03
2.75581395348837e+00 1.00851703783525e-01 1.14412323309978e-03
2.76976744186046e+00 1.00044232840139e-01 1.13783251366325e-03
2.78372093023256e+00 9.92432269266295e-02 1.13156202165089e-03
2.79767441860465e+00 9.84486342834284e-02 1.12531194808833e-03
2.81162790697674e+00 9.76604035597577e-02 1.11908247768787e-03
2.82558139534884e+00 9.68784838188084e-02 1.11287378699183e-03
2.83953488372093e+00 9.61028245315968e-02 1.10668604749058e-03
2.85348837209302e+00 9.53333755736988e-02 1.10051942474297e-03
2.86744186046512e+00 9.45700872220144e-02 1.09437407758920e-03
2.88139534883721e+00 9.38129101541377e-02 1.08825016101722e-03
2.89534883720930e+00 9.30617954373625e-02 1.08214782444276e-03
2.90930232558140e+00 9.23166945333786e-02 1.07606720995920e-03
2.92325581395349e+00 9.15775592924983e-02 1.07000845525774e-03
2.93720930232558e+00 9.08443419505427e-02 1.06397169279474e-03
2.95116279069767e+00 9.01169951257599e-02 1.05795704904549e-03
2.96511627906977e+00 8.93954718181542e-02 1.05196464718999e-03
2.97906976744186e+00 8.86797253992215e-02 1.04599460549120e-03
2.99302325581395e+00 8.79697096162109e-02 1.04004703564504e-03
3.00697674418605e+00 8.72653785866945e-02 1.03412204551722e-03
3.02093023255814e+00 8.65666867956003e-02 1.02821973835503e-03
3.03488372093023e+00 8.58735890922758e-02 1.02234021288310e-03
3.04883720930233e+00 8.51860406875680e-02 1.01648356260357e-03
3.06279069767442e+00 8.45039971531210e-02 1.01064987828727e-03
3.07674418604651e+00 8.38274144118854e-02 1.00483924645838e-03
3.09069767441860e+00 8.31562487419332e-02 9.99051747852962e-04
3.10465116279070e+00 8.24904567713945e-02 9.93287459958311e-04
3.11860465116279e+00 8.18299954756584e-02 9.87546456274701e-04
3.13255813953488e+00 8.11748221745918e-02 9.81828805652564e-04
3.14651162790698e+00 8.05248945318132e-02 9.76134574629625e-04
3.16046511627907e+00 7.98801705458194e-02 9.70463826001782e-04
3.17441860465116e+00 7.92406085534489e-02 9.64816617369553e-04
3.18837209302326e+00 7.86061672251152e-02 9.59193003520719e-04
3.20232558139535e+00 7.79768055621389e-02 9.53593035731952e-04
3.21627906976744e+00 7.73524828940975e-02 9.48016761141031e-04
3.23023255813954e+00 7.67331588780835e-02 9.42464224940533e-04
3.24418604651163e+00 7.61187934904011e-02 9.36935469029957e-04
3.25813953488372e+00 7.55093470297127e-02 9.31430530644792e-04
3.27209302325581e+00 7.49047801125489e-02 9.25949444593338e-04
3.28604651162791e+00 7.43050536707652e-02 9.20492242596137e-04
3.30000000000000e+00 7.37101289490171e-02 9.15058952691325e-04
3.31395348837209e+00 7.31199675040077e-02 9.09649601294857e-04
3.32790697674419e+00 7.25345311967130e-02 9.04264211928989e-04
3.34186046511628e+00 7.19537821952418e-02 8.98902803929010e-04
3.35581395348837e+00 7.13776829706035e-02 8.93565394544306e-04
3.36976744186047e+00 7.08061962942836e-02 8.88251998313442e-04
3.38372093023256e+00 7.02392852358394e-02 8.82962626501137e-04
3.39767441860465e+00 6.96769131621402e-02 8.77697289033813e-04
3.41162790697674e+00 6.91190437300850e-02 8.72455993300012e-04
3.42558139534884e+00 6.85656408892004e-02 8.67238742930394e-04
3.43953488372093e+00 6.80166688776516e-02 8.62045539771783e-04
3.45348837209302e+00 6.74720922199304e-02 8.56876383296292e-04
3.46744186046512e+00 6.69318757245652e-02 8.51731270068249e-04
3.48139534883721e+00 6.63959844833587e-02 8.46610195563178e-04
3.49534883720930e+00 6.58643838645630e-02 8.41513153036076e-04
3.50930232558140e+00 6.53370395152399e-02 8.36440132370373e-04
3.52325581395349e+00 6.48139173574986e-02 8.31391121933434e-04
3.53720930232558e+00 6.42949835862923e-02 8.26366108017591e-04
3.55116279069767e+00 6.37802046672360e-02 8.21365074335553e-04
3.56511627906977e+00 6.32695473358466e-02 8.16388003730813e-04
3.57906976744186e+00 6.27629785911415e-02 8.11434877109531e-04
3.59302325581395e+00 6.22604656977850e-02 8.06505672354407e-04
3.60697674418605e+00 6.17619761825371e-02 8.01600366069398e-04
3.62093023255814e+00 6.12674778321540e-02 7.96718933050933e-04
3.63488372093023e+00 6.07769386913093e-02 7.91861346329810e-04
3.64883720930233e+00 6.02903270605271e-02 7.87027576698421e-04
3.66279069767442e+00 5.98076114954305e-02 7.82217594303106e-04
3.67674418604651e+00 5.93287608007951e-02 7.77431367645287e-04
3.69069767441860e+00 5.88537440324726e-02 7.72668862565542e-04
3.70465116279070e+00 5.83825304940681e-02 7.67930043868358e-04
3.71860465116279e+00 5.79150897349590e-02 7.63214874827055e-04
3.73255813953488e+00 5.74513915483261e-02 7.58523316736428e-04
3.74651162790698e+00 5.69914059704094e-02 7.53855330411141e-04
3.76046511627907e+00 5.65351032749254e-02 7.49210875242534e-04
3.77441860465116e+00 5.60824539748158e-02 7.44589908239794e-04
3.78837209302326e+00 5.56334288191098e-02 7.39992385558945e-04
3.80232558139535e+00 5.51879987910355e-02 7.35418262034450e-04
3.81627906976744e+00 5.47461351061447e-02 7.30867490755734e-04
3.83023255813953e+00 5.43078092115776e-02 7.26340024477580e-04
3.84418604651163e+00 5.38729927808203e-02 7.21835814729676e-04
3.85813953488372e+00 5.34416577152931e-02 7.17354810911278e-04
3.87209302325581e+00 5.30137761413878e-02 7.12896961730488e-04
3.88604651162791e+00 5.25893204086664e-02 7.08462214761207e-04
3.90000000000000e+00 5.21682630880753e-02 7.04050516042260e-04
3.91395348837209e+00 5.17505769712212e-02 6.99661811405329e-04
3.92790697674419e+00 5.13362350654453e-02 6.95296045634076e-04
3.94186046511628e+00 5.09252105952667e-02 6.90953161609381e-04
3.95581395348837e+00 5.05174769995823e-02 6.86633101664415e-04
3.96976744186047e+00 5.01130079299508e-02 6.82335807165573e-04
3.98372093023256e+00 4.97117772488906e-02 6.78061218133132e-04
3.99767441860465e+00 4.93137590291692e-02 6.73809274491629e-04
4.01162790697674e+00 4.89189275491726e-02 6.69579915275907e-04
4.02558139534884e+00 4.85272572942167e-02 6.65373077823822e-04
4.03953488372093e+00 4.81387229539009e-02 6.61188699052533e-04
4.05348837209302e+00 4.77532994204723e-02 6.57026715062082e-04
4.06744186046512e+00 4.73709617872043e-02 6.52887060776164e-04
4.08139534883721e+00 4.69916853476998e-02 6.48769671120165e-04
4.09534883720930e+00 4.66154455915373e-02 6.44674480271202e-04
4.10930232558140e+00 4.62422182054615e-02 6.40601420895597e-04
4.12325581395349e+00 4.58719790708813e-02 6.36550425351262e-04
4.13720930232558e+00 4.55047042623113e-02 6.32521425312579e-04
4.15116279069767e+00 4.51403700458263e-02 6.28514351430441e-04
4.16511627906977e+00 4.47789528783800e-02 6.24529134442313e-04
4.17906976744186e+00 4.44204294037091e-02 6.20565704463584e-04
4.19302325581395e+00 4.40647764534146e-02 6.16623990267314e-04
4.20697674418605e+00 4.37119710445957e-02 6.12703920417312e-04
4.22093023255814e+00 4.33619903783637e-02 6.08805422913262e-04
4.23488372093023e+00 4.30148118383704e-02 6.04928425209357e-04
4.24883720930233e+00 4.26704129893456e-02 6.01072853895464e-04
4.26279069767442e+00 4.23287715764358e-02 5.97238635733158e-04
4.27674418604651e+00 4.19898655213864e-02 5.93425696992315e-04
4.29069767441860e+00 4.16536729235096e-02 5.89633962776613e-04
4.30465116279070e+00 4.13201720574648e-02 5.85863358081146e-04
4.31860465116279e+00 4.09893413718567e-02 5.82113807459972e-04
4.33255813953488e+00 4.06611594878411e-02 5.78385234724304e-04
4.34651162790698e+00 4.03356051984806e-02 5.74677563919120e-04
4.36046511627907e+00 4.00126574651509e-02 5.70990718696369e-04
4.37441860465116e+00 3.96922954184178e-02 5.67324621677556e-04
4.38837209302326e+00 3.93744983559383e-02 5.63679195450917e-04
4.40232558139535e+00 3.90592457411233e-02 5.60054362256725e-04
