Energy (eV)          EEDF (eV^-(3/2))     First Anisotropy
1.22222222222222e-02 4.24358128579861e-01 3.03815570250503e-04
3.66666666666667e-02 4.18964635603647e-01 5.00179209673458e-04
6.11111111111111e-02 4.13639692659632e-01 6.56313862231236e-04
8.55555555555556e-02 4.08382428504159e-01 7.72536629152899e-04
1.10000000000000e-01 4.03191982948397e-01 8.67506869202596e-04
1.34444444444444e-01 3.98067506756196e-01 9.48342079438018e-04
1.58888888888889e-01 3.93008161442053e-01 1.01875660382194e-03
1.83333333333333e-01 3.88013119244322e-01 1.08101179225257e-03
2.07777777777778e-01 3.83081562854574e-01 1.13661945588981e-03
2.32222222222222e-01 3.78212685410123e-01 1.18665654853998e-03
2.56666666666667e-01 3.73405690272007e-01 1.23192648059437e-03
2.81111111111111e-01 3.68659790912515e-01 1.27305003718862e-03
3.05555555555556e-01 3.63974210835544e-01 1.31052037824152e-03
3.30000000000000e-01 3.59348183381803e-01 1.34473816583614e-03
3.54444444444444e-01 3.54780951665728e-01 1.37603500305954e-03
3.78888888888889e-01 3.50271768394069e-01 1.40468964363371e-03
4.03333333333333e-01 3.45819895797022e-01 1.43093954094851e-03
4.27777777777778e-01 3.41424605457840e-01 1.45498928918035e-03
4.52222222222222e-01 3.37085178240030e-01 1.47701692720463e-03
4.76666666666667e-01 3.32800904135376e-01 1.49717874210028e-03
5.01111111111111e-01 3.28571082151943e-01 1.51561298012636e-03
5.25555555555556e-01 3.24395020224342e-01 1.53244276936731e-03
5.50000000000000e-01 3.20272035066943e-01 1.54777844336959e-03
5.74444444444444e-01 3.16201452093912e-01 1.56171941338564e-03
5.98888888888889e-01 3.12182605278593e-01 1.57435569337217e-03
6.23333333333333e-01 3.08214837073308e-01 1.58576915355966e-03
6.47777777777778e-01 3.04297498274370e-01 1.59603456082429e-03
6.72222222222222e-01 3.00429947941986e-01 1.60522044791144e-03
6.96666666666667e-01 2.96611553275944e-01 1.61338984902336e-03
7.21111111111111e-01 2.92841689513844e-01 1.62060091834080e-03
7.45555555555556e-01 2.89119739844374e-01 1.62690746356953e-03
7.70000000000000e-01 2.85445095285664e-01 1.63235940185768e-03
7.94444444444445e-01 2.81817154605542e-01 1.63700315387724e-03
8.18888888888889e-01 2.78235324204047e-01 1.64088198629773e-03
8.43333333333333e-01 2.74699018034688e-01 1.64403631032401e-03
8.67777777777778e-01 2.71207657490868e-01 1.64650394363472e-03
8.92222222222222e-01 2.67760671328241e-01 1.64832034024784e-03
9.16666666666667e-01 2.64357495558547e-01 1.64951879606709e-03
9.41111111111111e-01 2.60997573358280e-01 1.65013062680997e-03
9.65555555555556e-01 2.57680354988172e-01 1.65018533063496e-03
9.90000000000000e-01 2.54405297689112e-01 1.64971073070208e-03
1.01444444444444e+00 2.51171865613208e-01 1.64873310809763e-03
1.03888888888889e+00 2.47979529688679e-01 1.64727730877325e-03
1.06333333333333e+00 2.44827767623813e-01 1.64536685655711e-03
1.08777777777778e+00 2.41716063704715e-01 1.64302404388717e-03
1.11222222222222e+00 2.38643908830537e-01 1.64027001364703e-03
1.13666666666667e+00 2.35610800340871e-01 1.63712485186354e-03
1.16111111111111e+00 2.32616241939252e-01 1.63360763662395e-03
1.18555555555556e+00 2.29659743688477e-01 1.62973651683351e-03
1.21000000000000e+00 2.26740821828407e-01 1.62552876841588e-03
1.23444444444444e+00 2.23858998795813e-01 1.62100084761058e-03
1.25888888888889e+00 2.21013803050161e-01 1.61616844159080e-03
1.28333333333333e+00 2.18204769089733e-01 1.61104651342032e-03
1.30777777777778e+00 2.15431437284888e-01 1.60564934509888e-03
1.33222222222222e+00 2.12693353890834e-01 1.59999057291828e-03
1.35666666666667e+00 2.09990070907663e-01 1.59408323573079e-03
1.38111111111111e+00 2.07321146010822e-01 1.58793979062338e-03
1.40555555555556e+00 2.04686142536079e-01 1.58157215547637e-03
1.43000000000000e+00 2.02084629331662e-01 1.57499173544020e-03
1.45444444444444e+00 1.99516180762062e-01 1.56820944909098e-03
1.47888888888889e+00 1.96980376566041e-01 1.56123575413714e-03
1.50333333333333e+00 1.94476801858291e-01 1.55408067011212e-03
1.52777777777778e+00 1.92005046992997e-01 1.54675380085929e-03
1.55222222222222e+00 1.89564707563563e-01 1.53926435197403e-03
1.57666666666667e+00 1.87155384286555e-01 1.53162115998570e-03
1.60111111111111e+00 1.84776682938988e-01 1.52383269565765e-03
1.62555555555556e+00 1.82428214337902e-01 1.51590709035571e-03
1.65000000000000e+00 1.80109594217958e-01 1.50785214992927e-03
1.67444444444444e+00 1.77820443225819e-01 1.49967536905776e-03
1.69888888888889e+00 1.75560386802255e-01 1.49138394584355e-03
1.72333333333333e+00 1.73329055175300e-01 1.48298479450999e-03
1.74777777777778e+00 1.71126083246654e-01 1.47448455842556e-03
1.77222222222222e+00 1.68951110583740e-01 1.46588961942767e-03
1.79666666666667e+00 1.66803781322010e-01 1.45720611734497e-03
1.82111111111111e+00 1.64683744108607e-01 1.44843994834250e-03
1.84555555555556e+00 1.62590652079414e-01 1.43959678285092e-03
1.87000000000000e+00 1.60524162756292e-01 1.43068207339824e-03
1.89444444444444e+00 1.58483938035968e-01 1.42170106313413e-03
1.91888888888889e+00 1.56469644090849e-01 1.41265879481056e-03
1.94333333333333e+00 1.54480951357240e-01 1.40356011843767e-03
1.96777777777778e+00 1.52517534439585e-01 1.39440969941959e-03
1.99222222222222e+00 1.50579072098090e-01 1.38521202380393e-03
2.01666666666667e+00 1.48665247165610e-01 1.37597141227673e-03
2.04111111111111e+00 1.46775746497148e-01 1.36669201654150e-03
2.06555555555556e+00 1.44910260946085e-01 1.35737783231229e-03
2.09000000000000e+00 1.43068485277015e-01 1.34803270396199e-03
2.11444444444444e+00 1.41250118151567e-01 1.33866032989447e-03
2.13888888888889e+00 1.39454862044136e-01 1.32926426841425e-03
2.16333333333333e+00 1.37682423227389e-01 1.31984794260404e-03
2.18777777777778e+00 1.35932511690780e-01 1.31041464570214e-03
2.21222222222222e+00 1.34204841125781e-01 1.30096754414873e-03
2.23666666666667e+00 1.32499128854604e-01 1.29150968810881e-03
2.26111111111111e+00 1.30815095784998e-01 1.28204400718884e-03
2.28555555555556e+00 1.29152466386690e-01 1.27257332027795e-03
2.31000000000000e+00 1.27510968616869e-01 1.26310033840200e-03
2.33444444444444e+00 1.25890333904477e-01 1.25362766826212e-03
2.35888888888889e+00 1.24290297078080e-01 1.24415781624943e-03
2.38333333333333e+00 1.22710596350065e-01 1.23469319168428e-03
2.40777777777778e+00 1.21150973246813e-01 1.22523611052584e-03
2.43222222222222e+00 1.19611172592827e-01 1.21578879715921e-03
2.45666666666667e+00 1.18090942449224e-01 1.20635339257740e-03
2.48111111111111e+00 1.16590034073329e-01 1.19693195002801e-03
2.50555555555556e+00 1.15108201895925e-01 1.18752644270335e-03
2.53000000000000e+00 1.13645203457177e-01 1.17813876552881e-03
2.55444444444444e+00 1.12200799390357e-01 1.16877073757289e-03
2.57888888888889e+00 1.10774753359768e-01 1.15942410489019e-03
2.60333333333333e+00 1.09366832044519e-01 1.15010054274139e-03
2.62777777777778e+00 1.07976805078364e-01 1.14080165823793e-03
2.65222222222222e+00 1.06604445033544e-01 1.13152899137930e-03
2.67666666666667e+00 1.05249527367471e-01 1.12228402156932e-03
2.70111111111111e+00 1.03911830386630e-01 1.11306816346232e-03
2.72555555555556e+00 1.02591135224992e-01 1.10388277310911e-03
2.75000000000000e+00 1.01287225788644e-01 1.09472914908628e-03
2.77444444444444e+00 9.99998887396066e-02 1.08560853417957e-03
2.79888888888889e+00 9.87289134421335e-02 1.07652211745234e-03
2.82333333333333e+00 9.74740919466651e-02 1.06747103580316e-03
2.84777777777778e+00 9.62352189377582e-02 1.05845637589989e-03
2.87222222222222e+00 9.50120917181776e-02 1.04947917475741e-03
2.89666666666667e+00 9.38045101625047e-02 1.04054042501934e-03
2.92111111111111e+00 9.26122766848980e-02 1.03164107111858e-03
2.94555555555556e+00 9.14351962188734e-02 1.02278201427106e-03
2.97000000000000e+00 9.02730761692665e-02 1.01396411318515e-03
2.99444444444444e+00 8.91257263965273e-02 1.00518818525972e-03
3.01888888888889e+00 8.79929591701111e-02 9.96455008120960e-04
3.04333333333333e+00 8.68745891529600e-02 9.87765320734637e-04
3.06777777777778e+00 8.57704333562759e-02 9.79119824848962e-04
3.09222222222222e+00 8.46803111241944e-02 9.70519185285040e-04
3.11666666666667e+00 8.36040440932953e-02 9.61964034274420e-04
3.14111111111111e+00 8.25414561638236e-02 9.53454967972877e-04
3.16555555555556e+00 8.14923734809122e-02 9.44992550568830e-04
3.19000000000000e+00 8.04566243927751e-02 9.36577314719028e-04
3.21444444444444e+00 7.94340394357286e-02 9.28209762412816e-04
3.23888888888889e+00 7.84244512936071e-02 9.19890366132918e-04
3.26333333333333e+00 7.74276947829997e-02 9.11619569659782e-04
3.28777777777778e+00 7.64436068138501e-02 9.03397789164841e-04
3.31222222222222e+00 7.54720263749110e-02 8.95225413319583e-04
3.33666666666667e+00 7.45127944983206e-02 8.87102806893642e-04
3.36111111111111e+00 7.35657542339173e-02 8.79030307622890e-04
3.38555555555556e+00 7.26307506319200e-02 8.71008229621752e-04
3.41000000000000e+00 7.17076307064467e-02 8.63036863637602e-04
3.43444444444444e+00 7.07962434214041e-02 8.55116477680230e-04
3.45888888888889e+00 6.98964396550583e-02 8.47247317909770e-04
3.48333333333333e+00 6.90080721861539e-02 8.39429609223445e-04
3.50777777777778e+00 6.81309956595030e-02 8.31663556093818e-04
3.53222222222222e+00 6.72650665723342e-02 8.23949342563509e-04
3.55666666666667e+00 6.64101432432343e-02 8.16287135253441e-04
3.58111111111111e+00 6.55660857892318e-02 8.08677080567445e-04
3.60555555555556e+00 6.47327561099021e-02 8.01119307547947e-04
3.63000000000000e+00 6.39100178554630e-02 7.93613928009125e-04
3.65444444444444e+00 6.30977364136038e-02 7.86161036997829e-04
3.67888888888889e+00 6.22957788784893e-02 7.78760713479646e-04
3.70333333333333e+00 6.15040140378215e-02 7.71413020768851e-04
3.72777777777778e+00 6.07223123427234e-02 7.64118007177227e-04
3.75222222222222e+00 5.99505458950334e-02 7.56875705937545e-04
3.77666666666667e+00 5.91885884200271e-02 7.49686137734312e-04
3.80111111111111e+00 5.84363152459739e-02 7.42549308219273e-04
3.82555555555556e+00 5.76936032896097e-02 7.35465210415475e-04
3.85000000000000e+00 5.69603310281822e-02 7.28433824769208e-04
3.87444444444444e+00 5.62363784872434e-02 7.21455119488114e-04
3.89888888888889e+00 5.55216272134818e-02 7.14529051075281e-04
3.92333333333333e+00 5.48159602627439e-02 7.07655564644715e-04
3.94777777777778e+00 5.41192621736302e-02 7.00834594427126e-04
3.97222222222222e+00 5.34314189557433e-02 6.94066063650320e-04
3.99666666666667e+00 5.27523180656967e-02 6.87349886678995e-04
4.02111111111111e+00 5.20818483888784e-02 6.80685966812544e-04
4.04555555555556e+00 5.14199002262173e-02 6.74074198318786e-04
4.07000000000000e+00 5.07663652696501e-02 6.67514466431578e-04
4.09444444444444e+00 5.01211365908682e-02 6.61006647598478e-04
4.11888888888889e+00 4.94841086174684e-02 6.54550609898898e-04
4.14333333333333e+00 4.88551771219213e-02 6.48146213274793e-04
4.16777777777778e+00 4.82342391983860e-02 6.41793309927271e-04
4.19222222222222e+00 4.76211932518966e-02 6.35491744172439e-04
4.21666666666667e+00 4.70159389772336e-02 6.29241354258012e-04
4.24111111111111e+00 4.64183773426592e-02 6.23041970414918e-04
4.26555555555556e+00 4.58284105778944e-02 6.16893416584575e-04
4.29000000000000e+00 4.52459421525577e-02 6.10795510380748e-04
4.31444444444444e+00 4.46708767658384e-02 6.04748063269754e-04
4.33888888888889e+00 4.41031203255315e-02 5.98750880899248e-04
4.36333333333333e+00 4.35425799379210e-02 5.92803763265813e-04
4.38777777777778e+00 4.29891638873945e-02 5.86906505026897e-04
4.41222222222222e+00 4.24427816265334e-02 5.81058895344676e-04
4.43666666666667e+00 4.19033437574846e-02 5.75260719433643e-04
4.46111111111111e+00 4.13707620174569e-02 5.69511756838582e-04
4.48555555555556e+00 4.08449492678204e-02 5.63811782906507e-04
4.51000000000000e+00 4.03258194751354e-02 5.58160568725507e-04
4.53444444444444e+00 3.98132877017087e-02 5.52557881254489e-04
4.55888888888889e+00 3.93072700871430e-02 5.47003483582355e-04
4.58333333333333e+00 3.88076838390909e-02 5.41497135048202e-04
4.60777777777778e+00 3.83144472153103e-02 5.36038591487289e-04
4.63222222222222e+00 3.78274795146129e-02 5.30627605071027e-04
4.65666666666667e+00 3.73467010604261e-02 5.25263925629224e-04
4.68111111111111e+00 3.68720331878586e-02 5.19947299129191e-04
4.70555555555556e+00 3.64033982338379e-02 5.14677468933628e-04
4.73000000000000e+00 3.59407195203985e-02 5.09454175725437e-04
4.75444444444444e+00 3.54839213460728e-02 5.04277157599384e-04
4.77888888888889e+00 3.50329289696355e-02 4.99146150266728e-04
4.80333333333333e+00 3.45876686016781e-02 4.94060887139661e-04
4.82777777777778e+00 3.41480673887965e-02 4.89021099525514e-04
4.85222222222222e+00 3.37140534053470e-02 4.84026516468260e-04
4.87666666666667e+00 3.32855556389279e-02 4.79076865880906e-04
4.90111111111111e+00 3.28625039788463e-02 4.74171873202948e-04
4.92555555555556e+00 3.24448292072071e-02 4.69311262477790e-04
4.95000000000000e+00 3.20324629841800e-02 4.64494756269775e-04
4.97444444444444e+00 3.16253378401684e-02 4.59722075727190e-04
4.99888888888889e+00 3.12233871614756e-02 4.54992940743712e-04
5.02333333333333e+00 3.08265451826453e-02 4.50307070015958e-04
5.04777777777778e+00 3.04347469725155e-02 4.45664181196720e-04
5.07222222222222e+00 3.00479284267271e-02 4.41063990741467e-04
5.09666666666667e+00 2.96660262548919e-02 4.36506214880296e-04
5.12111111111111e+00 2.92889779703093e-02 4.31990568432897e-04
5.14555555555556e+00 2.89167218819263e-02 4.27516765733404e-04
5.17000000000000e+00 2.85491970813365e-02 4.23084520543973e-04
5.19444444444444e+00 2.81863434356736e-02 4.18693546096084e-04
5.21888888888889e+00 2.78281015749612e-02 4.14343555217838e-04
5.24333333333333e+00 2.74744128851632e-02 4.10034260371141e-04
5.26777777777778e+00 2.71252194958748e-02 4.05765373772472e-04
5.29222222222222e+00 2.67804642735277e-02 4.01536607246526e-04
5.31666666666667e+00 2.64400908100421e-02 3.97347673061920e-04
5.34111111111111e+00 2.61040434136570e-02 3.93198282885351e-04
5.36555555555556e+00 2.57722671016856e-02 3.89088148576858e-04
5.39000000000000e+00 2.54447075890339e-02 3.85016982102962e-04
5.41444444444444e+00 2.51213112817626e-02 3.80984495561637e-04
5.43888888888889e+00 2.48020252659152e-02 3.76990401282368e-04
5.46333333333333e+00 2.44867973012233e-02 3.73034411848042e-04
5.48777777777778e+00 2.41755758102351e-02 3.69116240189860e-04
5.51222222222222e+00 2.38683098721625e-02 3.65235599449357e-04
5.53666666666667e+00 2.35649492128392e-02 3.61392203698133e-04
5.56111111111111e+00 2.32654441965460e-02 3.57585767014803e-04
5.58555555555556e+00 2.29697458194872e-02 3.53816004169904e-04
5.61000000000000e+00 2.26778056996460e-02 3.50082630540626e-04
5.63444444444445e+00 2.23895760709607e-02 3.46385362123544e-04
5.65888888888889e+00 2.21050097734509e-02 3.42723915612987e-04
5.68333333333333e+00 2.18240602475262e-02 3.39098008411423e-04
5.70777777777778e+00 2.15466815243764e-02 3.35507358703713e-04
5.73222222222222e+00 2.12728282204094e-02 3.31951685328190e-04
5.75666666666667e+00 2.10024555283599e-02 3.28430708397353e-04
5.78111111111111e+00 2.07355192100018e-02 3.24944148483092e-04
5.80555555555556e+00 2.04719755902795e-02 3.21491727207421e-04
5.83000000000000e+00 2.02117815483388e-02 3.18073167160139e-04
5.85444444444444e+00 1.99548945122653e-02 3.14688191902430e-04
5.87888888888889e+00 1.97012724503544e-02 3.11336526027932e-04
5.90333333333333e+00 1.94508738659698e-02 3.08017895164534e-04
5.92777777777778e+00 1.92036577890463e-02 3.04732026032156e-04
5.95222222222222e+00 1.89595837710667e-02 3.01478646323038e-04
5.97666666666667e+00 1.87186118771864e-02 2.98257485237707e-04
6.00111111111111e+00 1.84807026797362e-02 2.95068272765715e-04
6.02555555555556e+00 1.82458172529474e-02 2.91910740195676e-04
6.05000000000000e+00 1.80139171650173e-02 2.88784620036829e-04
6.07444444444444e+00 1.77849644733613e-02 2.85689646015895e-04
6.09888888888889e+00 1.75589217168896e-02 2.82625553124228e-04
6.12333333333333e+00 1.73357519113688e-02 2.79592077613431e-04
6.14777777777778e+00 1.71154185419035e-02 2.76588957039874e-04
6.17222222222222e+00 1.68978855584055e-02 2.73615930154135e-04
6.19666666666667e+00 1.66831173686153e-02 2.70672737364336e-04
6.22111111111111e+00 1.64710788323099e-02 2.67759120101041e-04
6.24555555555556e+00 1.62617352565640e-02 2.64874821258125e-04
6.27000000000000e+00 1.60550523887282e-02 2.62019585118720e-04
6.29444444444445e+00 1.58509964121491e-02 2.59193157347236e-04
6.31888888888889e+00 1.56495339393326e-02 2.56395285025383e-04
6.34333333333333e+00 1.54506320077638e-02 2.53625716643282e-04
6.36777777777778e+00 1.52542580732521e-02 2.50884202133406e-04
6.39222222222222e+00 1.50603800058476e-02 2.48170492768887e-04
6.41666666666667e+00 1.48689660836557e-02 2.45484341564491e-04
6.44111111111111e+00 1.46799849876726e-02 2.42825502715668e-04
6.46555555555556e+00 1.44934057975323e-02 2.40193731980043e-04
6.49000000000000e+00 1.43091979852881e-02 2.37588786608018e-04
6.51444444444444e+00 1.41273314115586e-02 2.35010425331322e-04
6.53888888888889e+00 1.39477763194736e-02 2.32458408390187e-04
6.56333333333333e+00 1.37705033309104e-02 2.29932497521290e-04
6.58777777777778e+00 1.35954834405993e-02 2.27432455983251e-04
6.61222222222222e+00 1.34226880124484e-02 2.24958048463417e-04
6.63666666666667e+00 1.32520887740572e-02 2.22509041425124e-04
6.66111111111111e+00 1.30836578121139e-02 2.20085202612181e-04
6.68555555555556e+00 1.29173675685784e-02 2.17686301379292e-04
6.71000000000000e+00 1.27531908351745e-02 2.15312108627345e-04
6.73444444444444e+00 1.25911007499215e-02 2.12962396789642e-04
6.75888888888889e+00 1.24310707917713e-02 2.10636939851999e-04
6.78333333333333e+00 1.22730747772214e-02 2.08335513338552e-04
6.80777777777778e+00 1.21170868550936e-02 2.06057894330527e-04
6.83222222222222e+00 1.19630815032269e-02 2.03803861381013e-04
6.85666666666667e+00 1.18110335236111e-02 2.01573194815996e-04
6.88111111111111e+00 1.16609180382840e-02 1.99365676296528e-04
6.90555555555556e+00 1.15127104859076e-02 1.97181089105092e-04
6.93000000000000e+00 1.13663866168882e-02 1.95019218085601e-04
6.95444444444444e+00 1.12219224902566e-02 1.92879849628151e-04
6.97888888888889e+00 1.10792944689167e-02 1.90762771683464e-04
7.00333333333333e+00 1.09384792165990e-02 1.88667773747381e-04
7.02777777777778e+00 1.07994536932340e-02 1.86594646874271e-04
7.05222222222222e+00 1.06621951519786e-02 1.84543183599294e-04
7.07666666666667e+00 1.05266811348985e-02 1.82513178199531e-04
7.10111111111111e+00 1.03928894693104e-02 1.80504426307040e-04
7.12555555555556e+00 1.02607982647130e-02 1.78516725157240e-04
7.15000000000000e+00 1.01303859084617e-02 1.76549873533476e-04
7.17444444444445e+00 1.00016310629644e-02 1.74603671750925e-04
7.19888888888889e+00 9.87451266146941e-03 1.72677921666586e-04
7.22333333333333e+00 9.74900990532849e-03 1.70772426663044e-04
7.24777777777778e+00 9.62510225989491e-03 1.68886991657619e-04
7.27222222222222e+00 9.50276945185158e-03 1.67021423031612e-04
7.29666666666667e+00 9.38199146537930e-03 1.65175528856984e-04
7.32111111111111e+00 9.26274853889611e-03 1.63349118554288e-04
7.34555555555556e+00 9.14502116230705e-03 1.61542003108235e-04
7.37000000000000e+00 9.02879007316900e-03 1.59753995016689e-04
7.39444444444444e+00 8.91403625417202e-03 1.57984908274189e-04
7.41888888888889e+00 8.80074092940452e-03 1.56234558378420e-04
7.44333333333333e+00 8.68888556189486e-03 1.54502762313709e-04
7.46777777777778e+00 8.57845184997418e-03 1.52789338556825e-04
7.49222222222222e+00 8.46942172487674e-03 1.51094107012697e-04
7.51666666666667e+00 8.36177734733860e-03 1.49416889211277e-04
7.54111111111111e+00 8.25550110469091e-03 1.47757508005094e-04
7.56555555555556e+00 8.15057560839629e-03 1.46115787756472e-04
7.59000000000000e+00 8.04698369064737e-03 1.44491554290668e-04
7.61444444444444e+00 7.94470840210564e-03 1.42884634879433e-04
7.63888888888889e+00 7.84373300858882e-03 1.41294858244707e-04
7.66333333333333e+00 7.74404098886403e-03 1.39722054542191e-04
7.68777777777778e+00 7.64561603142158e-03 1.38166055364527e-04
7.71222222222222e+00 7.54844203232111e-03 1.36626693682975e-04
