Energy (eV)          EEDF (eV^-(3/2))     First Anisotropy
1.81666666666667e-01 3.79773814527815e-02 4.67551769131896e-05
5.45000000000000e-01 3.65475864737894e-02 7.60082609729167e-05
9.08333333333333e-01 3.51716212623470e-02 9.72155152746241e-05
1.27166666666667e+00 3.38474592062370e-02 1.11540331304132e-04
1.63500000000000e+00 3.25731499909367e-02 1.22088460531722e-04
1.99833333333333e+00 3.13468167196996e-02 1.30093489035694e-04
2.36166666666667e+00 3.01666531733443e-02 1.36222805883714e-04
2.72500000000000e+00 2.90309211254050e-02 1.40895999149069e-04
3.08833333333333e+00 2.79379477884902e-02 1.44401651567763e-04
3.45166666666667e+00 2.68861233613154e-02 1.46950463447730e-04
3.81500000000000e+00 2.58738986448140e-02 1.48702940143470e-04
4.17833333333333e+00 2.48997827630484e-02 1.49785262114389e-04
4.54166666666667e+00 2.39623409745607e-02 1.50299049144672e-04
4.90500000000000e+00 2.30601925510729e-02 1.50327706135381e-04
5.26833333333333e+00 2.21920087452817e-02 1.49940731755984e-04
5.63166666666667e+00 2.13565108388829e-02 1.49196752393280e-04
5.99500000000000e+00 2.05524682535943e-02 1.48145723389472e-04
6.35833333333333e+00 1.97786967395423e-02 1.46830566912300e-04
6.72166666666667e+00 1.90340566347705e-02 1.45288418665907e-04
7.08500000000000e+00 1.83174511826040e-02 1.43551594710838e-04
7.44833333333333e+00 1.76278249168420e-02 1.41648353377882e-04
7.81166666666667e+00 1.69641621100438e-02 1.39603505411247e-04
8.17500000000000e+00 1.63254852744387e-02 1.37438908621171e-04
8.53833333333333e+00 1.57108537226131e-02 1.35173873203977e-04
8.90166666666667e+00 1.51193621842110e-02 1.32825498025588e-04
9.26500000000000e+00 1.45501394702341e-02 1.30408951928084e-04
9.62833333333333e+00 1.40023471901821e-02 1.27937710710024e-04
9.99166666666667e+00 1.34751785189571e-02 1.25423758795627e-04
1.03550000000000e+01 1.29678570080923e-02 1.22877762330703e-04
1.07183333333333e+01 1.24796354352041e-02 1.20309216864747e-04
1.10816666666667e+01 1.20097947191874e-02 1.17726576518249e-04
1.14450000000000e+01 1.15576428463687e-02 1.15137366995907e-04
1.18083333333333e+01 1.11225138528819e-02 1.12548281995251e-04
1.21716666666667e+01 1.07037668550487e-02 1.09965270173407e-04
1.25350000000000e+01 1.03007850935725e-02 1.07393611818494e-04
1.28983333333333e+01 9.91297502638647e-03 1.04837984710052e-04
1.32616666666667e+01 9.53976546362035e-03 1.02302524548779e-04
1.36250000000000e+01 9.18060671666243e-03 9.97908787576630e-05
1.39883333333333e+01 8.83496978952495e-03 9.73062528219670e-05
1.43516666666667e+01 8.50234560723621e-03 9.48514534495538e-05
1.47150000000000e+01 8.18224425813303e-03 9.24289272868746e-05
1.50783333333333e+01 7.87419427306739e-03 9.00407942699628e-05
1.54416666666667e+01 7.57774193721820e-03 8.76888791103945e-05
1.58050000000000e+01 7.29245061530800e-03 8.53747397019650e-05
1.61683333333333e+01 7.01790010912420e-03 8.30996915413249e-05
1.65316666666667e+01 6.75368604379155e-03 8.08648310746562e-05
1.68950000000000e+01 6.49941926677318e-03 7.86710568530558e-05
1.72583333333333e+01 6.25472527520781e-03 7.65190876480109e-05
1.76216666666667e+01 6.01924366862967e-03 7.44094799791044e-05
1.79850000000000e+01 5.79262761363924e-03 7.23426440479505e-05
1.83483333333333e+01 5.57454333347719e-03 7.03188573047484e-05
1.87116666666667e+01 5.36466962002891e-03 6.83382777297473e-05
1.90750000000000e+01 5.16269735695562e-03 6.64009559346733e-05
1.94383333333333e+01 4.96832906474617e-03 6.45068453892080e-05
1.98016666666667e+01 4.78127846560751e-03 6.26558125516196e-05
2.01650000000000e+01 4.60127005864701e-03 6.08476461128673e-05
2.05283333333333e+01 4.42803871437592e-03 5.90820647353934e-05
2.08916666666667e+01 4.26132928677171e-03 5.73587248136842e-05
2.12550000000000e+01 4.10089623481151e-03 5.56772275608669e-05
2.16183333333333e+01 3.94650326105459e-03 5.40371248732841e-05
2.19816666666667e+01 3.79792296577566e-03 5.24379252885000e-05
2.23450000000000e+01 3.65493650977804e-03 5.08790994260042e-05
2.27083333333333e+01 3.51733329226558e-03 4.93600844268122e-05
2.30716666666667e+01 3.38491064249445e-03 4.78802885283617e-05
2.34350000000000e+01 3.25747351935295e-03 4.64390952392956e-05
2.37983333333333e+01 3.13483422425309e-03 4.50358666879496e-05
2.41616666666667e+01 3.01681212623877e-03 4.36699471285486e-05
2.45250000000000e+01 2.90323339431498e-03 4.23406661360730e-05
2.48883333333333e+01 2.79393074155306e-03 4.10473411148488e-05
2.52516666666667e+01 2.68874318003109e-03 3.97892799745686e-05
2.56150000000000e+01 2.58751578233610e-03 3.85657835629616e-05
2.59783333333333e+01 2.49009945349036e-03 3.73761475255027e-05
2.63416666666667e+01 2.39635071249106e-03 3.62196643340457e-05
2.67050000000000e+01 2.30613147980119e-03 3.50956251246280e-05
2.70683333333333e+01 2.21930887407268e-03 3.40033210548175e-05
2.74316666666667e+01 2.13575501740191e-03 3.29420448262260e-05
2.77950000000000e+01 2.05534684597344e-03 3.19110920570834e-05
2.81583333333333e+01 1.97796592888450e-03 3.09097622504228e-05
2.85216666666667e+01 1.90349829454463e-03 2.99373599204258e-05
2.88850000000000e+01 1.83183426194671e-03 2.89931956008639e-05
2.92483333333333e+01 1.76286827919019e-03 2.80765865120984e-05
2.96116666666667e+01 1.69649876873147e-03 2.71868573773348e-05
2.99750000000000e+01 1.63262797703278e-03 2.63233411462010e-05
3.03383333333333e+01 1.57116183064269e-03 2.54853794292487e-05
3.07016666666667e+01 1.51200979825199e-03 2.46723230718228e-05
3.10650000000000e+01 1.45508475671695e-03 2.38835326551987e-05
3.14283333333333e+01 1.40030286278820e-03 2.31183787524058e-05
3.17916666666667e+01 1.34758343014863e-03 2.23762423131579e-05
3.21550000000000e+01 1.29684881002609e-03 2.16565149918695e-05
3.25183333333333e+01 1.24802427686954e-03 2.09585992670783e-05
3.28816666666667e+01 1.20103791874272e-03 2.02819086797407e-05
3.32450000000000e+01 1.15582053093656e-03 1.96258680271886e-05
3.36083333333333e+01 1.11230551407602e-03 1.89899133794072e-05
3.39716666666667e+01 1.07042877642000e-03 1.83734922042418e-05
3.43350000000000e+01 1.03012863905679e-03 1.77760634582782e-05
3.46983333333333e+01 9.91345745090235e-04 1.71970975261480e-05
3.50616666666667e+01 9.54022972553195e-04 1.66360762592731e-05
3.54250000000000e+01 9.18105349924198e-04 1.60924929882610e-05
3.57883333333333e+01 8.83539975188291e-04 1.55658524058238e-05
3.61516666666667e+01 8.50275938211634e-04 1.50556705401950e-05
3.65150000000000e+01 8.18264245455112e-04 1.45614747085526e-05
3.68783333333333e+01 7.87457747836179e-04 1.40828033597152e-05
3.72416666666667e+01 7.57811071537242e-04 1.36192059989957e-05
3.76050000000000e+01 7.29280550914503e-04 1.31702430981164e-05
3.79683333333333e+01 7.01824164203875e-04 1.27354859103384e-05
3.83316666666667e+01 6.75401471847239e-04 1.23145163600225e-05
3.86950000000000e+01 6.49973556704029e-04 1.19069269212681e-05
3.90583333333333e+01 6.25502966748309e-04 1.15123204153422e-05
3.94216666666667e+01 6.01953660096405e-04 1.11303098754236e-05
3.97850000000000e+01 5.79290951725982e-04 1.07605184036087e-05
4.01483333333333e+01 5.57481462404140e-04 1.04025789582844e-05
4.05116666666667e+01 5.36493069688507e-04 1.00561342022943e-05
4.08750000000000e+01 5.16294860445256e-04 9.72083634587647e-06
4.12383333333333e+01 4.96857085330686e-04 9.39634692985730e-06
4.16016666666667e+01 4.78151115116908e-04 9.08233666368226e-06
4.19650000000000e+01 4.60149398377433e-04 8.77848526018593e-06
4.23283333333333e+01 4.42825420918378e-04 8.48448121907527e-06
4.26916666666667e+01 4.26153666850326e-04 8.20002165982545e-06
4.30550000000000e+01 4.10109580878879e-04 7.92481215284851e-06
4.34183333333333e+01 3.94669532147315e-04 7.65856650661333e-06
4.37816666666667e+01 3.79810779538968e-04 7.40100659925166e-06
4.41450000000000e+01 3.65511438071470e-04 7.15186220962068e-06
4.45083333333333e+01 3.51750446671154e-04 6.91087081051831e-06
4.48716666666667e+01 3.38507537246336e-04 6.67777740191821e-06
4.52350000000000e+01 3.25763204738533e-04 6.45233434456450e-06
4.55983333333333e+01 3.13498678401084e-04 6.23430116103659e-06
4.59616666666667e+01 3.01695894233629e-04 6.02344437279221e-06
4.63250000000000e+01 2.90337468292231e-04 5.81953733824723e-06
4.66883333333333e+01 2.79406671091192e-04 5.62236006288907e-06
4.70516666666667e+01 2.68887403033489e-04 5.43169904171608e-06
4.74150000000000e+01 2.58764170625113e-04 5.24734710321073e-06
4.77783333333333e+01 2.49022063660450e-04 5.06910322926439e-06
4.81416666666667e+01 2.39646733323145e-04 4.89677240413205e-06
4.85050000000000e+01 2.30624370988553e-04 4.73016546527433e-06
4.88683333333333e+01 2.21941687890016e-04 4.56909893351696e-06
4.92316666666667e+01 2.13585895599960e-04 4.41339486926889e-06
4.95950000000000e+01 2.05544687138791e-04 4.26288073086711e-06
4.99583333333333e+01 1.97806218852296e-04 4.11738921513176e-06
5.03216666666667e+01 1.90359093014314e-04 3.97675812130363e-06
5.06850000000000e+01 1.83192340991063e-04 3.84083021725787e-06
5.10483333333333e+01 1.76295407089237e-04 3.70945309041575e-06
5.14116666666667e+01 1.69658133049677e-04 3.58247901962965e-06
5.17750000000000e+01 1.63270743043465e-04 3.45976484942384e-06
5.21383333333333e+01 1.57123829276407e-04 3.34117185107270e-06
5.25016666666667e+01 1.51208338168209e-04 3.22656560248603e-06
5.28650000000000e+01 1.45515556980990e-04 3.11581587047461e-06
5.32283333333333e+01 1.40037100989167e-04 3.00879648169419e-06
5.35916666666667e+01 1.34764901160954e-04 2.90538521044929e-06
5.39550000000000e+01 1.29691192241657e-04 2.80546366886029e-06
5.43183333333333e+01 1.24808501318742e-04 2.70891718729297e-06
5.46816666666667e+01 1.20109636842369e-04 2.61563470989878e-06
5.50450000000000e+01 1.15587678005179e-04 2.52550869246948e-06
5.54083333333333e+01 1.11235964550818e-04 2.43843499191835e-06
5.57716666666667e+01 1.07048086987991e-04 2.35431276930095e-06
5.61350000000000e+01 1.03017877125642e-04 2.27304439507848e-06
5.64983333333333e+01 9.91393989897460e-05 2.19453534718169e-06
5.68616666666667e+01 9.54069401011310e-05 2.11869412120441e-06
5.72250000000000e+01 9.18150030403646e-05 2.04543214275128e-06
5.75883333333333e+01 8.83582973522729e-05 1.97466367359666e-06
5.79516666666667e+01 8.50317317719279e-05 1.90630572870815e-06
5.83150000000000e+01 8.18304067071871e-05 1.84027799532456e-06
5.86783333333333e+01 7.87496070235426e-05 1.77650274671520e-06
5.90416666666667e+01 7.57847951152078e-05 1.71490476566919e-06
5.94050000000000e+01 7.29316042054687e-05 1.65541126993215e-06
5.97683333333333e+01 7.01858319161340e-05 1.59795183307364e-06
6.01316666666667e+01 6.75434340918614e-05 1.54245831406706e-06
6.04950000000000e+01 6.50005188293420e-05 1.48886478870619e-06
6.08583333333333e+01 6.25533407460327e-05 1.43710747709746e-06
6.12216666666667e+01 6.01982954758447e-05 1.38712467895274e-06
6.15850000000000e+01 5.79319143478665e-05 1.33885671060654e-06
6.19483333333333e+01 5.57508592783353e-05 1.29224583866447e-06
6.23116666666667e+01 5.36519178647115e-05 1.24723622063462e-06
6.26750000000000e+01 5.16319986432723e-05 1.20377384717193e-06
6.30383333333333e+01 4.96881265365491e-05 1.16180648143202e-06
6.34016666666667e+01 4.78174384807425e-05 1.12128360467533e-06
6.37650000000000e+01 4.60171791992076e-05 1.08215636337511e-06
6.41283333333333e+01 4.42846971449557e-05 1.04437751384622e-06
6.44916666666667e+01 4.26174406034327e-05 1.00790137246816e-06
6.48550000000000e+01 4.10129539257711e-05 9.72683767305809e-07
6.52183333333333e+01 3.94688739125210e-05 9.38681987605340e-07
6.55816666666667e+01 3.79829263401169e-05 9.05854738296238e-07
6.59450000000000e+01 3.65529226038786e-05 8.74162095789409e-07
6.63083333333333e+01 3.51767564949899e-05 8.43565461954937e-07
6.66716666666667e+01 3.38524011045971e-05 8.14027522579564e-07
6.70350000000000e+01 3.25779058319811e-05 7.85512207023059e-07
6.73983333333333e+01 3.13513935120218e-05 7.57984646316228e-07
6.77616666666667e+01 3.01710576558752e-05 7.31411135267217e-07
6.81250000000000e+01 2.90351597845921e-05 7.05759095674431e-07
6.84883333333333e+01 2.79420268689535e-05 6.80997038206464e-07
6.88516666666667e+01 2.68900488701386e-05 6.57094527868188e-07
6.92150000000000e+01 2.58776763633839e-05 6.34022150486403e-07
6.95783333333333e+01 2.49034182562233e-05 6.11751478056116e-07
6.99416666666667e+01 2.39658395965327e-05 5.90255037295169e-07
7.03050000000000e+01 2.30635594546790e-05 5.69506279136576e-07
7.06683333333333e+01 2.21952488898892e-05 5.49479547247872e-07
7.10316666666667e+01 2.13596289966049e-05 5.30150049420577e-07
7.13950000000000e+01 2.05554690170011e-05 5.11493829820755e-07
7.17583333333333e+01 1.97815845285024e-05 4.93487740409533e-07
7.21216666666667e+01 1.90368357025393e-05 4.76109414930937e-07
7.24850000000000e+01 1.83201256223777e-05 4.59337243689412e-07
7.28483333333333e+01 1.76303986677321e-05 4.43150347619908e-07
7.32116666666667e+01 1.69666389628340e-05 4.27528554654371e-07
7.35750000000000e+01 1.63278688772371e-05 4.12452376811483e-07
7.39383333333333e+01 1.57131475860949e-05 3.97902986684162e-07
7.43016666666667e+01 1.51215696869601e-05 3.83862195981015e-07
7.46650000000000e+01 1.45522638636606e-05 3.70312434729363e-07
7.50283333333333e+01 1.40043916031402e-05 3.57236729966287e-07
7.53916666666667e+01 1.34771459626437e-05 3.44618686266666e-07
7.57550000000000e+01 1.29697503789262e-05 3.32442466875702e-07
7.61183333333333e+01 1.24814575246310e-05 3.20692774406784e-07
7.64816666666667e+01 1.20115482095110e-05 3.09354833182224e-07
7.68450000000000e+01 1.15593303191620e-05 2.98414372125787e-07
7.72083333333333e+01 1.11241377957638e-05 2.87857607286749e-07
7.75716666666667e+01 1.07053296587660e-05 2.77671225833147e-07
7.79350000000000e+01 1.03022890590561e-05 2.67842370548258e-07
7.82983333333333e+01 9.91442237053957e-06 2.58358624015220e-07
7.86616666666667e+01 9.54115831730245e-06 2.49207994115498e-07
7.90250000000000e+01 9.18194713065705e-06 2.40378899985863e-07
7.93883333333333e+01 8.83625973950874e-06 2.31860157711914e-07
7.97516666666667e+01 8.50358699241803e-06 2.23640967196487e-07
8.01150000000000e+01 8.18343890633433e-06 2.15710899445479e-07
8.04783333333333e+01 7.87534394500625e-06 2.08059883631582e-07
8.08416666666667e+01 7.57884832562612e-06 2.00678195208556e-07
8.12050000000000e+01 7.29351534927809e-06 1.93556444405256e-07
8.15683333333333e+01 7.01892475781783e-06 1.86685564532839e-07
8.19316666666667e+01 6.75467211590352e-06 1.80056801231319e-07
8.22950000000000e+01 6.50036821426992e-06 1.73661702061330e-07
8.26583333333333e+01 6.25563849654429e-06 1.67492105939151e-07
8.30216666666667e+01 6.02012250846770e-06 1.61540133411612e-07
8.33850000000000e+01 5.79347336607351e-06 1.55798177244616e-07
8.37483333333333e+01 5.57535724483437e-06 1.50258892880518e-07
8.41116666666667e+01 5.36545288876864e-06 1.44915189646425e-07
8.44750000000000e+01 5.16345113646352e-06 1.39760222247241e-07
8.48383333333333e+01 4.96905446577496e-06 1.34787382149314e-07
8.52016666666667e+01 4.78197655630819e-06 1.29990289635472e-07
8.55650000000000e+01 4.60194186699369e-06 1.25362786118407e-07
8.59283333333333e+01 4.42868523029892e-06 1.20898926363147e-07
8.62916666666667e+01 4.26195146227984e-06 1.16592971309768e-07
8.66550000000000e+01 4.10149498610233e-06 1.12439381130402e-07
8.70183333333333e+01 3.94707947038149e-06 1.08432808210980e-07
8.73816666666667e+01 3.79847748163211e-06 1.04568090669598e-07
8.77450000000000e+01 3.65547014873791e-06 1.00840246087254e-07
8.81083333333333e+01 3.51784684061990e-06 9.72444651765668e-08
8.84716666666667e+01 3.38540485647577e-06 9.37761059302242e-08
8.88350000000000e+01 3.25794912674328e-06 9.04306879618280e-08
8.91983333333333e+01 3.13529192582061e-06 8.72038867959230e-08
8.95616666666667e+01 3.01725259598623e-06 8.40915285868756e-08
8.99250000000000e+01 2.90365728088684e-06 8.10895850119704e-08
9.02883333333333e+01 2.79433866949810e-06 7.81941681231299e-08
9.06516666666667e+01 2.68913575006294e-06 7.54015255819985e-08
9.10150000000000e+01 2.58789357256638e-06 7.27080360527109e-08
9.13783333333333e+01 2.49046302053954e-06 7.01102045612205e-08
9.17416666666667e+01 2.39670059175236e-06 6.76046581973180e-08
9.21050000000000e+01 2.30646818652267e-06 6.51881419593149e-08
9.24683333333333e+01 2.21963290433545e-06 6.28575145719416e-08
9.28316666666667e+01 2.13606684838118e-06 6.06097446105740e-08
9.31950000000000e+01 2.05564693688915e-06 5.84419067544811e-08
9.35583333333333e+01 1.97825472186344e-06 5.63511780188519e-08
9.39216666666667e+01 1.90377621487423e-06 5.43348342606411e-08
9.42850000000000e+01 1.83210171891102e-06 5.23902468010555e-08
9.46483333333333e+01 1.76312566683033e-06 5.05148790314577e-08
9.50116666666667e+01 1.69674646608909e-06 4.87062832640224e-08
9.53750000000000e+01 1.63286634888592e-06 4.69620976878021e-08
9.57383333333333e+01 1.57139122817698e-06 4.52800433120651e-08
9.61016666666667e+01 1.51223055929187e-06 4.36579211283991e-08
9.64650000000000e+01 1.45529720637391e-06 4.20936093680431e-08
9.68283333333333e+01 1.40050731405363e-06 4.05850607496759e-08
9.71916666666667e+01 1.34778018411157e-06 3.91302999227450e-08
9.75550000000000e+01 1.29703815644479e-06 3.77274209967915e-08
9.79183333333333e+01 1.24820649469529e-06 3.63745850638587e-08
9.82816666666667e+01 1.20121327632371e-06 3.50700178956718e-08
9.86450000000000e+01 1.15598928652204e-06 3.38120077184575e-08
9.90083333333333e+01 1.11246791627954e-06 3.25989029829956e-08
9.93716666666667e+01 1.07058506440905e-06 3.14291102908752e-08
9.97350000000000e+01 1.03027904299793e-06 3.03010923908266e-08
1.00098333333333e+02 9.91490486558846e-07 2.92133661720306e-08
1.00461666666667e+02 9.54162264709158e-07 2.81645007777747e-08
1.00825000000000e+02 9.18239398009585e-07 2.71531158979908e-08
1.01188333333333e+02 8.83668976471835e-07 2.61778797916803e-08
1.01551666666667e+02 8.50400082778350e-07 2.52375076780766e-08
1.01915000000000e+02 8.18383716227406e-07 2.43307603102574e-08
1.02278333333333e+02 7.87572720630879e-07 2.34564420091972e-08
1.02641666666667e+02 7.57921715767982e-07 2.26133993191951e-08
1.03005000000000e+02 7.29387029611216e-07 2.18005197006762e-08
1.03368333333333e+02 7.01926634064308e-07 2.10167297663956e-08
1.03731666666667e+02 6.75500083861597e-07 2.02609940692908e-08
1.04095000000000e+02 6.50068456173022e-07 1.95323139242563e-08
1.04458333333333e+02 6.25594293329736e-07 1.88297258258595e-08
1.04821666666667e+02 6.02041548360533e-07 1.81523003558277e-08
1.05185000000000e+02 5.79375531172307e-07 1.74991411213085e-08
1.05548333333333e+02 5.57562857503534e-07 1.68693833355491e-08
1.05911666666667e+02 5.36571400376927e-07 1.62621928334274e-08
1.06275000000000e+02 5.16370242139328e-07 1.56767651148903e-08
1.06638333333333e+02 4.96929628965863e-07 1.51123240719214e-08
1.07001666666667e+02 4.78220927586286e-07 1.45681211016240e-08
1.07365000000000e+02 4.60216582546248e-07 1.40434342445967e-08
1.07728333333333e+02 4.42890075658575e-07 1.35375670432082e-08
1.08091666666667e+02 4.26215887430520e-07 1.30498477427316e-08
1.08455000000000e+02 4.10169458977858e-07 1.25796285153902e-08
1.08818333333333e+02 3.94727155885354e-07 1.21262844364815e-08
1.09181666666667e+02 3.79866233824343e-07 1.16892127649641e-08
1.09545000000000e+02 3.65564804613026e-07 1.12678322447905e-08
1.09908333333333e+02 3.51801804006679e-07 1.08615821867901e-08
1.10271666666667e+02 3.38556961050435e-07 1.04699218209314e-08
1.10635000000000e+02 3.25810767834319e-07 1.00923296673610e-08
1.10998333333333e+02 3.13544450785901e-07 9.72830271318685e-09
1.11361666666667e+02 3.01739943352556e-07 9.37735582938130e-09
1.11725000000000e+02 2.90379859048960e-07 9.03902120467599e-09
1.12088333333333e+02 2.79447465871341e-07 8.71284760749035e-09
1.12451666666667e+02 2.68926661947561e-07 8.39839986112053e-09
1.12815000000000e+02 2.58801951518603e-07 8.09525833429606e-09
1.13178333333333e+02 2.49058422134977e-07 7.80301827949738e-09
1.13541666666667e+02 2.39681722952260e-07 7.52128936068552e-09
1.13905000000000e+02 2.30658043327123e-07 7.24969519492685e-09
1.14268333333333e+02 2.21974092493377e-07 6.98787275923622e-09
1.14631666666667e+02 2.13617080215595e-07 6.73547196565861e-09
