################################
# DATA CONSIDERED FOR THE TESTS#
################################

# elastic momentum transfer constant rate coefficient = 1.000000e-12 (m3s-1)
#                                     gas temperature = 300.000000 (K)
#                           mass of the heavy species = 40.000000 (uam)
#               decades of decay ensured for the eedf = 15 
#                 number of cells for the energy grid = 5100 

E/N(Td)              Te_th(eV)            Te_sim(eV)           RelError(Te)         RelError(EEDF)
0.00000000000000e+00 2.58519910116516e-02 2.58509051796855e-02 4.20018700163885e-05 6.05396180088710e-05 
1.00000000000000e+00 3.01268347033801e-02 3.01255705672590e-02 4.19604692464200e-05 6.04202912863007e-05 
2.00000000000000e+00 4.29513657785653e-02 4.29495686020398e-02 4.18421275543904e-05 6.00798279116003e-05 
3.00000000000000e+00 6.43255842372075e-02 6.43228861657419e-02 4.19439869466160e-05 6.03728177752268e-05 
4.00000000000000e+00 9.42494900793065e-02 9.42455232442269e-02 4.20886635697570e-05 6.07901604938911e-05 
5.00000000000000e+00 1.32723083304862e-01 1.32717517362592e-01 4.19365051783617e-05 6.03512763123624e-05 
6.00000000000000e+00 1.79746363913875e-01 1.79738812245798e-01 4.20129114859371e-05 6.05714642478636e-05 
7.00000000000000e+00 2.35319331906345e-01 2.35309445403159e-01 4.20131363855405e-05 6.05721230479732e-05 
8.00000000000000e+00 2.99441987282271e-01 2.99429491775556e-01 4.17293073306569e-05 5.97561289795975e-05 
9.00000000000000e+00 3.72114330041654e-01 3.72098613925675e-01 4.22346432545770e-05 6.12126782637300e-05 
1.00000000000000e+01 4.53336360184494e-01 4.53317243189225e-01 4.21695609446848e-05 6.10241349188609e-05 
1.10000000000000e+01 5.43108077710791e-01 5.43085191962398e-01 4.21384791209625e-05 6.09341818890394e-05 
1.20000000000000e+01 6.41429482620545e-01 6.41402460243948e-01 4.21283669199781e-05 6.09049410189030e-05 
1.30000000000000e+01 7.48300574913756e-01 7.48269235613214e-01 4.18806313830217e-05 6.01904913176455e-05 
1.40000000000000e+01 8.63721354590423e-01 8.63685142956997e-01 4.19251338799243e-05 6.03185582707416e-05 
1.50000000000000e+01 9.87691821650547e-01 9.87650369813256e-01 4.19683917420291e-05 6.04431289525754e-05 
1.60000000000000e+01 1.12021197609413e+00 1.12016491618497e+00 4.20098250718424e-05 6.05625820373084e-05 
1.70000000000000e+01 1.26128181792117e+00 1.26122878207989e+00 4.20491602460038e-05 6.06761162824460e-05 
1.80000000000000e+01 1.41090134713166e+00 1.41084215501821e+00 4.19534034554601e-05 6.03998806705814e-05 
1.90000000000000e+01 1.56907056372561e+00 1.56900465998056e+00 4.20017726272178e-05 6.05393023502014e-05 
2.00000000000000e+01 1.73578946770302e+00 1.73571648440138e+00 4.20461714972619e-05 6.06673992344419e-05 
2.10000000000000e+01 1.91105805906389e+00 1.91097781597659e+00 4.19888275594593e-05 6.05020258026588e-05 
2.20000000000000e+01 2.09487633780821e+00 2.09478827942831e+00 4.20351207897930e-05 6.06355523287063e-05 
2.30000000000000e+01 2.28724430393599e+00 2.28714825002446e+00 4.19954752379626e-05 6.05211710250183e-05 
2.40000000000000e+01 2.48816195744723e+00 2.48805754012334e+00 4.19656459956191e-05 6.04352057651209e-05 
2.50000000000000e+01 2.69762929834192e+00 2.69751596214784e+00 4.20132573987757e-05 6.05724381675869e-05 
2.60000000000000e+01 2.91564632662007e+00 2.91552332818973e+00 4.21856482438060e-05 6.10707259755600e-05 
2.70000000000000e+01 3.14221304228167e+00 3.14208020113506e+00 4.22763017107094e-05 6.13335103729716e-05 
2.80000000000000e+01 3.37732944532674e+00 3.37718695741543e+00 4.21895209261482e-05 6.10819269634279e-05 
2.90000000000000e+01 3.62099553575526e+00 3.62084359594944e+00 4.19607824198788e-05 6.04211896742672e-05 
3.00000000000000e+01 3.87321131356724e+00 3.87304824019841e+00 4.21028845635540e-05 6.08312434377383e-05 
3.10000000000000e+01 4.13397677876267e+00 4.13380276704849e+00 4.20930555472021e-05 6.08028586625069e-05 
3.20000000000000e+01 4.40329193134156e+00 4.40310717615401e+00 4.19584234777903e-05 6.04144114725909e-05 
3.30000000000000e+01 4.68115677130391e+00 4.68095959123313e+00 4.21220822999056e-05 6.08867635183378e-05 
3.40000000000000e+01 4.96757129864971e+00 4.96736188879592e+00 4.21553796017776e-05 6.09830512324304e-05 
3.50000000000000e+01 5.26253551337897e+00 5.26231406923033e+00 4.20793642305902e-05 6.07632866504514e-05 
3.60000000000000e+01 5.56604941549169e+00 5.56581613146807e+00 4.19119569750325e-05 6.02806086342727e-05 
3.70000000000000e+01 5.87811300498787e+00 5.87786620032087e+00 4.19870572048129e-05 6.04969335620030e-05 
3.80000000000000e+01 6.19872628186750e+00 6.19846615128676e+00 4.19651665376578e-05 6.04338387221702e-05 
3.90000000000000e+01 6.52788924613059e+00 6.52761598395720e+00 4.18607245137807e-05 6.01332672694066e-05 
4.00000000000000e+01 6.86560189777713e+00 6.86531382425319e+00 4.19589612437236e-05 6.04159473291010e-05 
4.10000000000000e+01 7.21186423680714e+00 7.21156154621796e+00 4.19711990184984e-05 6.04512011649480e-05 
4.20000000000000e+01 7.56667626322060e+00 7.56635915027307e+00 4.19091469618000e-05 6.02725135121769e-05 
4.30000000000000e+01 7.93003797701751e+00 7.92970476113465e+00 4.20194561274054e-05 6.05904059646653e-05 
4.40000000000000e+01 8.30194937819788e+00 8.30160025383825e+00 4.20532990177836e-05 6.06880137572087e-05 
4.50000000000000e+01 8.68241046676172e+00 8.68204562928461e+00 4.20202982229594e-05 6.05928125317970e-05 
4.60000000000000e+01 9.07142124270900e+00 9.07104088656580e+00 4.19290575339331e-05 6.03298435452574e-05 
4.70000000000000e+01 9.46898170603975e+00 9.46858415072239e+00 4.19850127181575e-05 6.04910213235309e-05 
4.80000000000000e+01 9.87509185675395e+00 9.87467729677271e+00 4.19803670944067e-05 6.04776424798045e-05 
4.90000000000000e+01 1.02897516948516e+01 1.02893203250247e+01 4.19222775916293e-05 6.03103029597579e-05 
5.00000000000000e+01 1.07129612203327e+01 1.07125113602550e+01 4.19921316303843e-05 6.05114469349501e-05 
