Energy (eV)          EEDF (eV^-(3/2))     First Anisotropy
1.90000000000000e-01 1.16870176199519e-01 2.10490319706648e-04
5.70000000000000e-01 1.07201583908927e-01 3.34325778739237e-04
9.50000000000000e-01 9.83328678564093e-02 4.07575874245677e-04
1.33000000000000e+00 9.01978548104346e-02 4.45726684055288e-04
1.71000000000000e+00 8.27358460070983e-02 4.65023755779622e-04
2.09000000000000e+00 7.58911642510415e-02 4.72302126341202e-04
2.47000000000000e+00 6.96127384844100e-02 4.71387410026797e-04
2.85000000000000e+00 6.38537227241491e-02 4.64719221876931e-04
3.23000000000000e+00 5.85711465243626e-02 4.53970835344768e-04
3.61000000000000e+00 5.37255943556902e-02 4.40342466583653e-04
3.99000000000000e+00 4.92809115094164e-02 4.24720265492790e-04
4.37000000000000e+00 4.52039343319373e-02 4.07770993917883e-04
4.75000000000000e+00 4.14642427767527e-02 3.90002415617544e-04
5.13000000000000e+00 3.80339334276659e-02 3.71803875359074e-04
5.51000000000000e+00 3.48874112996261e-02 3.53474692435793e-04
5.89000000000000e+00 3.20011988637477e-02 3.35244673989338e-04
6.27000000000000e+00 2.93537608715641e-02 3.17289319885173e-04
6.65000000000000e+00 2.69253436714546e-02 2.99741328683735e-04
7.03000000000000e+00 2.46978278183169e-02 2.82699452396439e-04
7.41000000000000e+00 2.26545928767443e-02 2.66235405216750e-04
7.79000000000000e+00 2.07803934089460e-02 2.50399314768384e-04
8.17000000000000e+00 1.90612452221045e-02 2.35224062893730e-04
8.55000000000000e+00 1.74843210264146e-02 2.20728767916790e-04
8.93000000000000e+00 1.60378547252629e-02 2.06921594808948e-04
9.31000000000000e+00 1.47110536234178e-02 1.93802033546729e-04
9.69000000000000e+00 1.34940178981780e-02 1.81362752801665e-04
1.00700000000000e+01 1.23776667326186e-02 1.69591111858798e-04
1.04500000000000e+01 1.13536705597863e-02 1.58470395644105e-04
1.08300000000000e+01 1.04143889122863e-02 1.47980824158225e-04
1.12100000000000e+01 9.55281341353223e-03 1.38100377239450e-04
1.15900000000000e+01 8.76251548529190e-03 1.28805467561626e-04
1.19700000000000e+01 8.03759838135367e-03 1.20071488510707e-04
1.23500000000000e+01 7.37265318941539e-03 1.11873258645963e-04
1.27300000000000e+01 6.76271847290814e-03 1.04185380524190e-04
1.31100000000000e+01 6.20324325162505e-03 9.69825285168849e-05
1.34900000000000e+01 5.69005304493835e-03 9.02396777084744e-05
1.38700000000000e+01 5.21931872423841e-03 8.39322838986567e-05
1.42500000000000e+01 4.78752794219000e-03 7.80364230445310e-05
1.46300000000000e+01 4.39145892562722e-03 7.25288970923485e-05
1.50100000000000e+01 4.02815643654485e-03 6.73873120052856e-05
1.53900000000000e+01 3.69490972182102e-03 6.25901328463280e-05
1.57700000000000e+01 3.38923228714469e-03 5.81167199876517e-05
1.61500000000000e+01 3.10884334423271e-03 5.39473498607771e-05
1.65300000000000e+01 2.85165079290636e-03 5.00632231120467e-05
1.69100000000000e+01 2.61573561104943e-03 4.64464625669309e-05
1.72900000000000e+01 2.39933753597466e-03 4.30801030191753e-05
1.76700000000000e+01 2.20084193036135e-03 3.99480745345266e-05
1.80500000000000e+01 2.01876773476520e-03 3.70351806836260e-05
1.84300000000000e+01 1.85175641680903e-03 3.43270728863474e-05
1.88100000000000e+01 1.69856183459968e-03 3.18102218535257e-05
1.91900000000000e+01 1.55804093873767e-03 2.94718869459804e-05
1.95700000000000e+01 1.42914524354344e-03 2.73000841302730e-05
1.99500000000000e+01 1.31091300386345e-03 2.52835530917861e-05
2.03300000000000e+01 1.20246203908390e-03 2.34117239651728e-05
2.07100000000000e+01 1.10298315080901e-03 2.16746840572146e-05
2.10900000000000e+01 1.01173408509047e-03 2.00631448653023e-05
2.14700000000000e+01 9.28033994157631e-04 1.85684096341448e-05
2.18500000000000e+01 8.51258356325071e-04 1.71823416422335e-05
2.22300000000000e+01 7.80834316172881e-04 1.58973333666384e-05
2.26100000000000e+01 7.16236410230719e-04 1.47062766386626e-05
2.29900000000000e+01 6.56982646273203e-04 1.36025338727329e-05
2.33700000000000e+01 6.02630906972605e-04 1.25799104257589e-05
2.37500000000000e+01 5.52775651074966e-04 1.16326281233225e-05
2.41300000000000e+01 5.07044887485739e-04 1.07552999718208e-05
2.45100000000000e+01 4.65097399687308e-04 9.94290606153381e-06
2.48900000000000e+01 4.26620199778623e-04 9.19077065406510e-06
2.52700000000000e+01 3.91326193140441e-04 8.49454043830085e-06
2.56500000000000e+01 3.58952036301266e-04 7.85016393162112e-06
2.60300000000000e+01 3.29256172020626e-04 7.25387199727545e-06
2.64100000000000e+01 3.02017026928601e-04 6.70215944436062e-06
2.67900000000000e+01 2.77031358273453e-04 6.19176767349228e-06
2.71700000000000e+01 2.54112737441712e-04 5.71966832886510e-06
2.75500000000000e+01 2.33090158935658e-04 5.28304791578951e-06
2.79300000000000e+01 2.13806764429165e-04 4.87929334184359e-06
2.83100000000000e+01 1.96118672381562e-04 4.50597833937310e-06
2.86900000000000e+01 1.79893904476765e-04 4.16085072711063e-06
2.90700000000000e+01 1.65011400877390e-04 3.84182046908737e-06
2.94500000000000e+01 1.51360116946239e-04 3.54694848970302e-06
2.98300000000000e+01 1.38838194695420e-04 3.27443620474469e-06
3.02100000000000e+01 1.27352202780935e-04 3.02261572925078e-06
3.05900000000000e+01 1.16816439372006e-04 2.78994072435868e-06
3.09700000000000e+01 1.07152292693570e-04 2.57497784662023e-06
3.13500000000000e+01 9.82876544706598e-05 2.37639876468485e-06
3.17300000000000e+01 9.01563818981494e-05 2.19297270971214e-06
3.21100000000000e+01 8.26978041213848e-05 2.02355952736246e-06
3.24900000000000e+01 7.58562695453432e-05 1.86710320070826e-06
3.28700000000000e+01 6.95807305946083e-05 1.72262581489626e-06
3.32500000000000e+01 6.38243628258764e-05 1.58922193585956e-06
3.36300000000000e+01 5.85442155510331e-05 1.46605337681982e-06
3.40100000000000e+01 5.37008913639517e-05 1.35234432772573e-06
3.43900000000000e+01 4.92582521798271e-05 1.24737682413954e-06
3.47700000000000e+01 4.51831495936809e-05 1.15048653340310e-06
3.51500000000000e+01 4.14451775461294e-05 1.06105883718719e-06
3.55300000000000e+01 3.80164454509479e-05 9.78525190748978e-07
3.59100000000000e+01 3.48713700916422e-05 9.02359740392301e-07
3.62900000000000e+01 3.19864847342785e-05 8.32076181742693e-07
3.66700000000000e+01 2.93402640322828e-05 7.67224842513688e-07
3.70500000000000e+01 2.69129634167500e-05 7.07389974453617e-07
3.74300000000000e+01 2.46864717738863e-05 6.52187240123379e-07
3.78100000000000e+01 2.26441763103500e-05 6.01261381066522e-07
3.81900000000000e+01 2.07708385981921e-05 5.54284054794905e-07
3.85700000000000e+01 1.90524808745175e-05 5.10951828827613e-07
3.89500000000000e+01 1.74762817475001e-05 4.70984320789171e-07
3.93300000000000e+01 1.60304805305697e-05 4.34122474297443e-07
3.97100000000000e+01 1.47042894909688e-05 4.00126961053323e-07
4.00900000000000e+01 1.34878133579275e-05 3.68776700185592e-07
4.04700000000000e+01 1.23719754898747e-05 3.39867486506751e-07
4.08500000000000e+01 1.13484501497862e-05 3.13210719901135e-07
4.12300000000000e+01 1.04096003833488e-05 2.88632228597034e-07
4.16100000000000e+01 9.54842103642293e-06 2.65971179571622e-07
4.19900000000000e+01 8.75848648663242e-06 2.45079069803011e-07
4.23700000000000e+01 8.03390269908547e-06 2.25818792519398e-07
4.27500000000000e+01 7.36926324849413e-06 2.08063773002715e-07
4.31300000000000e+01 6.75960897955463e-06 1.91697168884993e-07
4.35100000000000e+01 6.20039100459772e-06 1.76611130231398e-07
4.38900000000000e+01 5.68743676241895e-06 1.62706115036017e-07
4.42700000000000e+01 5.21691888503946e-06 1.49890256066384e-07
4.46500000000000e+01 4.78532664009891e-06 1.38078775281775e-07
4.50300000000000e+01 4.38943973580052e-06 1.27193442319797e-07
4.54100000000000e+01 4.02630429295550e-06 1.17162073796875e-07
4.57900000000000e+01 3.69321080484440e-06 1.07918070402137e-07
4.61700000000000e+01 3.38767392044459e-06 9.93999889819813e-08
4.65500000000000e+01 3.10741390017783e-06 9.15511470152729e-08
4.69300000000000e+01 2.85033960581163e-06 8.43192570677114e-08
4.73100000000000e+01 2.61453289759483e-06 7.76560889892951e-08
4.76900000000000e+01 2.39823432220777e-06 7.15171577818771e-08
4.80700000000000e+01 2.19982998473890e-06 6.58614352153775e-08
4.84500000000000e+01 2.01783950673402e-06 6.06510834120553e-08
4.88300000000000e+01 1.85090498046824e-06 5.58512087490692e-08
4.92100000000000e+01 1.69778083702359e-06 5.14296345510435e-08
4.95900000000000e+01 1.55732455257390e-06 4.73566911571612e-08
4.99700000000000e+01 1.42848812353264e-06 4.36050220519929e-08
5.03500000000000e+01 1.31031024695604e-06 4.01494048464225e-08
5.07300000000000e+01 1.20190914785632e-06 3.69665859851645e-08
5.11100000000000e+01 1.10247599990658e-06 3.40351281409591e-08
5.14900000000000e+01 1.01126889044639e-06 3.13352693330574e-08
5.18700000000000e+01 9.27607284758420e-07 2.88487928794765e-08
5.22500000000000e+01 8.50866948311909e-07 2.65589073591246e-08
5.26300000000000e+01 7.80475289085475e-07 2.44501358216379e-08
5.30100000000000e+01 7.15907085216521e-07 2.25082135399733e-08
5.33900000000000e+01 6.56680566099366e-07 2.07199936538011e-08
5.37700000000000e+01 6.02353817691525e-07 1.90733601008263e-08
5.41500000000000e+01 5.52521485206634e-07 1.75571472786259e-08
5.45300000000000e+01 5.06811748591396e-07 1.61610659216828e-08
5.49100000000000e+01 4.64883548219320e-07 1.48756347172624e-08
5.52900000000000e+01 4.26424040100979e-07 1.36921172198479e-08
5.56700000000000e+01 3.91146261623040e-07 1.26024636572353e-08
5.60500000000000e+01 3.58786990399157e-07 1.15992572522750e-08
5.64300000000000e+01 3.29104780256712e-07 1.06756647128348e-08
5.68100000000000e+01 3.01878159705071e-07 9.82539056899263e-09
5.71900000000000e+01 2.76903979443373e-07 9.04263506093116e-09
5.75700000000000e+01 2.53995896577900e-07 8.32205530362180e-09
5.79500000000000e+01 2.32982984239143e-07 7.65872947530493e-09
5.83300000000000e+01 2.13708456224326e-07 7.04812379611429e-09
5.87100000000000e+01 1.96028497149413e-07 6.48606208107433e-09
5.90900000000000e+01 1.79811189381862e-07 5.96869766823004e-09
5.94700000000000e+01 1.64935528747518e-07 5.49248753794712e-09
5.98500000000000e+01 1.51290521667432e-07 5.05416845354182e-09
6.02300000000000e+01 1.38774356987946e-07 4.65073496644968e-09
6.06100000000000e+01 1.27293646324730e-07 4.27941914119995e-09
6.09900000000000e+01 1.16762727252650e-07 3.93767186660410e-09
6.13700000000000e+01 1.07103024142282e-07 3.62314562985888e-09
6.17500000000000e+01 9.82424618739959e-08 3.33367863977261e-09
6.21300000000000e+01 9.01149280550829e-08 3.06728019410501e-09
6.25100000000000e+01 8.26597797273061e-08 2.82211719412217e-09
6.28900000000000e+01 7.58213908842085e-08 2.59650171695864e-09
6.32700000000000e+01 6.95487374220141e-08 2.38887956329572e-09
6.36500000000000e+01 6.37950164272663e-08 2.19781970425166e-09
6.40300000000000e+01 5.85172969605481e-08 2.02200455727616e-09
6.44100000000000e+01 5.36761997306332e-08 1.86022102628570e-09
6.47900000000000e+01 4.92356032689832e-08 1.71135224630126e-09
6.51700000000000e+01 4.51623744122341e-08 1.57436997748892e-09
6.55500000000000e+01 4.14261210816872e-08 1.44832759778517e-09
6.59300000000000e+01 3.79989655151907e-08 1.33235364724019e-09
6.63100000000000e+01 3.48553362593957e-08 1.22564588085920e-09
6.66900000000000e+01 3.19717773703569e-08 1.12746579008673e-09
6.70700000000000e+01 2.93267733988399e-08 1.03713355618389e-09
6.74500000000000e+01 2.69005888544789e-08 9.54023401613609e-10
6.78300000000000e+01 2.46751209509580e-08 8.77559308192003e-10
6.82100000000000e+01 2.26337645334866e-08 8.07211073202368e-10
6.85900000000000e+01 2.07612881807343e-08 7.42490676918014e-10
6.89700000000000e+01 1.90437205567722e-08 6.82948937054866e-10
6.93500000000000e+01 1.74682461650411e-08 6.28172427588839e-10
6.97300000000000e+01 1.60231097265268e-08 5.77780641138184e-10
7.01100000000000e+01 1.46975284686637e-08 5.31423375739044e-10
7.04900000000000e+01 1.34816116705209e-08 4.88778328343877e-10
7.08700000000000e+01 1.23662868639607e-08 4.49548878756945e-10
7.12500000000000e+01 1.13432321401273e-08 4.13462048997790e-10
7.16300000000000e+01 1.04048140561738e-08 3.80266624260845e-10
7.20100000000000e+01 9.54403067892589e-09 3.49731422724766e-10
7.23900000000000e+01 8.75445934050400e-09 3.21643702465776e-10
7.27700000000000e+01 8.03020871608966e-09 2.95807694651957e-10
7.31500000000000e+01 7.36587486626557e-09 2.72043253045926e-10
7.35300000000000e+01 6.75650091594420e-09 2.50184610627421e-10
7.39100000000000e+01 6.19754006903175e-09 2.30079234870030e-10
7.42900000000000e+01 5.68482168286460e-09 2.11586773872523e-10
7.46700000000000e+01 5.21452014928504e-09 1.94578086159223e-10
7.50500000000000e+01 4.78312635016512e-09 1.78934347529857e-10
7.54300000000000e+01 4.38742147439601e-09 1.64546228860844e-10
7.58100000000000e+01 4.02445300098058e-09 1.51313139240702e-10
7.61900000000000e+01 3.69151266902873e-09 1.39142529265206e-10
7.65700000000000e+01 3.38611627028052e-09 1.27949249726152e-10
7.69500000000000e+01 3.10598511338042e-09 1.17654961303726e-10
7.73300000000000e+01 2.84902902159989e-09 1.08187591219068e-10
7.77100000000000e+01 2.61333073714712e-09 9.94808331229941e-11
7.80900000000000e+01 2.39713161569789e-09 9.14736867910601e-11
7.84700000000000e+01 2.19881850440841e-09 8.41100344662758e-11
7.88500000000000e+01 2.01691170550152e-09 7.73382509405097e-11
7.92300000000000e+01 1.85005393561736e-09 7.11108446957296e-11
7.96100000000000e+01 1.69700019854969e-09 6.53841276381963e-11
7.99900000000000e+01 1.55660849580404e-09 6.01179111539786e-11
8.03700000000000e+01 1.42783130566521e-09 5.52752263940389e-11
8.07500000000000e+01 1.30970776719586e-09 5.08220668628139e-11
8.11300000000000e+01 1.20135651084777e-09 4.67271515368269e-11
8.15100000000000e+01 1.10196908219182e-09 4.29617068804365e-11
8.18900000000000e+01 1.01080390969851e-09 3.94992662552851e-11
8.22700000000000e+01 9.27180771559921e-10 3.63154853392529e-11
8.26500000000000e+01 8.50475720267903e-10 3.33879722805381e-11
8.30300000000000e+01 7.80116427078495e-10 3.06961314136167e-11
8.34100000000000e+01 7.15577911625756e-10 2.82210194569756e-11
8.37900000000000e+01 6.56378624821800e-10 2.59452131982775e-11
8.41700000000000e+01 6.02076855815920e-10 2.38526877516017e-11
8.45500000000000e+01 5.52267436203605e-10 2.19287045441318e-11
8.49300000000000e+01 5.06578716894168e-10 2.01597082566299e-11
8.53100000000000e+01 4.64669795080100e-10 1.85332320037061e-11
8.56900000000000e+01 4.26227970617428e-10 1.70378100966646e-11
8.60700000000000e+01 3.90966412838035e-10 1.56628977839891e-11
8.64500000000000e+01 3.58622020385047e-10 1.43987974126620e-11
8.68300000000000e+01 3.28953458102633e-10 1.32365904978230e-11
8.72100000000000e+01 3.01739356332600e-10 1.21680752290767e-11
8.75900000000000e+01 2.76776659181997e-10 1.11857089793131e-11
8.79700000000000e+01 2.53879109437442e-10 1.02825554164875e-11
8.83500000000000e+01 2.32875858821483e-10 9.45223585063757e-12
8.87300000000000e+01 2.13610193221536e-10 8.68888447771627e-12
8.91100000000000e+01 1.95938363379779e-10 7.98710720879891e-12
8.94900000000000e+01 1.79728512319306e-10 7.34194379804966e-12
8.98700000000000e+01 1.64859691503603e-10 6.74883300569160e-12
9.02500000000000e+01 1.51220958388490e-10 6.20358055326269e-12
9.06300000000000e+01 1.38710548633009e-10 5.70232964780554e-12
9.10100000000000e+01 1.27235116792745e-10 5.24153386946315e-12
9.13900000000000e+01 1.16709039830090e-10 4.81793223335836e-12
9.17700000000000e+01 1.07053778244642e-10 4.42852625173469e-12
9.21500000000000e+01 9.81972900568591e-11 4.07055883623276e-12
9.25300000000000e+01 9.00734932724671e-11 3.74149489296705e-12
9.29100000000000e+01 8.26217728168199e-11 3.43900347483891e-12
9.32900000000000e+01 7.57865282602603e-11 3.16094136635415e-12
9.36700000000000e+01 6.95167589598607e-11 2.90533798618360e-12
9.40500000000000e+01 6.37656835221122e-11 2.67038150187915e-12
9.44300000000000e+01 5.84903907472144e-11 2.45440605960084e-12
9.48100000000000e+01 5.36515194505125e-11 2.25588003947975e-12
9.51900000000000e+01 4.92129647720947e-11 2.07339525439088e-12
9.55700000000000e+01 4.51416087832029e-11 1.90565701648911e-12
9.59500000000000e+01 4.14070733793957e-11 1.75147500191501e-12
9.63300000000000e+01 3.79814936166972e-11 1.60975484964731e-12
9.67100000000000e+01 3.48393097994954e-11 1.47949043560466e-12
9.70900000000000e+01 3.19570767688721e-11 1.35975676781498e-12
9.74700000000000e+01 2.93132889683818e-11 1.24970345281020e-12
9.78500000000000e+01 2.68882199820238e-11 1.14854868739640e-12
9.82300000000000e+01 2.46637753471310e-11 1.05557373362293e-12
9.86100000000000e+01 2.26233575439516e-11 9.70117838153460e-13
9.89900000000000e+01 2.07517421545525e-11 8.91573560351577e-13
9.93700000000000e+01 1.90349642670153e-11 8.19382476254097e-13
9.97500000000000e+01 1.74602142773379e-11 7.53031228237086e-13
1.00130000000000e+02 1.60157423115748e-11 6.92047892601028e-13
1.00510000000000e+02 1.46907705550723e-11 6.35998639528867e-13
1.00890000000000e+02 1.34754128346461e-11 5.84484661919997e-13
1.01270000000000e+02 1.23606008536733e-11 5.37139351488351e-13
1.01650000000000e+02 1.13380165297059e-11 4.93625702246941e-13
1.02030000000000e+02 1.04000299297490e-11 4.53633923096491e-13
1.02410000000000e+02 9.53964234011236e-12 4.16879242703321e-13
1.02790000000000e+02 8.75043404605475e-12 3.83099891201560e-13
1.03170000000000e+02 8.02651643158482e-12 3.52055244496496e-13
1.03550000000000e+02 7.36248804201295e-12 3.23524118088161e-13
1.03930000000000e+02 6.75339428141939e-12 2.97303198384815e-13
1.04310000000000e+02 6.19469044432410e-12 2.73205600442506e-13
1.04690000000000e+02 5.68220780572211e-12 2.51059541955763e-13
1.05070000000000e+02 5.21212251646776e-12 2.30707124142096e-13
1.05450000000000e+02 4.78092707192320e-12 2.12003210915047e-13
1.05830000000000e+02 4.38540414098678e-12 1.94814398432221e-13
1.06210000000000e+02 4.02260256022850e-12 1.79018067740917e-13
1.06590000000000e+02 3.68981531401478e-12 1.64501513829128e-13
1.06970000000000e+02 3.38455933632296e-12 1.51161144927819e-13
1.07350000000000e+02 3.10455698353824e-12 1.38901746405382e-13
1.07730000000000e+02 2.84771903999391e-12 1.27635804050363e-13
1.08110000000000e+02 2.61212912945198e-12 1.17282881957199e-13
1.08490000000000e+02 2.39602941621171e-12 1.07769050614781e-13
1.08870000000000e+02 2.19780748915590e-12 9.90263611516799e-14
1.09250000000000e+02 2.01598433087140e-12 9.09923620175968e-14
1.09630000000000e+02 1.84920328207632e-12 8.36096546800228e-14
1.10010000000000e+02 1.69621991901283e-12 7.68254851905228e-14
1.10390000000000e+02 1.55589276827660e-12 7.05913687283253e-14
1.10770000000000e+02 1.42717478980219e-12 6.48627444618058e-14
1.11150000000000e+02 1.30910556445548e-12 5.95986582826340e-14
1.11530000000000e+02 1.20080412794134e-12 5.47614711643087e-14
1.11910000000000e+02 1.10146239755748e-12 5.03165910779213e-14
1.12290000000000e+02 1.01033914274846e-12 4.62322265645354e-14
1.12670000000000e+02 9.26754454471904e-13 4.24791602167142e-14
1.13050000000000e+02 8.50084672110289e-13 3.90305404625542e-14
1.13430000000000e+02 7.79757730076026e-13 3.58616901750715e-14
1.13810000000000e+02 7.15248889388788e-13 3.29499307488623e-14
1.14190000000000e+02 6.56076822376632e-13 3.02744203954351e-14
1.14570000000000e+02 6.01800021287201e-13 2.78160055092895e-14
1.14950000000000e+02 5.52013504012140e-13 2.55570840493768e-14
1.15330000000000e+02 5.06345792344759e-13 2.34814799656898e-14
1.15710000000000e+02 4.64456140224431e-13 2.15743277789829e-14
1.16090000000000e+02 4.26031991286496e-13 1.98219664935784e-14
1.16470000000000e+02 3.90786646747382e-13 1.82118420893674e-14
1.16850000000000e+02 3.58457126224040e-13 1.67324178999428e-14
1.17230000000000e+02 3.28802205526381e-13 1.53730922397233e-14
1.17610000000000e+02 3.01600616781828e-13 1.41241226943467e-14
1.17990000000000e+02 2.76649397462393e-13 1.29765565358821e-14
1.18370000000000e+02 2.53762375995633e-13 1.19221667678760e-14
1.18750000000000e+02 2.32768782660019e-13 1.09533933452017e-14
1.19130000000000e+02 2.13511975400009e-13 1.00632891504240e-14
1.19510000000000e+02 1.95848271053591e-13 9.24547034215905e-15
1.19890000000000e+02 1.79645873271609e-13 8.49407072196550e-15
