Energy (eV)          EEDF (eV^-(3/2))     First Anisotropy
5.92105263157895e-02 6.70350420317227e-02 5.72792618302056e-05
1.77631578947368e-01 6.58299046335816e-02 9.40503146552329e-05
2.96052631578947e-01 6.46464328684045e-02 1.22750336966320e-04
4.14473684210526e-01 6.34842372289504e-02 1.43716521015406e-04
5.32894736842105e-01 6.23429352194067e-02 1.60522914770208e-04
6.51315789473684e-01 6.12221512224769e-02 1.74544285573055e-04
7.69736842105263e-01 6.01215163687442e-02 1.86503741969407e-04
8.88157894736842e-01 5.90406684239855e-02 1.96844843972079e-04
1.00657894736842e+00 5.79792516633439e-02 2.05866270506736e-04
1.12500000000000e+00 5.69369167620498e-02 2.13782253898873e-04
1.24342105263158e+00 5.59133206618108e-02 2.20753654336023e-04
1.36184210526316e+00 5.49081264908847e-02 2.26905531729128e-04
1.48026315789474e+00 5.39210034238310e-02 2.32337807737439e-04
1.59868421052632e+00 5.29516265829323e-02 2.37132095618637e-04
1.71710526315789e+00 5.19996769256344e-02 2.41356272157872e-04
1.83552631578947e+00 5.10648411568350e-02 2.45067650625110e-04
1.95394736842105e+00 5.01468116074396e-02 2.48315249127159e-04
2.07236842105263e+00 4.92452861396914e-02 2.51141452535783e-04
2.19078947368421e+00 4.83599680436125e-02 2.53583258285876e-04
2.30921052631579e+00 4.74905659518286e-02 2.55673229021450e-04
2.42763157894737e+00 4.66367937306055e-02 2.57440233009371e-04
2.54605263157895e+00 4.57983703870254e-02 2.58910025583963e-04
2.66447368421053e+00 4.49750199867159e-02 2.60105715934291e-04
2.78289473684211e+00 4.41664715523582e-02 2.61048144363886e-04
2.90131578947368e+00 4.33724589781798e-02 2.61756189598725e-04
3.01973684210526e+00 4.25927209398499e-02 2.62247022569624e-04
3.13815789473684e+00 4.18270008164250e-02 2.62536318521194e-04
3.25657894736842e+00 4.10750465976267e-02 2.62638435165418e-04
3.37500000000000e+00 4.03366108037538e-02 2.62566562503822e-04
3.49342105263158e+00 3.96114504021845e-02 2.62332850571383e-04
3.61184210526316e+00 3.88993267337501e-02 2.61948519622446e-04
3.73026315789474e+00 3.82000054276072e-02 2.61423955211900e-04
3.84868421052632e+00 3.75132563263799e-02 2.60768789887354e-04
3.96710526315789e+00 3.68388534087231e-02 2.59991974506774e-04
4.08552631578947e+00 3.61765747201224e-02 2.59101841295800e-04
4.20394736842105e+00 3.55262022944944e-02 2.58106159375382e-04
4.32236842105263e+00 3.48875220843062e-02 2.57012183161011e-04
4.44078947368421e+00 3.42603238887190e-02 2.55826695392746e-04
4.55921052631579e+00 3.36444012887043e-02 2.54556045971965e-04
4.67763157894737e+00 3.30395515746867e-02 2.53206186832034e-04
4.79605263157895e+00 3.24455756801280e-02 2.51782701985862e-04
4.91447368421053e+00 3.18622781197925e-02 2.50290835742911e-04
5.03289473684211e+00 3.12894669215195e-02 2.48735518055858e-04
5.15131578947368e+00 3.07269535643668e-02 2.47121386907392e-04
5.26973684210526e+00 3.01745529155367e-02 2.45452808691245e-04
5.38815789473684e+00 2.96320831726378e-02 2.43733897176214e-04
5.50657894736842e+00 2.90993658005721e-02 2.41968530818977e-04
5.62500000000000e+00 2.85762254738969e-02 2.40160368100384e-04
5.74342105263158e+00 2.80624900182398e-02 2.38312861633540e-04
5.86184210526316e+00 2.75579903563509e-02 2.36429271491288e-04
5.98026315789474e+00 2.70625604496695e-02 2.34512677480629e-04
6.09868421052632e+00 2.65760372446335e-02 2.32565990019504e-04
6.21710526315789e+00 2.60982606182543e-02 2.30591960230907e-04
6.33552631578947e+00 2.56290733277482e-02 2.28593189614836e-04
6.45394736842105e+00 2.51683209563986e-02 2.26572139021179e-04
6.57236842105263e+00 2.47158518635539e-02 2.24531136586635e-04
6.69078947368421e+00 2.42715171340613e-02 2.22472385156397e-04
6.80921052631579e+00 2.38351705312659e-02 2.20397969492255e-04
6.92763157894737e+00 2.34066684468252e-02 2.18309863075755e-04
7.04605263157895e+00 2.29858698535588e-02 2.16209933736895e-04
7.16447368421053e+00 2.25726362608472e-02 2.14099949612290e-04
7.28289473684210e+00 2.21668316671972e-02 2.11981584645542e-04
7.40131578947368e+00 2.17683225161113e-02 2.09856423413722e-04
7.51973684210526e+00 2.13769776516205e-02 2.07725965690747e-04
7.63815789473684e+00 2.09926682766961e-02 2.05591630984298e-04
7.75657894736842e+00 2.06152679092477e-02 2.03454762806692e-04
7.87500000000000e+00 2.02446523410452e-02 2.01316632399507e-04
7.99342105263158e+00 1.98806995963901e-02 1.99178442273987e-04
8.11184210526316e+00 1.95232898933503e-02 1.97041329775596e-04
8.23026315789474e+00 1.91723056029290e-02 1.94906370452663e-04
8.34868421052632e+00 1.88276312108325e-02 1.92774580972793e-04
8.46710526315789e+00 1.84891532790562e-02 1.90646921908316e-04
8.58552631578947e+00 1.81567604097595e-02 1.88524300575893e-04
8.70394736842105e+00 1.78303432073686e-02 1.86407573729115e-04
8.82236842105263e+00 1.75097942429949e-02 1.84297549870202e-04
8.94078947368421e+00 1.71950080187291e-02 1.82194991467515e-04
9.05921052631579e+00 1.68858809339833e-02 1.80100617244388e-04
9.17763157894737e+00 1.65823112503094e-02 1.78015104402013e-04
9.29605263157895e+00 1.62841990579689e-02 1.75939090285144e-04
9.41447368421053e+00 1.59914462440210e-02 1.73873174397107e-04
9.53289473684210e+00 1.57039564590420e-02 1.71817920268235e-04
9.65131578947368e+00 1.54216350857511e-02 1.69773857031415e-04
9.76973684210526e+00 1.51443892075905e-02 1.67741480943900e-04
9.88815789473684e+00 1.48721275790033e-02 1.65721256994352e-04
1.00065789473684e+01 1.46047605945284e-02 1.63713620555266e-04
1.01250000000000e+01 1.43422002588290e-02 1.61718978076122e-04
1.02434210526316e+01 1.40843601613535e-02 1.59737709446200e-04
1.03618421052632e+01 1.38311554404655e-02 1.57770168355905e-04
1.04802631578947e+01 1.35825027650705e-02 1.55816683815357e-04
1.05986842105263e+01 1.33383202974027e-02 1.53877561336285e-04
1.07171052631579e+01 1.30985276755849e-02 1.51953083885437e-04
1.08355263157895e+01 1.28630459779700e-02 1.50043513040807e-04
1.09539473684211e+01 1.26317977061027e-02 1.48149089854589e-04
1.10723684210526e+01 1.24047067505422e-02 1.46270035911000e-04
1.11907894736842e+01 1.21816983742294e-02 1.44406554108208e-04
1.13092105263158e+01 1.19626991797204e-02 1.42558829927856e-04
1.14276315789474e+01 1.17476370910944e-02 1.40727030937018e-04
1.15460526315789e+01 1.15364413300319e-02 1.38911309470360e-04
1.16644736842105e+01 1.13290423869387e-02 1.37111802157836e-04
1.17828947368421e+01 1.11253720054453e-02 1.35328630869190e-04
1.19013157894737e+01 1.09253631527800e-02 1.33561903497961e-04
1.20197368421053e+01 1.07289500046639e-02 1.31811714517248e-04
1.21381578947368e+01 1.05360679168896e-02 1.30078145700605e-04
1.22565789473684e+01 1.03466534106111e-02 1.28361266627344e-04
1.23750000000000e+01 1.01606441450726e-02 1.26661135345991e-04
1.24934210526316e+01 9.97797890329019e-03 1.24977798833929e-04
1.26118421052632e+01 9.79859756588038e-03 1.23311293608458e-04
1.27302631578947e+01 9.62244109712856e-03 1.21661646145090e-04
1.28486842105263e+01 9.44945151986845e-03 1.20028873440764e-04
1.29671052631579e+01 9.27957190193349e-03 1.18412983394602e-04
1.30855263157895e+01 9.11274633204057e-03 1.16813975327389e-04
1.32039473684211e+01 8.94891990661893e-03 1.15231840328223e-04
1.33223684210526e+01 8.78803870665469e-03 1.13666561733929e-04
1.34407894736842e+01 8.63004978489128e-03 1.12118115444695e-04
1.35592105263158e+01 8.47490114359323e-03 1.10586470561277e-04
1.36776315789474e+01 8.32254172100800e-03 1.09071588890913e-04
1.37960526315789e+01 8.17292137444452e-03 1.07573426517616e-04
1.39144736842105e+01 8.02599086047124e-03 1.06091933339838e-04
1.40328947368421e+01 7.88170182307395e-03 1.04627053534164e-04
1.41513157894737e+01 7.74000677349465e-03 1.03178725919725e-04
1.42697368421053e+01 7.60085907873409e-03 1.01746884184422e-04
1.43881578947368e+01 7.46421294218346e-03 1.00331457221925e-04
1.45065789473684e+01 7.33002339246487e-03 9.89323693374512e-05
1.46250000000000e+01 7.19824626482241e-03 9.75495405595144e-05
1.47434210526316e+01 7.06883819029340e-03 9.61828868270014e-05
1.48618421052632e+01 6.94175657782707e-03 9.48323202776314e-05
1.49802631578947e+01 6.81695960377941e-03 9.34977494179252e-05
1.50986842105263e+01 6.69440619472906e-03 9.21790793901689e-05
1.52171052631579e+01 6.57405601728855e-03 9.08762121267354e-05
1.53355263157895e+01 6.45586946158837e-03 8.95890465971873e-05
1.54539473684211e+01 6.33980763139731e-03 8.83174789482514e-05
1.55723684210526e+01 6.22583232824719e-03 8.70614027325817e-05
1.56907894736842e+01 6.11390604185482e-03 8.58207090355837e-05
1.58092105263158e+01 6.00399193486109e-03 8.45952868148688e-05
1.59276315789474e+01 5.89605383287596e-03 8.33850225021283e-05
1.60460526315789e+01 5.79005621250340e-03 8.21898009616066e-05
1.61644736842105e+01 5.68596418764474e-03 8.10095051179607e-05
1.62828947368421e+01 5.58374350067200e-03 7.98440161952228e-05
1.64013157894737e+01 5.48336050856677e-03 7.86932138919912e-05
1.65197368421053e+01 5.38478217436761e-03 7.75569764697494e-05
1.66381578947368e+01 5.28797605384199e-03 7.64351809150603e-05
1.67565789473684e+01 5.19291028720054e-03 7.53277030189831e-05
1.68750000000000e+01 5.09955358628051e-03 7.42344175272093e-05
1.69934210526316e+01 5.00787522651996e-03 7.31551982113330e-05
1.71118421052632e+01 4.91784503463198e-03 7.20899180077897e-05
1.72302631578947e+01 4.82943338083186e-03 7.10384490816407e-05
1.73486842105263e+01 4.74261116698249e-03 7.00006629551288e-05
1.74671052631579e+01 4.65734981906754e-03 6.89764305645885e-05
1.75855263157895e+01 4.57362127578918e-03 6.79656223793572e-05
1.77039473684211e+01 4.49139798128051e-03 6.69681084523773e-05
1.78223684210526e+01 4.41065287413764e-03 6.59837585301559e-05
1.79407894736842e+01 4.33135938036459e-03 6.50124420975728e-05
1.80592105263158e+01 4.25349140282249e-03 6.40540285641626e-05
1.81776315789474e+01 4.17702331398392e-03 6.31083869635453e-05
1.82960526315789e+01 4.10192994745598e-03 6.21753865529059e-05
1.84144736842105e+01 4.02818658845360e-03 6.12548965317537e-05
1.85328947368421e+01 3.95576896731335e-03 6.03467861673084e-05
1.86513157894737e+01 3.88465324989902e-03 5.94509248781235e-05
1.87697368421053e+01 3.81481603132452e-03 5.85671822618342e-05
1.88881578947368e+01 3.74623432672269e-03 5.76954281723253e-05
1.90065789473684e+01 3.67888556517113e-03 5.68355327435668e-05
1.91250000000000e+01 3.61274758081004e-03 5.59873664607735e-05
1.92434210526316e+01 3.54779860696503e-03 5.51508001806599e-05
1.93618421052632e+01 3.48401726760025e-03 5.43257051970081e-05
1.94802631578947e+01 3.42138257163247e-03 5.35119532576386e-05
1.95986842105263e+01 3.35987390470632e-03 5.27094166247850e-05
1.97171052631579e+01 3.29947102369391e-03 5.19179680890573e-05
1.98355263157895e+01 3.24015404877973e-03 5.11374810249859e-05
1.99539473684211e+01 3.18190345814013e-03 5.03678294022301e-05
2.00723684210526e+01 3.12470008032591e-03 4.96088878366282e-05
2.01907894736842e+01 3.06852508911621e-03 4.88605315988954e-05
2.03092105263158e+01 3.01335999618722e-03 4.81226367180452e-05
2.04276315789474e+01 2.95918664587274e-03 4.73950797605671e-05
2.05460526315789e+01 2.90598720916238e-03 4.66777382112659e-05
2.06644736842105e+01 2.85374417704989e-03 4.59704902663416e-05
2.07828947368421e+01 2.80244035580941e-03 4.52732148988756e-05
2.09013157894737e+01 2.75205886032305e-03 4.45857918966492e-05
2.10197368421053e+01 2.70258310951304e-03 4.39081018634917e-05
2.11381578947368e+01 2.65399681991912e-03 4.32400262538340e-05
2.12565789473684e+01 2.60628400128177e-03 4.25814473724160e-05
2.13750000000000e+01 2.55942895035976e-03 4.19322484058119e-05
2.14934210526316e+01 2.51341624665982e-03 4.12923134206430e-05
2.16118421052632e+01 2.46823074648507e-03 4.06615273922895e-05
2.17302631578947e+01 2.42385757880659e-03 4.00397762017483e-05
2.18486842105263e+01 2.38028213953389e-03 3.94269466617251e-05
2.19671052631579e+01 2.33749008752387e-03 3.88229265122763e-05
2.20855263157895e+01 2.29546733906491e-03 3.82276044444640e-05
2.22039473684211e+01 2.25420006401886e-03 3.76408700948896e-05
2.23223684210526e+01 2.21367468051056e-03 3.70626140670918e-05
2.24407894736842e+01 2.17387785119866e-03 3.64927279250911e-05
2.25592105263158e+01 2.13479647816280e-03 3.59311042507044e-05
2.26776315789474e+01 2.09641769913165e-03 3.53776364834373e-05
2.27960526315789e+01 2.05872888323294e-03 3.48322191649962e-05
2.29144736842105e+01 2.02171762633650e-03 3.42947477890353e-05
2.30328947368421e+01 1.98537174763459e-03 3.37651188344269e-05
2.31513157894737e+01 1.94967928498584e-03 3.32432297800361e-05
2.32697368421053e+01 1.91462849161038e-03 3.27289790954460e-05
2.33881578947368e+01 1.88020783160650e-03 3.22222662541084e-05
2.35065789473684e+01 1.84640597675685e-03 3.17229917234839e-05
2.36250000000000e+01 1.81321180221142e-03 3.12310569766840e-05
2.37434210526316e+01 1.78061438340118e-03 3.07463644820953e-05
2.38618421052632e+01 1.74860299188103e-03 3.02688177136257e-05
2.39802631578947e+01 1.71716709234742e-03 2.97983211398792e-05
2.40986842105263e+01 1.68629633863529e-03 2.93347802331039e-05
2.42171052631579e+01 1.65598057083626e-03 2.88781014579784e-05
2.43355263157895e+01 1.62620981144373e-03 2.84281922793650e-05
2.44539473684211e+01 1.59697426256839e-03 2.79849611507568e-05
2.45723684210526e+01 1.56826430222587e-03 2.75483175209204e-05
2.46907894736842e+01 1.54007048164649e-03 2.71181718220618e-05
2.48092105263158e+01 1.51238352169997e-03 2.66944355011329e-05
2.49276315789474e+01 1.48519431018848e-03 2.62770209045471e-05
2.50460526315789e+01 1.45849389883686e-03 2.58658414363470e-05
2.51644736842105e+01 1.43227350002547e-03 2.54608114498681e-05
2.52828947368421e+01 1.40652448432523e-03 2.50618462636114e-05
2.54013157894737e+01 1.38123837724022e-03 2.46688621646849e-05
2.55197368421053e+01 1.35640685682628e-03 2.42817763962597e-05
2.56381578947368e+01 1.33202175055381e-03 2.39005071602350e-05
2.57565789473684e+01 1.30807503300727e-03 2.35249736045945e-05
2.58750000000000e+01 1.28455882286359e-03 2.31550958253552e-05
2.59934210526316e+01 1.26146538066993e-03 2.27907948538570e-05
2.61118421052632e+01 1.23878710593335e-03 2.24319926580526e-05
2.62302631578947e+01 1.21651653497425e-03 2.20786121297570e-05
2.63486842105263e+01 1.19464633812318e-03 2.17305770853327e-05
2.64671052631579e+01 1.17316931764739e-03 2.13878122529271e-05
2.65855263157895e+01 1.15207840505083e-03 2.10502432726012e-05
2.67039473684211e+01 1.13136665907139e-03 2.07177966835789e-05
2.68223684210526e+01 1.11102726308015e-03 2.03903999238675e-05
2.69407894736842e+01 1.09105352314705e-03 2.00679813175395e-05
2.70592105263158e+01 1.07143886553567e-03 1.97504700913161e-05
2.71776315789474e+01 1.05217683476496e-03 1.94377962918797e-05
2.72960526315789e+01 1.03326109147761e-03 1.91298908887510e-05
2.74144736842105e+01 1.01468541014447e-03 1.88266856964878e-05
2.75328947368421e+01 9.96443677293160e-04 1.85281133812728e-05
2.76513157894737e+01 9.78529889224735e-04 1.82341074591134e-05
2.77697368421053e+01 9.60938150302970e-04 1.79446022833485e-05
2.78881578947368e+01 9.43662670754809e-04 1.76595330425116e-05
2.80065789473684e+01 9.26697765018215e-04 1.73788357479462e-05
2.81250000000000e+01 9.10037849623321e-04 1.71024472313647e-05
2.82434210526316e+01 8.93677441596900e-04 1.68303051325870e-05
2.83618421052632e+01 8.77611156421193e-04 1.65623478968228e-05
2.84802631578947e+01 8.61833706493120e-04 1.62985147625447e-05
2.85986842105263e+01 8.46339899157892e-04 1.60387457585217e-05
2.87171052631579e+01 8.31124635221124e-04 1.57829816918363e-05
2.88355263157895e+01 8.16182907054462e-04 1.55311641446957e-05
2.89539473684211e+01 8.01509797158814e-04 1.52832354626008e-05
2.90723684210526e+01 7.87100476339331e-04 1.50391387509589e-05
2.91907894736842e+01 7.72950202318028e-04 1.47988178634131e-05
2.93092105263158e+01 7.59054317975546e-04 1.45622174101425e-05
2.94276315789474e+01 7.45408249965652e-04 1.43292826986898e-05
2.95460526315789e+01 7.32007507205548e-04 1.40999598011456e-05
2.96644736842105e+01 7.18847679260908e-04 1.38741954984080e-05
2.97828947368421e+01 7.05924435075923e-04 1.36519372819689e-05
2.99013157894737e+01 6.93233521370333e-04 1.34331333500176e-05
3.00197368421053e+01 6.80770761413212e-04 1.32177325963565e-05
3.01381578947368e+01 6.68532053478595e-04 1.30056846063919e-05
3.02565789473684e+01 6.56513369661518e-04 1.27969396462354e-05
3.03750000000000e+01 6.44710754390068e-04 1.25914486585993e-05
3.04934210526316e+01 6.33120323282259e-04 1.23891632520859e-05
3.06118421052632e+01 6.21738261712416e-04 1.21900356970007e-05
3.07302631578947e+01 6.10560823707501e-04 1.19940189148334e-05
3.08486842105263e+01 5.99584330565830e-04 1.18010664740037e-05
3.09671052631579e+01 5.88805169791507e-04 1.16111325795344e-05
3.10855263157895e+01 5.78219793763544e-04 1.14241720687422e-05
3.12039473684211e+01 5.67824718707112e-04 1.12401404011062e-05
3.13223684210526e+01 5.57616523411208e-04 1.10589936539146e-05
3.14407894736842e+01 5.47591848235461e-04 1.08806885123287e-05
3.15592105263158e+01 5.37747393874565e-04 1.07051822730977e-05
3.16776315789474e+01 5.28079920369255e-04 1.05324328022709e-05
3.17960526315789e+01 5.18586246037024e-04 1.03623985792054e-05
3.19144736842105e+01 5.09263246334909e-04 1.01950386566887e-05
3.20328947368421e+01 5.00107852950664e-04 1.00303126603882e-05
3.21513157894737e+01 4.91117052676048e-04 9.86818078443867e-06
3.22697368421053e+01 4.82287886529449e-04 9.70860378217989e-06
3.23881578947368e+01 4.73617448670226e-04 9.55154296174245e-06
3.25065789473684e+01 4.65102885551720e-04 9.39696017698013e-06
3.26250000000000e+01 4.56741394875131e-04 9.24481782306174e-06
3.27434210526316e+01 4.48530224771877e-04 9.09507882759961e-06
3.28618421052632e+01 4.40466672795561e-04 8.94770664625252e-06
3.29802631578947e+01 4.32548085132670e-04 8.80266525404855e-06
3.30986842105263e+01 4.24771855631231e-04 8.65991914100595e-06
3.32171052631579e+01 4.17135425038892e-04 8.51943330364945e-06
3.33355263157895e+01 4.09636280066909e-04 8.38117324065455e-06
3.34539473684210e+01 4.02271952654668e-04 8.24510494455423e-06
3.35723684210526e+01 3.95040019067720e-04 8.11119489741277e-06
3.36907894736842e+01 3.87938099187833e-04 7.97941006272217e-06
3.38092105263158e+01 3.80963855643826e-04 7.84971788665488e-06
3.39276315789474e+01 3.74114993106312e-04 7.72208626786700e-06
3.40460526315789e+01 3.67389257530320e-04 7.59648358638707e-06
3.41644736842105e+01 3.60784435353887e-04 7.47287867511510e-06
3.42828947368421e+01 3.54298352848582e-04 7.35124081826938e-06
3.44013157894737e+01 3.47928875326773e-04 7.23153974720521e-06
3.45197368421053e+01 3.41673906514721e-04 7.11374563294782e-06
3.46381578947368e+01 3.35531387788645e-04 6.99782908205706e-06
3.47565789473684e+01 3.29499297569618e-04 6.88376112933983e-06
3.48750000000000e+01 3.23575650587381e-04 6.77151323376395e-06
3.49934210526316e+01 3.17758497296282e-04 6.66105727134822e-06
3.51118421052632e+01 3.12045923165825e-04 6.55236553112771e-06
3.52302631578947e+01 3.06436048116931e-04 6.44541070821766e-06
3.53486842105263e+01 3.00927025838245e-04 6.34016589983400e-06
3.54671052631579e+01 2.95517043242018e-04 6.23660459852870e-06
3.55855263157895e+01 2.90204319805228e-04 6.13470068826591e-06
3.57039473684210e+01 2.84987107044409e-04 6.03442843782657e-06
3.58223684210526e+01 2.79863687880681e-04 5.93576249694242e-06
3.59407894736842e+01 2.74832376132871e-04 5.83867788986678e-06
3.60592105263158e+01 2.69891515905578e-04 5.74315001537210e-06
3.61776315789474e+01 2.65039481086698e-04 5.64915462519930e-06
3.62960526315789e+01 2.60274674810951e-04 5.55666784305051e-06
3.64144736842105e+01 2.55595528894761e-04 5.46566614423033e-06
3.65328947368421e+01 2.51000503372657e-04 5.37612635379368e-06
3.66513157894737e+01 2.46488085939056e-04 5.28802564290015e-06
3.67697368421053e+01 2.42056791500830e-04 5.20134152293609e-06
3.68881578947368e+01 2.37705161639328e-04 5.11605184193161e-06
3.70065789473684e+01 2.33431764178545e-04 5.03213477883637e-06
3.71250000000000e+01 2.29235192666646e-04 4.94956883999992e-06
3.72434210526316e+01 2.25114065959196e-04 4.86833285359754e-06
3.73618421052632e+01 2.21067027719475e-04 4.78840596617493e-06
