Energy (eV)          EEDF (eV^-(3/2))     First Anisotropy
3.07142857142857e-03 4.92955272219097e+00 3.88686617959638e-03
9.21428571428571e-03 4.84884193440533e+00 6.38725043919316e-03
1.53571428571429e-02 4.76945261143466e+00 8.34998232905182e-03
2.15000000000000e-02 4.69136311753597e+00 9.79216516056907e-03
2.76428571428571e-02 4.61455217039028e+00 1.09551478389639e-02
3.37857142857143e-02 4.53899883687568e+00 1.19315265480364e-02
3.99285714285714e-02 4.46468252603300e+00 1.27698882864583e-02
4.60714285714286e-02 4.39158298449643e+00 1.34999687388443e-02
5.22142857142857e-02 4.31968029025600e+00 1.41417477889465e-02
5.83571428571429e-02 4.24895484739569e+00 1.47095271777321e-02
6.45000000000000e-02 4.17938738108226e+00 1.52140252905293e-02
7.06428571428571e-02 4.11095893184600e+00 1.56635604553830e-02
7.67857142857143e-02 4.04365085083676e+00 1.60647681713811e-02
8.29285714285714e-02 3.97744479435641e+00 1.64230602324137e-02
8.90714285714286e-02 3.91232271921246e+00 1.67429317342345e-02
9.52142857142857e-02 3.84826687754112e+00 1.70281738714253e-02
1.01357142857143e-01 3.78525981200898e+00 1.72820258467939e-02
1.07500000000000e-01 3.72328435143882e+00 1.75072862565931e-02
1.13642857142857e-01 3.66232360483940e+00 1.77063963043949e-02
1.19785714285714e-01 3.60236095899821e+00 1.78815034211998e-02
1.25928571428571e-01 3.54338007215800e+00 1.80345107187743e-02
1.32071428571429e-01 3.48536487012426e+00 1.81671157324516e-02
1.38214285714286e-01 3.42829954188030e+00 1.82808414725369e-02
1.44357142857143e-01 3.37216853528644e+00 1.83770614732152e-02
1.50500000000000e-01 3.31695655283650e+00 1.84570202676493e-02
1.56642857142857e-01 3.26264854716333e+00 1.85218501687865e-02
1.62785714285714e-01 3.20922971793926e+00 1.85725853446195e-02
1.68928571428571e-01 3.15668550681325e+00 1.86101736302324e-02
1.75071428571429e-01 3.10500159379648e+00 1.86354863824270e-02
1.81214285714286e-01 3.05416389335767e+00 1.86493269607300e-02
1.87357142857143e-01 3.00415855058844e+00 1.86524379662474e-02
1.93500000000000e-01 2.95497193742499e+00 1.86455074975560e-02
1.99642857142857e-01 2.90659064870747e+00 1.86291744913742e-02
2.05785714285714e-01 2.85900149922177e+00 1.86040334670477e-02
2.11928571428571e-01 2.81219151939418e+00 1.85706386832318e-02
2.18071428571429e-01 2.76614795200011e+00 1.85295076909208e-02
2.24214285714286e-01 2.72085824868612e+00 1.84811245474587e-02
2.30357142857143e-01 2.67631006655248e+00 1.84259426458381e-02
2.36500000000000e-01 2.63249126478805e+00 1.83643872478158e-02
2.42642857142857e-01 2.58938990119574e+00 1.82968576818915e-02
2.48785714285714e-01 2.54699422944529e+00 1.82237293892372e-02
2.54928571428571e-01 2.50529269535363e+00 1.81453557660689e-02
2.61071428571429e-01 2.46427393391265e+00 1.80620697425009e-02
2.67214285714286e-01 2.42392676619118e+00 1.79741852734779e-02
2.73357142857143e-01 2.38424019628986e+00 1.78819986744230e-02
2.79500000000000e-01 2.34520340834355e+00 1.77857898482377e-02
2.85642857142857e-01 2.30680576344851e+00 1.76858233508014e-02
2.91785714285714e-01 2.26903679714574e+00 1.75823494276169e-02
2.97928571428571e-01 2.23188621617856e+00 1.74756049652767e-02
3.04071428571429e-01 2.19534389582030e+00 1.73658142965294e-02
3.10214285714286e-01 2.15939987711442e+00 1.72531899929473e-02
3.16357142857143e-01 2.12404436416145e+00 1.71379335816554e-02
3.22500000000000e-01 2.08926772144867e+00 1.70202362174298e-02
3.28642857142857e-01 2.05506047112739e+00 1.69002792602735e-02
3.34785714285714e-01 2.02141329072557e+00 1.67782348632557e-02
3.40928571428571e-01 1.98831701030593e+00 1.66542665196143e-02
3.47071428571429e-01 1.95576261006917e+00 1.65285295144835e-02
3.53214285714286e-01 1.92374121789549e+00 1.64011713891786e-02
3.59357142857143e-01 1.89224410692729e+00 1.62723323625713e-02
3.65500000000000e-01 1.86126269319050e+00 1.61421457332003e-02
3.71642857142857e-01 1.83078853317897e+00 1.60107382182704e-02
3.77785714285714e-01 1.80081332178585e+00 1.58782303153523e-02
3.83928571428571e-01 1.77132888980353e+00 1.57447366425868e-02
3.90071428571429e-01 1.74232720177758e+00 1.56103662102058e-02
3.96214285714286e-01 1.71380035381658e+00 1.54752227124960e-02
4.02357142857143e-01 1.68574057143860e+00 1.53394047927185e-02
4.08500000000000e-01 1.65814020745209e+00 1.52030062998917e-02
4.14642857142857e-01 1.63099173981099e+00 1.50661164996504e-02
4.20785714285714e-01 1.60428776975021e+00 1.49288203107308e-02
4.26928571428571e-01 1.57802101958054e+00 1.47911985292326e-02
4.33071428571429e-01 1.55218433076926e+00 1.46533280002666e-02
4.39214285714286e-01 1.52677066198905e+00 1.45152818115897e-02
4.45357142857143e-01 1.50177308719932e+00 1.43771294687560e-02
4.51500000000000e-01 1.47718479375849e+00 1.42389370673361e-02
4.57642857142857e-01 1.45299908051825e+00 1.41007674298308e-02
4.63785714285714e-01 1.42920935614683e+00 1.39626802675513e-02
4.69928571428571e-01 1.40580913718062e+00 1.38247323351365e-02
4.76071428571429e-01 1.38279204630876e+00 1.36869775431816e-02
4.82214285714286e-01 1.36015181063500e+00 1.35494670919624e-02
4.88357142857143e-01 1.33788225996837e+00 1.34122495917493e-02
4.94500000000000e-01 1.31597732514148e+00 1.32753711827195e-02
5.00642857142857e-01 1.29443103631657e+00 1.31388756267306e-02
5.06785714285714e-01 1.27323752148016e+00 1.30028044220982e-02
5.12928571428571e-01 1.25239100471915e+00 1.28671969137316e-02
5.19071428571429e-01 1.23188580468856e+00 1.27320903690824e-02
5.25214285714286e-01 1.21171633306310e+00 1.25975200734128e-02
5.31357142857143e-01 1.19187709301437e+00 1.24635194148996e-02
5.37500000000000e-01 1.17236267771267e+00 1.23301199705648e-02
5.43642857142857e-01 1.15316776882075e+00 1.21973515692490e-02
5.49785714285714e-01 1.13428713514413e+00 1.20652423752330e-02
5.55928571428571e-01 1.11571563110409e+00 1.19338189688257e-02
5.62071428571429e-01 1.09744819536969e+00 1.18031063985890e-02
5.68214285714286e-01 1.07947984947831e+00 1.16731282508619e-02
5.74357142857143e-01 1.06180569647896e+00 1.15439067113325e-02
5.80500000000000e-01 1.04442091959771e+00 1.14154626280079e-02
5.86642857142857e-01 1.02732078089788e+00 1.12878155551464e-02
5.92785714285714e-01 1.01050062007111e+00 1.11609838154821e-02
5.98928571428571e-01 9.93955853083691e-01 1.10349845604106e-02
6.05071428571429e-01 9.77681970955619e-01 1.09098338063734e-02
6.11214285714286e-01 9.61674538531646e-01 1.07855464865518e-02
6.17357142857143e-01 9.45929193272689e-01 1.06621364961921e-02
6.23500000000000e-01 9.30441644066835e-01 1.05396167395561e-02
6.29642857142857e-01 9.15207670037460e-01 1.04179991609043e-02
6.35785714285714e-01 9.00223119461153e-01 1.02972947915692e-02
6.41928571428571e-01 8.85483908566957e-01 1.01775137956288e-02
6.48071428571429e-01 8.70986020446861e-01 1.00586654954422e-02
6.54214285714286e-01 8.56725503961019e-01 9.94075841064828e-03
6.60357142857143e-01 8.42698472661022e-01 9.82380029197252e-03
6.66500000000000e-01 8.28901103730678e-01 9.70779815670649e-03
6.72642857142857e-01 8.15329636925473e-01 9.59275831068305e-03
6.78785714285714e-01 8.01980373604676e-01 9.47868638435087e-03
6.84928571428571e-01 7.88849675665610e-01 9.36558736787186e-03
6.91071428571429e-01 7.75933964571680e-01 9.25346562907463e-03
6.97214285714286e-01 7.63229720377084e-01 9.14232494320661e-03
7.03357142857143e-01 7.50733480767572e-01 9.03216851839998e-03
7.09500000000000e-01 7.38441840116825e-01 8.92299902275815e-03
7.15642857142857e-01 7.26351448542665e-01 8.81481859995098e-03
7.21785714285714e-01 7.14459011041714e-01 8.70762889714061e-03
7.27928571428571e-01 7.02761286543099e-01 8.60143109221649e-03
7.34071428571429e-01 6.91255087041489e-01 8.49622590636649e-03
7.40214285714286e-01 6.79937276728242e-01 8.39201362696841e-03
7.46357142857143e-01 6.68804771136845e-01 8.28879412690677e-03
7.52500000000000e-01 6.57854536302274e-01 8.18656688541240e-03
7.58642857142857e-01 6.47083587920990e-01 8.08533099907556e-03
7.64785714285714e-01 6.36488990577624e-01 7.98508520363185e-03
7.70928571428571e-01 6.26067856904403e-01 7.88582789525605e-03
7.77071428571429e-01 6.15817346807976e-01 7.78755713926643e-03
7.83214285714286e-01 6.05734666695373e-01 7.69027068784863e-03
7.89357142857143e-01 5.95817068712708e-01 7.59396599477486e-03
7.95500000000000e-01 5.86061849996273e-01 7.49864023152563e-03
8.01642857142857e-01 5.76466351924843e-01 7.40429029497657e-03
8.07785714285714e-01 5.67027959428827e-01 7.31091282449562e-03
8.13928571428571e-01 5.57744100243384e-01 7.21850421868602e-03
8.20071428571429e-01 5.48612244218966e-01 7.12706064128899e-03
8.26214285714286e-01 5.39629902631746e-01 7.03657803496692e-03
8.32357142857143e-01 5.30794627505401e-01 6.94705213254349e-03
8.38500000000000e-01 5.22104010943941e-01 6.85847846952144e-03
8.44642857142857e-01 5.13555684466109e-01 6.77085238933839e-03
8.50785714285714e-01 5.05147318388392e-01 6.68416905684013e-03
8.56928571428571e-01 4.96876621161210e-01 6.59842347150070e-03
8.63071428571428e-01 4.88741338754164e-01 6.51361047128404e-03
8.69214285714286e-01 4.80739254041727e-01 6.42972474339010e-03
8.75357142857143e-01 4.72868186199038e-01 6.34676083284042e-03
8.81500000000000e-01 4.65125990107534e-01 6.26471315221586e-03
8.87642857142857e-01 4.57510555762405e-01 6.18357598512556e-03
8.93785714285714e-01 4.50019807721692e-01 6.10334349685566e-03
8.99928571428571e-01 4.42651704516180e-01 6.02400974483646e-03
9.06071428571429e-01 4.35404238101310e-01 5.94556868101369e-03
9.12214285714286e-01 4.28275433309911e-01 5.86801416023649e-03
9.18357142857143e-01 4.21263347313925e-01 5.79133994680007e-03
9.24500000000000e-01 4.14366069094910e-01 5.71553972202294e-03
9.30642857142857e-01 4.07581718916487e-01 5.64060708640233e-03
9.36785714285714e-01 4.00908447832556e-01 5.56653556804320e-03
9.42928571428571e-01 3.94344437162612e-01 5.49331863095838e-03
9.49071428571429e-01 3.87887898003115e-01 5.42094967635282e-03
9.55214285714286e-01 3.81537070739958e-01 5.34942204916734e-03
9.61357142857143e-01 3.75290224568924e-01 5.27872904304187e-03
9.67500000000000e-01 3.69145657023986e-01 5.20886390620379e-03
9.73642857142857e-01 3.63101693507578e-01 5.13981984265773e-03
9.79785714285714e-01 3.57156686851682e-01 5.07159001885994e-03
9.85928571428571e-01 3.51309016851221e-01 5.00416757030275e-03
9.92071428571428e-01 3.45557089828477e-01 4.93754560200941e-03
9.98214285714286e-01 3.39899338198764e-01 4.87171718959854e-03
1.00435714285714e+00 3.34334220063643e-01 4.80667539822201e-03
1.01050000000000e+00 3.28860218713655e-01 4.74241327186976e-03
1.01664285714286e+00 3.23475842308659e-01 4.67892382832991e-03
1.02278571428571e+00 3.18179623434159e-01 4.61620007226672e-03
1.02892857142857e+00 3.12970118748405e-01 4.55423501927038e-03
1.03507142857143e+00 3.07845908446389e-01 4.49302167988275e-03
1.04121428571429e+00 3.02805596017115e-01 4.43255303377148e-03
1.04735714285714e+00 2.97847807858383e-01 4.37282208918991e-03
1.05350000000000e+00 2.92971192769195e-01 4.31382185769261e-03
1.05964285714286e+00 2.88174421716204e-01 4.25554533796434e-03
1.06578571428571e+00 2.83456187426104e-01 4.19798553819591e-03
1.07192857142857e+00 2.78815204069547e-01 4.14113549378470e-03
1.07807142857143e+00 2.74250206788767e-01 4.08498825298081e-03
1.08421428571429e+00 2.69759951476154e-01 4.02953685394590e-03
1.09035714285714e+00 2.65343214431270e-01 3.97477437626308e-03
1.09650000000000e+00 2.60998791913352e-01 3.92069391848509e-03
1.10264285714286e+00 2.56725499928497e-01 3.86728858364719e-03
1.10878571428571e+00 2.52522173868137e-01 3.81455149844197e-03
1.11492857142857e+00 2.48387668226061e-01 3.76247582833154e-03
1.12107142857143e+00 2.44320856181807e-01 3.71105476467047e-03
1.12721428571429e+00 2.40320629399137e-01 3.66028150433664e-03
1.13335714285714e+00 2.36385897720641e-01 3.61014929440602e-03
1.13950000000000e+00 2.32515588772950e-01 3.56065141222408e-03
1.14564285714286e+00 2.28708647773232e-01 3.51178115244306e-03
1.15178571428571e+00 2.24964037208434e-01 3.46353184347697e-03
1.15792857142857e+00 2.21280736582052e-01 3.41589686042269e-03
1.16407142857143e+00 2.17657742046452e-01 3.36886961352239e-03
1.17021428571429e+00 2.14094066219834e-01 3.32244353008408e-03
1.17635714285714e+00 2.10588737914284e-01 3.27661209326838e-03
1.18250000000000e+00 2.07140801787273e-01 3.23136882440438e-03
1.18864285714286e+00 2.03749318166039e-01 3.18670727140225e-03
1.19478571428571e+00 2.00413362762919e-01 3.14262102289160e-03
1.20092857142857e+00 1.97132026448813e-01 3.09910371928292e-03
1.20707142857143e+00 1.93904414928499e-01 3.05614904244088e-03
1.21321428571429e+00 1.90729648574671e-01 3.01375069964014e-03
1.21935714285714e+00 1.87606862185771e-01 2.97190245727257e-03
1.22550000000000e+00 1.84535204678170e-01 2.93059812515720e-03
1.23164285714286e+00 1.81513838927036e-01 2.88983154618915e-03
1.23778571428571e+00 1.78541941513638e-01 2.84959660850192e-03
1.24392857142857e+00 1.75618702522748e-01 2.80988725494704e-03
1.25007142857143e+00 1.72743325255767e-01 2.77069747385821e-03
1.25621428571429e+00 1.69915026080467e-01 2.73202128481522e-03
1.26235714285714e+00 1.67133034215347e-01 2.69385276796169e-03
1.26850000000000e+00 1.64396591457587e-01 2.65618605008631e-03
1.27464285714286e+00 1.61704952039075e-01 2.61901529538103e-03
1.28078571428571e+00 1.59057382402032e-01 2.58233471591350e-03
1.28692857142857e+00 1.56453161017871e-01 2.54613857975967e-03
1.29307142857143e+00 1.53891578133612e-01 2.51042120274826e-03
1.29921428571429e+00 1.51371935636018e-01 2.47517693582995e-03
1.30535714285714e+00 1.48893546859554e-01 2.44040019059741e-03
1.31150000000000e+00 1.46455736345866e-01 2.40608542693791e-03
1.31764285714286e+00 1.44057839713660e-01 2.37222714478609e-03
1.32378571428571e+00 1.41699203459447e-01 2.33881989314937e-03
1.32992857142857e+00 1.39379184795621e-01 2.30585827709033e-03
1.33607142857143e+00 1.37097151426198e-01 2.27333695035130e-03
1.34221428571429e+00 1.34852481424114e-01 2.24125060414830e-03
1.34835714285714e+00 1.32644563060200e-01 2.20959398940117e-03
1.35450000000000e+00 1.30472794590428e-01 2.17836190577996e-03
1.36064285714286e+00 1.28336584138459e-01 2.14754919434799e-03
1.36678571428571e+00 1.26235349518645e-01 2.11715074534604e-03
1.37292857142857e+00 1.24168518091326e-01 2.08716150419182e-03
1.37907142857143e+00 1.22135526564422e-01 2.05757646489386e-03
1.38521428571429e+00 1.20135820882729e-01 2.02839066010865e-03
1.39135714285714e+00 1.18168856075603e-01 1.99959918051798e-03
1.39750000000000e+00 1.16234096068702e-01 1.97119716511175e-03
1.40364285714286e+00 1.14331013578064e-01 1.94317979462664e-03
1.40978571428571e+00 1.12459089952856e-01 1.91554229826484e-03
1.41592857142857e+00 1.10617815046088e-01 1.88827995885228e-03
1.42207142857143e+00 1.08806687039005e-01 1.86138810695881e-03
1.42821428571429e+00 1.07025212341299e-01 1.83486211207617e-03
1.43435714285714e+00 1.05272905455462e-01 1.80869739951885e-03
1.44050000000000e+00 1.03549288810135e-01 1.78288944180314e-03
1.44664285714286e+00 1.01853892664665e-01 1.75743375279688e-03
1.45278571428571e+00 1.00186254969385e-01 1.73232589352197e-03
1.45892857142857e+00 9.85459212501135e-02 1.70756147659183e-03
1.46507142857143e+00 9.69324444526774e-02 1.68313616096366e-03
1.47121428571429e+00 9.53453848530416e-02 1.65904564411031e-03
1.47735714285714e+00 9.37843099364948e-02 1.63528567676956e-03
1.48350000000000e+00 9.22487942500800e-02 1.61185205529505e-03
1.48964285714286e+00 9.07384193166658e-02 1.58874061644077e-03
1.49578571428571e+00 8.92527735107778e-02 1.56594724237538e-03
1.50192857142857e+00 8.77914519554351e-02 1.54346786450143e-03
1.50807142857143e+00 8.63540563844524e-02 1.52129845877269e-03
1.51421428571429e+00 8.49401950615567e-02 1.49943503874737e-03
1.52035714285714e+00 8.35494826727862e-02 1.47787366846641e-03
1.52650000000000e+00 8.21815401957772e-02 1.45661045566623e-03
1.53264285714286e+00 8.08359948224528e-02 1.43564154712973e-03
1.53878571428571e+00 7.95124798486611e-02 1.41496313302157e-03
1.54492857142857e+00 7.82106345820462e-02 1.39457145017663e-03
1.55107142857143e+00 7.69301042200578e-02 1.37446277792244e-03
1.55721428571429e+00 7.56705397772068e-02 1.35463343191382e-03
1.56335714285714e+00 7.44315979892305e-02 1.33507977538302e-03
1.56950000000000e+00 7.32129411972753e-02 1.31579821311670e-03
1.57564285714286e+00 7.20142372783847e-02 1.29678518731205e-03
1.58178571428571e+00 7.08351595473968e-02 1.27803718132692e-03
1.58792857142857e+00 6.96753866746796e-02 1.25955072251243e-03
1.59407142857143e+00 6.85346025780282e-02 1.24132237848611e-03
1.60021428571429e+00 6.74124963572786e-02 1.22334875165974e-03
1.60635714285714e+00 6.63087622089510e-02 1.20562648907173e-03
1.61250000000000e+00 6.52230993236051e-02 1.18815227704144e-03
1.61864285714286e+00 6.41552118233751e-02 1.17092283747617e-03
1.62478571428571e+00 6.31048086747548e-02 1.15393493111617e-03
1.63092857142857e+00 6.20716036151513e-02 1.13718535997530e-03
1.63707142857143e+00 6.10553150570635e-02 1.12067096401691e-03
1.64321428571429e+00 6.00556660293424e-02 1.10438861629627e-03
1.64935714285714e+00 5.90723841011656e-02 1.08833523155728e-03
1.65550000000000e+00 5.81052012910448e-02 1.07250776148789e-03
1.66164285714286e+00 5.71538540107220e-02 1.05690319142870e-03
1.66778571428571e+00 5.62180829876268e-02 1.04151854318198e-03
1.67392857142857e+00 5.52976331993102e-02 1.02635087711531e-03
1.68007142857143e+00 5.43922537884894e-02 1.01139728919674e-03
1.68621428571429e+00 5.35016980103043e-02 9.96654906682364e-04
1.69235714285714e+00 5.26257231646037e-02 9.82120895635815e-04
1.69850000000000e+00 5.17640905152621e-02 9.67792456716340e-04
1.70464285714286e+00 5.09165652398154e-02 9.53666822245743e-04
1.71078571428571e+00 5.00829163605089e-02 9.39741258640778e-04
1.71692857142857e+00 4.92629166857732e-02 9.26013068226548e-04
1.72307142857143e+00 4.84563427348860e-02 9.12479586592326e-04
1.72921428571429e+00 4.76629746906351e-02 8.99138178762675e-04
1.73535714285714e+00 4.68825963390053e-02 8.85986245777184e-04
1.74150000000000e+00 4.61149949976231e-02 8.73021220951014e-04
1.74764285714286e+00 4.53599614705623e-02 8.60240567261168e-04
1.75378571428571e+00 4.46172899870274e-02 8.47641779453294e-04
1.75992857142857e+00 4.38867781491191e-02 8.35222385605192e-04
1.76607142857143e+00 4.31682268650116e-02 8.22979944768837e-04
1.77221428571429e+00 4.24614403064845e-02 8.10912043570342e-04
1.77835714285714e+00 4.17662258552024e-02 7.99016301969388e-04
1.78450000000000e+00 4.10823940392405e-02 7.87290369938927e-04
1.79064285714286e+00 4.04097584925472e-02 7.75731925135889e-04
1.79678571428571e+00 3.97481359004118e-02 7.64338674726645e-04
1.80292857142857e+00 3.90973459528484e-02 7.53108356735186e-04
1.80907142857143e+00 3.84572112853146e-02 7.42038737940266e-04
1.81521428571429e+00 3.78275574406263e-02 7.31127610856005e-04
1.82135714285714e+00 3.72082128211083e-02 7.20372798774886e-04
1.82750000000000e+00 3.65990086322786e-02 7.09772152819305e-04
1.83364285714286e+00 3.59997788465007e-02 6.99323549865806e-04
1.83978571428571e+00 3.54103601544815e-02 6.89024894127032e-04
1.84592857142857e+00 3.48305919236731e-02 6.78874118314428e-04
1.85207142857143e+00 3.42603161456713e-02 6.68869181762886e-04
1.85821428571429e+00 3.36993774020744e-02 6.59008067749072e-04
1.86435714285714e+00 3.31476228218616e-02 6.49288787908560e-04
1.87050000000000e+00 3.26049020314209e-02 6.39709379617197e-04
1.87664285714286e+00 3.20710671219681e-02 6.30267904141334e-04
1.88278571428571e+00 3.15459726064058e-02 6.20962448008965e-04
1.88892857142857e+00 3.10294753822050e-02 6.11791124012434e-04
1.89507142857143e+00 3.05214346847241e-02 6.02752069536244e-04
1.90121428571429e+00 3.00217120566118e-02 5.93843444174911e-04
1.90735714285714e+00 2.95301713098432e-02 5.85063433603003e-04
1.91350000000000e+00 2.90466784813676e-02 5.76410247249250e-04
1.91964285714286e+00 2.85711018039154e-02 5.67882116648081e-04
1.92578571428571e+00 2.81033116676208e-02 5.59477296628300e-04
1.93192857142857e+00 2.76431805869046e-02 5.51194066177873e-04
1.93807142857143e+00 2.71905831590404e-02 5.43030726952742e-04
