Energy (eV)          EEDF (eV^-(3/2))     First Anisotropy
3.96428571428571e-04 6.87338199805240e+01 3.76225209816436e-02
1.18928571428571e-03 6.78918174256271e+01 6.19532256851572e-02
1.98214285714286e-03 6.70601295624579e+01 8.13302256902677e-02
2.77500000000000e-03 6.62386300378919e+01 9.57770802099227e-02
3.56785714285714e-03 6.54271940415679e+01 1.07601307448406e-01
4.36071428571429e-03 6.46256982930069e+01 1.17682465922373e-01
5.15357142857143e-03 6.38340210212170e+01 1.26479251999603e-01
5.94642857142857e-03 6.30520419490592e+01 1.34270744171208e-01
6.73928571428572e-03 6.22796422715823e+01 1.41243399907547e-01
7.53214285714286e-03 6.15167046386772e+01 1.47529962109932e-01
8.32500000000000e-03 6.07631131391691e+01 1.53229397551768e-01
9.11785714285714e-03 6.00187532810659e+01 1.58418132823314e-01
9.91071428571429e-03 5.92835119749417e+01 1.63156848415347e-01
1.07035714285714e-02 5.85572775145668e+01 1.67494817183673e-01
1.14964285714286e-02 5.78399395683402e+01 1.71472798707968e-01
1.22892857142857e-02 5.71313891517873e+01 1.75125040301587e-01
1.30821428571429e-02 5.64315186125908e+01 1.78480701933397e-01
1.38750000000000e-02 5.57402216238425e+01 1.81564897930374e-01
1.46678571428571e-02 5.50573931548865e+01 1.84399474557081e-01
1.54607142857143e-02 5.43829294676182e+01 1.87003601919242e-01
1.62535714285714e-02 5.37167280891562e+01 1.89394232021814e-01
1.70464285714286e-02 5.30586878072140e+01 1.91586458513628e-01
1.78392857142857e-02 5.24087086465907e+01 1.93593803253884e-01
1.86321428571429e-02 5.17666918548495e+01 1.95428446599852e-01
1.94250000000000e-02 5.11325398935210e+01 1.97101415381599e-01
2.02178571428571e-02 5.05061564149550e+01 1.98622737171177e-01
2.10107142857143e-02 4.98874462556423e+01 2.00001568276591e-01
2.18035714285714e-02 4.92763154141449e+01 2.01246300764472e-01
2.25964285714286e-02 4.86726710441012e+01 2.02364652571207e-01
2.33892857142857e-02 4.80764214346877e+01 2.03363744154774e-01
2.41821428571429e-02 4.74874759971563e+01 2.04250163514396e-01
2.49750000000000e-02 4.69057452554602e+01 2.05030022438841e-01
2.57678571428571e-02 4.63311408267890e+01 2.05709004882117e-01
2.65607142857143e-02 4.57635754137938e+01 2.06292408985361e-01
2.73535714285714e-02 4.52029627858787e+01 2.06785183741177e-01
2.81464285714286e-02 4.46492177713489e+01 2.07191961071857e-01
2.89392857142857e-02 4.41022562405519e+01 2.07517084239651e-01
2.97321428571429e-02 4.35619950933873e+01 2.07764632596387e-01
3.05250000000000e-02 4.30283522499554e+01 2.07938443872595e-01
3.13178571428571e-02 4.25012466337140e+01 2.08042133853455e-01
3.21107142857143e-02 4.19805981633910e+01 2.08079113969964e-01
3.29035714285714e-02 4.14663277367238e+01 2.08052607073257e-01
3.36964285714286e-02 4.09583572224052e+01 2.07965661565465e-01
3.44892857142857e-02 4.04566094452515e+01 2.07821164292477e-01
3.52821428571429e-02 3.99610081746721e+01 2.07621851897810e-01
3.60750000000000e-02 3.94714781156190e+01 2.07370321397454e-01
3.68678571428571e-02 3.89879448937697e+01 2.07069039650727e-01
3.76607142857143e-02 3.85103350475057e+01 2.06720351997482e-01
3.84535714285714e-02 3.80385760135693e+01 2.06326490155651e-01
3.92464285714286e-02 3.75725961191297e+01 2.05889579403706e-01
4.00392857142857e-02 3.71123245685836e+01 2.05411645299736e-01
4.08321428571429e-02 3.66576914329374e+01 2.04894619596609e-01
4.16250000000000e-02 3.62086276411885e+01 2.04340345929865e-01
4.24178571428571e-02 3.57650649671561e+01 2.03750584946563e-01
4.32107142857143e-02 3.53269360217189e+01 2.03127019051164e-01
4.40035714285714e-02 3.48941742400435e+01 2.02471256810373e-01
4.47964285714286e-02 3.44667138739369e+01 2.01784836997501e-01
4.55892857142857e-02 3.40444899800143e+01 2.01069232464017e-01
4.63821428571429e-02 3.36274384099333e+01 2.00325853517013e-01
4.71750000000000e-02 3.32154958022677e+01 1.99556051274018e-01
4.79678571428571e-02 3.28085995707217e+01 1.98761120691929e-01
4.87607142857143e-02 3.24066878967261e+01 1.97942303401028e-01
4.95535714285714e-02 3.20096997179943e+01 1.97100790367488e-01
5.03464285714286e-02 3.16175747212459e+01 1.96237724351593e-01
5.11392857142857e-02 3.12302533315474e+01 1.95354202314201e-01
5.19321428571429e-02 3.08476767033373e+01 1.94451277481933e-01
5.27250000000000e-02 3.04697867128133e+01 1.93529961469706e-01
5.35178571428571e-02 3.00965259473325e+01 1.92591226191478e-01
5.43107142857143e-02 2.97278376984152e+01 1.91636005663596e-01
5.51035714285714e-02 2.93636659514443e+01 1.90665197716610e-01
5.58964285714286e-02 2.90039553788000e+01 1.89679665579768e-01
5.66892857142857e-02 2.86486513302239e+01 1.88680239467354e-01
5.74821428571429e-02 2.82976998245750e+01 1.87667717909556e-01
5.82750000000000e-02 2.79510475427281e+01 1.86642869170790e-01
5.90678571428571e-02 2.76086418180081e+01 1.85606432518615e-01
5.98607142857143e-02 2.72704306296195e+01 1.84559119429621e-01
6.06535714285714e-02 2.69363625933448e+01 1.83501614744612e-01
6.14464285714286e-02 2.66063869551045e+01 1.82434577738041e-01
6.22392857142857e-02 2.62804535822233e+01 1.81358643213357e-01
6.30321428571429e-02 2.59585129558608e+01 1.80274422396514e-01
6.38250000000000e-02 2.56405161644074e+01 1.79182503925732e-01
6.46178571428571e-02 2.53264148948280e+01 1.78083454729166e-01
6.54107142857143e-02 2.50161614265203e+01 1.76977820863676e-01
6.62035714285714e-02 2.47097086228925e+01 1.75866128325032e-01
6.69964285714286e-02 2.44070099253487e+01 1.74748883796610e-01
6.77892857142857e-02 2.41080193453575e+01 1.73626575434334e-01
6.85821428571429e-02 2.38126914575023e+01 1.72499673486300e-01
6.93750000000000e-02 2.35209813933553e+01 1.71368631007868e-01
7.01678571428571e-02 2.32328448336278e+01 1.70233884488894e-01
7.09607142857143e-02 2.29482380024481e+01 1.69095854455889e-01
7.17535714285714e-02 2.26671176597205e+01 1.67954946058161e-01
7.25464285714286e-02 2.23894410955253e+01 1.66811549607698e-01
7.33392857142857e-02 2.21151661229050e+01 1.65666041158784e-01
7.41321428571429e-02 2.18442510714850e+01 1.64518782948846e-01
7.49250000000000e-02 2.15766547818008e+01 1.63370123929871e-01
7.57178571428571e-02 2.13123365981685e+01 1.62220400228678e-01
7.65107142857143e-02 2.10512563633660e+01 1.61069935590423e-01
7.73035714285714e-02 2.07933744116916e+01 1.59919041813510e-01
7.80964285714286e-02 2.05386515637610e+01 1.58768019148288e-01
7.88892857142857e-02 2.02870491199388e+01 1.57617156735633e-01
7.96821428571429e-02 2.00385288544839e+01 1.56466732927069e-01
8.04750000000000e-02 1.97930530103030e+01 1.55317015688896e-01
8.12678571428571e-02 1.95505842924667e+01 1.54168262947286e-01
8.20607142857143e-02 1.93110858632762e+01 1.53020722921845e-01
8.28535714285714e-02 1.90745213359482e+01 1.51874634455021e-01
8.36464285714286e-02 1.88408547697908e+01 1.50730227312323e-01
8.44392857142857e-02 1.86100506642164e+01 1.49587722520922e-01
8.52321428571429e-02 1.83820739533688e+01 1.48447332605897e-01
8.60250000000000e-02 1.81568900012770e+01 1.47309261903399e-01
8.68178571428571e-02 1.79344645959516e+01 1.46173706824007e-01
8.76107142857143e-02 1.77147639448163e+01 1.45040856107925e-01
8.84035714285714e-02 1.74977546689568e+01 1.43910891078756e-01
8.91964285714286e-02 1.72834037986545e+01 1.42783985873187e-01
8.99892857142857e-02 1.70716787679251e+01 1.41660307706751e-01
9.07821428571429e-02 1.68625474095878e+01 1.40540017050392e-01
9.15750000000000e-02 1.66559779507930e+01 1.39423267876934e-01
9.23678571428571e-02 1.64519390076430e+01 1.38310207865014e-01
9.31607142857143e-02 1.62503995809654e+01 1.37200978597083e-01
9.39535714285714e-02 1.60513290510719e+01 1.36095715757638e-01
9.47464285714286e-02 1.58546971736283e+01 1.34994549311264e-01
9.55392857142857e-02 1.56604740746685e+01 1.33897603714093e-01
9.63321428571429e-02 1.54686302460711e+01 1.32804998047022e-01
9.71250000000000e-02 1.52791365414341e+01 1.31716846212235e-01
9.79178571428572e-02 1.50919641711695e+01 1.30633257092985e-01
9.87107142857143e-02 1.49070846985979e+01 1.29554334709005e-01
9.95035714285714e-02 1.47244700351686e+01 1.28480178373162e-01
1.00296428571429e-01 1.45440924366429e+01 1.27410882825141e-01
1.01089285714286e-01 1.43659244986463e+01 1.26346538407851e-01
1.01882142857143e-01 1.41899391524052e+01 1.25287231186164e-01
1.02675000000000e-01 1.40161096607438e+01 1.24233043130589e-01
1.03467857142857e-01 1.38444096130324e+01 1.23184052085849e-01
1.04260714285714e-01 1.36748129241772e+01 1.22140332007204e-01
1.05053571428571e-01 1.35072938276207e+01 1.21101953209606e-01
1.05846428571429e-01 1.33418268724510e+01 1.20068982298220e-01
1.06639285714286e-01 1.31783869195333e+01 1.19041482346343e-01
1.07432142857143e-01 1.30169491376940e+01 1.18019513006333e-01
1.08225000000000e-01 1.28574889999462e+01 1.17003130666650e-01
1.09017857142857e-01 1.26999822789022e+01 1.15992388405639e-01
1.09810714285714e-01 1.25444050457052e+01 1.14987336190743e-01
1.10603571428571e-01 1.23907336637521e+01 1.13988021090155e-01
1.11396428571429e-01 1.22389447859928e+01 1.12994487199867e-01
1.12189285714286e-01 1.20890153513819e+01 1.12006775792300e-01
1.12982142857143e-01 1.19409225813777e+01 1.11024925405492e-01
1.13775000000000e-01 1.17946439764805e+01 1.10048971973886e-01
1.14567857142857e-01 1.16501573120617e+01 1.09078948777751e-01
1.15360714285714e-01 1.15074406372681e+01 1.08114886612266e-01
1.16153571428571e-01 1.13664722693812e+01 1.07156813968448e-01
1.16946428571429e-01 1.12272307912999e+01 1.06204756959500e-01
1.17739285714286e-01 1.10896950482861e+01 1.05258739445809e-01
1.18532142857143e-01 1.09538441447526e+01 1.04318783107045e-01
1.19325000000000e-01 1.08196574410868e+01 1.03384907551786e-01
1.20117857142857e-01 1.06871145498584e+01 1.02457130265042e-01
1.20910714285714e-01 1.05561953347153e+01 1.01535466752597e-01
1.21703571428571e-01 1.04268799053086e+01 1.00619930696479e-01
1.22496428571429e-01 1.02991486149502e+01 9.97105338824314e-02
1.23289285714286e-01 1.01729820576269e+01 9.88072863056335e-02
1.24082142857143e-01 1.00483610650540e+01 9.79101962292392e-02
1.24875000000000e-01 9.92526670376207e+00 9.70192702767626e-02
1.25667857142857e-01 9.80368027164370e+00 9.61345133793755e-02
1.26460714285714e-01 9.68358329686069e+00 9.52559288997023e-02
1.27253571428571e-01 9.56495753327026e+00 9.43835187660422e-02
1.28046428571429e-01 9.44778495824848e+00 9.35172834021322e-02
1.28839285714286e-01 9.33204776995141e+00 9.26572218169833e-02
1.29632142857143e-01 9.21772838461200e+00 9.18033316525654e-02
1.30425000000000e-01 9.10480943386778e+00 9.09556092620242e-02
1.31217857142857e-01 8.99327376161570e+00 9.01140496578632e-02
1.32010714285714e-01 8.88310442294117e+00 8.92786466185689e-02
1.32803571428571e-01 8.77428467999160e+00 8.84493928049230e-02
1.33596428571429e-01 8.66679799995640e+00 8.76262796927877e-02
1.34389285714286e-01 8.56062805255459e+00 8.68092976497581e-02
1.35182142857143e-01 8.45575870755498e+00 8.59984359740928e-02
1.35975000000000e-01 8.35217403232488e+00 8.51936829611893e-02
1.36767857142857e-01 8.24985828896378e+00 8.43950258533958e-02
1.37560714285714e-01 8.14879593326356e+00 8.36024509321638e-02
1.38353571428571e-01 8.04897161098124e+00 8.28159436191795e-02
1.39146428571429e-01 7.95037015596635e+00 8.20354884125914e-02
1.39939285714286e-01 7.85297658785628e+00 8.12610689526408e-02
1.40732142857143e-01 7.75677610980132e+00 8.04926680534931e-02
1.41525000000000e-01 7.66175410621607e+00 7.97302677599085e-02
1.42317857142857e-01 7.56789614016606e+00 7.89738492991592e-02
1.43110714285714e-01 7.47518795236532e+00 7.82233931609181e-02
1.43903571428571e-01 7.38361545780647e+00 7.74788791854382e-02
1.44696428571429e-01 7.29316474402624e+00 7.67402865034383e-02
1.45489285714286e-01 7.20382206899133e+00 7.60075935924593e-02
1.46282142857143e-01 7.11557385901153e+00 7.52807783028980e-02
1.47075000000000e-01 7.02840670667699e+00 7.45598179064687e-02
1.47867857142857e-01 6.94230736847441e+00 7.38446890504939e-02
1.48660714285714e-01 6.85726276382634e+00 7.31353678273410e-02
1.49453571428571e-01 6.77325997204149e+00 7.24318298515006e-02
1.50246428571429e-01 6.69028623070959e+00 7.17340502031997e-02
1.51039285714286e-01 6.60832893376204e+00 7.10420034769225e-02
1.51832142857143e-01 6.52737562955744e+00 7.03556638026868e-02
1.52625000000000e-01 6.44741401898944e+00 6.96750048875778e-02
1.53417857142857e-01 6.36843195331152e+00 6.89999999725706e-02
1.54210714285714e-01 6.29041743322064e+00 6.83306218930123e-02
1.55003571428571e-01 6.21335860609516e+00 6.76668431461435e-02
1.55796428571429e-01 6.13724376451039e+00 6.70086358384155e-02
1.56589285714286e-01 6.06206134445956e+00 6.63559717273453e-02
1.57382142857143e-01 5.98779992359762e+00 6.57088222388865e-02
1.58175000000000e-01 5.91444821950545e+00 6.50671585030975e-02
1.58967857142857e-01 5.84199508770433e+00 6.44309513135422e-02
1.59760714285714e-01 5.77042952078548e+00 6.38001711800762e-02
1.60553571428571e-01 5.69974064590651e+00 6.31747883881094e-02
1.61346428571429e-01 5.62991772341948e+00 6.25547729495328e-02
1.62139285714286e-01 5.56095014523901e+00 6.19400946388915e-02
1.62932142857143e-01 5.49282743323108e+00 6.13307230075335e-02
1.63725000000000e-01 5.42553923762090e+00 6.07266274142793e-02
1.64517857142857e-01 5.35907533517983e+00 6.01277769873988e-02
1.65310714285714e-01 5.29342562840135e+00 5.95341406707655e-02
1.66103571428571e-01 5.22858014323033e+00 5.89456872759466e-02
1.66896428571429e-01 5.16452902779577e+00 5.83623854366049e-02
1.67689285714286e-01 5.10126255091382e+00 5.77842036398105e-02
1.68482142857143e-01 5.03877110060974e+00 5.72111102375202e-02
1.69275000000000e-01 4.97704518265740e+00 5.66430734729995e-02
1.70067857142857e-01 4.91607541892327e+00 5.60800614453003e-02
1.70860714285714e-01 4.85585254658861e+00 5.55220421496756e-02
1.71653571428571e-01 4.79636741608867e+00 5.49689835234455e-02
1.72446428571429e-01 4.73761098994262e+00 5.44208534037046e-02
1.73239285714286e-01 4.67957434138037e+00 5.38776195544574e-02
1.74032142857143e-01 4.62224865298670e+00 5.33392496758915e-02
1.74825000000000e-01 4.56562521536147e+00 5.28057114271558e-02
1.75617857142857e-01 4.50969542560675e+00 5.22769723932635e-02
1.76410714285714e-01 4.45445078659440e+00 5.17530001205347e-02
1.77203571428571e-01 4.39988290509476e+00 5.12337621570170e-02
1.77996428571429e-01 4.34598349069684e+00 5.07192260133265e-02
1.78789285714286e-01 4.29274435454864e+00 5.02093591861978e-02
1.79582142857143e-01 4.24015740811339e+00 4.97041291659197e-02
1.80375000000000e-01 4.18821466194047e+00 4.92035034559880e-02
1.81167857142857e-01 4.13690822428296e+00 4.87074495423317e-02
1.81960714285714e-01 4.08623030040960e+00 4.82159349244265e-02
1.82753571428571e-01 4.03617319090448e+00 4.77289271509662e-02
1.83546428571429e-01 3.98672929067103e+00 4.72463937836461e-02
1.84339285714286e-01 3.93789108777646e+00 4.67683024176157e-02
1.85132142857143e-01 3.88965116231079e+00 4.62946206873919e-02
1.85925000000000e-01 3.84200218525936e+00 4.58253162838300e-02
1.86717857142857e-01 3.79493691723932e+00 4.53603569255537e-02
1.87510714285714e-01 3.74844820785442e+00 4.48997103862928e-02
1.88303571428571e-01 3.70252899414944e+00 4.44433445263940e-02
1.89096428571429e-01 3.65717229969175e+00 4.39912272593682e-02
1.89889285714286e-01 3.61237123351124e+00 4.35433265696649e-02
1.90682142857143e-01 3.56811898905367e+00 4.30996105173211e-02
1.91475000000000e-01 3.52440884314642e+00 4.26600472526140e-02
1.92267857142857e-01 3.48123415484335e+00 4.22246049895799e-02
1.93060714285714e-01 3.43858836482091e+00 4.17932520300585e-02
1.93853571428571e-01 3.39646499397248e+00 4.13659567915481e-02
1.94646428571429e-01 3.35485764256179e+00 4.09426877763365e-02
1.95439285714286e-01 3.31375998925046e+00 4.05234135869503e-02
1.96232142857143e-01 3.27316579013789e+00 4.01081029297570e-02
1.97025000000000e-01 3.23306887781243e+00 3.96967246276257e-02
1.97817857142857e-01 3.19346316029526e+00 3.92892475954023e-02
1.98610714285714e-01 3.15434262047592e+00 3.88856408610715e-02
1.99403571428571e-01 3.11570131483345e+00 3.84858735904071e-02
2.00196428571429e-01 3.07753337265619e+00 3.80899150585007e-02
2.00989285714286e-01 3.03983299514974e+00 3.76977346631992e-02
2.01782142857143e-01 3.00259445455618e+00 3.73093019278376e-02
2.02575000000000e-01 2.96581209328372e+00 3.69245865121786e-02
2.03367857142857e-01 2.92948032294083e+00 3.65435581897227e-02
2.04160714285714e-01 2.89359362380937e+00 3.61661868663472e-02
2.04953571428571e-01 2.85814654368066e+00 3.57924426021277e-02
2.05746428571429e-01 2.82313369713662e+00 3.54222955851019e-02
2.06539285714286e-01 2.78854976473150e+00 3.50557161429618e-02
2.07332142857143e-01 2.75438949218391e+00 3.46926747450637e-02
2.08125000000000e-01 2.72064768957842e+00 3.43331420118758e-02
2.08917857142857e-01 2.68731923048211e+00 3.39770886940053e-02
2.09710714285714e-01 2.65439905145338e+00 3.36244856886247e-02
2.10503571428571e-01 2.62188215098221e+00 3.32753040588081e-02
2.11296428571429e-01 2.58976358882805e+00 3.29295150093596e-02
2.12089285714286e-01 2.55803848526917e+00 3.25870898969834e-02
2.12882142857143e-01 2.52670202036148e+00 3.22480002317067e-02
2.13675000000000e-01 2.49574943320612e+00 3.19122176850318e-02
2.14467857142857e-01 2.46517602114132e+00 3.15797140705650e-02
2.15260714285714e-01 2.43497713928499e+00 3.12504613584982e-02
2.16053571428571e-01 2.40514819956942e+00 3.09244316927486e-02
2.16846428571429e-01 2.37568467013164e+00 3.06015973687059e-02
2.17639285714286e-01 2.34658207462483e+00 3.02819308420773e-02
2.18432142857143e-01 2.31783599153833e+00 2.99654047298217e-02
2.19225000000000e-01 2.28944205352588e+00 2.96519918171854e-02
2.20017857142857e-01 2.26139594666615e+00 2.93416650398187e-02
2.20810714285714e-01 2.23369341003723e+00 2.90343974965507e-02
2.21603571428571e-01 2.20633023483717e+00 2.87301624645836e-02
2.22396428571429e-01 2.17930226382265e+00 2.84289333790163e-02
2.23189285714286e-01 2.15260539067736e+00 2.81306838405393e-02
2.23982142857143e-01 2.12623555938819e+00 2.78353876159619e-02
2.24775000000000e-01 2.10018876362901e+00 2.75430186442851e-02
2.25567857142857e-01 2.07446104608406e+00 2.72535510201989e-02
2.26360714285714e-01 2.04904849805237e+00 2.69669590053514e-02
2.27153571428571e-01 2.02394725864630e+00 2.66832170418307e-02
2.27946428571429e-01 1.99915351427483e+00 2.64022997333236e-02
2.28739285714286e-01 1.97466349806411e+00 2.61241818518088e-02
2.29532142857143e-01 1.95047348928531e+00 2.58488383377584e-02
2.30325000000000e-01 1.92657981278923e+00 2.55762443053645e-02
2.31117857142857e-01 1.90297883838717e+00 2.53063750273241e-02
2.31910714285714e-01 1.87966698048354e+00 2.50392059447829e-02
2.32703571428571e-01 1.85664069734519e+00 2.47747126793005e-02
2.33496428571429e-01 1.83389649062587e+00 2.45128710155196e-02
2.34289285714286e-01 1.81143090483473e+00 2.42536569069811e-02
2.35082142857143e-01 1.78924052681141e+00 2.39970464760659e-02
2.35875000000000e-01 1.76732198520739e+00 2.37430160184902e-02
2.36667857142857e-01 1.74567194991942e+00 2.34915419892773e-02
2.37460714285714e-01 1.72428713174842e+00 2.32426010115357e-02
2.38253571428571e-01 1.70316428173331e+00 2.29961698870804e-02
2.39046428571429e-01 1.68230019071338e+00 2.27522255804971e-02
2.39839285714286e-01 1.66169168884078e+00 2.25107452241925e-02
2.40632142857143e-01 1.64133564509890e+00 2.22717061181232e-02
2.41425000000000e-01 1.62122896682672e+00 2.20350857336603e-02
2.42217857142857e-01 1.60136859920011e+00 2.18008617006578e-02
2.43010714285714e-01 1.58175152491553e+00 2.15690118152024e-02
2.43803571428571e-01 1.56237476358239e+00 2.13395140490479e-02
2.44596428571429e-01 1.54323537132045e+00 2.11123465349608e-02
2.45389285714286e-01 1.52433044031256e+00 2.08874875711054e-02
2.46182142857143e-01 1.50565709836294e+00 2.06649156206038e-02
2.46975000000000e-01 1.48721250846073e+00 2.04446093148475e-02
2.47767857142857e-01 1.46899386830527e+00 2.02265474415902e-02
2.48560714285714e-01 1.45099841001286e+00 2.00107089517853e-02
2.49353571428571e-01 1.43322339956242e+00 1.97970729679648e-02
2.50146428571429e-01 1.41566613642517e+00 1.95856187707699e-02
