Energy (eV)          EEDF (eV^-(3/2))     First Anisotropy
4.94736842105263e-03 2.79327967349790e+00 2.33881264493034e-03
1.48421052631579e-02 2.74284906927882e+00 3.84009089065594e-03
2.47368421052632e-02 2.69332895235617e+00 5.01152721950018e-03
3.46315789473684e-02 2.64470288471418e+00 5.86705615832269e-03
4.45263157894737e-02 2.59695472478057e+00 6.55264645060511e-03
5.44210526315789e-02 2.55006862270902e+00 7.12445230634342e-03
6.43157894736842e-02 2.50402901458000e+00 7.61201346304358e-03
7.42105263157895e-02 2.45882061765371e+00 8.03345177231972e-03
8.41052631578947e-02 2.41442842501037e+00 8.40097115762531e-03
9.40000000000000e-02 2.37083770063372e+00 8.72332588895418e-03
1.03894736842105e-01 2.32803397465243e+00 9.00708987040366e-03
1.13789473684211e-01 2.28600303845417e+00 9.25737438865946e-03
1.23684210526316e-01 2.24473093975025e+00 9.47826357154347e-03
1.33578947368421e-01 2.20420397829760e+00 9.67309343537583e-03
1.43473684210526e-01 2.16440870119817e+00 9.84463869932287e-03
1.53368421052632e-01 2.12533189843828e+00 9.99524236303744e-03
1.63263157894737e-01 2.08696059872966e+00 1.01269083983841e-02
1.73157894736842e-01 2.04928206449560e+00 1.02413696591690e-02
1.83052631578947e-01 2.01228378837176e+00 1.03401387745521e-02
1.92947368421053e-01 1.97595348880422e+00 1.04245470979184e-02
2.02842105263158e-01 1.94027910597075e+00 1.04957749144610e-02
2.12736842105263e-01 1.90524879778223e+00 1.05548752725437e-02
2.22631578947368e-01 1.87085093594918e+00 1.06027930158558e-02
2.32526315789474e-01 1.83707410226328e+00 1.06403802128701e-02
2.42421052631579e-01 1.80390708437321e+00 1.06684087215167e-02
2.52315789473684e-01 1.77133887250707e+00 1.06875805562579e-02
2.62210526315790e-01 1.73935865566526e+00 1.06985365735183e-02
2.72105263157895e-01 1.70795581803307e+00 1.07018637253505e-02
2.82000000000000e-01 1.67711993545663e+00 1.06981011976537e-02
2.91894736842105e-01 1.64684077208233e+00 1.06877456713830e-02
3.01789473684211e-01 1.61710827665268e+00 1.06712557950347e-02
3.11684210526316e-01 1.58791257948271e+00 1.06490560395886e-02
3.21578947368421e-01 1.55924398907698e+00 1.06215400835367e-02
3.31473684210526e-01 1.53109298891256e+00 1.05890737319826e-02
3.41368421052632e-01 1.50345023428066e+00 1.05519974752036e-02
3.51263157894737e-01 1.47630654925825e+00 1.05106287665811e-02
3.61157894736842e-01 1.44965292343568e+00 1.04652640039292e-02
3.71052631578947e-01 1.42348050915660e+00 1.04161802856481e-02
3.80947368421053e-01 1.39778061850249e+00 1.03636370089992e-02
3.90842105263158e-01 1.37254472040834e+00 1.03078772720801e-02
4.00736842105263e-01 1.34776443783156e+00 1.02491291377294e-02
4.10631578947368e-01 1.32343154497082e+00 1.01876067652705e-02
4.20526315789474e-01 1.29953796459006e+00 1.01235114529191e-02
4.30421052631579e-01 1.27607576517063e+00 1.00570325551485e-02
4.40315789473684e-01 1.25303715844816e+00 9.98834831367470e-03
4.50210526315790e-01 1.23041449676940e+00 9.91762664101351e-03
4.60105263157895e-01 1.20820027055391e+00 9.84502581331346e-03
4.70000000000000e-01 1.18638710580123e+00 9.77069510444642e-03
4.79894736842105e-01 1.16496776168567e+00 9.69477538462822e-03
4.89789473684211e-01 1.14393512802248e+00 9.61739964797681e-03
4.99684210526316e-01 1.12328222304019e+00 9.53869349664097e-03
5.09578947368421e-01 1.10300219101796e+00 9.45877561015073e-03
5.19473684210526e-01 1.08308830000985e+00 9.37775816035431e-03
5.29368421052632e-01 1.06353393961035e+00 9.29574719583446e-03
5.39263157894737e-01 1.04433261879384e+00 9.21284301305291e-03
5.49157894736842e-01 1.02547796365640e+00 9.12914048203729e-03
5.59052631578947e-01 1.00696371540527e+00 9.04472934811943e-03
5.68947368421053e-01 9.88783728245556e-01 8.95969453237343e-03
5.78842105263158e-01 9.70931967340019e-01 8.87411639594184e-03
5.88736842105263e-01 9.53402506806060e-01 8.78807099047222e-03
5.98631578947368e-01 9.36189527748504e-01 8.70163028887598e-03
6.08526315789474e-01 9.19287316354533e-01 8.61486241363256e-03
6.18421052631579e-01 9.02690261916144e-01 8.52783183505214e-03
6.28315789473684e-01 8.86392855049864e-01 8.44059955644509e-03
6.38210526315789e-01 8.70389685839998e-01 8.35322330423981e-03
6.48105263157895e-01 8.54675442042910e-01 8.26575769357429e-03
6.58000000000000e-01 8.39244907323621e-01 8.17825438449059e-03
6.67894736842105e-01 8.24092959545828e-01 8.09076223962916e-03
6.77789473684210e-01 8.09214569005755e-01 8.00332745946719e-03
6.87684210526316e-01 7.94604796829467e-01 7.91599370926321e-03
6.97578947368421e-01 7.80258793310722e-01 7.82880225284819e-03
7.07473684210526e-01 7.66171796301115e-01 7.74179206781370e-03
7.17368421052632e-01 7.52339129629355e-01 7.65499995479245e-03
7.27263157894737e-01 7.38756201566723e-01 7.56846065000535e-03
7.37157894736842e-01 7.25418503248742e-01 7.48220692032137e-03
7.47052631578947e-01 7.12321607233428e-01 7.39626965282102e-03
7.56947368421053e-01 6.99461166012984e-01 7.31067795171567e-03
7.66842105263158e-01 6.86832910570605e-01 7.22545922064419e-03
7.76736842105263e-01 6.74432648963478e-01 7.14063924311429e-03
7.86631578947368e-01 6.62256264931218e-01 7.05624225689507e-03
7.96526315789474e-01 6.50299716543769e-01 6.97229103241187e-03
8.06421052631579e-01 6.38559034816159e-01 6.88880693759981e-03
8.16315789473684e-01 6.27030322435198e-01 6.80580999919235e-03
8.26210526315790e-01 6.15709752450782e-01 6.72331897117435e-03
8.36105263157895e-01 6.04593567005576e-01 6.64135139183945e-03
8.46000000000000e-01 5.93678076087593e-01 6.55992363842559e-03
8.55894736842105e-01 5.82959656317192e-01 6.47905098585441e-03
8.65789473684211e-01 5.72434749708041e-01 6.39874765435472e-03
8.75684210526316e-01 5.62099862522858e-01 6.31902685454717e-03
8.85578947368421e-01 5.51951564101193e-01 6.23990083922305e-03
8.95473684210526e-01 5.41986485720627e-01 6.16138094573667e-03
9.05368421052632e-01 5.32201319478556e-01 6.08347763672979e-03
9.15263157894737e-01 5.22592817204079e-01 6.00620054481969e-03
9.25157894736842e-01 5.13157789349424e-01 5.92955850803066e-03
9.35052631578947e-01 5.03893103961987e-01 5.85355960337310e-03
9.44947368421053e-01 4.94795685634248e-01 5.77821118654560e-03
9.54842105263158e-01 4.85862514482880e-01 5.70351992380381e-03
9.64736842105263e-01 4.77090625146339e-01 5.62949182392738e-03
9.74631578947368e-01 4.68477105800493e-01 5.55613226753815e-03
9.84526315789474e-01 4.60019097200211e-01 5.48344604007192e-03
9.94421052631579e-01 4.51713791705377e-01 5.41143735717364e-03
1.00431578947368e+00 4.43558432374125e-01 5.34010989110153e-03
1.01421052631579e+00 4.35550312024038e-01 5.26946678528978e-03
1.02410526315789e+00 4.27686772430326e-01 5.19951070944429e-03
1.03400000000000e+00 4.19965203220802e-01 5.13024386501432e-03
1.04389473684211e+00 4.12383041225982e-01 5.06166798346778e-03
1.05378947368421e+00 4.04937769552477e-01 4.99378437217150e-03
1.06368421052632e+00 3.97626916813098e-01 4.92659395417205e-03
1.07357894736842e+00 3.90448056107204e-01 4.86009726682850e-03
1.08347368421053e+00 3.83398804416897e-01 4.79429444897645e-03
1.09336842105263e+00 3.76476821808275e-01 4.72918532131225e-03
1.10326315789474e+00 3.69679810471313e-01 4.66476937293483e-03
1.11315789473684e+00 3.63005514142675e-01 4.60104574832414e-03
1.12305263157895e+00 3.56451717349822e-01 4.53801332135875e-03
1.13294736842105e+00 3.50016244506724e-01 4.47567068186357e-03
1.14284210526316e+00 3.43696959362435e-01 4.41401612254204e-03
1.15273684210526e+00 3.37491764285751e-01 4.35304770721131e-03
1.16263157894737e+00 3.31398599413234e-01 4.29276325743895e-03
1.17252631578947e+00 3.25415442122853e-01 4.23316033956746e-03
1.18242105263158e+00 3.19540306356772e-01 4.17423632768140e-03
1.19231578947368e+00 3.13771241818625e-01 4.11598839039052e-03
1.20221052631579e+00 3.08106333471278e-01 4.05841347805214e-03
1.21210526315789e+00 3.02543700895724e-01 4.00150838092355e-03
1.22200000000000e+00 2.97081497534575e-01 3.94526971616343e-03
1.23189473684211e+00 2.91717910213068e-01 3.88969392216833e-03
1.24178947368421e+00 2.86451158491949e-01 3.83477728476737e-03
1.25168421052632e+00 2.81279494115819e-01 3.78051595889207e-03
1.26157894736842e+00 2.76201200313223e-01 3.72690596362011e-03
1.27147368421053e+00 2.71214591347857e-01 3.67394316991710e-03
1.28136842105263e+00 2.66318011954520e-01 3.62162334932236e-03
1.29126315789474e+00 2.61509836679144e-01 3.56994216159177e-03
1.30115789473684e+00 2.56788469451053e-01 3.51889514276053e-03
1.31105263157895e+00 2.52152343049110e-01 3.46847775021872e-03
1.32094736842105e+00 2.47599918479295e-01 3.41868535074824e-03
1.33084210526316e+00 2.43129684567180e-01 3.36951320893308e-03
1.34073684210526e+00 2.38740157452637e-01 3.32095652892180e-03
1.35063157894737e+00 2.34429880002714e-01 3.27301044285996e-03
1.36052631578947e+00 2.30197421423570e-01 3.22566999968200e-03
1.37042105263158e+00 2.26041376782100e-01 3.17893020382761e-03
1.38031578947368e+00 2.21960366452096e-01 3.13278600406280e-03
1.39021052631579e+00 2.17953035744794e-01 3.08723228267622e-03
1.40010526315789e+00 2.14018054455984e-01 3.04226389138783e-03
1.41000000000000e+00 2.10154116343492e-01 2.99787564056650e-03
1.41989473684211e+00 2.06359938775543e-01 2.95406229335236e-03
1.42978947368421e+00 2.02634262277318e-01 2.91081858081742e-03
1.43968421052632e+00 1.98975850137054e-01 2.86813921424990e-03
1.44957894736842e+00 1.95383487922068e-01 2.82601887995859e-03
1.45947368421053e+00 1.91855983149994e-01 2.78445222933120e-03
1.46936842105263e+00 1.88392164890276e-01 2.74343390915063e-03
1.47926315789474e+00 1.84990883307377e-01 2.70295855170855e-03
1.48915789473684e+00 1.81651009348009e-01 2.66302076524989e-03
1.49905263157895e+00 1.78371434363909e-01 2.62361516213449e-03
1.50894736842105e+00 1.75151069680669e-01 2.58473634936740e-03
1.51884210526316e+00 1.71988846300234e-01 2.54637891942540e-03
1.52873684210526e+00 1.68883714543831e-01 2.50853747642995e-03
1.53863157894737e+00 1.65834643644920e-01 2.47120662707726e-03
1.54852631578947e+00 1.62840621466314e-01 2.43438097185024e-03
1.55842105263158e+00 1.59900654162122e-01 2.39805512935259e-03
1.56831578947368e+00 1.57013765793470e-01 2.36222372761980e-03
1.57821052631579e+00 1.54178998059564e-01 2.32688139571533e-03
1.58810526315789e+00 1.51395409977630e-01 2.29202278636116e-03
1.59800000000000e+00 1.48662077520103e-01 2.25764256762055e-03
1.60789473684211e+00 1.45978093358978e-01 2.22373541787230e-03
1.61778947368421e+00 1.43342566547381e-01 2.19029603478919e-03
1.62768421052632e+00 1.40754622238935e-01 2.15731914245306e-03
1.63757894736842e+00 1.38213401351440e-01 2.12479948687892e-03
1.64747368421053e+00 1.35718060328189e-01 2.09273182841297e-03
1.65736842105263e+00 1.33267770856316e-01 2.06111096094125e-03
1.66726315789474e+00 1.30861719549171e-01 2.02993170437984e-03
1.67715789473684e+00 1.28499107719496e-01 1.99918889740955e-03
1.68705263157895e+00 1.26179151112804e-01 1.96887741535843e-03
1.69694736842105e+00 1.23901079607386e-01 1.93899216304140e-03
1.70684210526316e+00 1.21664136998792e-01 1.90952806782075e-03
1.71673684210526e+00 1.19467580747437e-01 1.88048009625996e-03
1.72663157894737e+00 1.17310681695228e-01 1.85184324729491e-03
1.73652631578947e+00 1.15192723860839e-01 1.82361254561454e-03
1.74642105263158e+00 1.13113004200751e-01 1.79578305717462e-03
1.75631578947368e+00 1.11070832341583e-01 1.76834988268224e-03
1.76621052631579e+00 1.09065530385630e-01 1.74130815128896e-03
1.77610526315789e+00 1.07096432684631e-01 1.71465303504523e-03
1.78600000000000e+00 1.05162885586908e-01 1.68837974268654e-03
1.79589473684211e+00 1.03264247252680e-01 1.66248351563775e-03
1.80578947368421e+00 1.01399887430106e-01 1.63695963340022e-03
1.81568421052632e+00 9.95691872556531e-02 1.61180341771638e-03
1.82557894736842e+00 9.77715390195658e-02 1.58701022899024e-03
1.83547368421053e+00 9.60063459935989e-02 1.56257546063033e-03
1.84536842105263e+00 9.42730222319123e-02 1.53849455136346e-03
1.85526315789474e+00 9.25709923494799e-02 1.51476297966722e-03
1.86515789473684e+00 9.08996913585042e-02 1.49137625837892e-03
1.87505263157895e+00 8.92585644799349e-02 1.46832994617678e-03
1.88494736842105e+00 8.76470669340814e-02 1.44561964228366e-03
1.89484210526316e+00 8.60646637852956e-02 1.42324098133116e-03
1.90473684210526e+00 8.45108297635416e-02 1.40118964406734e-03
1.91463157894737e+00 8.29850490665272e-02 1.37946135231696e-03
1.92452631578947e+00 8.14868152122621e-02 1.35805186409323e-03
1.93442105263158e+00 8.00156308701245e-02 1.33695698358632e-03
1.94431578947368e+00 7.85710076738786e-02 1.31617255636526e-03
1.95421052631579e+00 7.71524660817190e-02 1.29569446472919e-03
1.96410526315789e+00 7.57595352163280e-02 1.27551863702599e-03
1.97400000000000e+00 7.43917526881706e-02 1.25564104308531e-03
1.98389473684211e+00 7.30486644626559e-02 1.23605769115256e-03
1.99378947368421e+00 7.17298247024499e-02 1.21676463114275e-03
2.00368421052632e+00 7.04347956256155e-02 1.19775795708517e-03
2.01357894736842e+00 6.91631473416546e-02 1.17903380436365e-03
2.02347368421053e+00 6.79144577276750e-02 1.16058834556663e-03
2.03336842105263e+00 6.66883122876237e-02 1.14241779844626e-03
2.04326315789474e+00 6.54843039973149e-02 1.12451842184420e-03
2.05315789473684e+00 6.43020331869085e-02 1.10688651174317e-03
2.06305263157895e+00 6.31411074076477e-02 1.08951840869625e-03
2.07294736842105e+00 6.20011412853740e-02 1.07241049395589e-03
2.08284210526316e+00 6.08817564090041e-02 1.05555918571789e-03
2.09273684210526e+00 5.97825812043704e-02 1.03896094605759e-03
2.10263157894737e+00 5.87032507957510e-02 1.02261227725092e-03
2.11252631578947e+00 5.76434069000527e-02 1.00650971820397e-03
2.12242105263158e+00 5.66026977073652e-02 9.90649850929654e-04
2.13231578947368e+00 5.55807777500689e-02 9.75029297049686e-04
2.14221052631579e+00 5.45773078024364e-02 9.59644714402733e-04
2.15210526315789e+00 5.35919547675442e-02 9.44492803092530e-04
2.16200000000000e+00 5.26243915535363e-02 9.29570302162099e-04
2.17189473684211e+00 5.16742969783748e-02 9.14873987287569e-04
2.18178947368421e+00 5.07413556587249e-02 9.00400672747679e-04
2.19168421052632e+00 4.98252579092294e-02 8.86147212853745e-04
2.20157894736842e+00 4.89256996276627e-02 8.72110499865634e-04
2.21147368421053e+00 4.80423822061804e-02 8.58287460972602e-04
2.22136842105263e+00 4.71750124317857e-02 8.44675063468754e-04
2.23126315789474e+00 4.63233023777489e-02 8.31270311794062e-04
2.24115789473684e+00 4.54869693194145e-02 8.18070244664551e-04
2.25105263157895e+00 4.46657356399720e-02 8.05071939907218e-04
2.26094736842105e+00 4.38593287277956e-02 7.92272511650761e-04
2.27084210526316e+00 4.30674808965794e-02 7.79669107598053e-04
2.28073684210526e+00 4.22899292961294e-02 7.67258913543703e-04
2.29063157894737e+00 4.15264158152960e-02 7.55039150706071e-04
2.30052631578947e+00 4.07766870062232e-02 7.43007073136540e-04
2.31042105263158e+00 4.00404939998878e-02 7.31159971940990e-04
2.32031578947368e+00 3.93175924143206e-02 7.19495172744892e-04
2.33021052631579e+00 3.86077422827615e-02 7.08010033233800e-04
2.34010526315789e+00 3.79107079736911e-02 6.96701947098292e-04
2.35000000000000e+00 3.72262581040518e-02 6.85568341625658e-04
2.35989473684211e+00 3.65541654711084e-02 6.74606675986525e-04
2.36978947368421e+00 3.58942069741019e-02 6.63814442424749e-04
2.37968421052632e+00 3.52461635427751e-02 6.53189167085757e-04
2.38957894736842e+00 3.46098200568070e-02 6.42728408463049e-04
2.39947368421053e+00 3.39849652823459e-02 6.32429755212845e-04
2.40936842105263e+00 3.33713918016259e-02 6.22290829534646e-04
2.41926315789474e+00 3.27688959367812e-02 6.12309285032227e-04
2.42915789473684e+00 3.21772776896571e-02 6.02482804637714e-04
2.43905263157895e+00 3.15963406751761e-02 5.92809103771693e-04
2.44894736842105e+00 3.10258920492916e-02 5.83285928313326e-04
2.45884210526316e+00 3.04657424519104e-02 5.73911052628509e-04
2.46873684210526e+00 2.99157059438079e-02 5.64682282524302e-04
2.47863157894737e+00 2.93755999384945e-02 5.55597453322035e-04
2.48852631578947e+00 2.88452451480924e-02 5.46654427985278e-04
2.49842105263158e+00 2.83244655236085e-02 5.37851099882178e-04
2.50831578947368e+00 2.78130881904999e-02 5.29185390955633e-04
2.51821052631579e+00 2.73109433973556e-02 5.20655249946765e-04
2.52810526315789e+00 2.68178644593459e-02 5.12258654977709e-04
2.53800000000000e+00 2.63336876972870e-02 5.03993611814043e-04
2.54789473684211e+00 2.58582523889819e-02 4.95858152602015e-04
2.55778947368421e+00 2.53914007139534e-02 4.87850336583597e-04
2.56768421052632e+00 2.49329777027488e-02 4.79968250568151e-04
2.57757894736842e+00 2.44828311803566e-02 4.72210007784278e-04
2.58747368421053e+00 2.40408117208968e-02 4.64573746303302e-04
2.59736842105263e+00 2.36067725978472e-02 4.57057631254879e-04
2.60726315789474e+00 2.31805697305269e-02 4.49659853285517e-04
2.61715789473684e+00 2.27620616411380e-02 4.42378627061636e-04
2.62705263157895e+00 2.23511094076419e-02 4.35212193341661e-04
2.63694736842105e+00 2.19475766131433e-02 4.28158817513595e-04
2.64684210526316e+00 2.15513293051612e-02 4.21216788173687e-04
2.65673684210526e+00 2.11622359510154e-02 4.14384419064526e-04
2.66663157894737e+00 2.07801673899513e-02 4.07660047687269e-04
2.67652631578947e+00 2.04049967945282e-02 4.01042033952663e-04
2.68642105263158e+00 2.00365996283792e-02 3.94528761993934e-04
2.69631578947368e+00 1.96748536009293e-02 3.88118638849339e-04
2.70621052631579e+00 1.93196386307912e-02 3.81810093182358e-04
2.71610526315789e+00 1.89708368057731e-02 3.75601576977444e-04
2.72600000000000e+00 1.86283323400479e-02 3.69491564289396e-04
2.73589473684211e+00 1.82920115394539e-02 3.63478550318039e-04
2.74578947368421e+00 1.79617627624932e-02 3.57561051833844e-04
2.75568421052632e+00 1.76374763843875e-02 3.51737607439183e-04
2.76557894736842e+00 1.73190447573010e-02 3.46006776724872e-04
2.77547368421053e+00 1.70063621780362e-02 3.40367139135491e-04
2.78536842105263e+00 1.66993248528331e-02 3.34817295425182e-04
2.79526315789474e+00 1.63978308597429e-02 3.29355866549084e-04
2.80515789473684e+00 1.61017801180055e-02 3.23981492586245e-04
2.81505263157895e+00 1.58110743547235e-02 3.18692834101605e-04
2.82494736842105e+00 1.55256170692697e-02 3.13488571094476e-04
2.83484210526316e+00 1.52453135042596e-02 3.08367401976136e-04
2.84473684210526e+00 1.49700706140000e-02 3.03328044844173e-04
2.85463157894737e+00 1.46997970308197e-02 2.98369236484846e-04
2.86452631578947e+00 1.44344030375557e-02 2.93489731402944e-04
2.87442105263158e+00 1.41738005376804e-02 2.88688303014183e-04
2.88431578947368e+00 1.39179030234517e-02 2.83963742698368e-04
2.89421052631579e+00 1.36666255498349e-02 2.79314858879143e-04
2.90410526315789e+00 1.34198847062183e-02 2.74740478139682e-04
2.91400000000000e+00 1.31775985862850e-02 2.70239444324097e-04
2.92389473684211e+00 1.29396867632948e-02 2.65810617862183e-04
2.93378947368421e+00 1.27060702625525e-02 2.61452876019148e-04
2.94368421052632e+00 1.24766715359313e-02 2.57165113033957e-04
2.95357894736842e+00 1.22514144338872e-02 2.52946239502484e-04
2.96347368421053e+00 1.20302241824523e-02 2.48795181562153e-04
2.97336842105263e+00 1.18130273583395e-02 2.44710881850320e-04
2.98326315789474e+00 1.15997518624679e-02 2.40692298708241e-04
2.99315789473684e+00 1.13903268981566e-02 2.36738405407219e-04
3.00305263157895e+00 1.11846829475554e-02 2.32848191045470e-04
3.01294736842105e+00 1.09827517465983e-02 2.29020659793164e-04
3.02284210526316e+00 1.07844662643367e-02 2.25254830158015e-04
3.03273684210526e+00 1.05897606806241e-02 2.21549735824640e-04
3.04263157894737e+00 1.03985703624216e-02 2.17904424938372e-04
3.05252631578947e+00 1.02108318442104e-02 2.14317959408531e-04
3.06242105263158e+00 1.00264828068648e-02 2.10789415693981e-04
3.07231578947368e+00 9.84546205523461e-03 2.07317884123523e-04
3.08221052631579e+00 9.66770949958331e-03 2.03902468235089e-04
3.09210526315789e+00 9.49316613558377e-03 2.00542285510910e-04
3.10200000000000e+00 9.32177402311068e-03 1.97236466732673e-04
3.11189473684211e+00 9.15347626864876e-03 1.93984155490311e-04
3.12178947368421e+00 8.98821700585295e-03 1.90784508325420e-04
