Energy (eV)          EEDF (eV^-(3/2))     First Anisotropy
4.87000000000000e-02 6.50042144746300e-01 1.04922817256021e-03
1.46100000000000e-01 6.06664475204742e-01 1.68041535694230e-03
2.43500000000000e-01 5.66181421389355e-01 2.08432190293437e-03
3.40900000000000e-01 5.28399824002032e-01 2.31918025369762e-03
4.38300000000000e-01 4.93139413370775e-01 2.46178746574799e-03
5.35700000000000e-01 4.60231949317866e-01 2.54392828502049e-03
6.33100000000000e-01 4.29520418425098e-01 2.58328599186692e-03
7.30500000000000e-01 4.00858284865947e-01 2.59116275625528e-03
8.27900000000000e-01 3.74108791230119e-01 2.57538140862707e-03
9.25300000000000e-01 3.49144306004465e-01 2.54163814901728e-03
1.02270000000000e+00 3.25845714596843e-01 2.49422529954749e-03
1.12010000000000e+00 3.04101850997306e-01 2.43645599859714e-03
1.21750000000000e+00 2.83808967364837e-01 2.37093193529704e-03
1.31490000000000e+00 2.64870239008867e-01 2.29972151463554e-03
1.41230000000000e+00 2.47195302403635e-01 2.22448359810507e-03
1.50970000000000e+00 2.30699824031113e-01 2.14655646074901e-03
1.60710000000000e+00 2.15305097995276e-01 2.06702357348200e-03
1.70450000000000e+00 2.00937670487793e-01 1.98676339838905e-03
1.80190000000000e+00 1.87528989313326e-01 1.90648782525424e-03
1.89930000000000e+00 1.75015076802206e-01 1.82677233126722e-03
1.99670000000000e+00 1.63336224549820e-01 1.74807997675891e-03
2.09410000000000e+00 1.52436708526205e-01 1.67078072278335e-03
2.19150000000000e+00 1.42264523196539e-01 1.59516713911992e-03
2.28890000000000e+00 1.32771133383922e-01 1.52146728664262e-03
2.38630000000000e+00 1.23911242690475e-01 1.44985535948442e-03
2.48370000000000e+00 1.15642577371846e-01 1.38046053117416e-03
2.58110000000000e+00 1.07925684633872e-01 1.31337434659465e-03
2.67850000000000e+00 1.00723744389026e-01 1.24865692625509e-03
2.77590000000000e+00 9.40023935744556e-02 1.18634219304730e-03
2.87330000000000e+00 8.77295621933771e-02 1.12644228897812e-03
2.97070000000000e+00 8.18753202975150e-02 1.06895131662982e-03
3.06810000000000e+00 7.64117351804901e-02 1.01384851469162e-03
3.16550000000000e+00 7.13127381007702e-02 9.61100956979443e-04
3.26290000000000e+00 6.65539998982708e-02 9.10665848581881e-04
3.36030000000000e+00 6.21128149111300e-02 8.62492480163469e-04
3.45770000000000e+00 5.79679926387795e-02 8.16523891300130e-04
3.55510000000000e+00 5.40997566343989e-02 7.72698285477927e-04
3.65250000000000e+00 5.04896501443320e-02 7.30950232647499e-04
3.74990000000000e+00 4.71204480442367e-02 6.91211689682298e-04
3.84730000000000e+00 4.39760746517842e-02 6.53412864500165e-04
3.94470000000000e+00 4.10415270237616e-02 6.17482945788975e-04
4.04210000000000e+00 3.83028033716014e-02 5.83350717082805e-04
4.13950000000000e+00 3.57468362537817e-02 5.50945071250776e-04
4.23690000000000e+00 3.33614302263342e-02 5.20195439195080e-04
4.33430000000000e+00 3.11352036539687e-02 4.91032144634965e-04
4.43170000000000e+00 2.90575344041725e-02 4.63386695220748e-04
4.52910000000000e+00 2.71185091651727e-02 4.37192018828810e-04
4.62650000000000e+00 2.53088761459387e-02 4.12382652696044e-04
4.72390000000000e+00 2.36200009325398e-02 3.88894892028806e-04
4.82130000000000e+00 2.20438252902314e-02 3.66666903840580e-04
4.91870000000000e+00 2.05728287147022e-02 3.45638811012950e-04
5.01610000000000e+00 1.91999925490260e-02 3.25752750917741e-04
5.11350000000000e+00 1.79187664951106e-02 3.06952912369520e-04
5.21090000000000e+00 1.67230373598550e-02 2.89185554184267e-04
5.30830000000000e+00 1.56070998868931e-02 2.72399008191329e-04
5.40570000000000e+00 1.45656295347516e-02 2.56543669172758e-04
5.50310000000000e+00 1.35936570715357e-02 2.41571973879206e-04
5.60050000000000e+00 1.26865448649257e-02 2.27438370988179e-04
5.69790000000000e+00 1.18399647543551e-02 2.14099283623089e-04
5.79530000000000e+00 1.10498773997905e-02 2.01513065835508e-04
5.89270000000000e+00 1.03125130085788e-02 1.89639954264170e-04
5.99010000000000e+00 9.62435334840209e-03 1.78442016019124e-04
6.08750000000000e+00 8.98211496051864e-03 1.67883093694996e-04
6.18490000000000e+00 8.38273349319283e-03 1.57928748290917e-04
6.28230000000000e+00 7.82334908056436e-03 1.48546200704133e-04
6.37970000000000e+00 7.30129269719339e-03 1.39704272367507e-04
6.47710000000000e+00 6.81407342317439e-03 1.31373325516584e-04
6.57450000000000e+00 6.35936655905603e-03 1.23525203497877e-04
6.67190000000000e+00 5.93500253385882e-03 1.16133171465385e-04
6.76930000000000e+00 5.53895655326704e-03 1.09171857755961e-04
6.86670000000000e+00 5.16933893860233e-03 1.02617196184895e-04
6.96410000000000e+00 4.82438611048298e-03 9.64463694601791e-05
7.06150000000000e+00 4.50245217414861e-03 9.06377538766379e-05
7.15890000000000e+00 4.20200106630066e-03 8.51708654186437e-05
7.25630000000000e+00 3.92159922598859e-03 8.00263073720593e-05
7.35370000000000e+00 3.65990875457192e-03 7.51857195217137e-05
7.45110000000000e+00 3.41568103212165e-03 7.06317289897391e-05
7.54850000000000e+00 3.18775075980282e-03 6.63479027520341e-05
7.64590000000000e+00 2.97503039981209e-03 6.23187018546401e-05
7.74330000000000e+00 2.77650498634140e-03 5.85294373385997e-05
7.84070000000000e+00 2.59122728280879e-03 5.49662278706295e-05
7.93810000000000e+00 2.41831326224999e-03 5.16159590674500e-05
8.03550000000000e+00 2.25693788930584e-03 4.84662444936475e-05
8.13290000000000e+00 2.10633118368011e-03 4.55053883063095e-05
8.23030000000000e+00 1.96577454628483e-03 4.27223495142184e-05
8.32770000000000e+00 1.83459733054410e-03 4.01067078149372e-05
8.42510000000000e+00 1.71217364249658e-03 3.76486309695672e-05
8.52250000000000e+00 1.59791935442889e-03 3.53388436721746e-05
8.61990000000000e+00 1.49128931779099e-03 3.31685978687630e-05
8.71730000000000e+00 1.39177476209516e-03 3.11296444791403e-05
8.81470000000000e+00 1.29890086738791e-03 2.92142064739857e-05
8.91210000000000e+00 1.21222449871217e-03 2.74149532588226e-05
9.00950000000000e+00 1.13133209175010e-03 2.57249763163607e-05
9.10690000000000e+00 1.05583767955803e-03 2.41377660587476e-05
9.20430000000000e+00 9.85381050978555e-04 2.26471898416118e-05
9.30170000000000e+00 9.19626031942762e-04 2.12474710923387e-05
9.39910000000000e+00 8.58258881462087e-04 1.99331695057760e-05
9.49650000000000e+00 8.00986794656546e-04 1.86991622614669e-05
9.59390000000000e+00 7.47536505676708e-04 1.75406262175381e-05
9.69130000000000e+00 6.97652983853441e-04 1.64530210375029e-05
9.78870000000000e+00 6.51098216854315e-04 1.54320732074474e-05
9.88610000000000e+00 6.07650075040637e-04 1.44737609023398e-05
9.98350000000000e+00 5.67101251606576e-04 1.35742996615171e-05
1.00809000000000e+01 5.29258273443376e-04 1.27301288347489e-05
1.01783000000000e+01 4.93940578009148e-04 1.19378987616404e-05
1.02757000000000e+01 4.60979651799649e-04 1.11944586485093e-05
1.03731000000000e+01 4.30218226309380e-04 1.04968451082399e-05
1.04705000000000e+01 4.01509527646639e-04 9.84227132997865e-06
1.05679000000000e+01 3.74716576222173e-04 9.22811684688295e-06
1.06653000000000e+01 3.49711533169998e-04 8.65191787145840e-06
1.07627000000000e+01 3.26375090381907e-04 8.11135816932292e-06
1.08601000000000e+01 3.04595901245320e-04 7.60426044350683e-06
1.09575000000000e+01 2.84270049368302e-04 7.12857820263972e-06
1.10549000000000e+01 2.65300552756858e-04 6.68238808758219e-06
1.11523000000000e+01 2.47596901078749e-04 6.26388263223259e-06
1.12497000000000e+01 2.31074623805943e-04 5.87136343537360e-06
1.13471000000000e+01 2.15654887175164e-04 5.50323472152162e-06
1.14445000000000e+01 2.01264118043484e-04 5.15799726980050e-06
1.15419000000000e+01 1.87833652844230e-04 4.83424269088186e-06
1.16393000000000e+01 1.75299409968269e-04 4.53064803301688e-06
1.17367000000000e+01 1.63601584007460e-04 4.24597069912779e-06
1.18341000000000e+01 1.52684360401411e-04 3.97904365783305e-06
1.19315000000000e+01 1.42495649126019e-04 3.72877093214880e-06
1.20289000000000e+01 1.32986836153114e-04 3.49412335044061e-06
1.21263000000000e+01 1.24112551495343e-04 3.27413454499542e-06
1.22237000000000e+01 1.15830452729538e-04 3.06789718434377e-06
1.23211000000000e+01 1.08101022965700e-04 2.87455942618901e-06
1.24185000000000e+01 1.00887382297616e-04 2.69332157849303e-06
1.25159000000000e+01 9.41551118354803e-05 2.52343295692913e-06
1.26133000000000e+01 8.78720894809192e-05 2.36418892754239e-06
1.27107000000000e+01 8.20083366608353e-05 2.21492812405741e-06
1.28081000000000e+01 7.65358752887885e-05 2.07502982984410e-06
1.29055000000000e+01 7.14285942714221e-05 1.94391151509492e-06
1.30029000000000e+01 6.66621249229877e-05 1.82102652028285e-06
1.31003000000000e+01 6.22137246935288e-05 1.70586187745958e-06
1.31977000000000e+01 5.80621686559451e-05 1.59793626141850e-06
1.32951000000000e+01 5.41876482341858e-05 1.49679806318927e-06
1.33925000000000e+01 5.05716766893653e-05 1.40202357874940e-06
1.34899000000000e+01 4.71970009128432e-05 1.31321530623569e-06
1.35873000000000e+01 4.40475191053999e-05 1.23000034531514e-06
1.36847000000000e+01 4.11082039497261e-05 1.15202889273164e-06
1.37821000000000e+01 3.83650309096547e-05 1.07897282838297e-06
1.38795000000000e+01 3.58049113140242e-05 1.01052438660238e-06
1.39769000000000e+01 3.34156299058923e-05 9.46394907621929e-07
1.40743000000000e+01 3.11857865591251e-05 8.86313664481764e-07
1.41717000000000e+01 2.91047418842706e-05 8.30026760919887e-07
1.42691000000000e+01 2.71625664641815e-05 7.77296096033880e-07
1.43665000000000e+01 2.53499934771736e-05 7.27898391748003e-07
1.44639000000000e+01 2.36583744816658e-05 6.81624279348167e-07
1.45613000000000e+01 2.20796381513365e-05 6.38277441563654e-07
1.46587000000000e+01 2.06062517639052e-05 5.97673806878704e-07
1.47561000000000e+01 1.92311852597885e-05 5.59640792950166e-07
1.48535000000000e+01 1.79478776991423e-05 5.24016596189469e-07
1.49509000000000e+01 1.67502059572439e-05 4.90649524739206e-07
1.50483000000000e+01 1.56324555088480e-05 4.59397372236872e-07
1.51457000000000e+01 1.45892931621196e-05 4.30126829911368e-07
1.52431000000000e+01 1.36157416120454e-05 4.02712934702313e-07
1.53405000000000e+01 1.27071556919109e-05 3.77038551228380e-07
1.54379000000000e+01 1.18592002095291e-05 3.52993885559345e-07
1.55353000000000e+01 1.10678292624701e-05 3.30476028867510e-07
1.56327000000000e+01 1.03292669335965e-05 3.09388529148353e-07
1.57301000000000e+01 9.63998927479650e-06 2.89640989307765e-07
1.58275000000000e+01 8.99670749295221e-06 2.71148690014571e-07
1.59249000000000e+01 8.39635225791795e-06 2.53832235812465e-07
1.60223000000000e+01 7.83605905763534e-06 2.37617223075487e-07
1.61197000000000e+01 7.31315453050980e-06 2.22433928475740e-07
1.62171000000000e+01 6.82514370983507e-06 2.08217016711913e-07
1.63145000000000e+01 6.36969811940430e-06 1.94905266322187e-07
1.64119000000000e+01 5.94464466350747e-06 1.82441312475807e-07
1.65093000000000e+01 5.54795525830553e-06 1.70771405704135e-07
1.66067000000000e+01 5.17773715510847e-06 1.59845185594640e-07
1.67041000000000e+01 4.83222390938654e-06 1.49615468530163e-07
1.68015000000000e+01 4.50976695242417e-06 1.40038048611306e-07
1.68989000000000e+01 4.20882772540215e-06 1.31071510951873e-07
1.69963000000000e+01 3.92797033837674e-06 1.22677056586451e-07
1.70937000000000e+01 3.66585471912924e-06 1.14818338275305e-07
1.71911000000000e+01 3.42123021919654e-06 1.07461306535204e-07
1.72885000000000e+01 3.19292964657472e-06 1.00574065265607e-07
1.73859000000000e+01 2.97986369662371e-06 9.41267363780122e-08
1.74833000000000e+01 2.78101575460070e-06 8.80913328723755e-08
1.75807000000000e+01 2.59543704502331e-06 8.24416398384178e-08
1.76781000000000e+01 2.42224210471851e-06 7.71531028915320e-08
1.77755000000000e+01 2.26060455795740e-06 7.22027235829773e-08
1.78729000000000e+01 2.10975317351757e-06 6.75689613522156e-08
1.79703000000000e+01 1.96896818485993e-06 6.32316416157221e-08
1.80677000000000e+01 1.83757785586206e-06 5.91718696114751e-08
1.81651000000000e+01 1.71495527572216e-06 5.53719496416983e-08
1.82625000000000e+01 1.60051536774071e-06 5.18153093783965e-08
1.83599000000000e+01 1.49371209770791e-06 4.84864289168464e-08
1.84573000000000e+01 1.39403586857682e-06 4.53707742815857e-08
1.85547000000000e+01 1.30101108899148e-06 4.24547351076444e-08
1.86521000000000e+01 1.21419390406849e-06 3.97255662368548e-08
1.87495000000000e+01 1.13317007760473e-06 3.71713329851315e-08
1.88469000000000e+01 1.05755301560654e-06 3.47808598516890e-08
1.89443000000000e+01 9.86981921709905e-07 3.25436824553204e-08
1.90417000000000e+01 9.21120075690470e-07 3.04500024961516e-08
1.91391000000000e+01 8.59653226849477e-07 2.84906455537679e-08
1.92365000000000e+01 8.02288094609991e-07 2.66570215443193e-08
1.93339000000000e+01 7.48750969169147e-07 2.49410876702162e-08
1.94313000000000e+01 6.98786405529637e-07 2.33353137063461e-08
1.95287000000000e+01 6.52156004679201e-07 2.18326494764331e-08
1.96261000000000e+01 6.08637276102676e-07 2.04264943822577e-08
1.97235000000000e+01 5.68022576199242e-07 1.91106688569924e-08
1.98209000000000e+01 5.30118117539671e-07 1.78793876219114e-08
1.99183000000000e+01 4.94743044236381e-07 1.67272346332595e-08
2.00157000000000e+01 4.61728569014554e-07 1.56491396131134e-08
2.01131000000000e+01 4.30917167866978e-07 1.46403560646863e-08
2.02105000000000e+01 4.02161828450004e-07 1.36964406787407e-08
2.03079000000000e+01 3.75325348634466e-07 1.28132340435975e-08
2.04053000000000e+01 3.50279681864676e-07 1.19868425766947e-08
2.05027000000000e+01 3.26905326201970e-07 1.12136216007783e-08
2.06001000000000e+01 3.05090754137726e-07 1.04901594926180e-08
2.06975000000000e+01 2.84731880455257e-07 9.81326283664834e-09
2.07949000000000e+01 2.65731565601587e-07 9.17994252017333e-09
2.08923000000000e+01 2.47999152199491e-07 8.58740071073643e-09
2.09897000000000e+01 2.31450032488346e-07 8.03301865998320e-09
2.10871000000000e+01 2.16005244629890e-07 7.51434528183465e-09
2.11845000000000e+01 2.01591095952721e-07 7.02908645606232e-09
2.12819000000000e+01 1.88138811337897e-07 6.57509501142664e-09
2.13793000000000e+01 1.75584205067958e-07 6.15036134541956e-09
2.14767000000000e+01 1.63867374573640e-07 5.75300464035091e-09
2.15741000000000e+01 1.52932414617048e-07 5.38126463804966e-09
2.16715000000000e+01 1.42727150547531e-07 5.03349393782412e-09
2.17689000000000e+01 1.33202889357550e-07 4.70815078454981e-09
2.18663000000000e+01 1.24314187350717e-07 4.40379231583999e-09
2.19637000000000e+01 1.16018633313476e-07 4.11906823920913e-09
2.20611000000000e+01 1.08276646155860e-07 3.85271491197272e-09
2.21585000000000e+01 1.01051286055785e-07 3.60354979834493e-09
2.22559000000000e+01 9.43080782057956e-08 3.37046627980715e-09
2.23533000000000e+01 8.80148483212825e-08 3.15242879632947e-09
2.24507000000000e+01 8.21415691253298e-08 2.94846829744272e-09
2.25481000000000e+01 7.66602170777111e-08 2.75767798348520e-09
2.26455000000000e+01 7.15446386644393e-08 2.57920931859108e-09
2.27429000000000e+01 6.67704256098882e-08 2.41226829815271e-09
2.28403000000000e+01 6.23147984160771e-08 2.25611195458101e-09
2.29377000000000e+01 5.81564976734440e-08 2.11004508621124e-09
2.30351000000000e+01 5.42756826245096e-08 1.97341719516052e-09
2.31325000000000e+01 5.06538364964446e-08 1.84561962084179e-09
2.32299000000000e+01 4.72736781508463e-08 1.72608285668128e-09
2.33273000000000e+01 4.41190796291740e-08 1.61427403837513e-09
2.34247000000000e+01 4.11749892004236e-08 1.50969459276037e-09
2.35221000000000e+01 3.84273595438723e-08 1.41187803706802e-09
2.36195000000000e+01 3.58630807242286e-08 1.32038791897516e-09
2.37169000000000e+01 3.34699176393875e-08 1.23481588848059e-09
2.38143000000000e+01 3.12364516423311e-08 1.15477989319873e-09
2.39117000000000e+01 2.91520260586319e-08 1.07992248919989e-09
2.40091000000000e+01 2.72066953396033e-08 1.00990926002496e-09
2.41065000000000e+01 2.53911776084880e-08 9.44427336971184e-10
2.42039000000000e+01 2.36968103732653e-08 8.83184014184213e-10
2.43013000000000e+01 2.21155091947677e-08 8.25905452502782e-10
2.43987000000000e+01 2.06397291128958e-08 7.72335466387309e-10
2.44961000000000e+01 1.92624286468838e-08 7.22234388624418e-10
2.45935000000000e+01 1.79770361978474e-08 6.75378007837116e-10
2.46909000000000e+01 1.67774186933067e-08 6.31556574146761e-10
2.47883000000000e+01 1.56578523240790e-08 5.90573868629390e-10
2.48857000000000e+01 1.46129952339137e-08 5.52246332486448e-10
2.49831000000000e+01 1.36378620315635e-08 5.16402252109982e-10
2.50805000000000e+01 1.27278000036785e-08 4.82880996465827e-10
2.51779000000000e+01 1.18784669150277e-08 4.51532303446289e-10
2.52753000000000e+01 1.10858102901230e-08 4.22215612057419e-10
2.53727000000000e+01 1.03460480773929e-08 3.94799437505954e-10
2.54701000000000e+01 9.65565060364550e-09 3.69160786438258e-10
2.55675000000000e+01 9.01132373272064e-09 3.45184609758979e-10
2.56649000000000e+01 8.40999314797448e-09 3.22763290621368e-10
2.57623000000000e+01 7.84878968360222e-09 3.01796165335009e-10
2.58597000000000e+01 7.32503563480996e-09 2.82189075080670e-10
2.59571000000000e+01 6.83623198151618e-09 2.63853946456885e-10
2.60545000000000e+01 6.38004646462271e-09 2.46708399009058e-10
2.61519000000000e+01 5.95430245796266e-09 2.30675378010165e-10
2.62493000000000e+01 5.55696858282940e-09 2.15682810872797e-10
2.63467000000000e+01 5.18614901553371e-09 2.01663285675899e-10
2.64441000000000e+01 4.84007444174297e-09 1.88553750386626e-10
2.65415000000000e+01 4.51709361444230e-09 1.76295231448569e-10
2.66389000000000e+01 4.21566547523753e-09 1.64832570492654e-10
2.67363000000000e+01 3.93435180140801e-09 1.54114178006651e-10
2.68337000000000e+01 3.67181034362559e-09 1.44091802873785e-10
2.69311000000000e+01 3.42678842159741e-09 1.34720316760713e-10
2.70285000000000e+01 3.19811694707494e-09 1.25957512400482e-10
2.71259000000000e+01 2.98470484571094e-09 1.17763914877244e-10
2.72233000000000e+01 2.78553385114894e-09 1.10102605076752e-10
2.73207000000000e+01 2.59965364650603e-09 1.02939054520268e-10
2.74181000000000e+01 2.42617733006711e-09 9.62409708496841e-11
2.75155000000000e+01 2.26427718355593e-09 8.99781532786316e-11
2.76129000000000e+01 2.11318072279167e-09 8.41223573682886e-11
2.77103000000000e+01 1.97216701188740e-09 7.86471685277914e-11
2.78077000000000e+01 1.84056322340412e-09 7.35278836776361e-11
2.79051000000000e+01 1.71774142804756e-09 6.87414005505304e-11
2.80025000000000e+01 1.60311559859035e-09 6.42661141378952e-11
2.80999000000000e+01 1.49613881372402e-09 6.00818198218045e-11
2.81973000000000e+01 1.39630064849960e-09 5.61696227617149e-11
2.82947000000000e+01 1.30312473890544e-09 5.25118531330046e-11
2.83921000000000e+01 1.21616650896216e-09 4.90919868402422e-11
2.84895000000000e+01 1.13501104948983e-09 4.58945713523422e-11
2.85869000000000e+01 1.05927113842606e-09 4.29051563294442e-11
2.86843000000000e+01 9.88585393249509e-10 4.01102287325914e-11
2.87817000000000e+01 9.22616546693070e-10 3.74971521271472e-11
2.88791000000000e+01 8.61049837519707e-10 3.50541099094816e-11
2.89765000000000e+01 8.03591508682707e-10 3.27700522038663e-11
2.90739000000000e+01 7.49967405704516e-10 3.06346461927986e-11
2.91713000000000e+01 6.99921668586524e-10 2.86382296592150e-11
2.92687000000000e+01 6.53215511008432e-10 2.67717675333165e-11
2.93661000000000e+01 6.09626080992318e-10 2.50268112500754e-11
2.94635000000000e+01 5.68945397595213e-10 2.33954607359801e-11
2.95609000000000e+01 5.30979358556764e-10 2.18703288552625e-11
2.96583000000000e+01 4.95546814167119e-10 2.04445081567877e-11
2.97557000000000e+01 4.62478702936112e-10 1.91115397730189e-11
2.98531000000000e+01 4.31617244939722e-10 1.78653843320468e-11
2.99505000000000e+01 4.02815188994965e-10 1.67003947526321e-11
3.00479000000000e+01 3.75935110071216e-10 1.56112908005922e-11
3.01453000000000e+01 3.50848753585664e-10 1.45931352927106e-11
3.02427000000000e+01 3.27436423454291e-10 1.36413118416854e-11
3.03401000000000e+01 3.05586410978541e-10 1.27515040425020e-11
3.04375000000000e+01 2.85194461842703e-10 1.19196760070410e-11
3.05349000000000e+01 2.66163278678843e-10 1.11420541597451e-11
3.06323000000000e+01 2.48402056825859e-10 1.04151102127924e-11
3.07297000000000e+01 2.31826051067585e-10 9.73554524449046e-12
