Energy (eV)          EEDF (eV^-(3/2))     First Anisotropy
5.95652173913043e-02 5.01461390162257e-02 3.90663476497921e-05
1.78695652173913e-01 4.93984258674349e-02 6.42446803636235e-05
2.97826086956522e-01 4.86618616319201e-02 8.41112103448794e-05
4.16956521739130e-01 4.79362800744760e-02 9.87852615728424e-05
5.36086956521739e-01 4.72215174327104e-02 1.10681940699108e-04
6.55217391304348e-01 4.65174123893214e-02 1.20725672473848e-04
7.74347826086957e-01 4.58238060323136e-02 1.29400459252715e-04
8.93478260869565e-01 4.51405418200092e-02 1.37001897146278e-04
1.01260869565217e+00 4.44674655431054e-02 1.43728205765928e-04
1.13173913043478e+00 4.38044252942709e-02 1.49721003142497e-04
1.25086956521739e+00 4.31512714249312e-02 1.55086233152228e-04
1.37000000000000e+00 4.25078565278804e-02 1.59905977989075e-04
1.48913043478261e+00 4.18740353835267e-02 1.64245611142800e-04
1.60826086956522e+00 4.12496649469207e-02 1.68158372307341e-04
1.72739130434783e+00 4.06346042975270e-02 1.71688424118432e-04
1.84652173913043e+00 4.00287146237895e-02 1.74872968517766e-04
1.96565217391304e+00 3.94318591767879e-02 1.77743756927494e-04
2.08478260869565e+00 3.88439032532140e-02 1.80328195205484e-04
2.20391304347826e+00 3.82647141521616e-02 1.82650170341984e-04
2.32304347826087e+00 3.76941611570756e-02 1.84730680513356e-04
2.44217391304348e+00 3.71321154951608e-02 1.86588323688434e-04
2.56130434782609e+00 3.65784503186846e-02 1.88239681894834e-04
2.68043478260870e+00 3.60330406666334e-02 1.89699627742896e-04
2.79956521739130e+00 3.54957634456364e-02 1.90981571420146e-04
2.91869565217391e+00 3.49664973954280e-02 1.92097663052631e-04
3.03782608695652e+00 3.44451230622094e-02 1.93058957707560e-04
3.15695652173913e+00 3.39315227767937e-02 1.93875554029549e-04
3.27608695652174e+00 3.34255806212209e-02 1.94556709691749e-04
3.39521739130435e+00 3.29271824090849e-02 1.95110938887828e-04
3.51434782608696e+00 3.24362156535878e-02 1.95546095290310e-04
3.63347826086957e+00 3.19525695480351e-02 1.95869442911863e-04
3.75260869565217e+00 3.14761349352169e-02 1.96087717173303e-04
3.87173913043478e+00 3.10068042881278e-02 1.96207177652301e-04
3.99086956521739e+00 3.05444716805811e-02 1.96233654049043e-04
4.11000000000000e+00 3.00890327681964e-02 1.96172586274395e-04
4.22913043478261e+00 2.96403847601650e-02 1.96029059727052e-04
4.34826086956522e+00 2.91984264005381e-02 1.95807836318565e-04
4.46739130434783e+00 2.87630579410725e-02 1.95513382014736e-04
4.58652173913043e+00 2.83341811228445e-02 1.95149891235129e-04
4.70565217391304e+00 2.79116991501118e-02 1.94721308683877e-04
4.82478260869565e+00 2.74955166722737e-02 1.94231348814642e-04
4.94391304347826e+00 2.70855397586920e-02 1.93683513370959e-04
5.06304347826087e+00 2.66816758810104e-02 1.93081107114319e-04
5.18217391304348e+00 2.62838338888854e-02 1.92427252089652e-04
5.30130434782609e+00 2.58919239926747e-02 1.91724900480869e-04
5.42043478260870e+00 2.55058577400309e-02 1.90976846340852e-04
5.53956521739130e+00 2.51255479989663e-02 1.90185736126371e-04
5.65869565217391e+00 2.47509089359306e-02 1.89354078770336e-04
5.77782608695652e+00 2.43818559965941e-02 1.88484254041559e-04
5.89695652173913e+00 2.40183058886729e-02 1.87578521015885e-04
6.01608695652174e+00 2.36601765605878e-02 1.86639025480514e-04
6.13521739130435e+00 2.33073871854033e-02 1.85667806781014e-04
6.25434782608696e+00 2.29598581402093e-02 1.84666804178307e-04
6.37347826086957e+00 2.26175109904490e-02 1.83637862672778e-04
6.49260869565217e+00 2.22802684699932e-02 1.82582738435014e-04
6.61173913043478e+00 2.19480544658535e-02 1.81503103793920e-04
6.73086956521739e+00 2.16207939989213e-02 1.80400551906959e-04
6.85000000000000e+00 2.12984132090626e-02 1.79276601059282e-04
6.96913043478261e+00 2.09808393364938e-02 1.78132698704449e-04
7.08826086956522e+00 2.06680007072543e-02 1.76970225191277e-04
7.20739130434783e+00 2.03598267151946e-02 1.75790497279568e-04
7.32652173913043e+00 2.00562478078202e-02 1.74594771388184e-04
7.44565217391304e+00 1.97571954688689e-02 1.73384246669841e-04
7.56478260869565e+00 1.94626022045201e-02 1.72160067855955e-04
7.68391304347826e+00 1.91724015265390e-02 1.70923327958692e-04
7.80304347826087e+00 1.88865279388454e-02 1.69675070774057e-04
7.92217391304348e+00 1.86049169212033e-02 1.68416293266911e-04
8.04130434782609e+00 1.83275049161427e-02 1.67147947782725e-04
8.16043478260869e+00 1.80542293131742e-02 1.65870944161438e-04
8.27956521739130e+00 1.77850284360582e-02 1.64586151651679e-04
8.39869565217391e+00 1.75198415278394e-02 1.63294400983270e-04
8.51782608695652e+00 1.72586087371919e-02 1.61996485828585e-04
8.63695652173913e+00 1.70012711058282e-02 1.60693164661257e-04
8.75608695652174e+00 1.67477705539717e-02 1.59385162292224e-04
8.87521739130435e+00 1.64980498684358e-02 1.58073171346797e-04
8.99434782608696e+00 1.62520526885565e-02 1.56757853689602e-04
9.11347826086956e+00 1.60097234945955e-02 1.55439841750264e-04
9.23260869565217e+00 1.57710075941166e-02 1.54119739805636e-04
9.35173913043478e+00 1.55358511107059e-02 1.52798125172970e-04
9.47086956521739e+00 1.53042009707767e-02 1.51475549366929e-04
9.59000000000000e+00 1.50760048925989e-02 1.50152539176337e-04
9.70913043478261e+00 1.48512113735187e-02 1.48829597710870e-04
9.82826086956522e+00 1.46297696792894e-02 1.47507205375135e-04
9.94739130434783e+00 1.44116298316911e-02 1.46185820747853e-04
1.00665217391304e+01 1.41967425985779e-02 1.44865881885640e-04
1.01856521739130e+01 1.39850594793590e-02 1.43547806308520e-04
1.03047826086957e+01 1.37765327006055e-02 1.42231992260052e-04
1.04239130434783e+01 1.35711151990809e-02 1.40918820569811e-04
1.05430434782609e+01 1.33687606113957e-02 1.39608653345982e-04
1.06621739130435e+01 1.31694232693477e-02 1.38301835724611e-04
1.07813043478261e+01 1.29730581837021e-02 1.36998697524775e-04
1.09004347826087e+01 1.27796210342936e-02 1.35699551937025e-04
1.10195652173913e+01 1.25890681653804e-02 1.34404697120193e-04
1.11386956521739e+01 1.24013565703317e-02 1.33114417711642e-04
1.12578260869565e+01 1.22164438821576e-02 1.31828983554911e-04
1.13769565217391e+01 1.20342883688965e-02 1.30548651160944e-04
1.14960869565217e+01 1.18548489191533e-02 1.29273665091107e-04
1.16152173913043e+01 1.16780850330334e-02 1.28004256727378e-04
1.17343478260870e+01 1.15039568175833e-02 1.26740645612055e-04
1.18534782608696e+01 1.13324249731235e-02 1.25483040718355e-04
1.19726086956522e+01 1.11634507845693e-02 1.24231639264980e-04
1.20917391304348e+01 1.09969961169389e-02 1.22986627947360e-04
1.22108695652174e+01 1.08330234024283e-02 1.21748184107680e-04
1.23300000000000e+01 1.06714956321045e-02 1.20516474594883e-04
1.24491304347826e+01 1.05123763514911e-02 1.19291657128964e-04
1.25682608695652e+01 1.03556296470992e-02 1.18073880456004e-04
1.26873913043478e+01 1.02012201434532e-02 1.16863284408766e-04
1.28065217391304e+01 1.00491129912711e-02 1.15660001191462e-04
1.29256521739130e+01 9.89927385974854e-03 1.14464154305854e-04
1.30447826086957e+01 9.75166893231532e-03 1.13275859550574e-04
1.31639130434783e+01 9.60626489544106e-03 1.12095225972150e-04
1.32830434782609e+01 9.46302893125639e-03 1.10922354837136e-04
1.34021739130435e+01 9.32192871340127e-03 1.09757340558012e-04
1.35213043478261e+01 9.18293239641900e-03 1.08600271573657e-04
1.36404347826087e+01 9.04600860869939e-03 1.07451229366611e-04
1.37595652173913e+01 8.91112644842441e-03 1.06310289322196e-04
1.38786956521739e+01 8.77825547351539e-03 1.05177521544861e-04
1.39978260869565e+01 8.64736569488429e-03 1.04052989919530e-04
1.41169565217391e+01 8.51842757247996e-03 1.02936752909434e-04
1.42360869565217e+01 8.39141200575818e-03 1.01828864314503e-04
1.43552173913043e+01 8.26629032722454e-03 1.00729372375468e-04
1.44743478260870e+01 8.14303429858638e-03 9.96383205151852e-05
1.45934782608696e+01 8.02161610171449e-03 9.85557480444405e-05
1.47126086956522e+01 7.90200833246552e-03 9.74816893072876e-05
1.48317391304348e+01 7.78418399694108e-03 9.64161743706327e-05
1.49508695652174e+01 7.66811650291290e-03 9.53592296818288e-05
1.50700000000000e+01 7.55377965391288e-03 9.43108772537416e-05
1.51891304347826e+01 7.44114764560048e-03 9.32711354545380e-05
1.53082608695652e+01 7.33019505690505e-03 9.22400190281767e-05
1.54273913043478e+01 7.22089684726190e-03 9.12175390580580e-05
1.55465217391304e+01 7.11322834873760e-03 9.02037037187032e-05
1.56656521739130e+01 7.00716526054377e-03 8.91985175183448e-05
1.57847826086957e+01 6.90268364559627e-03 8.82019818737200e-05
1.59039130434783e+01 6.79975992303764e-03 8.72140956586573e-05
1.60230434782609e+01 6.69837086299129e-03 8.62348544827443e-05
1.61421739130435e+01 6.59849358322646e-03 8.52642512284366e-05
1.62613043478261e+01 6.50010554205598e-03 8.43022765632260e-05
1.63804347826087e+01 6.40318453332032e-03 8.33489182528418e-05
1.64995652173913e+01 6.30770868315775e-03 8.24041616635196e-05
1.66186956521739e+01 6.21365644325684e-03 8.14679902405388e-05
1.67378260869565e+01 6.12100658606035e-03 8.05403848544821e-05
1.68569565217391e+01 6.02973820163930e-03 7.96213242710370e-05
1.69760869565217e+01 5.93983069128207e-03 7.87107855987007e-05
1.70952173913043e+01 5.85126376290690e-03 7.78087436666057e-05
1.72143478260870e+01 5.76401742803973e-03 7.69151714639683e-05
1.73334782608696e+01 5.67807199572133e-03 7.60300405594331e-05
1.74526086956522e+01 5.59340806811959e-03 7.51533205089599e-05
1.75717391304348e+01 5.51000653760935e-03 7.42849792671355e-05
1.76908695652174e+01 5.42784858098051e-03 7.34249835801993e-05
1.78100000000000e+01 5.34691565524160e-03 7.25732984225835e-05
1.79291304347826e+01 5.26718949479968e-03 7.17298874783413e-05
1.80482608695652e+01 5.18865210552161e-03 7.08947131233708e-05
1.81673913043478e+01 5.11128576245443e-03 7.00677363717805e-05
1.82865217391304e+01 5.03507300449286e-03 6.92489173368152e-05
1.84056521739130e+01 4.95999663048464e-03 6.84382147092611e-05
1.85247826086957e+01 4.88603969657832e-03 6.76355861050568e-05
1.86439130434783e+01 4.81318551115126e-03 6.68409883976233e-05
1.87630434782609e+01 4.74141763108600e-03 6.60543772216762e-05
1.88821739130435e+01 4.67071985921139e-03 6.52757072995435e-05
1.90013043478261e+01 4.60107623947759e-03 6.45049327528627e-05
1.91204347826087e+01 4.53247105339592e-03 6.37420066305732e-05
1.92395652173913e+01 4.46488881757117e-03 6.29868812153798e-05
1.93586956521739e+01 4.39831427911080e-03 6.22395083162345e-05
1.94778260869565e+01 4.33273241222110e-03 6.14998388193628e-05
1.95969565217391e+01 4.26812841582829e-03 6.07678229760784e-05
1.97160869565217e+01 4.20448770921039e-03 6.00434106775028e-05
1.98352173913043e+01 4.14179592874205e-03 5.93265510275094e-05
1.99543478260870e+01 4.08003892560268e-03 5.86171926129746e-05
2.00734782608696e+01 4.01920276161932e-03 5.79152837620299e-05
2.01926086956522e+01 3.95927370615383e-03 5.72207721378252e-05
2.03117391304348e+01 3.90023823389555e-03 5.65336049923808e-05
2.04308695652174e+01 3.84208302090444e-03 5.58537294094577e-05
2.05500000000000e+01 3.78479494163443e-03 5.51810919181144e-05
2.06691304347826e+01 3.72836106680812e-03 5.45156387946889e-05
2.07882608695652e+01 3.67276865938487e-03 5.38573160365275e-05
2.09073913043478e+01 3.61800517277935e-03 5.32060693125335e-05
2.10265217391304e+01 3.56405824721234e-03 5.25618442533945e-05
2.11456521739130e+01 3.51091570694852e-03 5.19245860943012e-05
2.12647826086957e+01 3.45856555830572e-03 5.12942398912255e-05
2.13839130434783e+01 3.40699598618018e-03 5.06707507279165e-05
2.15030434782609e+01 3.35619535140571e-03 5.00540633760371e-05
2.16221739130435e+01 3.30615218883811e-03 4.94441224987587e-05
2.17413043478261e+01 3.25685520404609e-03 4.88408728454517e-05
2.18604347826087e+01 3.20829327078656e-03 4.82442589283842e-05
2.19795652173913e+01 3.16045542916179e-03 4.76542252144283e-05
2.20986956521739e+01 3.11333088246777e-03 4.70707163082297e-05
2.22178260869565e+01 3.06690899478052e-03 4.64936766446662e-05
2.23369565217391e+01 3.02117928918358e-03 4.59230506693369e-05
2.24560869565217e+01 2.97613144476636e-03 4.53587830110308e-05
2.25752173913043e+01 2.93175529431607e-03 4.48008181891631e-05
2.26943478260870e+01 2.88804082261361e-03 4.42491007836606e-05
2.28134782608696e+01 2.84497816357432e-03 4.37035755974631e-05
2.29326086956522e+01 2.80255759804101e-03 4.31641873781805e-05
2.30517391304348e+01 2.76076955214595e-03 4.26308809780344e-05
2.31708695652174e+01 2.71960459458696e-03 4.21036015070071e-05
2.32900000000000e+01 2.67905343451714e-03 4.15822940680154e-05
2.34091304347826e+01 2.63910691997072e-03 4.10669039497381e-05
2.35282608695652e+01 2.59975603510197e-03 4.05573766015087e-05
2.36473913043478e+01 2.56099189883332e-03 4.00536575929983e-05
2.37665217391304e+01 2.52280576234027e-03 3.95556928000379e-05
2.38856521739130e+01 2.48518900709332e-03 3.90634281598550e-05
2.40047826086957e+01 2.44813314338711e-03 3.85768098080468e-05
2.41239130434783e+01 2.41162980794362e-03 3.80957842097661e-05
2.42430434782609e+01 2.37567076204036e-03 3.76202979268284e-05
2.43621739130435e+01 2.34024789009716e-03 3.71502977468874e-05
2.44813043478261e+01 2.30535319739214e-03 3.66857308070469e-05
2.46004347826087e+01 2.27097880827210e-03 3.62265443722564e-05
2.47195652173913e+01 2.23711696479521e-03 3.57726859571542e-05
2.48386956521739e+01 2.20376002455400e-03 3.53241034425688e-05
2.49578260869565e+01 2.17090045896456e-03 3.48807448646494e-05
2.50769565217391e+01 2.13853085196294e-03 3.44425585297727e-05
2.51960869565217e+01 2.10664389793026e-03 3.40094931244177e-05
2.53152173913043e+01 2.07523240005693e-03 3.35814975145033e-05
2.54343478260870e+01 2.04428926909102e-03 3.31585208537158e-05
2.55534782608696e+01 2.01380752136052e-03 3.27405126871973e-05
2.56726086956522e+01 1.98378027720924e-03 3.23274227605701e-05
2.57917391304348e+01 1.95420075979537e-03 3.19192011220867e-05
2.59108695652174e+01 1.92506229320603e-03 3.15157982204907e-05
2.60300000000000e+01 1.89635830096194e-03 3.11171647232544e-05
2.61491304347826e+01 1.86808230486406e-03 3.07232516411910e-05
2.62682608695652e+01 1.84022792309113e-03 3.03340103073100e-05
2.63873913043478e+01 1.81278886919191e-03 2.99493923455954e-05
2.65065217391304e+01 1.78575895034287e-03 2.95693497913378e-05
2.66256521739130e+01 1.75913206596071e-03 2.91938349231360e-05
2.67447826086957e+01 1.73290220662647e-03 2.88228003506810e-05
2.68639130434783e+01 1.70706345242432e-03 2.84561990988722e-05
2.69830434782609e+01 1.68160997161510e-03 2.80939844479093e-05
2.71021739130435e+01 1.65653601960388e-03 2.77361100161824e-05
2.72213043478261e+01 1.63183593735593e-03 2.73825298396339e-05
2.73404347826087e+01 1.60750415012860e-03 2.70331982195434e-05
2.74595652173913e+01 1.58353516648074e-03 2.66880698008119e-05
2.75786956521739e+01 1.55992357676208e-03 2.63470996468468e-05
2.76978260869565e+01 1.53666405190101e-03 2.60102430946686e-05
2.78169565217391e+01 1.51375134245411e-03 2.56774558288244e-05
2.79360869565217e+01 1.49118027716567e-03 2.53486939520957e-05
2.80552173913043e+01 1.46894576180869e-03 2.50239138475653e-05
2.81743478260870e+01 1.44704277827310e-03 2.47030722483816e-05
2.82934782608696e+01 1.42546638319211e-03 2.43861263045553e-05
2.84126086956522e+01 1.40421170683400e-03 2.40730334516391e-05
2.85317391304348e+01 1.38327395222768e-03 2.37637514765836e-05
2.86508695652174e+01 1.36264839385254e-03 2.34582385808458e-05
2.87700000000000e+01 1.34233037657895e-03 2.31564532553602e-05
2.88891304347826e+01 1.32231531482964e-03 2.28583543617571e-05
2.90082608695652e+01 1.30259869126266e-03 2.25639011155345e-05
2.91273913043478e+01 1.28317605602902e-03 2.22730530625007e-05
2.92465217391304e+01 1.26404302556112e-03 2.19857701573369e-05
2.93656521739130e+01 1.24519528158979e-03 2.17020126480105e-05
2.94847826086957e+01 1.22662857036283e-03 2.14217411325132e-05
2.96039130434783e+01 1.20833870148935e-03 2.11449166132361e-05
2.97230434782609e+01 1.19032154700009e-03 2.08715003869081e-05
2.98421739130435e+01 1.17257304059805e-03 2.06014540982208e-05
2.99613043478261e+01 1.15508917655604e-03 2.03347397911792e-05
3.00804347826087e+01 1.13786600881846e-03 2.00713198042963e-05
3.01995652173913e+01 1.12089965028268e-03 1.98111568212799e-05
3.03186956521739e+01 1.10418627174745e-03 1.95542139195317e-05
3.04378260869565e+01 1.08772210105408e-03 1.93004544703475e-05
3.05569565217391e+01 1.07150342239758e-03 1.90498421868145e-05
3.06760869565217e+01 1.05552657532341e-03 1.88023411696427e-05
3.07952173913043e+01 1.03978795390642e-03 1.85579158121248e-05
3.09143478260870e+01 1.02428400609048e-03 1.83165308453834e-05
3.10334782608696e+01 1.00901123273136e-03 1.80781513817000e-05
3.11526086956522e+01 9.93966186811761e-04 1.78427428240008e-05
3.12717391304348e+01 9.79145472808320e-04 1.76102709086033e-05
3.13908695652174e+01 9.64545745778436e-04 1.73807017461855e-05
3.15100000000000e+01 9.50163710609809e-04 1.71540017355744e-05
3.16291304347826e+01 9.35996121413724e-04 1.69301376170198e-05
3.17482608695652e+01 9.22039780610232e-04 1.67090764592054e-05
3.18673913043478e+01 9.08291538385570e-04 1.64907856417389e-05
3.19865217391304e+01 8.94748291847332e-04 1.62752329067575e-05
3.21056521739130e+01 8.81406984328224e-04 1.60623862792088e-05
3.22247826086957e+01 8.68264604821178e-04 1.58522141037478e-05
3.23439130434783e+01 8.55318187173223e-04 1.56446850800975e-05
3.24630434782609e+01 8.42564809419893e-04 1.54397681871148e-05
3.25821739130435e+01 8.30001593243865e-04 1.52374327176854e-05
3.27013043478261e+01 8.17625703205715e-04 1.50376483121414e-05
3.28204347826087e+01 8.05434346107643e-04 1.48403848859280e-05
3.29395652173913e+01 7.93424770474675e-04 1.46456126626090e-05
3.30586956521739e+01 7.81594265820602e-04 1.44533022054494e-05
3.31778260869565e+01 7.69940162039721e-04 1.42634243485119e-05
3.32969565217391e+01 7.58459828909692e-04 1.40759502278669e-05
3.34160869565217e+01 7.47150675391052e-04 1.38908513114561e-05
3.35352173913044e+01 7.36010149045694e-04 1.37080993334545e-05
3.36543478260870e+01 7.25035735560528e-04 1.35276663237702e-05
3.37734782608696e+01 7.14224958079013e-04 1.33495246362960e-05
3.38926086956522e+01 7.03575376645190e-04 1.31736468863744e-05
3.40117391304348e+01 6.93084587747317e-04 1.30000059786855e-05
3.41308695652174e+01 6.82750223679914e-04 1.28285751339741e-05
3.42500000000000e+01 6.72569952012244e-04 1.26593278294691e-05
3.43691304347826e+01 6.62541475151098e-04 1.24922378339981e-05
3.44882608695652e+01 6.52662529703562e-04 1.23272791981457e-05
3.46073913043478e+01 6.42930886082832e-04 1.21644262413582e-05
3.47265217391304e+01 6.33344347917779e-04 1.20036535860027e-05
3.48456521739130e+01 6.23900751559840e-04 1.18449361022602e-05
3.49647826086956e+01 6.14597965676192e-04 1.16882489322290e-05
3.50839130434783e+01 6.05433890686218e-04 1.15335675130231e-05
3.52030434782609e+01 5.96406458290112e-04 1.13808675242644e-05
3.53221739130435e+01 5.87513631079160e-04 1.12301249108905e-05
3.54413043478261e+01 5.78753401997853e-04 1.10813159049943e-05
3.55604347826087e+01 5.70123793893264e-04 1.09344169757910e-05
3.56795652173913e+01 5.61622859141717e-04 1.07894048512015e-05
3.57986956521739e+01 5.53248679135385e-04 1.06462565385032e-05
3.59178260869565e+01 5.44999363851503e-04 1.05049492766549e-05
3.60369565217391e+01 5.36873051494768e-04 1.03654605567159e-05
3.61560869565217e+01 5.28867908007294e-04 1.02277681413813e-05
3.62752173913043e+01 5.20982126656778e-04 1.00918500195514e-05
3.63943478260870e+01 5.13213927693985e-04 9.95768442564323e-06
3.65134782608696e+01 5.05561557884993e-04 9.82524985807930e-06
3.66326086956522e+01 4.98023290117469e-04 9.69452503599149e-06
3.67517391304348e+01 4.90597423072623e-04 9.56548891748474e-06
3.68708695652174e+01 4.83282280778718e-04 9.43812071713582e-06
3.69900000000000e+01 4.76076212234653e-04 9.31239986473200e-06
3.71091304347826e+01 4.68977591095796e-04 9.18830602850533e-06
3.72282608695652e+01 4.61984815229163e-04 9.06581910776306e-06
3.73473913043478e+01 4.55096306428272e-04 8.94491922345105e-06
3.74665217391304e+01 4.48310509999782e-04 8.82558674071638e-06
3.75856521739130e+01 4.41625894414288e-04 8.70780223073353e-06
