Energy (eV)          EEDF (eV^-(3/2))     First Anisotropy
4.46428571428571e-02 1.61724825899598e-01 1.60334417763807e-04
1.33928571428571e-01 1.57785616666579e-01 2.62415470086759e-04
2.23214285714286e-01 1.53942356630231e-01 3.40268114054611e-04
3.12500000000000e-01 1.50192708736174e-01 3.95798947665016e-04
4.01785714285714e-01 1.46534392820019e-01 4.39212160384276e-04
4.91071428571429e-01 1.42965184262787e-01 4.74473906124203e-04
5.80357142857143e-01 1.39482912627022e-01 5.03690346517056e-04
6.69642857142857e-01 1.36085460355489e-01 5.28164856648371e-04
7.58928571428571e-01 1.32770761461313e-01 5.48782221411574e-04
8.48214285714286e-01 1.29536800276522e-01 5.66181750611230e-04
9.37500000000000e-01 1.26381610238313e-01 5.80846659108645e-04
1.02678571428571e+00 1.23303272679685e-01 5.93154811246521e-04
1.11607142857143e+00 1.20299915670234e-01 6.03409635648642e-04
1.20535714285714e+00 1.17369712854474e-01 6.11860013842899e-04
1.29464285714286e+00 1.14510882406815e-01 6.18713654211079e-04
1.38392857142857e+00 1.11721685873293e-01 6.24146411884164e-04
1.47321428571429e+00 1.09000427127750e-01 6.28308971584997e-04
1.56250000000000e+00 1.06345451395502e-01 6.31331779884032e-04
1.65178571428571e+00 1.03755144172465e-01 6.33328754625560e-04
1.74107142857143e+00 1.01227930312843e-01 6.34400131975249e-04
1.83035714285714e+00 9.87622730065280e-02 6.34634689553071e-04
1.91964285714286e+00 9.63566729050681e-02 6.34111506053599e-04
2.00892857142857e+00 9.40096671651160e-02 6.32901378597110e-04
2.09821428571429e+00 9.17198285643461e-02 6.31067966402898e-04
2.18750000000000e+00 8.94857646662232e-02 6.28668737512931e-04
2.27678571428571e+00 8.73061169294334e-02 6.25755750836051e-04
2.36607142857143e+00 8.51795599231320e-02 6.22376310713418e-04
2.45535714285714e+00 8.31048004818690e-02 6.18573519830475e-04
2.54464285714286e+00 8.10805769561736e-02 6.14386748045771e-04
2.63392857142857e+00 7.91056584178911e-02 6.09852037033126e-04
2.72321428571429e+00 7.71788439144862e-02 6.05002442934007e-04
2.81250000000000e+00 7.52989617599370e-02 5.99868338777694e-04
2.90178571428571e+00 7.34648687938966e-02 5.94477675522427e-04
2.99107142857143e+00 7.16754497134906e-02 5.88856210728232e-04
3.08035714285714e+00 6.99296163694598e-02 5.83027710198999e-04
3.16964285714286e+00 6.82263071288727e-02 5.77014125286998e-04
3.25892857142857e+00 6.65644862113820e-02 5.70835752734672e-04
3.34821428571429e+00 6.49431430610229e-02 5.64511372550643e-04
3.43750000000000e+00 6.33612917462011e-02 5.58058375476584e-04
3.52678571428571e+00 6.18179703407869e-02 5.51492875432338e-04
3.61607142857143e+00 6.03122403576716e-02 5.44829810767460e-04
3.70535714285714e+00 5.88431861603894e-02 5.38083035973141e-04
3.79464285714286e+00 5.74099144232324e-02 5.31265404005540e-04
3.88392857142857e+00 5.60115535754260e-02 5.24388842913292e-04
3.97321428571429e+00 5.46472532721722e-02 5.17464422055750e-04
4.06250000000000e+00 5.33161838878421e-02 5.10502415745276e-04
4.15178571428571e+00 5.20175359977666e-02 5.03512359923293e-04
4.24107142857143e+00 5.07505198991750e-02 4.96503104115200e-04
4.33035714285714e+00 4.95143651183696e-02 4.89482859348745e-04
4.41964285714286e+00 4.83083199542959e-02 4.82459241672641e-04
4.50892857142857e+00 4.71316510124226e-02 4.75439313726787e-04
4.59821428571429e+00 4.59836427594599e-02 4.68429620352718e-04
4.68750000000000e+00 4.48635970957223e-02 4.61436224049515e-04
4.77678571428571e+00 4.37708329206511e-02 4.54464736607770e-04
4.86607142857143e+00 4.27046857282131e-02 4.47520348462483e-04
4.95535714285714e+00 4.16645071936126e-02 4.40607856114972e-04
5.04464285714286e+00 4.06496647878937e-02 4.33731687188997e-04
5.13392857142857e+00 3.96595413867051e-02 4.26895924909330e-04
5.22321428571429e+00 3.86935348955064e-02 4.20104328733917e-04
5.31250000000000e+00 3.77510578889736e-02 4.13360355606589e-04
5.40178571428571e+00 3.68315372464098e-02 4.06667178857197e-04
5.49107142857143e+00 3.59344138103332e-02 4.00027705888327e-04
5.58035714285714e+00 3.50591420396161e-02 3.93444594856319e-04
5.66964285714286e+00 3.42051896843275e-02 3.86920269948148e-04
5.75892857142857e+00 3.33720374571628e-02 3.80456936617831e-04
5.84821428571429e+00 3.25591787180048e-02 3.74056594147116e-04
5.93750000000000e+00 3.17661191699984e-02 3.67721049033420e-04
6.02678571428571e+00 3.09923765534278e-02 3.61451926811822e-04
6.11607142857143e+00 3.02374803577980e-02 3.55250683185268e-04
6.20535714285714e+00 2.95009715305663e-02 3.49118614599172e-04
6.29464285714286e+00 2.87824022029609e-02 3.43056867920974e-04
6.38392857142857e+00 2.80813354139282e-02 3.37066450289087e-04
6.47321428571429e+00 2.73973448446622e-02 3.31148237009841e-04
6.56250000000000e+00 2.67300145625246e-02 3.25302980280851e-04
6.65178571428571e+00 2.60789387639054e-02 3.19531316814920e-04
6.74107142857143e+00 2.54437215315188e-02 3.13833775049216e-04
6.83035714285714e+00 2.48239765897233e-02 3.08210782035180e-04
6.91964285714286e+00 2.42193270734154e-02 3.02662669727485e-04
7.00892857142857e+00 2.36294052960338e-02 2.97189681514325e-04
7.09821428571429e+00 2.30538525261496e-02 2.91791977279063e-04
7.18750000000000e+00 2.24923187717501e-02 2.86469639213568e-04
7.27678571428571e+00 2.19444625641781e-02 2.81222676830693e-04
7.36607142857143e+00 2.14099507536068e-02 2.76051031719025e-04
7.45535714285714e+00 2.08884583034362e-02 2.70954582109723e-04
7.54464285714286e+00 2.03796680955522e-02 2.65933147024246e-04
7.63392857142857e+00 1.98832707353151e-02 2.60986490675400e-04
7.72321428571429e+00 1.93989643635504e-02 2.56114325740140e-04
7.81250000000000e+00 1.89264544748666e-02 2.51316317288381e-04
7.90178571428571e+00 1.84654537360685e-02 2.46592086113209e-04
7.99107142857143e+00 1.80156818138460e-02 2.41941211896815e-04
8.08035714285714e+00 1.75768652019678e-02 2.37363236264790e-04
8.16964285714286e+00 1.71487370572217e-02 2.32857665539784e-04
8.25892857142857e+00 1.67310370354624e-02 2.28423973734665e-04
8.34821428571429e+00 1.63235111333984e-02 2.24061604666345e-04
8.43750000000000e+00 1.59259115355937e-02 2.19769974630129e-04
8.52678571428572e+00 1.55379964618278e-02 2.15548474618235e-04
8.61607142857143e+00 1.51595300219503e-02 2.11396472431920e-04
8.70535714285714e+00 1.47902820706166e-02 2.07313314727622e-04
8.79464285714286e+00 1.44300280690978e-02 2.03298328842865e-04
8.88392857142857e+00 1.40785489474254e-02 1.99350824837861e-04
8.97321428571429e+00 1.37356309712520e-02 1.95470096844486e-04
9.06250000000000e+00 1.34010656130238e-02 1.91655424888715e-04
9.15178571428572e+00 1.30746494236534e-02 1.87906076361153e-04
9.24107142857143e+00 1.27561839102761e-02 1.84221307418062e-04
9.33035714285714e+00 1.24454754141203e-02 1.80600364344392e-04
9.41964285714286e+00 1.21423349941247e-02 1.77042484752842e-04
9.50892857142857e+00 1.18465783110134e-02 1.73546898972116e-04
9.59821428571429e+00 1.15580255152587e-02 1.70112830885350e-04
9.68750000000000e+00 1.12765011386142e-02 1.66739499165765e-04
9.77678571428572e+00 1.10018339862165e-02 1.63426118237858e-04
9.86607142857143e+00 1.07338570336409e-02 1.60171899193104e-04
9.95535714285714e+00 1.04724073242109e-02 1.56976050685050e-04
1.00446428571429e+01 1.02173258709926e-02 1.53837779665236e-04
1.01339285714286e+01 9.96845755954360e-03 1.50756292357521e-04
1.02232142857143e+01 9.72565105336425e-03 1.47730794858409e-04
1.03125000000000e+01 9.48875870213180e-03 1.44760494110754e-04
1.04017857142857e+01 9.25763644972775e-03 1.41844597579928e-04
1.04910714285714e+01 9.03214375332744e-03 1.38982314526787e-04
1.05803571428571e+01 8.81214349111148e-03 1.36172857272621e-04
1.06696428571429e+01 8.59750188120349e-03 1.33415440648376e-04
1.07589285714286e+01 8.38808840031413e-03 1.30709282845000e-04
1.08482142857143e+01 8.18377570437712e-03 1.28053605867448e-04
1.09375000000000e+01 7.98443955110768e-03 1.25447636226613e-04
1.10267857142857e+01 7.78995872271548e-03 1.22890604513079e-04
1.11160714285714e+01 7.60021495750051e-03 1.20381746314335e-04
1.12053571428571e+01 7.41509287252421e-03 1.17920303130615e-04
1.12946428571429e+01 7.23447989528648e-03 1.15505521811840e-04
1.13839285714286e+01 7.05826619526786e-03 1.13136655143813e-04
1.14732142857143e+01 6.88634461714712e-03 1.10812962114875e-04
1.15625000000000e+01 6.71861061563732e-03 1.08533708381372e-04
1.16517857142857e+01 6.55496219053026e-03 1.06298165821937e-04
1.17410714285714e+01 6.39529982889592e-03 1.04105613194933e-04
1.18303571428571e+01 6.23952644025963e-03 1.01955336798498e-04
1.19196428571429e+01 6.08754729902667e-03 9.98466299235822e-05
1.20089285714286e+01 5.93926998687777e-03 9.77787932507616e-05
1.20982142857143e+01 5.79460433657371e-03 9.57511349886465e-05
1.21875000000000e+01 5.65346237712256e-03 9.37629711782000e-05
1.22767857142857e+01 5.51575827918129e-03 9.18136252531124e-05
1.23660714285714e+01 5.38140830623678e-03 8.99024285070041e-05
1.24553571428571e+01 5.25033076024595e-03 8.80287205654657e-05
1.25446428571429e+01 5.12244593312468e-03 8.61918488712949e-05
1.26339285714286e+01 4.99767605827592e-03 8.43911689456243e-05
1.27232142857143e+01 4.87594526330300e-03 8.26260444395383e-05
1.28125000000000e+01 4.75717952387006e-03 8.08958473240391e-05
1.29017857142857e+01 4.64130661780466e-03 7.91999574715971e-05
1.29910714285714e+01 4.52825608388014e-03 7.75377629838987e-05
1.30803571428571e+01 4.41795917621516e-03 7.59086605255798e-05
1.31696428571429e+01 4.31034882340520e-03 7.43120548499419e-05
1.32589285714286e+01 4.20535958773538e-03 7.27473589631937e-05
1.33482142857143e+01 4.10292762539022e-03 7.12139941184627e-05
1.34375000000000e+01 4.00299064762905e-03 6.97113899251294e-05
1.35267857142857e+01 3.90548788219946e-03 6.82389839598358e-05
1.36160714285714e+01 3.81036003854866e-03 6.67962219921120e-05
1.37053571428571e+01 3.71754926956028e-03 6.53825582164474e-05
1.37946428571429e+01 3.62699913712820e-03 6.39974548218231e-05
1.38839285714286e+01 3.53865457783580e-03 6.26403820872392e-05
1.39732142857143e+01 3.45246186947372e-03 6.13108183386674e-05
1.40625000000000e+01 3.36836859837053e-03 6.00082500021164e-05
1.41517857142857e+01 3.28632362694996e-03 5.87321712480101e-05
1.42410714285714e+01 3.20627706437667e-03 5.74820841422513e-05
1.43303571428571e+01 3.12818023444180e-03 5.62574988037575e-05
1.44196428571429e+01 3.05198564656654e-03 5.50579330180838e-05
1.45089285714286e+01 2.97764696692246e-03 5.38829122847281e-05
1.45982142857143e+01 2.90511899025736e-03 5.27319697514537e-05
1.46875000000000e+01 2.83435761240528e-03 5.16046462287023e-05
1.47767857142857e+01 2.76531980300750e-03 5.05004898684461e-05
1.48660714285714e+01 2.69796358074966e-03 4.94190562611038e-05
1.49553571428571e+01 2.63224798640239e-03 4.83599085386814e-05
1.50446428571429e+01 2.56813305840011e-03 4.73226170308982e-05
1.51339285714286e+01 2.50557980853992e-03 4.63067592791848e-05
1.52232142857143e+01 2.44455019827405e-03 4.53119199584296e-05
1.53125000000000e+01 2.38500711557806e-03 4.43376908654751e-05
1.54017857142857e+01 2.32691435201228e-03 4.33836706318002e-05
1.54910714285714e+01 2.27023658183664e-03 4.24494647814182e-05
1.55803571428571e+01 2.21493933937455e-03 4.15346857946011e-05
1.56696428571429e+01 2.16098899844656e-03 4.06389528038556e-05
1.57589285714286e+01 2.10835275192197e-03 3.97618915854488e-05
1.58482142857143e+01 2.05699859176969e-03 3.89031344755151e-05
1.59375000000000e+01 2.00689528959373e-03 3.80623203418001e-05
1.60267857142857e+01 1.95801237734346e-03 3.72390943284820e-05
1.61160714285714e+01 1.91032012970218e-03 3.64331078862636e-05
1.62053571428571e+01 1.86378954507774e-03 3.56440188078195e-05
1.62946428571429e+01 1.81839232828382e-03 3.48714909604282e-05
1.63839285714286e+01 1.77410087333333e-03 3.41151942628641e-05
1.64732142857143e+01 1.73088824665191e-03 3.33748046005608e-05
1.65625000000000e+01 1.68872817069930e-03 3.26500037871592e-05
1.66517857142857e+01 1.64759500774722e-03 3.19404793391973e-05
1.67410714285714e+01 1.60746374503097e-03 3.12459244866950e-05
1.68303571428571e+01 1.56830997878337e-03 3.05660381885912e-05
1.69196428571429e+01 1.53010989965162e-03 2.99005248986283e-05
1.70089285714286e+01 1.49284027821860e-03 2.92490945332456e-05
1.70982142857143e+01 1.45647845087761e-03 2.86114623888975e-05
1.71875000000000e+01 1.42100230605037e-03 2.79873490980553e-05
1.72767857142857e+01 1.38639027054413e-03 2.73764804312124e-05
1.73660714285714e+01 1.35262129703459e-03 2.67785872940832e-05
1.74553571428571e+01 1.31967485065424e-03 2.61934057291558e-05
1.75446428571429e+01 1.28753089671327e-03 2.56206767114252e-05
1.76339285714286e+01 1.25616988851631e-03 2.50601461113001e-05
1.77232142857143e+01 1.22557275547652e-03 2.45115646160388e-05
1.78125000000000e+01 1.19572089151854e-03 2.39746876834481e-05
1.79017857142857e+01 1.16659614360432e-03 2.34492753685793e-05
1.79910714285714e+01 1.13818080118273e-03 2.29350923120348e-05
1.80803571428571e+01 1.11045758492222e-03 2.24319077321495e-05
1.81696428571429e+01 1.08340963637229e-03 2.19394952473029e-05
1.82589285714286e+01 1.05702050771170e-03 2.14576328366589e-05
1.83482142857143e+01 1.03127415174691e-03 2.09861027668702e-05
1.84375000000000e+01 1.00615491215366e-03 2.05246915457018e-05
1.85267857142857e+01 9.81647513826307e-04 2.00731897708395e-05
1.86160714285714e+01 9.57737053986264e-04 1.96313921125805e-05
1.87053571428571e+01 9.34408992715089e-04 1.91990972999501e-05
1.87946428571429e+01 9.11649144250167e-04 1.87761079665280e-05
1.88839285714286e+01 8.89443668358241e-04 1.83622306109647e-05
1.89732142857143e+01 8.67779061919433e-04 1.79572755295437e-05
1.90625000000000e+01 8.46642150715879e-04 1.75610567712073e-05
1.91517857142857e+01 8.26020081314708e-04 1.71733920060290e-05
1.92410714285714e+01 8.05900313575081e-04 1.67941025046534e-05
1.93303571428571e+01 7.86270612693373e-04 1.64230131207496e-05
1.94196428571429e+01 7.67119041874982e-04 1.60599521575320e-05
1.95089285714286e+01 7.48433955075490e-04 1.57047513293566e-05
1.95982142857143e+01 7.30203989918908e-04 1.53572457003388e-05
1.96875000000000e+01 7.12418060788127e-04 1.50172736417250e-05
1.97767857142857e+01 6.95065351997563e-04 1.46846767177458e-05
1.98660714285714e+01 6.78135311479484e-04 1.43592996634917e-05
1.99553571428571e+01 6.61617644099125e-04 1.40409903654280e-05
2.00446428571429e+01 6.45502305485290e-04 1.37295997460521e-05
2.01339285714286e+01 6.29779495922314e-04 1.34249817274035e-05
2.02232142857143e+01 6.14439654391016e-04 1.31269931756755e-05
2.03125000000000e+01 5.99473452754580e-04 1.28354938614864e-05
2.04017857142857e+01 5.84871790015806e-04 1.25503463610234e-05
2.04910714285714e+01 5.70625786997584e-04 1.22714160335357e-05
2.05803571428571e+01 5.56726780724757e-04 1.19985710011299e-05
2.06696428571429e+01 5.43166319230436e-04 1.17316820492631e-05
2.07589285714286e+01 5.29936156416315e-04 1.14706225926671e-05
2.08482142857143e+01 5.17028247038347e-04 1.12152686257203e-05
2.09375000000000e+01 5.04434741814380e-04 1.09654986858972e-05
2.10267857142857e+01 4.92147982593613e-04 1.07211937683121e-05
2.11160714285714e+01 4.80160497875016e-04 1.04822373036350e-05
2.12053571428571e+01 4.68464998085377e-04 1.02485151380095e-05
2.12946428571429e+01 4.57054371207137e-04 1.00199154473347e-05
2.13839285714286e+01 4.45921678453539e-04 9.79632870586205e-06
2.14732142857143e+01 4.35060150049252e-04 9.57764764198700e-06
2.15625000000000e+01 4.24463181113633e-04 9.36376720496677e-06
2.16517857142857e+01 4.14124327597394e-04 9.15458449116619e-06
2.17410714285714e+01 4.04037302507258e-04 8.94999872292598e-06
2.18303571428571e+01 3.94195971936954e-04 8.74991122916933e-06
2.19196428571429e+01 3.84594351386729e-04 8.55422537165583e-06
2.20089285714286e+01 3.75226602124143e-04 8.36284651634346e-06
2.20982142857143e+01 3.66087027633619e-04 8.17568199420205e-06
2.21875000000000e+01 3.57170070152359e-04 7.99264107115682e-06
2.22767857142857e+01 3.48470307252316e-04 7.81363488452415e-06
2.23660714285714e+01 3.39982448659978e-04 7.63857642316188e-06
2.24553571428571e+01 3.31701332920067e-04 7.46738050912467e-06
2.25446428571429e+01 3.23621924297364e-04 7.29996373429161e-06
2.26339285714286e+01 3.15739309714452e-04 7.13624443446941e-06
2.27232142857143e+01 3.08048695764144e-04 6.97614265480252e-06
2.28125000000000e+01 3.00545405794586e-04 6.81958012281449e-06
2.29017857142857e+01 2.93224877033991e-04 6.66648019369550e-06
2.29910714285714e+01 2.86082657911910e-04 6.51676783191830e-06
2.30803571428571e+01 2.79114405254613e-04 6.37036959415443e-06
2.31696428571429e+01 2.72315881677144e-04 6.22721357487228e-06
2.32589285714286e+01 2.65682953006557e-04 6.08722938308238e-06
2.33482142857143e+01 2.59211585767976e-04 5.95034811191465e-06
2.34375000000000e+01 2.52897844731817e-04 5.81650231457558e-06
2.35267857142857e+01 2.46737890495065e-04 5.68562595730897e-06
2.36160714285714e+01 2.40727977225074e-04 5.55765440255704e-06
2.37053571428571e+01 2.34864450301768e-04 5.43252439324350e-06
2.37946428571429e+01 2.29143744122417e-04 5.31017400611618e-06
2.38839285714286e+01 2.23562379933380e-04 5.19054263098580e-06
2.39732142857143e+01 2.18116963714712e-04 5.07357094405195e-06
2.40625000000000e+01 2.12804184116254e-04 4.95920088656426e-06
2.41517857142857e+01 2.07620810422918e-04 4.84737562442191e-06
2.42410714285714e+01 2.02563690654467e-04 4.73803953288798e-06
2.43303571428571e+01 1.97629749583264e-04 4.63113818226968e-06
2.44196428571429e+01 1.92815986886475e-04 4.52661829793679e-06
2.45089285714286e+01 1.88119475321563e-04 4.42442774187789e-06
2.45982142857143e+01 1.83537358946263e-04 4.32451548937734e-06
2.46875000000000e+01 1.79066851381877e-04 4.22683161015488e-06
2.47767857142857e+01 1.74705234101584e-04 4.13132723369911e-06
2.48660714285714e+01 1.70449854830106e-04 4.03795453549337e-06
2.49553571428571e+01 1.66298125877116e-04 3.94666672407271e-06
2.50446428571429e+01 1.62247522581908e-04 3.85741800678917e-06
2.51339285714286e+01 1.58295581778142e-04 3.77016357349590e-06
2.52232142857143e+01 1.54439900296021e-04 3.68485957620374e-06
2.53125000000000e+01 1.50678133500916e-04 3.60146311247073e-06
2.54017857142857e+01 1.47007993853401e-04 3.51993219568123e-06
2.54910714285714e+01 1.43427249561538e-04 3.44022574271008e-06
2.55803571428571e+01 1.39933723179614e-04 3.36230356230079e-06
2.56696428571429e+01 1.36525290299011e-04 3.28612632577244e-06
2.57589285714286e+01 1.33199878256349e-04 3.21165555263876e-06
2.58482142857143e+01 1.29955464873117e-04 3.13885359290180e-06
2.59375000000000e+01 1.26790077225983e-04 3.06768361246892e-06
2.60267857142857e+01 1.23701790435404e-04 2.99810956769160e-06
2.61160714285714e+01 1.20688726530697e-04 2.93009619437515e-06
2.62053571428571e+01 1.17749053271821e-04 2.86360899740129e-06
2.62946428571429e+01 1.14880983047488e-04 2.79861422567948e-06
2.63839285714286e+01 1.12082771788115e-04 2.73507885951202e-06
2.64732142857143e+01 1.09352717905269e-04 2.67297059521244e-06
2.65625000000000e+01 1.06689161256927e-04 2.61225783233790e-06
2.66517857142857e+01 1.04090482128372e-04 2.55290965189270e-06
2.67410714285714e+01 1.01555100276478e-04 2.49489580658041e-06
2.68303571428571e+01 9.90814739390127e-05 2.43818671158137e-06
2.69196428571429e+01 9.66680989071856e-05 2.38275342314619e-06
2.70089285714286e+01 9.43135076109412e-05 2.32856762752637e-06
2.70982142857143e+01 9.20162682265412e-05 2.27560162763504e-06
2.71875000000000e+01 8.97749838058686e-05 2.22382833189604e-06
2.72767857142857e+01 8.75882914190722e-05 2.17322123559691e-06
2.73660714285714e+01 8.54548613498079e-05 2.12375441227624e-06
2.74553571428571e+01 8.33733962621722e-05 2.07540250556131e-06
2.75446428571429e+01 8.13426304200976e-05 2.02814071088431e-06
2.76339285714286e+01 7.93613289176555e-05 1.98194476580825e-06
2.77232142857143e+01 7.74282869281213e-05 1.93679093847712e-06
2.78125000000000e+01 7.55423289713159e-05 1.89265601789807e-06
2.79017857142857e+01 7.37023081923214e-05 1.84951729799856e-06
2.79910714285714e+01 7.19071056838521e-05 1.80735257004239e-06
2.80803571428571e+01 7.01556297857229e-05 1.76614011543125e-06
2.81696428571429e+01 6.84468154278422e-05 1.72585869009588e-06
