Energy (eV)          EEDF (eV^-(3/2))     First Anisotropy
2.14062500000000e-02 5.03917672882729e-02 2.36471073523418e-05
6.42187500000000e-02 5.01204458184016e-02 3.90743335250543e-05
1.07031250000000e-01 4.98505852088423e-02 5.16521038467248e-05
1.49843750000000e-01 4.95821775940767e-02 6.12499887924101e-05
1.92656250000000e-01 4.93152151508498e-02 6.92899664082377e-05
2.35468750000000e-01 4.90496900980154e-02 7.63085048801835e-05
2.78281250000000e-01 4.87855946963189e-02 8.25826576333116e-05
3.21093750000000e-01 4.85229212481742e-02 8.82793942586865e-05
3.63906250000000e-01 4.82616620974401e-02 9.35092327737313e-05
4.06718750000000e-01 4.80018096291978e-02 9.83501312010709e-05
4.49531250000000e-01 4.77433562695287e-02 1.02859684745010e-04
4.92343750000000e-01 4.74862944852938e-02 1.07081973647491e-04
5.35156250000000e-01 4.72306167839146e-02 1.11051688614985e-04
5.77968750000000e-01 4.69763157131540e-02 1.14796755595507e-04
6.20781250000000e-01 4.67233838608998e-02 1.18340080269298e-04
6.63593750000000e-01 4.64718138549482e-02 1.21700749682248e-04
7.06406250000000e-01 4.62215983627893e-02 1.24894885045565e-04
7.49218750000000e-01 4.59727300913931e-02 1.27936262508946e-04
7.92031250000000e-01 4.57252017869969e-02 1.30836774999020e-04
8.34843750000000e-01 4.54790062348942e-02 1.33606782394970e-04
8.77656250000000e-01 4.52341362592242e-02 1.36255381499735e-04
9.20468750000000e-01 4.49905847227625e-02 1.38790617270647e-04
9.63281250000000e-01 4.47483445267134e-02 1.41219650280144e-04
1.00609375000000e+00 4.45074086105028e-02 1.43548891054550e-04
1.04890625000000e+00 4.42677699515725e-02 1.45784108998491e-04
1.09171875000000e+00 4.40294215651752e-02 1.47930521572545e-04
1.13453125000000e+00 4.37923565041715e-02 1.49992867951755e-04
1.17734375000000e+00 4.35565678588268e-02 1.51975470359965e-04
1.22015625000000e+00 4.33220487566104e-02 1.53882285523223e-04
1.26296875000000e+00 4.30887923619948e-02 1.55716948131236e-04
1.30578125000000e+00 4.28567918762568e-02 1.57482807781981e-04
1.34859375000000e+00 4.26260405372789e-02 1.59182960572298e-04
1.39140625000000e+00 4.23965316193528e-02 1.60820276259059e-04
1.43421875000000e+00 4.21682584329829e-02 1.62397421731743e-04
1.47703125000000e+00 4.19412143246913e-02 1.63916881394680e-04
1.51984375000000e+00 4.17153926768244e-02 1.65380974945547e-04
1.56265625000000e+00 4.14907869073592e-02 1.66791872948283e-04
1.60546875000000e+00 4.12673904697123e-02 1.68151610528196e-04
1.64828125000000e+00 4.10451968525486e-02 1.69462099460918e-04
1.69109375000000e+00 4.08241995795913e-02 1.70725138881401e-04
1.73390625000000e+00 4.06043922094339e-02 1.71942424802191e-04
1.77671875000000e+00 4.03857683353517e-02 1.73115558600336e-04
1.81953125000000e+00 4.01683215851153e-02 1.74246054607358e-04
1.86234375000000e+00 3.99520456208052e-02 1.75335346916568e-04
1.90515625000000e+00 3.97369341386265e-02 1.76384795505090e-04
1.94796875000000e+00 3.95229808687257e-02 1.77395691753852e-04
1.99078125000000e+00 3.93101795750076e-02 1.78369263436982e-04
2.03359375000000e+00 3.90985240549536e-02 1.79306679242366e-04
2.07640625000000e+00 3.88880081394411e-02 1.80209052876609e-04
2.11921875000000e+00 3.86786256925634e-02 1.81077446800679e-04
2.16203125000000e+00 3.84703706114510e-02 1.81912875636507e-04
2.20484375000000e+00 3.82632368260939e-02 1.82716309279683e-04
2.24765625000000e+00 3.80572182991644e-02 1.83488675748985e-04
2.29046875000000e+00 3.78523090258412e-02 1.84230863799799e-04
2.33328125000000e+00 3.76485030336344e-02 1.84943725325221e-04
2.37609375000000e+00 3.74457943822115e-02 1.85628077565682e-04
2.41890625000000e+00 3.72441771632242e-02 1.86284705145889e-04
2.46171875000000e+00 3.70436455001360e-02 1.86914361955374e-04
2.50453125000000e+00 3.68441935480514e-02 1.87517772887257e-04
2.54734375000000e+00 3.66458154935451e-02 1.88095635448377e-04
2.59015625000000e+00 3.64485055544924e-02 1.88648621252316e-04
2.63296875000000e+00 3.62522579799014e-02 1.89177377405723e-04
2.67578125000000e+00 3.60570670497447e-02 1.89682527797266e-04
2.71859375000000e+00 3.58629270747930e-02 1.90164674297584e-04
2.76140625000000e+00 3.56698323964490e-02 1.90624397877727e-04
2.80421875000000e+00 3.54777773865830e-02 1.91062259652903e-04
2.84703125000000e+00 3.52867564473681e-02 1.91478801857605e-04
2.88984375000000e+00 3.50967640111178e-02 1.91874548757652e-04
2.93265625000000e+00 3.49077945401232e-02 1.92250007504124e-04
2.97546875000000e+00 3.47198425264918e-02 1.92605668933809e-04
3.01828125000000e+00 3.45329024919870e-02 1.92942008320237e-04
3.06109375000000e+00 3.43469689878681e-02 1.93259486079016e-04
3.10390625000000e+00 3.41620365947321e-02 1.93558548430871e-04
3.14671875000000e+00 3.39780999223551e-02 1.93839628025632e-04
3.18953125000000e+00 3.37951536095356e-02 1.94103144529883e-04
3.23234375000000e+00 3.36131923239380e-02 1.94349505180842e-04
3.27515625000000e+00 3.34322107619375e-02 1.94579105309046e-04
3.31796875000000e+00 3.32522036484650e-02 1.94792328831811e-04
3.36078125000000e+00 3.30731657368539e-02 1.94989548719616e-04
3.40359375000000e+00 3.28950918086869e-02 1.95171127437147e-04
3.44640625000000e+00 3.27179766736437e-02 1.95337417360752e-04
3.48921875000000e+00 3.25418151693501e-02 1.95488761173929e-04
3.53203125000000e+00 3.23666021612275e-02 1.95625492242116e-04
3.57484375000000e+00 3.21923325423429e-02 1.95747934968236e-04
3.61765625000000e+00 3.20190012332603e-02 1.95856405130253e-04
3.66046875000000e+00 3.18466031818926e-02 1.95951210201748e-04
3.70328125000000e+00 3.16751333633545e-02 1.96032649656664e-04
3.74609375000000e+00 3.15045867798159e-02 1.96101015259200e-04
3.78890625000000e+00 3.13349584603559e-02 1.96156591339621e-04
3.83171875000000e+00 3.11662434608187e-02 1.96199655056988e-04
3.87453125000000e+00 3.09984368636687e-02 1.96230476649526e-04
3.91734375000000e+00 3.08315337778476e-02 1.96249319673300e-04
3.96015625000000e+00 3.06655293386318e-02 1.96256441229968e-04
4.00296875000000e+00 3.05004187074904e-02 1.96252092184102e-04
4.04578125000000e+00 3.03361970719446e-02 1.96236517370868e-04
4.08859375000000e+00 3.01728596454268e-02 1.96209955794407e-04
4.13140625000000e+00 3.00104016671417e-02 1.96172640817505e-04
4.17421875000000e+00 2.98488184019272e-02 1.96124800343085e-04
4.21703125000000e+00 2.96881051401164e-02 1.96066656987866e-04
4.25984375000000e+00 2.95282571974004e-02 1.95998428248682e-04
4.30265625000000e+00 2.93692699146919e-02 1.95920326661792e-04
4.34546875000000e+00 2.92111386579890e-02 1.95832559955631e-04
4.38828125000000e+00 2.90538588182406e-02 1.95735331197264e-04
4.43109375000000e+00 2.88974258112118e-02 1.95628838932839e-04
4.47390625000000e+00 2.87418350773503e-02 1.95513277322459e-04
4.51671875000000e+00 2.85870820816535e-02 1.95388836269693e-04
4.55953125000000e+00 2.84331623135363e-02 1.95255701545937e-04
4.60234375000000e+00 2.82800712866999e-02 1.95114054909978e-04
4.64515625000000e+00 2.81278045390007e-02 1.94964074222952e-04
4.68796875000000e+00 2.79763576323202e-02 1.94805933558851e-04
4.73078125000000e+00 2.78257261524361e-02 1.94639803310964e-04
4.77359375000000e+00 2.76759057088931e-02 1.94465850294250e-04
4.81640625000000e+00 2.75268919348752e-02 1.94284237843914e-04
4.85921875000000e+00 2.73786804870786e-02 1.94095125910412e-04
4.90203125000000e+00 2.72312670455848e-02 1.93898671151055e-04
4.94484375000000e+00 2.70846473137345e-02 1.93695027018211e-04
4.98765625000000e+00 2.69388170180031e-02 1.93484343844376e-04
5.03046875000000e+00 2.67937719078755e-02 1.93266768924359e-04
5.07328125000000e+00 2.66495077557222e-02 1.93042446594493e-04
5.11609375000000e+00 2.65060203566767e-02 1.92811518309095e-04
5.15890625000000e+00 2.63633055285122e-02 1.92574122714356e-04
5.20171875000000e+00 2.62213591115200e-02 1.92330395719723e-04
5.24453125000000e+00 2.60801769683885e-02 1.92080470566831e-04
5.28734375000000e+00 2.59397549840823e-02 1.91824477896179e-04
5.33015625000000e+00 2.58000890657223e-02 1.91562545811566e-04
5.37296875000000e+00 2.56611751424665e-02 1.91294799942422e-04
5.41578125000000e+00 2.55230091653912e-02 1.91021363504126e-04
5.45859375000000e+00 2.53855871073732e-02 1.90742357356402e-04
5.50140625000000e+00 2.52489049629723e-02 1.90457900059822e-04
5.54421875000000e+00 2.51129587483144e-02 1.90168107930493e-04
5.58703125000000e+00 2.49777445009758e-02 1.89873095093080e-04
5.62984375000000e+00 2.48432582798672e-02 1.89572973532174e-04
5.67265625000000e+00 2.47094961651193e-02 1.89267853142040e-04
5.71546875000000e+00 2.45764542579682e-02 1.88957841774894e-04
5.75828125000000e+00 2.44441286806419e-02 1.88643045287662e-04
5.80109375000000e+00 2.43125155762472e-02 1.88323567587350e-04
5.84390625000000e+00 2.41816111086575e-02 1.87999510675082e-04
5.88671875000000e+00 2.40514114624007e-02 1.87670974688820e-04
5.92953125000000e+00 2.39219128425482e-02 1.87338057944821e-04
5.97234375000000e+00 2.37931114746042e-02 1.87000856977928e-04
6.01515625000000e+00 2.36650036043956e-02 1.86659466580629e-04
6.05796875000000e+00 2.35375854979629e-02 1.86313979841019e-04
6.10078125000000e+00 2.34108534414509e-02 1.85964488179718e-04
6.14359375000000e+00 2.32848037410008e-02 1.85611081385735e-04
6.18640625000000e+00 2.31594327226425e-02 1.85253847651320e-04
6.22921875000000e+00 2.30347367321873e-02 1.84892873605805e-04
6.27203125000000e+00 2.29107121351217e-02 1.84528244348579e-04
6.31484375000000e+00 2.27873553165011e-02 1.84160043481133e-04
6.35765625000000e+00 2.26646626808449e-02 1.83788353138218e-04
6.40046875000000e+00 2.25426306520311e-02 1.83413254018206e-04
6.44328125000000e+00 2.24212556731927e-02 1.83034825412593e-04
6.48609375000000e+00 2.23005342066135e-02 1.82653145234734e-04
6.52890625000000e+00 2.21804627336256e-02 1.82268290047832e-04
6.57171875000000e+00 2.20610377545059e-02 1.81880335092186e-04
6.61453125000000e+00 2.19422557883752e-02 1.81489354311729e-04
6.65734375000000e+00 2.18241133730959e-02 1.81095420379876e-04
6.70015625000000e+00 2.17066070651713e-02 1.80698604724711e-04
6.74296875000000e+00 2.15897334396456e-02 1.80298977553541e-04
6.78578125000000e+00 2.14734890900036e-02 1.79896607876828e-04
6.82859375000000e+00 2.13578706280717e-02 1.79491563531541e-04
6.87140625000000e+00 2.12428746839190e-02 1.79083911203855e-04
6.91421875000000e+00 2.11284979057591e-02 1.78673716451368e-04
6.95703125000000e+00 2.10147369598524e-02 1.78261043724743e-04
6.99984375000000e+00 2.09015885304091e-02 1.77845956388780e-04
7.04265625000000e+00 2.07890493194923e-02 1.77428516743077e-04
7.08546875000000e+00 2.06771160469220e-02 1.77008786042073e-04
7.12828125000000e+00 2.05657854501795e-02 1.76586824514682e-04
7.17109375000000e+00 2.04550542843124e-02 1.76162691383470e-04
7.21390625000000e+00 2.03449193218397e-02 1.75736444883339e-04
7.25671875000000e+00 2.02353773526580e-02 1.75308142279790e-04
7.29953125000000e+00 2.01264251839480e-02 1.74877839886755e-04
7.34234375000000e+00 2.00180596400812e-02 1.74445593084012e-04
7.38515625000000e+00 1.99102775625275e-02 1.74011456334231e-04
7.42796875000000e+00 1.98030758097630e-02 1.73575483199584e-04
7.47078125000000e+00 1.96964512571787e-02 1.73137726357997e-04
7.51359375000000e+00 1.95904007969890e-02 1.72698237619055e-04
7.55640625000000e+00 1.94849213381417e-02 1.72257067939487e-04
7.59921875000000e+00 1.93800098062272e-02 1.71814267438378e-04
7.64203125000000e+00 1.92756631433896e-02 1.71369885412029e-04
7.68484375000000e+00 1.91718783082371e-02 1.70923970348438e-04
7.72765625000000e+00 1.90686522757533e-02 1.70476569941523e-04
7.77046875000000e+00 1.89659820372096e-02 1.70027731104990e-04
7.81328125000000e+00 1.88638646000768e-02 1.69577499985913e-04
7.85609375000000e+00 1.87622969879384e-02 1.69125921978042e-04
7.89890625000000e+00 1.86612762404034e-02 1.68673041734815e-04
7.94171875000000e+00 1.85607994130207e-02 1.68218903182092e-04
7.98453125000000e+00 1.84608635771923e-02 1.67763549530600e-04
8.02734375000000e+00 1.83614658200890e-02 1.67307023288140e-04
8.07015625000000e+00 1.82626032445645e-02 1.66849366271522e-04
8.11296875000000e+00 1.81642729690718e-02 1.66390619618286e-04
8.15578125000000e+00 1.80664721275787e-02 1.65930823798104e-04
8.19859375000000e+00 1.79691978694844e-02 1.65470018624017e-04
8.24140625000000e+00 1.78724473595364e-02 1.65008243263466e-04
8.28421875000000e+00 1.77762177777480e-02 1.64545536248987e-04
8.32703125000000e+00 1.76805063193159e-02 1.64081935488776e-04
8.36984375000000e+00 1.75853101945385e-02 1.63617478277035e-04
8.41265625000000e+00 1.74906266287348e-02 1.63152201304082e-04
8.45546875000000e+00 1.73964528621632e-02 1.62686140666263e-04
8.49828125000000e+00 1.73027861499412e-02 1.62219331875682e-04
8.54109375000000e+00 1.72096237619656e-02 1.61751809869744e-04
8.58390625000000e+00 1.71169629828324e-02 1.61283609020479e-04
8.62671875000000e+00 1.70248011117585e-02 1.60814763143723e-04
8.66953125000000e+00 1.69331354625019e-02 1.60345305508085e-04
8.71234375000000e+00 1.68419633632844e-02 1.59875268843754e-04
8.75515625000000e+00 1.67512821567130e-02 1.59404685351153e-04
8.79796875000000e+00 1.66610891997031e-02 1.58933586709401e-04
8.84078125000000e+00 1.65713818634008e-02 1.58462004084627e-04
8.88359375000000e+00 1.64821575331067e-02 1.57989968138119e-04
8.92640625000000e+00 1.63934136081995e-02 1.57517509034332e-04
8.96921875000000e+00 1.63051475020604e-02 1.57044656448723e-04
9.01203125000000e+00 1.62173566419976e-02 1.56571439575472e-04
9.05484375000000e+00 1.61300384691710e-02 1.56097887135032e-04
9.09765625000000e+00 1.60431904385183e-02 1.55624027381531e-04
9.14046875000000e+00 1.59568100186802e-02 1.55149888110068e-04
9.18328125000000e+00 1.58708946919270e-02 1.54675496663852e-04
9.22609375000000e+00 1.57854419540848e-02 1.54200879941250e-04
9.26890625000000e+00 1.57004493144631e-02 1.53726064402627e-04
9.31171875000000e+00 1.56159142957817e-02 1.53251076077151e-04
9.35453125000000e+00 1.55318344340986e-02 1.52775940569400e-04
9.39734375000000e+00 1.54482072787386e-02 1.52300683065898e-04
9.44015625000000e+00 1.53650303922211e-02 1.51825328341535e-04
9.48296875000000e+00 1.52823013501897e-02 1.51349900765839e-04
9.52578125000000e+00 1.52000177413414e-02 1.50874424309165e-04
9.56859375000000e+00 1.51181771673562e-02 1.50398922548757e-04
9.61140625000000e+00 1.50367772428270e-02 1.49923418674709e-04
9.65421875000000e+00 1.49558155951905e-02 1.49447935495844e-04
9.69703125000000e+00 1.48752898646580e-02 1.48972495445456e-04
9.73984375000000e+00 1.47951977041463e-02 1.48497120586959e-04
9.78265625000000e+00 1.47155367792093e-02 1.48021832619468e-04
9.82546875000000e+00 1.46363047679705e-02 1.47546652883248e-04
9.86828125000000e+00 1.45574993610547e-02 1.47071602365077e-04
9.91109375000000e+00 1.44791182615209e-02 1.46596701703525e-04
9.95390625000000e+00 1.44011591847956e-02 1.46121971194156e-04
9.99671875000000e+00 1.43236198586057e-02 1.45647430794619e-04
1.00395312500000e+01 1.42464980229129e-02 1.45173100129653e-04
1.00823437500000e+01 1.41697914298473e-02 1.44698998496032e-04
1.01251562500000e+01 1.40934978436421e-02 1.44225144867399e-04
1.01679687500000e+01 1.40176150405683e-02 1.43751557899027e-04
1.02107812500000e+01 1.39421408088702e-02 1.43278255932529e-04
1.02535937500000e+01 1.38670729487007e-02 1.42805257000437e-04
1.02964062500000e+01 1.37924092720570e-02 1.42332578830743e-04
1.03392187500000e+01 1.37181476027173e-02 1.41860238851375e-04
1.03820312500000e+01 1.36442857761770e-02 1.41388254194550e-04
1.04248437500000e+01 1.35708216395856e-02 1.40916641701109e-04
1.04676562500000e+01 1.34977530516842e-02 1.40445417924754e-04
1.05104687500000e+01 1.34250778827430e-02 1.39974599136215e-04
1.05532812500000e+01 1.33527940144990e-02 1.39504201327368e-04
1.05960937500000e+01 1.32808993400947e-02 1.39034240215275e-04
1.06389062500000e+01 1.32093917640162e-02 1.38564731246142e-04
1.06817187500000e+01 1.31382692020324e-02 1.38095689599243e-04
1.07245312500000e+01 1.30675295811342e-02 1.37627130190780e-04
1.07673437500000e+01 1.29971708394743e-02 1.37159067677637e-04
1.08101562500000e+01 1.29271909263065e-02 1.36691516461138e-04
1.08529687500000e+01 1.28575878019267e-02 1.36224490690721e-04
1.08957812500000e+01 1.27883594376128e-02 1.35758004267498e-04
1.09385937500000e+01 1.27195038155658e-02 1.35292070847871e-04
1.09814062500000e+01 1.26510189288514e-02 1.34826703847030e-04
1.10242187500000e+01 1.25829027813406e-02 1.34361916442350e-04
1.10670312500000e+01 1.25151533876524e-02 1.33897721576795e-04
1.11098437500000e+01 1.24477687730954e-02 1.33434131962271e-04
1.11526562500000e+01 1.23807469736106e-02 1.32971160082927e-04
1.11954687500000e+01 1.23140860357137e-02 1.32508818198375e-04
1.12382812500000e+01 1.22477840164387e-02 1.32047118346844e-04
1.12810937500000e+01 1.21818389832809e-02 1.31586072348374e-04
1.13239062500000e+01 1.21162490141405e-02 1.31125691807885e-04
1.13667187500000e+01 1.20510121972670e-02 1.30665988118199e-04
1.14095312500000e+01 1.19861266312032e-02 1.30206972463064e-04
1.14523437500000e+01 1.19215904247296e-02 1.29748655820093e-04
1.14951562500000e+01 1.18574016968096e-02 1.29291048963666e-04
1.15379687500000e+01 1.17935585765348e-02 1.28834162467813e-04
1.15807812500000e+01 1.17300592030698e-02 1.28378006709017e-04
1.16235937500000e+01 1.16669017255986e-02 1.27922591868994e-04
1.16664062500000e+01 1.16040843032705e-02 1.27467927937427e-04
1.17092187500000e+01 1.15416051051463e-02 1.27014024714672e-04
1.17520312500000e+01 1.14794623101450e-02 1.26560891814419e-04
1.17948437500000e+01 1.14176541069908e-02 1.26108538666282e-04
1.18376562500000e+01 1.13561786941602e-02 1.25656974518411e-04
1.18804687500000e+01 1.12950342798296e-02 1.25206208440005e-04
1.19232812500000e+01 1.12342190818229e-02 1.24756249323828e-04
1.19660937500000e+01 1.11737313275599e-02 1.24307105888694e-04
1.20089062500000e+01 1.11135692540041e-02 1.23858786681843e-04
1.20517187500000e+01 1.10537311076117e-02 1.23411300081374e-04
1.20945312500000e+01 1.09942151442806e-02 1.22964654298622e-04
1.21373437500000e+01 1.09350196292992e-02 1.22518857380461e-04
1.21801562500000e+01 1.08761428372960e-02 1.22073917211585e-04
1.22229687500000e+01 1.08175830521894e-02 1.21629841516778e-04
1.22657812500000e+01 1.07593385671375e-02 1.21186637863152e-04
1.23085937500000e+01 1.07014076844885e-02 1.20744313662336e-04
1.23514062500000e+01 1.06437887157312e-02 1.20302876172638e-04
1.23942187500000e+01 1.05864799814457e-02 1.19862332501164e-04
1.24370312500000e+01 1.05294798112546e-02 1.19422689605934e-04
1.24798437500000e+01 1.04727865437740e-02 1.18983954297968e-04
1.25226562500000e+01 1.04163985265656e-02 1.18546133243311e-04
1.25654687500000e+01 1.03603141160879e-02 1.18109232965032e-04
1.26082812500000e+01 1.03045316776489e-02 1.17673259845250e-04
1.26510937500000e+01 1.02490495853580e-02 1.17238220127054e-04
1.26939062500000e+01 1.01938662220789e-02 1.16804119916458e-04
1.27367187500000e+01 1.01389799793823e-02 1.16370965184300e-04
1.27795312500000e+01 1.00843892574991e-02 1.15938761768095e-04
1.28223437500000e+01 1.00300924652736e-02 1.15507515373918e-04
1.28651562500000e+01 9.97608802011759e-03 1.15077231578212e-04
1.29079687500000e+01 9.92237434796355e-03 1.14647915829582e-04
1.29507812500000e+01 9.86894988321931e-03 1.14219573450585e-04
1.29935937500000e+01 9.81581306872219e-03 1.13792209639469e-04
1.30364062500000e+01 9.76296235569365e-03 1.13365829471894e-04
1.30792187500000e+01 9.71039620369413e-03 1.12940437902647e-04
1.31220312500000e+01 9.65811308057821e-03 1.12516039767308e-04
1.31648437500000e+01 9.60611146244987e-03 1.12092639783917e-04
1.32076562500000e+01 9.55438983361814e-03 1.11670242554597e-04
1.32504687500000e+01 9.50294668655288e-03 1.11248852567163e-04
1.32932812500000e+01 9.45178052184088e-03 1.10828474196711e-04
1.33360937500000e+01 9.40088984814210e-03 1.10409111707193e-04
1.33789062500000e+01 9.35027318214628e-03 1.09990769252964e-04
1.34217187500000e+01 9.29992904852961e-03 1.09573450880282e-04
1.34645312500000e+01 9.24985597991182e-03 1.09157160528830e-04
1.35073437500000e+01 9.20005251681336e-03 1.08741902033208e-04
