################################
# DATA CONSIDERED FOR THE TESTS#
################################

# elastic momentum transfer constant rate coefficient = 1.000000e-12 (m3s-1)
#                                     gas temperature = 300.000000 (K)
#                           mass of the heavy species = 40.000000 (uam)
#               decades of decay ensured for the eedf = 15 
#                 number of cells for the energy grid = 1700 

E/N(Td)              Te_th(eV)            Te_sim(eV)           RelError(Te)         RelError(EEDF)
0.00000000000000e+00 2.58519910116516e-02 2.58460053225339e-02 2.31536871378198e-04 5.44711666652148e-04 
1.00000000000000e+00 3.01268347033801e-02 3.01198662104038e-02 2.31305181738250e-04 5.43638318790248e-04 
2.00000000000000e+00 4.29513657785653e-02 4.29414593489436e-02 2.30642947952279e-04 5.40575940866803e-04 
3.00000000000000e+00 6.43255842372075e-02 6.43107113279726e-02 2.31212967767778e-04 5.43211328221576e-04 
4.00000000000000e+00 9.42494900793065e-02 9.42276220695229e-02 2.32022579275179e-04 5.46965137127092e-04 
5.00000000000000e+00 1.32723083304862e-01 1.32692401563750e-01 2.31171099618082e-04 5.43017538741108e-04 
6.00000000000000e+00 1.79746363913875e-01 1.79704734892661e-01 2.31598683320039e-04 5.44998175563812e-04 
7.00000000000000e+00 2.35319331906345e-01 2.35264831967682e-01 2.31599920928896e-04 5.45003920798674e-04 
8.00000000000000e+00 2.99441987282271e-01 2.99373112155046e-01 2.30011588722548e-04 5.37663969647855e-04 
9.00000000000000e+00 3.72114330041654e-01 3.72027687082221e-01 2.32839620617476e-04 5.50765780695931e-04 
1.00000000000000e+01 4.53336360184494e-01 4.53230970668395e-01 2.32475321539044e-04 5.49069527803176e-04 
1.10000000000000e+01 5.43108077710791e-01 5.42981912947405e-01 2.32301393707477e-04 5.48260664378459e-04 
1.20000000000000e+01 6.41429482620545e-01 6.41280513923997e-01 2.32244854008762e-04 5.47997711403911e-04 
1.30000000000000e+01 7.48300574913756e-01 7.48127823483431e-01 2.30858342377462e-04 5.41571189437497e-04 
1.40000000000000e+01 8.63721354590423e-01 8.63521742201308e-01 2.31107391352981e-04 5.42722814928148e-04 
1.50000000000000e+01 9.87691821650547e-01 9.87463319664831e-01 2.31349476332194e-04 5.43843441493743e-04 
1.60000000000000e+01 1.12021197609413e+00 1.11995255587242e+00 2.31581367853023e-04 5.44917878468099e-04 
1.70000000000000e+01 1.26128181792117e+00 1.26098945079334e+00 2.31801587617497e-04 5.45939350724800e-04 
1.80000000000000e+01 1.41090134713166e+00 1.41057505421451e+00 2.31265579138815e-04 5.43454839360865e-04 
1.90000000000000e+01 1.56907056372561e+00 1.56870726689418e+00 2.31536324645052e-04 5.44709092386388e-04 
2.00000000000000e+01 1.73578946770302e+00 1.73538713813596e+00 2.31784772605230e-04 5.45861196757610e-04 
2.10000000000000e+01 1.91105805906389e+00 1.91061571819235e+00 2.31463858170189e-04 5.44373435623619e-04 
2.20000000000000e+01 2.09487633780821e+00 2.09439090698653e+00 2.31722900735706e-04 5.45574211396487e-04 
2.30000000000000e+01 2.28724430393599e+00 2.28671480449161e+00 2.31501044058906e-04 5.44545562117865e-04 
2.40000000000000e+01 2.48816195744723e+00 2.48758636064247e+00 2.31334139256101e-04 5.43772354743775e-04 
2.50000000000000e+01 2.69762929834192e+00 2.69700452602973e+00 2.31600506626959e-04 5.45006578781866e-04 
2.60000000000000e+01 2.91564632662007e+00 2.91496824823539e+00 2.32565376152496e-04 5.49488690449579e-04 
2.70000000000000e+01 3.14221304228167e+00 3.14148067791623e+00 2.33072791561360e-04 5.51852707577187e-04 
2.80000000000000e+01 3.37732944532674e+00 3.37654392194177e+00 2.32587136577757e-04 5.49589860067026e-04 
2.90000000000000e+01 3.62099553575526e+00 3.62015797414478e+00 2.31306998920260e-04 5.43646723815032e-04 
3.00000000000000e+01 3.87321131356724e+00 3.87231233295321e+00 2.32102134700577e-04 5.47334576894456e-04 
3.10000000000000e+01 4.13397677876267e+00 4.13301750111344e+00 2.32047178919083e-04 5.47079411476760e-04 
3.20000000000000e+01 4.40329193134156e+00 4.40227347758248e+00 2.31293717282757e-04 5.43585263705233e-04 
3.30000000000000e+01 4.68115677130391e+00 4.68006976224495e+00 2.32209496939406e-04 5.47833481147189e-04 
3.40000000000000e+01 4.96757129864971e+00 4.96641685540519e+00 2.32395908406429e-04 5.48700040107663e-04 
3.50000000000000e+01 5.26253551337897e+00 5.26131476018146e+00 2.31970538614059e-04 5.46723419683392e-04 
3.60000000000000e+01 5.56604941549169e+00 5.56476347041922e+00 2.31033714665526e-04 5.42381979869474e-04 
3.70000000000000e+01 5.87811300498787e+00 5.87675249255393e+00 2.31453943260810e-04 5.44327360332016e-04 
3.80000000000000e+01 6.19872628186750e+00 6.19729232165400e+00 2.31331429763888e-04 5.43759927202626e-04 
3.90000000000000e+01 6.52788924613059e+00 6.52638295555838e+00 2.30746955932474e-04 5.41056214076313e-04 
4.00000000000000e+01 6.86560189777713e+00 6.86401390614526e+00 2.31296782935729e-04 5.43599361393526e-04 
4.10000000000000e+01 7.21186423680714e+00 7.21019566194153e+00 2.31365262963786e-04 5.43916470036154e-04 
4.20000000000000e+01 7.56667626322060e+00 7.56492822458268e+00 2.31018029199233e-04 5.42309412502942e-04 
4.30000000000000e+01 7.93003797701751e+00 7.92820110050923e+00 2.31635272568333e-04 5.45167905526896e-04 
4.40000000000000e+01 8.30194937819788e+00 8.30002478197634e+00 2.31824615384483e-04 5.46046038184778e-04 
4.50000000000000e+01 8.68241046676172e+00 8.68039927332674e+00 2.31639985540549e-04 5.45189761280938e-04 
4.60000000000000e+01 9.07142124270900e+00 9.06932457049575e+00 2.31129407085514e-04 5.42824715840289e-04 
4.70000000000000e+01 9.46898170603975e+00 9.46679018080225e+00 2.31442546361468e-04 5.44274466646191e-04 
4.80000000000000e+01 9.87509185675395e+00 9.87280659766352e+00 2.31416489444085e-04 5.44153846037826e-04 
4.90000000000000e+01 1.02897516948516e+01 1.02873738214413e+01 2.31091427744679e-04 5.42649046402965e-04 
5.00000000000000e+01 1.07129612203327e+01 1.07104813583863e+01 2.31482397388785e-04 5.44459071846388e-04 
