Energy (eV)          EEDF (eV^-(3/2))     First Anisotropy
2.33333333333333e-02 9.30499833828108e-02 5.58190001057540e-05
7.00000000000000e-02 9.22284850276303e-02 9.20756969183618e-05
1.16666666666667e-01 9.14142393299476e-02 1.21292763250236e-04
1.63333333333333e-01 9.06071822577480e-02 1.43333045172768e-04
2.10000000000000e-01 8.98072503441978e-02 1.61586139085527e-04
2.56666666666667e-01 8.90143806888091e-02 1.77337318351795e-04
3.03333333333333e-01 8.82285109382288e-02 1.91253542008896e-04
3.50000000000000e-01 8.74495792933966e-02 2.03738646074074e-04
3.96666666666667e-01 8.66775245031469e-02 2.15061169994205e-04
4.43333333333333e-01 8.59122858525497e-02 2.25411408933789e-04
4.90000000000000e-01 8.51538031648786e-02 2.34930594744065e-04
5.36666666666667e-01 8.44020167962515e-02 2.43727310214867e-04
5.83333333333333e-01 8.36568676262560e-02 2.51887394777661e-04
6.30000000000000e-01 8.29182970579411e-02 2.59480258162395e-04
6.76666666666667e-01 8.21862470128616e-02 2.66563085032525e-04
7.23333333333333e-01 8.14606599229881e-02 2.73183735613915e-04
7.70000000000000e-01 8.07414787296812e-02 2.79382807876559e-04
8.16666666666667e-01 8.00286468789823e-02 2.85195142145795e-04
8.63333333333333e-01 7.93221083143690e-02 2.90650941807254e-04
9.10000000000000e-01 7.86218074751331e-02 2.95776624531317e-04
9.56666666666667e-01 7.79276892918553e-02 3.00595480453134e-04
1.00333333333333e+00 7.72396991797753e-02 3.05128187673373e-04
1.05000000000000e+00 7.65577830347490e-02 3.09393220355686e-04
1.09666666666667e+00 7.58818872388856e-02 3.13407180236842e-04
1.14333333333333e+00 7.52119586348076e-02 3.17185062922942e-04
1.19000000000000e+00 7.45479445408169e-02 3.20740474763546e-04
1.23666666666667e+00 7.38897927458601e-02 3.24085818525492e-04
1.28333333333333e+00 7.32374514887955e-02 3.27232442767488e-04
1.33000000000000e+00 7.25908694709409e-02 3.30190767110409e-04
1.37666666666667e+00 7.19499958513287e-02 3.32970393799008e-04
1.42333333333333e+00 7.13147802282334e-02 3.35580197575835e-04
1.47000000000000e+00 7.06851726496846e-02 3.38028402452856e-04
1.51666666666667e+00 7.00611236089588e-02 3.40322652990609e-04
1.56333333333333e+00 6.94425840279423e-02 3.42470071215005e-04
1.61000000000000e+00 6.88295052660243e-02 3.44477305950646e-04
1.65666666666667e+00 6.82218391157900e-02 3.46350580727867e-04
1.70333333333333e+00 6.76195377879041e-02 3.48095731329639e-04
1.75000000000000e+00 6.70225539186908e-02 3.49718238720105e-04
1.79666666666667e+00 6.64308405660019e-02 3.51223262648039e-04
1.84333333333333e+00 6.58443511953831e-02 3.52615667246578e-04
1.89000000000000e+00 6.52630396865721e-02 3.53900043699802e-04
1.93666666666667e+00 6.46868603295227e-02 3.55080734693493e-04
1.98333333333333e+00 6.41157678116692e-02 3.56161852345362e-04
2.03000000000000e+00 6.35497172235206e-02 3.57147294205730e-04
2.07666666666667e+00 6.29886640548278e-02 3.58040761625009e-04
2.12333333333333e+00 6.24325641827973e-02 3.58845772592113e-04
2.17000000000000e+00 6.18813738769248e-02 3.59565673265210e-04
2.21666666666667e+00 6.13350497952921e-02 3.60203652160973e-04
2.26333333333333e+00 6.07935489736132e-02 3.60762749514460e-04
2.31000000000000e+00 6.02568288294193e-02 3.61245865730073e-04
2.35666666666667e+00 5.97248471584775e-02 3.61655772617108e-04
2.40333333333333e+00 5.91975621245712e-02 3.61995120314259e-04
2.45000000000000e+00 5.86749322631284e-02 3.62266443568346e-04
2.49666666666667e+00 5.81569164777553e-02 3.62472170827744e-04
2.54333333333333e+00 5.76434740306696e-02 3.62614629425302e-04
2.59000000000000e+00 5.71345645458493e-02 3.62696050293629e-04
2.63666666666667e+00 5.66301480056733e-02 3.62718575469044e-04
2.68333333333333e+00 5.61301847419406e-02 3.62684262005795e-04
2.73000000000000e+00 5.56346354386016e-02 3.62595085546057e-04
2.77666666666667e+00 5.51434611285021e-02 3.62452946619752e-04
2.82333333333333e+00 5.46566231849289e-02 3.62259673619549e-04
2.87000000000000e+00 5.41740833239788e-02 3.62017025518922e-04
2.91666666666667e+00 5.36958036013984e-02 3.61726697242404e-04
2.96333333333333e+00 5.32217464046096e-02 3.61390321935411e-04
3.01000000000000e+00 5.27518744547587e-02 3.61009473039919e-04
3.05666666666667e+00 5.22861508036499e-02 3.60585668934624e-04
3.10333333333333e+00 5.18245388262064e-02 3.60120374668732e-04
3.15000000000000e+00 5.13670022222393e-02 3.59615003547540e-04
3.19666666666667e+00 5.09135050134701e-02 3.59070921190006e-04
3.24333333333333e+00 5.04640115363904e-02 3.58489446850682e-04
3.29000000000000e+00 5.00184864437836e-02 3.57871854627462e-04
3.33666666666667e+00 4.95768947018331e-02 3.57219377047385e-04
3.38333333333333e+00 4.91392015833482e-02 3.56533206069110e-04
3.43000000000000e+00 4.87053726690668e-02 3.55814493996770e-04
3.47666666666667e+00 4.82753738448459e-02 3.55064356678621e-04
3.52333333333333e+00 4.78491712952257e-02 3.54283874259698e-04
3.57000000000000e+00 4.74267315045373e-02 3.53474091865244e-04
3.61666666666667e+00 4.70080212541733e-02 3.52636022477613e-04
3.66333333333333e+00 4.65930076164639e-02 3.51770647492149e-04
3.71000000000000e+00 4.61816579556122e-02 3.50878917218789e-04
3.75666666666667e+00 4.57739399250407e-02 3.49961753488534e-04
3.80333333333333e+00 4.53698214615583e-02 3.49020050053426e-04
3.85000000000000e+00 4.49692707861411e-02 3.48054672943794e-04
3.89666666666667e+00 4.45722564013532e-02 3.47066462844960e-04
3.94333333333333e+00 4.41787470857829e-02 3.46056235373068e-04
3.99000000000000e+00 4.37887118946870e-02 3.45024781317311e-04
4.03666666666667e+00 4.34021201574826e-02 3.43972868819373e-04
4.08333333333333e+00 4.30189414724352e-02 3.42901243550100e-04
4.13000000000000e+00 4.26391457071800e-02 3.41810628859649e-04
4.17666666666667e+00 4.22627029962835e-02 3.40701727786162e-04
4.22333333333333e+00 4.18895837361666e-02 3.39575223152931e-04
4.27000000000000e+00 4.15197585855160e-02 3.38431777644632e-04
4.31666666666667e+00 4.11531984629133e-02 3.37272035666927e-04
4.36333333333333e+00 4.07898745419782e-02 3.36096623379738e-04
4.41000000000000e+00 4.04297582516819e-02 3.34906148714142e-04
4.45666666666667e+00 4.00728212740411e-02 3.33701203100766e-04
4.50333333333333e+00 3.97190355394684e-02 3.32482361451696e-04
4.55000000000000e+00 3.93683732269977e-02 3.31250182129692e-04
4.59666666666667e+00 3.90208067620409e-02 3.30005208560248e-04
4.64333333333333e+00 3.86763088119335e-02 3.28747969172259e-04
4.69000000000000e+00 3.83348522860808e-02 3.27478977328938e-04
4.73666666666667e+00 3.79964103337764e-02 3.26198732836106e-04
4.78333333333333e+00 3.76609563399302e-02 3.24907721849822e-04
4.83000000000000e+00 3.73284639251452e-02 3.23606416776597e-04
4.87666666666667e+00 3.69989069435942e-02 3.22295277688491e-04
4.92333333333333e+00 3.66722594789220e-02 3.20974752204347e-04
4.97000000000000e+00 3.63484958442583e-02 3.19645275365538e-04
5.01666666666667e+00 3.60275905801520e-02 3.18307270966970e-04
5.06333333333333e+00 3.57095184506376e-02 3.16961151417354e-04
5.11000000000000e+00 3.53942544431908e-02 3.15607317595497e-04
5.15666666666667e+00 3.50817737667192e-02 3.14246160105026e-04
5.20333333333333e+00 3.47720518477833e-02 3.12878059118171e-04
5.25000000000000e+00 3.44650643305015e-02 3.11503384216795e-04
5.29666666666667e+00 3.41607870745955e-02 3.10122495577537e-04
5.34333333333333e+00 3.38591961517573e-02 3.08735743802744e-04
5.39000000000000e+00 3.35602678455097e-02 3.07343469749667e-04
5.43666666666667e+00 3.32639786493039e-02 3.05946005651983e-04
5.48333333333333e+00 3.29703052630260e-02 3.04543674940842e-04
5.53000000000000e+00 3.26792245928172e-02 3.03136792065060e-04
5.57666666666667e+00 3.23907137492222e-02 3.01725663554148e-04
5.62333333333333e+00 3.21047500438285e-02 3.00310587831964e-04
5.67000000000000e+00 3.18213109890502e-02 2.98891855030270e-04
5.71666666666667e+00 3.15403742963265e-02 2.97469747997798e-04
5.76333333333333e+00 3.12619178728864e-02 2.96044542108595e-04
5.81000000000000e+00 3.09859198215008e-02 2.94616505070840e-04
5.85666666666667e+00 3.07123584387290e-02 2.93185897885963e-04
5.90333333333333e+00 3.04412122118038e-02 2.91752974653396e-04
5.95000000000000e+00 3.01724598183543e-02 2.90317982376262e-04
5.99666666666667e+00 2.99060801247002e-02 2.88881161874152e-04
6.04333333333333e+00 2.96420521828502e-02 2.87442747585677e-04
6.09000000000000e+00 2.93803552302005e-02 2.86002967372334e-04
6.13666666666667e+00 2.91209686878740e-02 2.84562043388177e-04
6.18333333333333e+00 2.88638721578281e-02 2.83120191881328e-04
6.23000000000000e+00 2.86090454225304e-02 2.81677622997133e-04
6.27666666666667e+00 2.83564684433429e-02 2.80234541607582e-04
6.32333333333333e+00 2.81061213577332e-02 2.78791147112748e-04
6.37000000000000e+00 2.78579844789311e-02 2.77347633244167e-04
6.41666666666667e+00 2.76120382943555e-02 2.75904188856613e-04
6.46333333333333e+00 2.73682634629252e-02 2.74460997730287e-04
6.51000000000000e+00 2.71266408146981e-02 2.73018238375145e-04
6.55666666666667e+00 2.68871513493405e-02 2.71576084787312e-04
6.60333333333333e+00 2.66497762335321e-02 2.70134706252756e-04
6.65000000000000e+00 2.64144968005912e-02 2.68694267153175e-04
6.69666666666667e+00 2.61812945489839e-02 2.67254927689226e-04
6.74333333333333e+00 2.59501511398206e-02 2.65816843686186e-04
6.79000000000000e+00 2.57210483964676e-02 2.64380166401913e-04
6.83666666666667e+00 2.54939683030970e-02 2.62945043218864e-04
6.88333333333333e+00 2.52688930022690e-02 2.61511617452128e-04
6.93000000000000e+00 2.50458047945332e-02 2.60080028159912e-04
6.97666666666667e+00 2.48246861370168e-02 2.58650410806166e-04
7.02333333333333e+00 2.46055196410904e-02 2.57222897071348e-04
7.07000000000000e+00 2.43882880719594e-02 2.55797614665738e-04
7.11666666666667e+00 2.41729743472904e-02 2.54374687964305e-04
7.16333333333333e+00 2.39595615349561e-02 2.52954237820515e-04
7.21000000000000e+00 2.37480328526198e-02 2.51536381382726e-04
7.25666666666667e+00 2.35383716663972e-02 2.50121232702822e-04
7.30333333333333e+00 2.33305614886788e-02 2.48708902553338e-04
7.35000000000000e+00 2.31245859777070e-02 2.47299498247126e-04
7.39666666666667e+00 2.29204289362745e-02 2.45893124221108e-04
7.44333333333333e+00 2.27180743096190e-02 2.44489881856894e-04
7.49000000000000e+00 2.25175061849963e-02 2.43089869303915e-04
7.53666666666667e+00 2.23187087904122e-02 2.41693182039657e-04
7.58333333333333e+00 2.21216664925882e-02 2.40299912693816e-04
7.63000000000000e+00 2.19263637965304e-02 2.38910150875075e-04
7.67666666666667e+00 2.17327853442951e-02 2.37523983708950e-04
7.72333333333333e+00 2.15409159130225e-02 2.36141495665678e-04
7.77000000000000e+00 2.13507404145019e-02 2.34762768390683e-04
7.81666666666667e+00 2.11622438939707e-02 2.33387881221157e-04
7.86333333333333e+00 2.09754115282125e-02 2.32016911017731e-04
7.91000000000000e+00 2.07902286251211e-02 2.30649931998694e-04
7.95666666666667e+00 2.06066806225304e-02 2.29287016236402e-04
8.00333333333333e+00 2.04247530863760e-02 2.27928233492759e-04
8.05000000000000e+00 2.02444317102569e-02 2.26573651057232e-04
8.09666666666667e+00 2.00657023142974e-02 2.25223334223999e-04
8.14333333333333e+00 1.98885508433683e-02 2.23877346131313e-04
8.19000000000000e+00 1.97129633666483e-02 2.22535747603303e-04
8.23666666666667e+00 1.95389260765162e-02 2.21198597608846e-04
8.28333333333333e+00 1.93664252868297e-02 2.19865953104746e-04
8.33000000000000e+00 1.91954474324873e-02 2.18537868881385e-04
8.37666666666667e+00 1.90259790683501e-02 2.17214398004112e-04
8.42333333333333e+00 1.88580068675752e-02 2.15895591660244e-04
8.47000000000000e+00 1.86915176211802e-02 2.14581499008555e-04
8.51666666666667e+00 1.85264982369920e-02 2.13272167603974e-04
8.56333333333333e+00 1.83629357380352e-02 2.11967643248419e-04
8.61000000000000e+00 1.82008172620968e-02 2.10667969844075e-04
8.65666666666667e+00 1.80401300607040e-02 2.09373189802172e-04
8.70333333333333e+00 1.78808614975633e-02 2.08083343897618e-04
8.75000000000000e+00 1.77229990481279e-02 2.06798471125980e-04
8.79666666666667e+00 1.75665302986021e-02 2.05518609097109e-04
8.84333333333333e+00 1.74114429444305e-02 2.04243793893493e-04
8.89000000000000e+00 1.72577247898678e-02 2.02974059930942e-04
8.93666666666667e+00 1.71053637470096e-02 2.01709440337670e-04
8.98333333333333e+00 1.69543478343295e-02 2.00449966816372e-04
9.03000000000000e+00 1.68046651762517e-02 1.99195669508546e-04
9.07666666666667e+00 1.66563040022078e-02 1.97946577359647e-04
9.12333333333333e+00 1.65092526452198e-02 1.96702717984843e-04
9.17000000000000e+00 1.63634995414763e-02 1.95464117536892e-04
9.21666666666667e+00 1.62190332294141e-02 1.94230801058033e-04
9.26333333333333e+00 1.60758423483458e-02 1.93002792349283e-04
9.31000000000000e+00 1.59339156380396e-02 1.91780113841864e-04
9.35666666666667e+00 1.57932419378256e-02 1.90562786936348e-04
9.40333333333333e+00 1.56538101852657e-02 1.89350831875462e-04
9.45000000000000e+00 1.55156094157385e-02 1.88144267619013e-04
9.49666666666667e+00 1.53786287615678e-02 1.86943112170799e-04
9.54333333333333e+00 1.52428574507354e-02 1.85747382454857e-04
9.59000000000000e+00 1.51082848064690e-02 1.84557094193801e-04
9.63666666666667e+00 1.49749002463951e-02 1.83372262224029e-04
9.68333333333333e+00 1.48426932812904e-02 1.82192900375338e-04
9.73000000000000e+00 1.47116535146756e-02 1.81019021352609e-04
9.77666666666667e+00 1.45817706419894e-02 1.79850637039768e-04
9.82333333333333e+00 1.44530344493798e-02 1.78687758382762e-04
9.87000000000000e+00 1.43254348133016e-02 1.77530395274444e-04
9.91666666666667e+00 1.41989616997129e-02 1.76378556847795e-04
9.96333333333333e+00 1.40736051629034e-02 1.75232251362122e-04
1.00100000000000e+01 1.39493553450969e-02 1.74091485964851e-04
1.00566666666667e+01 1.38262024760327e-02 1.72956267480690e-04
1.01033333333333e+01 1.37041368703725e-02 1.71826601792792e-04
1.01500000000000e+01 1.35831489291423e-02 1.70702493106478e-04
1.01966666666667e+01 1.34632291392853e-02 1.69583945981983e-04
1.02433333333333e+01 1.33443680693799e-02 1.68470964224566e-04
1.02900000000000e+01 1.32265563724499e-02 1.67363549664146e-04
1.03366666666667e+01 1.31097847851648e-02 1.66261704630346e-04
1.03833333333333e+01 1.29940441237178e-02 1.65165430750876e-04
1.04300000000000e+01 1.28793252865144e-02 1.64074727770796e-04
1.04766666666667e+01 1.27656192533959e-02 1.62989595945746e-04
1.05233333333333e+01 1.26529170816683e-02 1.61910034879243e-04
1.05700000000000e+01 1.25412099086775e-02 1.60836042380234e-04
1.06166666666667e+01 1.24304889510528e-02 1.59767616777423e-04
1.06633333333333e+01 1.23207455008832e-02 1.58704755794156e-04
1.07100000000000e+01 1.22119709281817e-02 1.57647455442937e-04
1.07566666666667e+01 1.21041566801504e-02 1.56595712263649e-04
1.08033333333333e+01 1.19972942774964e-02 1.55549522234757e-04
1.08500000000000e+01 1.18913753167921e-02 1.54508879703461e-04
1.08966666666667e+01 1.17863914697596e-02 1.53473779550577e-04
1.09433333333333e+01 1.16823344797221e-02 1.52444216136765e-04
1.09900000000000e+01 1.15791961638632e-02 1.51420182267129e-04
1.10366666666667e+01 1.14769684125319e-02 1.50401671285311e-04
1.10833333333333e+01 1.13756431858220e-02 1.49388676053574e-04
1.11300000000000e+01 1.12752125157374e-02 1.48381187950670e-04
1.11766666666667e+01 1.11756685055143e-02 1.47379198897632e-04
1.12233333333333e+01 1.10770033263265e-02 1.46382700370539e-04
1.12700000000000e+01 1.09792092193579e-02 1.45391682430519e-04
1.13166666666667e+01 1.08822784951443e-02 1.44406135683641e-04
1.13633333333333e+01 1.07862035303970e-02 1.43426050325268e-04
1.14100000000000e+01 1.06909767699886e-02 1.42451415201073e-04
1.14566666666667e+01 1.05965907263129e-02 1.41482219703350e-04
1.15033333333333e+01 1.05030379762224e-02 1.40518452845873e-04
1.15500000000000e+01 1.04103111629309e-02 1.39560102354883e-04
1.15966666666667e+01 1.03184029953916e-02 1.38607156504002e-04
1.16433333333333e+01 1.02273062453430e-02 1.37659603218581e-04
1.16900000000000e+01 1.01370137491338e-02 1.36717429195645e-04
1.17366666666667e+01 1.00475184071162e-02 1.35780621679562e-04
1.17833333333333e+01 9.95881318079874e-03 1.34849167594840e-04
1.18300000000000e+01 9.87089109459398e-03 1.33923052694069e-04
1.18766666666667e+01 9.78374523522947e-03 1.33002263276394e-04
1.19233333333333e+01 9.69736874900091e-03 1.32086785347821e-04
1.19700000000000e+01 9.61175484344791e-03 1.31176603796191e-04
1.20166666666667e+01 9.52689678678076e-03 1.30271704054406e-04
1.20633333333333e+01 9.44278790523086e-03 1.29372071287353e-04
1.21100000000000e+01 9.35942158465729e-03 1.28477689592992e-04
1.21566666666667e+01 9.27679126998909e-03 1.27588543612243e-04
1.22033333333333e+01 9.19489046266920e-03 1.26704617741605e-04
1.22500000000000e+01 9.11371272219481e-03 1.25825895359516e-04
1.22966666666667e+01 9.03325166557479e-03 1.24952360384698e-04
1.23433333333333e+01 8.95350096486347e-03 1.24083996513626e-04
1.23900000000000e+01 8.87445434863770e-03 1.23220786471300e-04
1.24366666666667e+01 8.79610560146905e-03 1.22362713519830e-04
1.24833333333333e+01 8.71844856154385e-03 1.21509760719922e-04
1.25300000000000e+01 8.64147712207986e-03 1.20661910205239e-04
1.25766666666667e+01 8.56518523081270e-03 1.19819144642899e-04
1.26233333333333e+01 8.48956688769903e-03 1.18981446518197e-04
1.26700000000000e+01 8.41461614627524e-03 1.18148797431779e-04
1.27166666666667e+01 8.34032711315789e-03 1.17321179513685e-04
1.27633333333333e+01 8.26669394582669e-03 1.16498574730514e-04
1.28100000000000e+01 8.19371085392795e-03 1.15680964204662e-04
1.28566666666667e+01 8.12137209878841e-03 1.14868329583484e-04
1.29033333333333e+01 8.04967199127517e-03 1.14060652368158e-04
1.29500000000000e+01 7.97860489304613e-03 1.13257913254254e-04
1.29966666666667e+01 7.90816521607700e-03 1.12460093457515e-04
1.30433333333333e+01 7.83834742059516e-03 1.11667174063727e-04
1.30900000000000e+01 7.76914601627941e-03 1.10879135389906e-04
1.31366666666667e+01 7.70055556179976e-03 1.10095958268154e-04
1.31833333333333e+01 7.63257066282253e-03 1.09317623415831e-04
1.32300000000000e+01 7.56518597316148e-03 1.08544110816696e-04
1.32766666666667e+01 7.49839619433012e-03 1.07775400964232e-04
1.33233333333333e+01 7.43219607361523e-03 1.07011474251455e-04
1.33700000000000e+01 7.36658040518168e-03 1.06252310371363e-04
1.34166666666667e+01 7.30154402963669e-03 1.05497889521071e-04
1.34633333333333e+01 7.23708183216938e-03 1.04748191810623e-04
1.35100000000000e+01 7.17318874361112e-03 1.04003196682095e-04
1.35566666666667e+01 7.10985974001152e-03 1.03262884075869e-04
1.36033333333333e+01 7.04708984084154e-03 1.02527233857813e-04
1.36500000000000e+01 6.98487411001119e-03 1.01796225256446e-04
1.36966666666667e+01 6.92320765545698e-03 1.01069837992581e-04
1.37433333333333e+01 6.86208562740623e-03 1.00348051724286e-04
1.37900000000000e+01 6.80150321935394e-03 9.96308455015255e-05
1.38366666666667e+01 6.74145566766140e-03 9.89181988603818e-05
1.38833333333333e+01 6.68193824987935e-03 9.82100912852211e-05
1.39300000000000e+01 6.62294628568587e-03 9.75065016802249e-05
1.39766666666667e+01 6.56447513649571e-03 9.68074094293856e-05
1.40233333333333e+01 6.50652020384032e-03 9.61127938753041e-05
1.40700000000000e+01 6.44907693026817e-03 9.54226338070772e-05
1.41166666666667e+01 6.39214079896475e-03 9.47369084871645e-05
1.41633333333333e+01 6.33570733218716e-03 9.40555971463022e-05
1.42100000000000e+01 6.27977209212865e-03 9.33786784872103e-05
1.42566666666667e+01 6.22433068054879e-03 9.27061316794282e-05
1.43033333333333e+01 6.16937873726081e-03 9.20379358698088e-05
1.43500000000000e+01 6.11491194096176e-03 9.13740697015299e-05
1.43966666666667e+01 6.06092600887260e-03 9.07145122779666e-05
1.44433333333333e+01 6.00741669527636e-03 9.00592426882541e-05
1.44900000000000e+01 5.95437979231535e-03 8.94082395411200e-05
1.45366666666667e+01 5.90181112964095e-03 8.87614818987824e-05
1.45833333333333e+01 5.84970657300068e-03 8.81189488171074e-05
1.46300000000000e+01 5.79806202500392e-03 8.74806188937911e-05
1.46766666666667e+01 5.74687342478099e-03 8.68464711732540e-05
1.47233333333333e+01 5.69613674661757e-03 8.62164847009341e-05
