Energy (eV)          EEDF (eV^-(3/2))     First Anisotropy
2.86000000000000e-02 1.33309286933348e-01 9.95791826110227e-05
8.58000000000000e-02 1.31477418930159e-01 1.63854600223283e-04
1.43000000000000e-01 1.29670723519541e-01 2.14778350987575e-04
2.00200000000000e-01 1.27888854792695e-01 2.52547998166813e-04
2.57400000000000e-01 1.26131471594055e-01 2.83298122501008e-04
3.14600000000000e-01 1.24398237456027e-01 3.09372508486889e-04
3.71800000000000e-01 1.22688820534582e-01 3.31996158073908e-04
4.29000000000000e-01 1.21002893545717e-01 3.51915970485034e-04
4.86200000000000e-01 1.19340133702801e-01 3.69631993151833e-04
5.43400000000000e-01 1.17700222654770e-01 3.85500932361452e-04
6.00600000000000e-01 1.16082846425176e-01 3.99789245088413e-04
6.57800000000000e-01 1.14487695352078e-01 4.12703083532714e-04
7.15000000000000e-01 1.12914464028747e-01 4.24406417198740e-04
7.72200000000000e-01 1.11362851245199e-01 4.35032615339903e-04
8.29400000000000e-01 1.09832559930523e-01 4.44692179921970e-04
8.86600000000000e-01 1.08323297096005e-01 4.53478096509452e-04
9.43800000000000e-01 1.06834773779032e-01 4.61469649215833e-04
1.00100000000000e+00 1.05366704987766e-01 4.68735210537283e-04
1.05820000000000e+00 1.03918809646583e-01 4.75334326598418e-04
1.11540000000000e+00 1.02490810542253e-01 4.81319305682230e-04
1.17260000000000e+00 1.01082434270873e-01 4.86736448758387e-04
1.22980000000000e+00 9.96934111855126e-02 4.91627016913270e-04
1.28700000000000e+00 9.83234753445936e-02 4.96028002056128e-04
1.34420000000000e+00 9.69723644609703e-02 4.99972748240644e-04
1.40140000000000e+00 9.56398198517128e-02 5.03491457961797e-04
1.45860000000000e+00 9.43255863885794e-02 5.06611608763905e-04
1.51580000000000e+00 9.30294124491705e-02 5.09358299111039e-04
1.57300000000000e+00 9.17510498687524e-02 5.11754537880760e-04
1.63020000000000e+00 9.04902538927446e-02 5.13821488494345e-04
1.68740000000000e+00 8.92467831298585e-02 5.15578676221573e-04
1.74460000000000e+00 8.80203995058811e-02 5.17044165346809e-04
1.80180000000000e+00 8.68108682180933e-02 5.18234711481941e-04
1.85900000000000e+00 8.56179576903152e-02 5.19165893240378e-04
1.91620000000000e+00 8.44414395285679e-02 5.19852226659295e-04
1.97340000000000e+00 8.32810884773457e-02 5.20307265112918e-04
2.03060000000000e+00 8.21366823764890e-02 5.20543686953691e-04
2.08780000000000e+00 8.10080021186492e-02 5.20573372717121e-04
2.14500000000000e+00 7.98948316073390e-02 5.20407473406771e-04
2.20220000000000e+00 7.87969577155582e-02 5.20056471119055e-04
2.25940000000000e+00 7.77141702449889e-02 5.19530233059833e-04
2.31660000000000e+00 7.66462618857510e-02 5.18838059836225e-04
2.37380000000000e+00 7.55930281767104e-02 5.17988728768812e-04
2.43100000000000e+00 7.45542674663337e-02 5.16990532855900e-04
2.48820000000000e+00 7.35297808740794e-02 5.15851315927652e-04
2.54540000000000e+00 7.25193722523206e-02 5.14578504449613e-04
2.60260000000000e+00 7.15228481487908e-02 5.13179136370282e-04
2.65980000000000e+00 7.05400177695457e-02 5.11659887352655e-04
2.71700000000000e+00 6.95706929424335e-02 5.10027094683437e-04
2.77420000000000e+00 6.86146880810678e-02 5.08286779115041e-04
2.83140000000000e+00 6.76718201492957e-02 5.06444664862229e-04
2.88860000000000e+00 6.67419086261530e-02 5.04506197947217e-04
2.94580000000000e+00 6.58247754713025e-02 5.02476563062975e-04
3.00300000000000e+00 6.49202450909463e-02 5.00360699103692e-04
3.06020000000000e+00 6.40281443042062e-02 4.98163313493869e-04
3.11740000000000e+00 6.31483023099674e-02 4.95888895431851e-04
3.17460000000000e+00 6.22805506541765e-02 4.93541728150598e-04
3.23180000000000e+00 6.14247231975894e-02 4.91125900286769e-04
3.28900000000000e+00 6.05806560839625e-02 4.88645316439134e-04
3.34620000000000e+00 5.97481877086811e-02 4.86103706988737e-04
3.40340000000000e+00 5.89271586878180e-02 4.83504637245356e-04
3.46060000000000e+00 5.81174118276188e-02 4.80851515978108e-04
3.51780000000000e+00 5.73187920944048e-02 4.78147603382186e-04
3.57500000000000e+00 5.65311465848911e-02 4.75396018528369e-04
3.63220000000000e+00 5.57543244969115e-02 4.72599746337473e-04
3.68940000000000e+00 5.49881771005457e-02 4.69761644117578e-04
3.74660000000000e+00 5.42325577096441e-02 4.66884447698496e-04
3.80380000000000e+00 5.34873216537432e-02 4.63970777194537e-04
3.86100000000000e+00 5.27523262503666e-02 4.61023142423750e-04
3.91820000000000e+00 5.20274307777079e-02 4.58043948009388e-04
3.97540000000000e+00 5.13124964476874e-02 4.55035498186855e-04
4.03260000000000e+00 5.06073863793805e-02 4.52000001337447e-04
4.08980000000000e+00 4.99119655728099e-02 4.48939574268346e-04
4.14700000000000e+00 4.92261008830991e-02 4.45856246256616e-04
4.20420000000000e+00 4.85496609949804e-02 4.42751962873422e-04
4.26140000000000e+00 4.78825163976531e-02 4.39628589603489e-04
4.31860000000000e+00 4.72245393599879e-02 4.36487915273397e-04
4.37580000000000e+00 4.65756039060711e-02 4.33331655301367e-04
4.43300000000000e+00 4.59355857910856e-02 4.30161454780131e-04
4.49020000000000e+00 4.53043624775232e-02 4.26978891403464e-04
4.54740000000000e+00 4.46818131117231e-02 4.23785478246377e-04
4.60460000000000e+00 4.40678185007339e-02 4.20582666407929e-04
4.66180000000000e+00 4.34622610894926e-02 4.17371847525225e-04
4.71900000000000e+00 4.28650249383179e-02 4.14154356166261e-04
4.77620000000000e+00 4.22759957007120e-02 4.10931472108879e-04
4.83340000000000e+00 4.16950606014684e-02 4.07704422512605e-04
4.89060000000000e+00 4.11221084150798e-02 4.04474383989475e-04
4.94780000000000e+00 4.05570294444426e-02 4.01242484579723e-04
5.00500000000000e+00 3.99997154998550e-02 3.98009805637654e-04
5.06220000000000e+00 3.94500598783026e-02 3.94777383632764e-04
5.11940000000000e+00 3.89079573430290e-02 3.91546211870787e-04
5.17660000000000e+00 3.83733041033879e-02 3.88317242138961e-04
5.23380000000000e+00 3.78459977949707e-02 3.85091386279645e-04
5.29100000000000e+00 3.73259374600079e-02 3.81869517696125e-04
5.34820000000000e+00 3.68130235280405e-02 3.78652472794093e-04
5.40540000000000e+00 3.63071577968553e-02 3.75441052362160e-04
5.46260000000000e+00 3.58082434136841e-02 3.72236022894596e-04
5.51980000000000e+00 3.53161848566595e-02 3.69038117859152e-04
5.57700000000000e+00 3.48308879165270e-02 3.65848038912737e-04
5.63420000000000e+00 3.43522596786073e-02 3.62666457067553e-04
5.69140000000000e+00 3.38802085050072e-02 3.59494013810082e-04
5.74860000000000e+00 3.34146440170744e-02 3.56331322175275e-04
5.80580000000000e+00 3.29554770780938e-02 3.53178967778031e-04
5.86300000000000e+00 3.25026197762216e-02 3.50037509804021e-04
5.92020000000000e+00 3.20559854076535e-02 3.46907481961748e-04
5.97740000000000e+00 3.16154884600243e-02 3.43789393397697e-04
6.03460000000000e+00 3.11810445960362e-02 3.40683729576207e-04
6.09180000000000e+00 3.07525706373114e-02 3.37590953125722e-04
6.14900000000000e+00 3.03299845484665e-02 3.34511504652919e-04
6.20620000000000e+00 2.99132054214068e-02 3.31445803526138e-04
6.26340000000000e+00 2.95021534598350e-02 3.28394248629515e-04
6.32060000000000e+00 2.90967499639735e-02 3.25357219089056e-04
6.37780000000000e+00 2.86969173154972e-02 3.22335074971892e-04
6.43500000000000e+00 2.83025789626720e-02 3.19328157959871e-04
6.49220000000000e+00 2.79136594056985e-02 3.16336791998563e-04
6.54940000000000e+00 2.75300841822572e-02 3.13361283922768e-04
6.60660000000000e+00 2.71517798532514e-02 3.10401924059462e-04
6.66380000000000e+00 2.67786739887472e-02 3.07458986809099e-04
6.72100000000000e+00 2.64106951541054e-02 3.04532731206258e-04
6.77820000000000e+00 2.60477728963054e-02 3.01623401460387e-04
6.83540000000000e+00 2.56898377304557e-02 2.98731227477466e-04
6.89260000000000e+00 2.53368211264909e-02 2.95856425363418e-04
6.94980000000000e+00 2.49886554960504e-02 2.92999197909888e-04
7.00700000000000e+00 2.46452741795384e-02 2.90159735063193e-04
7.06420000000000e+00 2.43066114333612e-02 2.87338214377062e-04
7.12140000000000e+00 2.39726024173398e-02 2.84534801449767e-04
7.17860000000000e+00 2.36431831822959e-02 2.81749650346302e-04
7.23580000000000e+00 2.33182906578080e-02 2.78982904006174e-04
7.29300000000000e+00 2.29978626401360e-02 2.76234694637294e-04
7.35020000000000e+00 2.26818377803119e-02 2.73505144096585e-04
7.40740000000000e+00 2.23701555723938e-02 2.70794364257736e-04
7.46460000000000e+00 2.20627563418813e-02 2.68102457366600e-04
7.52180000000000e+00 2.17595812342908e-02 2.65429516384759e-04
7.57900000000000e+00 2.14605722038865e-02 2.62775625321591e-04
7.63620000000000e+00 2.11656720025677e-02 2.60140859555284e-04
7.69340000000000e+00 2.08748241689077e-02 2.57525286143251e-04
7.75060000000000e+00 2.05879730173438e-02 2.54928964122312e-04
7.80780000000000e+00 2.03050636275158e-02 2.52351944798966e-04
7.86500000000000e+00 2.00260418337511e-02 2.49794272030147e-04
7.92220000000000e+00 1.97508542146939e-02 2.47255982494786e-04
7.97940000000000e+00 1.94794480830775e-02 2.44737105956511e-04
8.03660000000000e+00 1.92117714756365e-02 2.42237665517811e-04
8.09380000000000e+00 1.89477731431582e-02 2.39757677865912e-04
8.15100000000000e+00 1.86874025406703e-02 2.37297153510696e-04
8.20820000000000e+00 1.84306098177637e-02 2.34856097014960e-04
8.26540000000000e+00 1.81773458090480e-02 2.32434507217192e-04
8.32260000000000e+00 1.79275620247387e-02 2.30032377447202e-04
8.37980000000000e+00 1.76812106413728e-02 2.27649695734816e-04
8.43700000000000e+00 1.74382444926531e-02 2.25286445011862e-04
8.49420000000000e+00 1.71986170604172e-02 2.22942603307695e-04
8.55140000000000e+00 1.69622824657318e-02 2.20618143938465e-04
8.60860000000000e+00 1.67291954601083e-02 2.18313035690328e-04
8.66580000000000e+00 1.64993114168397e-02 2.16027242996801e-04
8.72300000000000e+00 1.62725863224563e-02 2.13760726110494e-04
8.78020000000000e+00 1.60489767682990e-02 2.11513441269370e-04
8.83740000000000e+00 1.58284399422085e-02 2.09285340857665e-04
8.89460000000000e+00 1.56109336203279e-02 2.07076373561741e-04
8.95180000000000e+00 1.53964161590192e-02 2.04886484520980e-04
9.00900000000000e+00 1.51848464868899e-02 2.02715615473880e-04
9.06620000000000e+00 1.49761840969296e-02 2.00563704899510e-04
9.12340000000000e+00 1.47703890387544e-02 1.98430688154483e-04
9.18060000000000e+00 1.45674219109582e-02 1.96316497605573e-04
9.23780000000000e+00 1.43672438535688e-02 1.94221062758154e-04
9.29500000000000e+00 1.41698165406080e-02 1.92144310380539e-04
9.35220000000000e+00 1.39751021727535e-02 1.90086164624369e-04
9.40940000000000e+00 1.37830634701019e-02 1.88046547141205e-04
9.46660000000000e+00 1.35936636650311e-02 1.86025377195414e-04
9.52380000000000e+00 1.34068664951610e-02 1.84022571773473e-04
9.58100000000000e+00 1.32226361964106e-02 1.82038045689781e-04
9.63820000000000e+00 1.30409374961503e-02 1.80071711689112e-04
9.69540000000000e+00 1.28617356064493e-02 1.78123480545839e-04
9.75260000000000e+00 1.26849962174146e-02 1.76193261159966e-04
9.80980000000000e+00 1.25106854906220e-02 1.74280960650101e-04
9.86700000000000e+00 1.23387700526379e-02 1.72386484443469e-04
9.92420000000000e+00 1.21692169886291e-02 1.70509736363052e-04
9.98140000000000e+00 1.20019938360615e-02 1.68650618711926e-04
1.00386000000000e+01 1.18370685784842e-02 1.66809032354912e-04
1.00958000000000e+01 1.16744096394002e-02 1.64984876797601e-04
1.01530000000000e+01 1.15139858762205e-02 1.63178050262811e-04
1.02102000000000e+01 1.13557665743015e-02 1.61388449764616e-04
1.02674000000000e+01 1.11997214410648e-02 1.59615971179975e-04
1.03246000000000e+01 1.10458206001969e-02 1.57860509318025e-04
1.03818000000000e+01 1.08940345859293e-02 1.56121957987145e-04
1.04390000000000e+01 1.07443343373971e-02 1.54400210059839e-04
1.04962000000000e+01 1.05966911930749e-02 1.52695157535486e-04
1.05534000000000e+01 1.04510768852893e-02 1.51006691601047e-04
1.06106000000000e+01 1.03074635348069e-02 1.49334702689795e-04
1.06678000000000e+01 1.01658236454962e-02 1.47679080538096e-04
1.07250000000000e+01 1.00261300990638e-02 1.46039714240323e-04
1.07822000000000e+01 9.88835614986188e-03 1.44416492301965e-04
1.08394000000000e+01 9.75247541976751e-03 1.42809302690947e-04
1.08966000000000e+01 9.61846189313255e-03 1.41218032887239e-04
1.09538000000000e+01 9.48628991180257e-03 1.39642569930841e-04
1.10110000000000e+01 9.35593417020435e-03 1.38082800468120e-04
1.10682000000000e+01 9.22736971050091e-03 1.36538610796596e-04
1.11254000000000e+01 9.10057191781309e-03 1.35009886908208e-04
1.11826000000000e+01 8.97551651550681e-03 1.33496514531107e-04
1.12398000000000e+01 8.85217956054507e-03 1.31998379170025e-04
1.12970000000000e+01 8.73053743890385e-03 1.30515366145254e-04
1.13542000000000e+01 8.61056686105092e-03 1.29047360630276e-04
1.14114000000000e+01 8.49224485748694e-03 1.27594247688084e-04
1.14686000000000e+01 8.37554877434762e-03 1.26155912306241e-04
1.15258000000000e+01 8.26045626906652e-03 1.24732239430706e-04
1.15830000000000e+01 8.14694530609730e-03 1.23323113998463e-04
1.16402000000000e+01 8.03499415269482e-03 1.21928420968994e-04
1.16974000000000e+01 7.92458137475423e-03 1.20548045354631e-04
1.17546000000000e+01 7.81568583270714e-03 1.19181872249799e-04
1.18118000000000e+01 7.70828667747431e-03 1.17829786859205e-04
1.18690000000000e+01 7.60236334647389e-03 1.16491674525017e-04
1.19262000000000e+01 7.49789555968447e-03 1.15167420753014e-04
1.19834000000000e+01 7.39486331576236e-03 1.13856911237786e-04
1.20406000000000e+01 7.29324688821208e-03 1.12560031886988e-04
1.20978000000000e+01 7.19302682160955e-03 1.11276668844681e-04
1.21550000000000e+01 7.09418392787717e-03 1.10006708513775e-04
1.22122000000000e+01 6.99669928261011e-03 1.08750037577635e-04
1.22694000000000e+01 6.90055422145300e-03 1.07506543020836e-04
1.23266000000000e+01 6.80573033652650e-03 1.06276112149101e-04
1.23838000000000e+01 6.71220947290292e-03 1.05058632608470e-04
1.24410000000000e+01 6.61997372513031e-03 1.03853992403689e-04
1.24982000000000e+01 6.52900543380428e-03 1.02662079915874e-04
1.25554000000000e+01 6.43928718218692e-03 1.01482783919443e-04
1.26126000000000e+01 6.35080179287223e-03 1.00315993598353e-04
1.26698000000000e+01 6.26353232449734e-03 9.91615985616632e-05
1.27270000000000e+01 6.17746206849890e-03 9.80194888584453e-05
1.27842000000000e+01 6.09257454591411e-03 9.68895549920399e-05
1.28414000000000e+01 6.00885350422563e-03 9.57716879337137e-05
1.28986000000000e+01 5.92628291424991e-03 9.46657791357036e-05
1.29558000000000e+01 5.84484696706821e-03 9.35717205436860e-05
1.30130000000000e+01 5.76453007099988e-03 9.24894046086733e-05
1.30702000000000e+01 5.68531684861718e-03 9.14187242983690e-05
1.31274000000000e+01 5.60719213380110e-03 9.03595731079939e-05
1.31846000000000e+01 5.53014096883766e-03 8.93118450705917e-05
1.32418000000000e+01 5.45414860155416e-03 8.82754347668309e-05
1.32990000000000e+01 5.37920048249469e-03 8.72502373343245e-05
1.33562000000000e+01 5.30528226213452e-03 8.62361484764899e-05
1.34134000000000e+01 5.23237978813276e-03 8.52330644709403e-05
1.34706000000000e+01 5.16047910262273e-03 8.42408821774339e-05
1.35278000000000e+01 5.08956643953961e-03 8.32594990454005e-05
1.35850000000000e+01 5.01962822198480e-03 8.22888131210533e-05
1.36422000000000e+01 4.95065105962652e-03 8.13287230540919e-05
1.36994000000000e+01 4.88262174613604e-03 8.03791281040190e-05
1.37566000000000e+01 4.81552725665926e-03 7.94399281460747e-05
1.38138000000000e+01 4.74935474532296e-03 7.85110236768122e-05
1.38710000000000e+01 4.68409154277533e-03 7.75923158193083e-05
1.39282000000000e+01 4.61972515376030e-03 7.66837063280306e-05
1.39854000000000e+01 4.55624325472524e-03 7.57850975933823e-05
1.40426000000000e+01 4.49363369146146e-03 7.48963926459120e-05
1.40998000000000e+01 4.43188447677719e-03 7.40174951602128e-05
1.41570000000000e+01 4.37098378820249e-03 7.31483094585224e-05
1.42142000000000e+01 4.31091996572580e-03 7.22887405140274e-05
1.42714000000000e+01 4.25168150956144e-03 7.14386939538825e-05
1.43286000000000e+01 4.19325707794790e-03 7.05980760619560e-05
1.43858000000000e+01 4.13563548497636e-03 6.97667937813064e-05
1.44430000000000e+01 4.07880569844904e-03 6.89447547164050e-05
1.45002000000000e+01 4.02275683776697e-03 6.81318671351077e-05
1.45574000000000e+01 3.96747817184680e-03 6.73280399703848e-05
1.46146000000000e+01 3.91295911706624e-03 6.65331828218192e-05
1.46718000000000e+01 3.85918923523772e-03 6.57472059568784e-05
1.47290000000000e+01 3.80615823160991e-03 6.49700203119642e-05
1.47862000000000e+01 3.75385595289667e-03 6.42015374932599e-05
1.48434000000000e+01 3.70227238533313e-03 6.34416697773635e-05
1.49006000000000e+01 3.65139765275847e-03 6.26903301117329e-05
1.49578000000000e+01 3.60122201472498e-03 6.19474321149381e-05
1.50150000000000e+01 3.55173586463323e-03 6.12128900767241e-05
1.50722000000000e+01 3.50292972789276e-03 6.04866189579055e-05
1.51294000000000e+01 3.45479426010806e-03 5.97685343900792e-05
1.51866000000000e+01 3.40732024528954e-03 5.90585526751831e-05
1.52438000000000e+01 3.36049859408903e-03 5.83565907848849e-05
1.53010000000000e+01 3.31432034205952e-03 5.76625663598200e-05
1.53582000000000e+01 3.26877664793884e-03 5.69763977086879e-05
1.54154000000000e+01 3.22385879195693e-03 5.62980038071943e-05
1.54726000000000e+01 3.17955817416634e-03 5.56273042968615e-05
1.55298000000000e+01 3.13586631279571e-03 5.49642194837030e-05
1.55870000000000e+01 3.09277484262582e-03 5.43086703367731e-05
1.56442000000000e+01 3.05027551338804e-03 5.36605784865920e-05
1.57014000000000e+01 3.00836018818468e-03 5.30198662234504e-05
1.57586000000000e+01 2.96702084193115e-03 5.23864564955954e-05
1.58158000000000e+01 2.92624955981947e-03 5.17602729073192e-05
1.58730000000000e+01 2.88603853580290e-03 5.11412397169327e-05
1.59302000000000e+01 2.84638007110138e-03 5.05292818346363e-05
1.59874000000000e+01 2.80726657272757e-03 4.99243248203002e-05
1.60446000000000e+01 2.76869055203306e-03 4.93262948811405e-05
1.61018000000000e+01 2.73064462327463e-03 4.87351188693191e-05
1.61590000000000e+01 2.69312150220016e-03 4.81507242794494e-05
1.62162000000000e+01 2.65611400465398e-03 4.75730392460123e-05
1.62734000000000e+01 2.61961504520143e-03 4.70019925407057e-05
1.63306000000000e+01 2.58361763577225e-03 4.64375135697149e-05
1.63878000000000e+01 2.54811488432267e-03 4.58795323709057e-05
1.64450000000000e+01 2.51309999351588e-03 4.53279796109503e-05
1.65022000000000e+01 2.47856625942057e-03 4.47827865823881e-05
1.65594000000000e+01 2.44450707022743e-03 4.42438852006227e-05
1.66166000000000e+01 2.41091590498324e-03 4.37112080008606e-05
1.66738000000000e+01 2.37778633234241e-03 4.31846881349864e-05
1.67310000000000e+01 2.34511200933559e-03 4.26642593683853e-05
1.67882000000000e+01 2.31288668015526e-03 4.21498560767188e-05
1.68454000000000e+01 2.28110417495803e-03 4.16414132426454e-05
1.69026000000000e+01 2.24975840868332e-03 4.11388664524954e-05
1.69598000000000e+01 2.21884337988836e-03 4.06421518929006e-05
1.70170000000000e+01 2.18835316959911e-03 4.01512063473832e-05
1.70742000000000e+01 2.15828194017705e-03 3.96659671929033e-05
1.71314000000000e+01 2.12862393420152e-03 3.91863723963681e-05
1.71886000000000e+01 2.09937347336737e-03 3.87123605111104e-05
1.72458000000000e+01 2.07052495739782e-03 3.82438706733255e-05
1.73030000000000e+01 2.04207286297222e-03 3.77808425984811e-05
1.73602000000000e+01 2.01401174266857e-03 3.73232165777011e-05
1.74174000000000e+01 1.98633622392057e-03 3.68709334741142e-05
1.74746000000000e+01 1.95904100798895e-03 3.64239347191826e-05
1.75318000000000e+01 1.93212086894702e-03 3.59821623090064e-05
1.75890000000000e+01 1.90557065268011e-03 3.55455588006021e-05
1.76462000000000e+01 1.87938527589873e-03 3.51140673081634e-05
1.77034000000000e+01 1.85355972516538e-03 3.46876314993018e-05
1.77606000000000e+01 1.82808905593463e-03 3.42661955912729e-05
1.78178000000000e+01 1.80296839160647e-03 3.38497043471840e-05
1.78750000000000e+01 1.77819292259264e-03 3.34381030721877e-05
1.79322000000000e+01 1.75375790539579e-03 3.30313376096637e-05
1.79894000000000e+01 1.72965866170124e-03 3.26293543373896e-05
1.80466000000000e+01 1.70589057748137e-03 3.22321001637011e-05
