Energy (eV)          EEDF (eV^-(3/2))     First Anisotropy
2.86333333333333e-02 2.84160897038884e-01 2.71950159268763e-04
8.59000000000000e-02 2.77695155686932e-01 4.45455551794676e-04
1.43166666666667e-01 2.71376534565553e-01 5.78561413039378e-04
2.00433333333333e-01 2.65201686097308e-01 6.74087255912146e-04
2.57700000000000e-01 2.59167338909998e-01 7.49254062916471e-04
3.14966666666667e-01 2.53270296092131e-01 8.10737671182272e-04
3.72233333333333e-01 2.47507433424667e-01 8.62074734068352e-04
4.29500000000000e-01 2.41875697799477e-01 9.05449137313098e-04
4.86766666666667e-01 2.36372105591411e-01 9.42340510162345e-04
5.44033333333333e-01 2.30993741037967e-01 9.73816131336839e-04
6.01300000000000e-01 2.25737754733986e-01 1.00068148098141e-03
6.58566666666667e-01 2.20601362117739e-01 1.02356562851536e-03
7.15833333333333e-01 2.15581841969680e-01 1.04297319367295e-03
7.73100000000000e-01 2.10676534996787e-01 1.05931774366733e-03
8.30366666666667e-01 2.05882842421277e-01 1.07294422148310e-03
8.87633333333333e-01 2.01198224585048e-01 1.08414455314372e-03
9.44900000000000e-01 1.96620199623005e-01 1.09316884080901e-03
1.00216666666667e+00 1.92146342146642e-01 1.10023360026005e-03
1.05943333333333e+00 1.87774281944829e-01 1.10552795432839e-03
1.11670000000000e+00 1.83501702730436e-01 1.10921837614909e-03
1.17396666666667e+00 1.79326340970709e-01 1.11145239841313e-03
1.23123333333333e+00 1.75245984562484e-01 1.11236153871133e-03
1.28850000000000e+00 1.71258471773393e-01 1.11206363995288e-03
1.34576666666667e+00 1.67361690088646e-01 1.11066478986914e-03
1.40303333333333e+00 1.63553575001103e-01 1.10826087785325e-03
1.46030000000000e+00 1.59832109008998e-01 1.10493888384252e-03
1.51756666666667e+00 1.56195320541024e-01 1.10077797279024e-03
1.57483333333333e+00 1.52641282837170e-01 1.09585040118872e-03
1.63210000000000e+00 1.49168113003254e-01 1.09022228616000e-03
1.68936666666667e+00 1.45773971008634e-01 1.08395427816810e-03
1.74663333333333e+00 1.42457058649091e-01 1.07710212575260e-03
1.80390000000000e+00 1.39215618657044e-01 1.06971716387782e-03
1.86116666666667e+00 1.36047933766752e-01 1.06184675243297e-03
1.91843333333333e+00 1.32952325751968e-01 1.05353464720305e-03
1.97570000000000e+00 1.29927154589924e-01 1.04482132558729e-03
2.03296666666667e+00 1.26970817589353e-01 1.03574428619779e-03
2.09023333333333e+00 1.24081748496638e-01 1.02633830313695e-03
2.14750000000000e+00 1.21258416711264e-01 1.01663565203719e-03
2.20476666666667e+00 1.18499326472355e-01 1.00666632274994e-03
2.26203333333333e+00 1.15803016027808e-01 9.96458199783283e-04
2.31930000000000e+00 1.13168056898722e-01 9.86037224344682e-04
2.37656666666667e+00 1.10593053120451e-01 9.75427550176995e-04
2.43383333333333e+00 1.08076640469848e-01 9.64651675311170e-04
2.49110000000000e+00 1.05617485776077e-01 9.53730561394757e-04
2.54836666666667e+00 1.03214286212501e-01 9.42683750914825e-04
2.60563333333333e+00 1.00865768577625e-01 9.31529465717993e-04
2.66290000000000e+00 9.85706886497337e-02 9.20284696877201e-04
2.72016666666667e+00 9.63278305261689e-02 9.08965294836378e-04
2.77743333333333e+00 9.41360059539943e-02 8.97586044564509e-04
2.83470000000000e+00 9.19940537259327e-02 8.86160734522041e-04
2.89196666666667e+00 8.99008390638480e-02 8.74702227285609e-04
2.94923333333333e+00 8.78552529954924e-02 8.63222517850005e-04
3.00650000000000e+00 8.58562117893086e-02 8.51732787403786e-04
3.06376666666667e+00 8.39026563791395e-02 8.40243459542343e-04
3.12103333333333e+00 8.19935517837386e-02 8.28764246144982e-04
3.17830000000000e+00 8.01278865780918e-02 8.17304189874762e-04
3.23556666666667e+00 7.83046723565869e-02 8.05871709527366e-04
3.29283333333333e+00 7.65229431922348e-02 7.94474636569925e-04
3.35010000000000e+00 7.47817551422753e-02 7.83120249116195e-04
3.40736666666667e+00 7.30801857472248e-02 7.71815308934705e-04
3.46463333333333e+00 7.14173335270004e-02 7.60566090850383e-04
3.52190000000000e+00 6.97923175186820e-02 7.49378410170618e-04
3.57916666666667e+00 6.82042768090341e-02 7.38257653186594e-04
3.63643333333333e+00 6.66523700649410e-02 7.27208801039088e-04
3.69370000000000e+00 6.51357751013095e-02 7.16236452041660e-04
3.75096666666667e+00 6.36536884448241e-02 7.05344847033702e-04
3.80823333333333e+00 6.22053248962960e-02 6.94537888896567e-04
3.86550000000000e+00 6.07899171268046e-02 6.83819160851035e-04
3.92276666666667e+00 5.94067152705933e-02 6.73191947685924e-04
3.98003333333333e+00 5.80549865171166e-02 6.62659251817324e-04
4.03730000000000e+00 5.67340147336242e-02 6.52223808375201e-04
4.09456666666667e+00 5.54431000852477e-02 6.41888103091179e-04
4.15183333333333e+00 5.41815586546914e-02 6.31654385582602e-04
4.20910000000000e+00 5.29487220895681e-02 6.21524681853348e-04
4.26636666666667e+00 5.17439372478582e-02 6.11500809448979e-04
4.32363333333333e+00 5.05665658433389e-02 6.01584388493056e-04
4.38090000000000e+00 4.94159841160813e-02 5.91776852087658e-04
4.43816666666667e+00 4.82915825015858e-02 5.82079459214014e-04
4.49543333333333e+00 4.71927653001811e-02 5.72493303933880e-04
4.55270000000000e+00 4.61189503691891e-02 5.63019324071233e-04
4.60996666666667e+00 4.50695688141532e-02 5.53658312238462e-04
4.66723333333333e+00 4.40440646805650e-02 5.44410923529444e-04
4.72450000000000e+00 4.30418946662955e-02 5.35277682785180e-04
4.78176666666667e+00 4.20625278334388e-02 5.26258994050928e-04
4.83903333333333e+00 4.11054453208408e-02 5.17355147021836e-04
4.89630000000000e+00 4.01701400754806e-02 5.08566323135126e-04
4.95356666666667e+00 3.92561165835532e-02 4.99892603705823e-04
5.01083333333333e+00 3.83628906023805e-02 4.91333975335083e-04
5.06810000000000e+00 3.74899889095102e-02 4.82890335025022e-04
5.12536666666667e+00 3.66369490517513e-02 4.74561497195505e-04
5.18263333333333e+00 3.58033190951489e-02 4.66347198225958e-04
5.23990000000000e+00 3.49886573906445e-02 4.58247100752402e-04
5.29716666666667e+00 3.41925323398650e-02 4.50260799732241e-04
5.35443333333333e+00 3.34145221619339e-02 4.42387826259200e-04
5.41170000000000e+00 3.26542146746100e-02 4.34627651173404e-04
5.46896666666667e+00 3.19112070757120e-02 4.26979690312761e-04
5.52623333333333e+00 3.11851057256219e-02 4.19443307715957e-04
5.58350000000000e+00 3.04755259428908e-02 4.12017818653568e-04
5.64076666666667e+00 2.97820918002533e-02 4.04702494181788e-04
5.69803333333333e+00 2.91044359217601e-02 3.97496563828707e-04
5.75530000000000e+00 2.84421992919020e-02 3.90399218135966e-04
5.81256666666667e+00 2.77950310652403e-02 3.83409612612133e-04
5.86983333333333e+00 2.71625883771784e-02 3.76526869981538e-04
5.92710000000000e+00 2.65445361657155e-02 3.69750082311158e-04
5.98436666666667e+00 2.59405469937850e-02 3.63078314445826e-04
6.04163333333333e+00 2.53503008727413e-02 3.56510605885886e-04
6.09890000000000e+00 2.47734850959149e-02 3.50045972561943e-04
6.15616666666667e+00 2.42097940728084e-02 3.43683409821612e-04
6.21343333333333e+00 2.36589291644406e-02 3.37421893991716e-04
6.27070000000000e+00 2.31205985279259e-02 3.31260383853538e-04
6.32796666666667e+00 2.25945169617365e-02 3.25197823240588e-04
6.38523333333333e+00 2.20804057521034e-02 3.19233142332306e-04
6.44250000000000e+00 2.15779925278933e-02 3.13365258874286e-04
6.49976666666667e+00 2.10870111161993e-02 3.07593080437961e-04
6.55703333333333e+00 2.06072013990517e-02 3.01915505485577e-04
6.61430000000000e+00 2.01383091779150e-02 2.96331424373057e-04
6.67156666666667e+00 1.96800860389159e-02 2.90839721315299e-04
6.72883333333333e+00 1.92322892191704e-02 2.85439275256200e-04
6.78610000000000e+00 1.87946814802650e-02 2.80128960686178e-04
6.84336666666667e+00 1.83670309824802e-02 2.74907649350760e-04
6.90063333333333e+00 1.79491111600842e-02 2.69774210954369e-04
6.95790000000000e+00 1.75407006032067e-02 2.64727513819817e-04
7.01516666666667e+00 1.71415829404563e-02 2.59766426372718e-04
7.07243333333333e+00 1.67515467225779e-02 2.54889817703588e-04
7.12970000000000e+00 1.63703853121643e-02 2.50096558092601e-04
7.18696666666667e+00 1.59978967741070e-02 2.45385520298031e-04
7.24423333333333e+00 1.56338837670554e-02 2.40755579997663e-04
7.30150000000000e+00 1.52781534404464e-02 2.36205616198746e-04
7.35876666666667e+00 1.49305173322678e-02 2.31734512354992e-04
7.41603333333333e+00 1.45907912677920e-02 2.27341156705242e-04
7.47330000000000e+00 1.42587952634430e-02 2.23024442585733e-04
7.53056666666667e+00 1.39343534313805e-02 2.18783269396995e-04
7.58783333333333e+00 1.36172938850227e-02 2.14616542855182e-04
7.64510000000000e+00 1.33074486492945e-02 2.10523175221363e-04
7.70236666666667e+00 1.30046535715810e-02 2.06502086136909e-04
7.75963333333333e+00 1.27087482335795e-02 2.02552202800752e-04
7.81690000000000e+00 1.24195758675092e-02 1.98672460128317e-04
7.87416666666667e+00 1.21369832730073e-02 1.94861801471662e-04
7.93143333333333e+00 1.18608207348857e-02 1.91119178734078e-04
7.98870000000000e+00 1.15909419449080e-02 1.87443552469526e-04
8.04596666666667e+00 1.13272039242296e-02 1.83833892501747e-04
8.10323333333333e+00 1.10694669466651e-02 1.80289177986029e-04
8.16050000000000e+00 1.08175944656612e-02 1.76808397458499e-04
8.21776666666667e+00 1.05714530419133e-02 1.73390549366697e-04
8.27503333333333e+00 1.03309122717715e-02 1.70034642086941e-04
8.33230000000000e+00 1.00958447190663e-02 1.66739693931552e-04
8.38956666666667e+00 9.86612584755592e-03 1.63504733601812e-04
8.44683333333333e+00 9.64163395412580e-03 1.60328800168236e-04
8.50410000000000e+00 9.42225010514569e-03 1.57210943042666e-04
8.56136666666667e+00 9.20785807342475e-03 1.54150222363239e-04
8.61863333333333e+00 8.99834427588373e-03 1.51145708943830e-04
8.67590000000000e+00 8.79359771414234e-03 1.48196484217003e-04
8.73316666666667e+00 8.59350991568153e-03 1.45301640559445e-04
8.79043333333333e+00 8.39797487568811e-03 1.42460281215984e-04
8.84770000000000e+00 8.20688900159201e-03 1.39671520218571e-04
8.90496666666667e+00 8.02015105815486e-03 1.36934482659593e-04
8.96223333333333e+00 7.83766211320726e-03 1.34248304595131e-04
9.01950000000000e+00 7.65932548587378e-03 1.31612132944413e-04
9.07676666666667e+00 7.48504669532597e-03 1.29025125717555e-04
9.13403333333333e+00 7.31473341015103e-03 1.26486451902076e-04
9.19130000000000e+00 7.14829540002010e-03 1.23995291346626e-04
9.24856666666667e+00 6.98564448786081e-03 1.21550834948943e-04
9.30583333333333e+00 6.82669450261427e-03 1.19152284529033e-04
9.36310000000000e+00 6.67136123411777e-03 1.16798852700498e-04
9.42036666666667e+00 6.51956238846887e-03 1.14489763023751e-04
9.47763333333333e+00 6.37121754394353e-03 1.12224249868863e-04
9.53490000000000e+00 6.22624810887979e-03 1.10001558277261e-04
9.59216666666667e+00 6.08457728002048e-03 1.07820944084721e-04
9.64943333333333e+00 5.94613000138050e-03 1.05681673776381e-04
9.70670000000000e+00 5.81083292493241e-03 1.03583024341245e-04
9.76396666666667e+00 5.67861437172875e-03 1.01524283368887e-04
9.82123333333333e+00 5.54940429352115e-03 9.95047488988066e-05
9.87850000000000e+00 5.42313423606140e-03 9.75237292697955e-05
9.93576666666667e+00 5.29973730281818e-03 9.55805431938407e-05
9.99303333333333e+00 5.17914811916342e-03 9.36745196675226e-05
1.00503000000000e+01 5.06130279776872e-03 9.18049974893808e-05
1.01075666666667e+01 4.94613890647142e-03 8.99713259008609e-05
1.01648333333333e+01 4.83359543140951e-03 8.81728641806277e-05
1.02221000000000e+01 4.72361274816335e-03 8.64089808236758e-05
1.02793666666667e+01 4.61613259002520e-03 8.46790547420988e-05
1.03366333333333e+01 4.51109801399494e-03 8.29824745349392e-05
1.03939000000000e+01 4.40845337379295e-03 8.13186377845453e-05
1.04511666666667e+01 4.30814429024904e-03 7.96869521559603e-05
1.05084333333333e+01 4.21011761961542e-03 7.80868347096019e-05
1.05657000000000e+01 4.11432142833106e-03 7.65177112388082e-05
1.06229666666667e+01 4.02070496538849e-03 7.49790172765395e-05
1.06802333333333e+01 3.92921863280461e-03 7.34701974485919e-05
1.07375000000000e+01 3.83981396202446e-03 7.19907048501212e-05
1.07947666666667e+01 3.75244358813378e-03 7.05400019675862e-05
1.08520333333333e+01 3.66706122233936e-03 6.91175600702853e-05
1.09093000000000e+01 3.58362162990722e-03 6.77228586237416e-05
1.09665666666667e+01 3.50208060609746e-03 6.63553861341279e-05
1.10238333333333e+01 3.42239495051641e-03 6.50146395760082e-05
1.10811000000000e+01 3.34452244649061e-03 6.37001238405626e-05
1.11383666666667e+01 3.26842183860887e-03 6.24113525090896e-05
1.11956333333333e+01 3.19405280881798e-03 6.11478473149379e-05
1.12529000000000e+01 3.12137595714004e-03 5.99091376246317e-05
1.13101666666667e+01 3.05035278071449e-03 5.86947611464859e-05
1.13674333333333e+01 2.98094565151776e-03 5.75042634248021e-05
1.14247000000000e+01 2.91311779833773e-03 5.63371973520472e-05
1.14819666666667e+01 2.84683328721519e-03 5.51931238180795e-05
1.15392333333333e+01 2.78205700067663e-03 5.40716112347851e-05
1.15965000000000e+01 2.71875462088443e-03 5.29722350775532e-05
1.16537666666667e+01 2.65689261138456e-03 5.18945784801374e-05
1.17110333333333e+01 2.59643819774884e-03 5.08382317879929e-05
1.17683000000000e+01 2.53735935182510e-03 4.98027921273776e-05
1.18255666666667e+01 2.47962477470372e-03 4.87878639504464e-05
1.18828333333333e+01 2.42320387867315e-03 4.77930586156326e-05
1.19401000000000e+01 2.36806677249889e-03 4.68179939827911e-05
1.19973666666667e+01 2.31418424552752e-03 4.58622949127204e-05
1.20546333333333e+01 2.26152775086570e-03 4.49255928730224e-05
1.21119000000000e+01 2.21006939162154e-03 4.40075255577819e-05
1.21691666666667e+01 2.15978190606996e-03 4.31077373453572e-05
1.22264333333333e+01 2.11063865197191e-03 4.22258789282319e-05
1.22837000000000e+01 2.06261359371557e-03 4.13616069558042e-05
1.23409666666667e+01 2.01568128847234e-03 4.05145844539538e-05
1.23982333333333e+01 1.96981687157836e-03 3.96844804774824e-05
1.24555000000000e+01 1.92499604451732e-03 3.88709697746635e-05
1.25127666666667e+01 1.88119506200084e-03 3.80737331717886e-05
1.25700333333333e+01 1.83839071834000e-03 3.72924572468716e-05
1.26273000000000e+01 1.79656033621502e-03 3.65268340146803e-05
1.26845666666667e+01 1.75568175461832e-03 3.57765612792001e-05
1.27418333333333e+01 1.71573331614867e-03 3.50413423273410e-05
1.27991000000000e+01 1.67669385651663e-03 3.43208856332432e-05
1.28563666666667e+01 1.63854269329267e-03 3.36149051813453e-05
1.29136333333333e+01 1.60125961406107e-03 3.29231201789061e-05
1.29709000000000e+01 1.56482486661341e-03 3.22452547784424e-05
1.30281666666667e+01 1.52921914844783e-03 3.15810383738630e-05
1.30854333333333e+01 1.49442359572440e-03 3.09302053306794e-05
1.31427000000000e+01 1.46041977410166e-03 3.02924947254990e-05
1.31999666666667e+01 1.42718966893703e-03 2.96676506174733e-05
1.32572333333333e+01 1.39471567498905e-03 2.90554217951427e-05
1.33145000000000e+01 1.36298058785517e-03 2.84555615319651e-05
1.33717666666667e+01 1.33196759482646e-03 2.78678278351385e-05
1.34290333333333e+01 1.30166026528594e-03 2.72919832080821e-05
1.34863000000000e+01 1.27204254270848e-03 2.67277944210388e-05
1.35435666666667e+01 1.24309873612607e-03 2.61750327391593e-05
1.36008333333333e+01 1.21481351117502e-03 2.56334736996774e-05
1.36581000000000e+01 1.18717188262126e-03 2.51028968966809e-05
1.37153666666667e+01 1.16015920639540e-03 2.45830861901861e-05
1.37726333333333e+01 1.13376117124480e-03 2.40738294971183e-05
1.38299000000000e+01 1.10796379174993e-03 2.35749185893974e-05
1.38871666666667e+01 1.08275340089118e-03 2.30861492855862e-05
1.39444333333333e+01 1.05811664226478e-03 2.26073212548407e-05
1.40017000000000e+01 1.03404046355813e-03 2.21382378275030e-05
1.40589666666667e+01 1.01051210961289e-03 2.16787061707755e-05
1.41162333333333e+01 9.87519115166422e-04 2.12285371048505e-05
1.41735000000000e+01 9.65049298756191e-04 2.07875449252561e-05
1.42307666666667e+01 9.43090756245924e-04 2.03555475638821e-05
1.42880333333333e+01 9.21631854057024e-04 1.99323664165515e-05
1.43453000000000e+01 9.00661223473924e-04 1.95178261764005e-05
1.44025666666667e+01 8.80167754602405e-04 1.91117549814763e-05
1.44598333333333e+01 8.60140590057797e-04 1.87139842530495e-05
1.45171000000000e+01 8.40569119645029e-04 1.83243485393590e-05
1.45743666666667e+01 8.21442974720280e-04 1.79426856508967e-05
1.46316333333333e+01 8.02752022305002e-04 1.75688365088038e-05
1.46889000000000e+01 7.84486360116150e-04 1.72026449983481e-05
1.47461666666667e+01 7.66636311304225e-04 1.68439580929176e-05
1.48034333333333e+01 7.49192418964296e-04 1.64926257118839e-05
1.48607000000000e+01 7.32145441493467e-04 1.61485005832158e-05
1.49179666666667e+01 7.15486347680179e-04 1.58114383571198e-05
1.49752333333333e+01 6.99206311585372e-04 1.54812974727880e-05
1.50325000000000e+01 6.83296708205730e-04 1.51579390295894e-05
1.50897666666667e+01 6.67749108890801e-04 1.48412268912165e-05
1.51470333333333e+01 6.52555276569241e-04 1.45310275607719e-05
1.52043000000000e+01 6.37707161697806e-04 1.42272100600084e-05
1.52615666666667e+01 6.23196897984383e-04 1.39296460247714e-05
1.53188333333333e+01 6.09016797935999e-04 1.36382095879098e-05
1.53761000000000e+01 5.95159349074793e-04 1.33527772660705e-05
1.54333666666667e+01 5.81617209946548e-04 1.30732280471575e-05
1.54906333333333e+01 5.68383205968706e-04 1.27994432805861e-05
1.55479000000000e+01 5.55450325895797e-04 1.25313065711643e-05
1.56051666666667e+01 5.42811718094411e-04 1.22687038592335e-05
1.56624333333333e+01 5.30460686670941e-04 1.20115233178089e-05
1.57197000000000e+01 5.18390688170093e-04 1.17596552531130e-05
1.57769666666667e+01 5.06595328098506e-04 1.15129921780037e-05
1.58342333333333e+01 4.95068357313326e-04 1.12714287155761e-05
1.58915000000000e+01 4.83803668938481e-04 1.10348615059356e-05
1.59487666666667e+01 4.72795295120357e-04 1.08031892734712e-05
1.60060333333333e+01 4.62037403659574e-04 1.05763127365174e-05
1.60633000000000e+01 4.51524295130729e-04 1.03541345199810e-05
1.61205666666667e+01 4.41250399854617e-04 1.01365592169709e-05
1.61778333333333e+01 4.31210274756810e-04 9.92349330414339e-06
1.62351000000000e+01 4.21398600677467e-04 9.71484505981986e-06
1.62923666666667e+01 4.11810179545667e-04 9.51052462044133e-06
1.63496333333333e+01 4.02439931449459e-04 9.31044390124474e-06
1.64069000000000e+01 3.93282892123255e-04 9.11451651953000e-06
1.64641666666667e+01 3.84334210310770e-04 8.92265784636917e-06
1.65214333333333e+01 3.75589145032284e-04 8.73478493228123e-06
1.65787000000000e+01 3.67043063237922e-04 8.55081643532935e-06
1.66359666666667e+01 3.58691437346620e-04 8.37067266847904e-06
1.66932333333333e+01 3.50529842697280e-04 8.19427552995971e-06
1.67505000000000e+01 3.42553955357040e-04 8.02154843589115e-06
1.68077666666667e+01 3.34759549824492e-04 7.85241636365209e-06
1.68650333333333e+01 3.27142496652345e-04 7.68680578663673e-06
1.69223000000000e+01 3.19698760400463e-04 7.52464461112815e-06
1.69795666666667e+01 3.12424397492390e-04 7.36586221600895e-06
1.70368333333333e+01 3.05315553997939e-04 7.21038939163793e-06
1.70941000000000e+01 2.98368463721469e-04 7.05815828070573e-06
1.71513666666667e+01 2.91579446201485e-04 6.90910241459214e-06
1.72086333333333e+01 2.84944904642369e-04 6.76315665610507e-06
1.72659000000000e+01 2.78461324128990e-04 6.62025714406951e-06
1.73231666666667e+01 2.72125269759819e-04 6.48034132661016e-06
1.73804333333333e+01 2.65933384717758e-04 6.34334790751185e-06
1.74377000000000e+01 2.59882388602756e-04 6.20921679430868e-06
1.74949666666667e+01 2.53969075689524e-04 6.07788912874789e-06
1.75522333333333e+01 2.48190313128091e-04 5.94930723654423e-06
1.76095000000000e+01 2.42543039386641e-04 5.82341457874967e-06
1.76667666666667e+01 2.37024262625521e-04 5.70015577963473e-06
1.77240333333333e+01 2.31631059018771e-04 5.57947657962349e-06
1.77813000000000e+01 2.26360571299928e-04 5.46132378973917e-06
1.78385666666667e+01 2.21210007244553e-04 5.34564531711685e-06
1.78958333333333e+01 2.16176638104596e-04 5.23239012092014e-06
1.79531000000000e+01 2.11257797250362e-04 5.12150816966984e-06
1.80103666666667e+01 2.06450878754329e-04 5.01295046458605e-06
1.80676333333333e+01 2.01753335930734e-04 4.90666899829922e-06
