Energy (eV)          EEDF (eV^-(3/2))     First Anisotropy
3.24242424242424e-02 7.27283526268261e-02 4.73674190649987e-05
9.72727272727273e-02 7.19714581412226e-02 7.80725285863958e-05
1.62121212121212e-01 7.12224407627607e-02 1.02682373161179e-04
2.26969696969697e-01 7.04812185170480e-02 1.21147682399407e-04
2.91818181818182e-01 6.97477102817047e-02 1.36358012554161e-04
3.56666666666667e-01 6.90218357722026e-02 1.49411653488868e-04
4.21515151515152e-01 6.83035155433972e-02 1.60879829788131e-04
4.86363636363636e-01 6.75926709768641e-02 1.71109177301785e-04
5.51212121212121e-01 6.68892242723492e-02 1.80330699758323e-04
6.16060606060606e-01 6.61930984392874e-02 1.88708443810812e-04
6.80909090909091e-01 6.55042172894092e-02 1.96364417636975e-04
7.45757575757576e-01 6.48225054251254e-02 2.03392618595568e-04
8.10606060606061e-01 6.41478882346747e-02 2.09867506608803e-04
8.75454545454545e-01 6.34802918827843e-02 2.15849409950837e-04
9.40303030303030e-01 6.28196433025815e-02 2.21388127349998e-04
1.00515151515152e+00 6.21658701876173e-02 2.26525415918900e-04
1.07000000000000e+00 6.15189009826491e-02 2.31296760848060e-04
1.13484848484848e+00 6.08786648826891e-02 2.35732668764095e-04
1.19969696969697e+00 6.02450918095656e-02 2.39859630275612e-04
1.26454545454545e+00 5.96181124256203e-02 2.43700853358899e-04
1.32939393939394e+00 5.89976581042956e-02 2.47276829874850e-04
1.39424242424242e+00 5.83836609431188e-02 2.50605779846319e-04
1.45909090909091e+00 5.77760537369732e-02 2.53704004963167e-04
1.52393939393939e+00 5.71747699889552e-02 2.56586172669728e-04
1.58878787878788e+00 5.65797438858711e-02 2.59265547440245e-04
1.65363636363636e+00 5.59909103073582e-02 2.61754180403076e-04
1.71848484848485e+00 5.54082048032599e-02 2.64063066672705e-04
1.78333333333333e+00 5.48315636013091e-02 2.66202276498649e-04
1.84818181818182e+00 5.42609235861129e-02 2.68181065843774e-04
1.91303030303030e+00 5.36962223056315e-02 2.70007969843978e-04
1.97787878787879e+00 5.31373979515581e-02 2.71690882707646e-04
2.04272727272727e+00 5.25843893647794e-02 2.73237126039784e-04
2.10757575757576e+00 5.20371360169787e-02 2.74653507964700e-04
2.17242424242424e+00 5.14955780152265e-02 2.75946373882557e-04
2.23727272727273e+00 5.09596560870777e-02 2.77121652362346e-04
2.30212121212121e+00 5.04293115747428e-02 2.78184892217338e-04
2.36696969696970e+00 4.99044864355260e-02 2.79141298018296e-04
2.43181818181818e+00 4.93851232263251e-02 2.79995760075578e-04
2.49666666666667e+00 4.88711651061610e-02 2.80752881138665e-04
2.56151515151515e+00 4.83625558214538e-02 2.81417000269287e-04
2.62636363636364e+00 4.78592397080713e-02 2.81992213991888e-04
2.69121212121212e+00 4.73611616773134e-02 2.82482395350826e-04
2.75606060606061e+00 4.68682672175388e-02 2.82891210880041e-04
2.82090909090909e+00 4.63805023807971e-02 2.83222136002719e-04
2.88575757575758e+00 4.58978137840834e-02 2.83478468803920e-04
2.95060606060606e+00 4.54201485965681e-02 2.83663342612939e-04
3.01545454545455e+00 4.49474545405218e-02 2.83779737298191e-04
3.08030303030303e+00 4.44796798790967e-02 2.83830489651510e-04
3.14515151515152e+00 4.40167734169604e-02 2.83818302739109e-04
3.21000000000000e+00 4.35586844885883e-02 2.83745754550781e-04
3.27484848484848e+00 4.31053629586391e-02 2.83615305808935e-04
3.33969696969697e+00 4.26567592107228e-02 2.83429307233350e-04
3.40454545454545e+00 4.22128241475467e-02 2.83190006114413e-04
3.46939393939394e+00 4.17735091801268e-02 2.82899552462511e-04
3.53424242424242e+00 4.13387662277300e-02 2.82560004581619e-04
3.59909090909091e+00 4.09085477075004e-02 2.82173334311767e-04
3.66393939393939e+00 4.04828065342198e-02 2.81741431786985e-04
3.72878787878788e+00 4.00614961103237e-02 2.81266109934230e-04
3.79363636363636e+00 3.96445703254996e-02 2.80749108560452e-04
3.85848484848485e+00 3.92319835470692e-02 2.80192098237155e-04
3.92333333333333e+00 3.88236906194426e-02 2.79596683831513e-04
3.98818181818182e+00 3.84196468548458e-02 2.78964407879673e-04
4.05303030303030e+00 3.80198080326461e-02 2.78296753654006e-04
4.11787878787879e+00 3.76241303904058e-02 2.77595148107969e-04
4.18272727272727e+00 3.72325706230927e-02 2.76860964553850e-04
4.24757575757576e+00 3.68450858744430e-02 2.76095525246398e-04
4.31242424242424e+00 3.64616337360692e-02 2.75300103576990e-04
4.37727272727273e+00 3.60821722399810e-02 2.74475926970485e-04
4.44212121212121e+00 3.57066598541314e-02 2.73624178030683e-04
4.50696969696970e+00 3.53350554803954e-02 2.72745997145283e-04
4.57181818181818e+00 3.49673184467106e-02 2.71842484219245e-04
4.63666666666667e+00 3.46034085059068e-02 2.70914700399682e-04
4.70151515151515e+00 3.42432858280980e-02 2.69963669766613e-04
4.76636363636364e+00 3.38869109994503e-02 2.68990380867486e-04
4.83121212121212e+00 3.35342450148143e-02 2.67995788228479e-04
4.89606060606061e+00 3.31852492764390e-02 2.66980813724451e-04
4.96090909090909e+00 3.28398855868333e-02 2.65946347934599e-04
5.02575757575758e+00 3.24981161474327e-02 2.64893251369463e-04
5.09060606060606e+00 3.21599035516798e-02 2.63822355691018e-04
5.15545454545455e+00 3.18252107836495e-02 2.62734464815081e-04
5.22030303030303e+00 3.14940012113401e-02 2.61630356012755e-04
5.28515151515152e+00 3.11662385852619e-02 2.60510780903829e-04
5.35000000000000e+00 3.08418870319297e-02 2.59376466454081e-04
5.41484848484849e+00 3.05209110524205e-02 2.58228115872849e-04
5.47969696969697e+00 3.02032755160587e-02 2.57066409518503e-04
5.54454545454545e+00 2.98889456589478e-02 2.55892005711644e-04
5.60939393939394e+00 2.95778870778404e-02 2.54705541559401e-04
5.67424242424242e+00 2.92700657286478e-02 2.53507633693925e-04
5.73909090909091e+00 2.89654479204877e-02 2.52298879024603e-04
5.80393939393939e+00 2.86640003141760e-02 2.51079855410349e-04
5.86878787878788e+00 2.83656899164444e-02 2.49851122347681e-04
5.93363636363636e+00 2.80704840784181e-02 2.48613221584047e-04
5.99848484848485e+00 2.77783504899977e-02 2.47366677748670e-04
6.06333333333333e+00 2.74892571783250e-02 2.46111998913237e-04
6.12818181818182e+00 2.72031725023228e-02 2.44849677171474e-04
6.19303030303030e+00 2.69200651511524e-02 2.43580189152767e-04
6.25787878787879e+00 2.66399041389058e-02 2.42303996555682e-04
6.32272727272727e+00 2.63626588030566e-02 2.41021546619371e-04
6.38757575757576e+00 2.60882987992993e-02 2.39733272615620e-04
6.45242424242424e+00 2.58167940999965e-02 2.38439594192779e-04
6.51727272727273e+00 2.55481149895702e-02 2.37140918189426e-04
6.58212121212121e+00 2.52822320613011e-02 2.35837638498062e-04
6.64696969696970e+00 2.50191162153168e-02 2.34530136828743e-04
6.71181818181818e+00 2.47587386538003e-02 2.33218783018527e-04
6.77666666666667e+00 2.45010708794133e-02 2.31903935385732e-04
6.84151515151515e+00 2.42460846906329e-02 2.30585941105452e-04
6.90636363636364e+00 2.39937521801793e-02 2.29265136537009e-04
6.97121212121212e+00 2.37440457304764e-02 2.27941847572930e-04
7.03606060606061e+00 2.34969380120856e-02 2.26616389942165e-04
7.10090909090909e+00 2.32524019792860e-02 2.25289069534786e-04
7.16575757575758e+00 2.30104108685156e-02 2.23960182683111e-04
7.23060606060606e+00 2.27709381940677e-02 2.22630016464286e-04
7.29545454545455e+00 2.25339577465403e-02 2.21298848961241e-04
7.36030303030303e+00 2.22994435886448e-02 2.19966949545044e-04
7.42515151515152e+00 2.20673700536653e-02 2.18634579117442e-04
7.49000000000000e+00 2.18377117413752e-02 2.17301990374629e-04
7.55484848484848e+00 2.16104435165079e-02 2.15969428032953e-04
7.61969696969697e+00 2.13855405047788e-02 2.14637129075618e-04
7.68454545454545e+00 2.11629780913665e-02 2.13305322962940e-04
7.74939393939394e+00 2.09427319170374e-02 2.11974231863377e-04
7.81424242424242e+00 2.07247778766398e-02 2.10644070849591e-04
7.87909090909091e+00 2.05090921153265e-02 2.09315048115027e-04
7.94393939393939e+00 2.02956510270618e-02 2.07987365156935e-04
8.00878787878788e+00 2.00844312509410e-02 2.06661216979588e-04
8.07363636363636e+00 1.98754096697104e-02 2.05336792265299e-04
8.13848484848485e+00 1.96685634061796e-02 2.04014273565320e-04
8.20333333333333e+00 1.94638698217566e-02 2.02693837459758e-04
8.26818181818182e+00 1.92613065129493e-02 2.01375654737065e-04
8.33303030303030e+00 1.90608513099162e-02 2.00059890543747e-04
8.39787878787879e+00 1.88624822730553e-02 1.98746704553239e-04
8.46272727272727e+00 1.86661776915696e-02 1.97436251106129e-04
8.52757575757576e+00 1.84719160801416e-02 1.96128679369277e-04
8.59242424242424e+00 1.82796761775144e-02 1.94824133412313e-04
8.65727272727273e+00 1.80894369434669e-02 1.93522752577982e-04
8.72212121212121e+00 1.79011775565345e-02 1.92224671276660e-04
8.78696969696970e+00 1.77148774123757e-02 1.90930019338724e-04
8.85181818181818e+00 1.75305161206577e-02 1.89638922093491e-04
8.91666666666667e+00 1.73480735036692e-02 1.88351500481595e-04
8.98151515151515e+00 1.71675295932820e-02 1.87067871184660e-04
9.04636363636364e+00 1.69888646295813e-02 1.85788146730903e-04
9.11121212121212e+00 1.68120590579014e-02 1.84512435617663e-04
9.17606060606061e+00 1.66370935274732e-02 1.83240842410747e-04
9.24090909090909e+00 1.64639488885322e-02 1.81973467860275e-04
9.30575757575758e+00 1.62926061909832e-02 1.80710408994162e-04
9.37060606060606e+00 1.61230466815789e-02 1.79451759227774e-04
9.43545454545455e+00 1.59552518026021e-02 1.78197608451901e-04
9.50030303030303e+00 1.57892031891122e-02 1.76948043136596e-04
9.56515151515151e+00 1.56248826676454e-02 1.75703146414055e-04
9.63000000000000e+00 1.54622722535274e-02 1.74462998176984e-04
9.69484848484849e+00 1.53013541495915e-02 1.73227675156731e-04
9.75969696969697e+00 1.51421107435560e-02 1.71997251016507e-04
9.82454545454545e+00 1.49845246067600e-02 1.70771796425061e-04
9.88939393939394e+00 1.48285784916032e-02 1.69551379145114e-04
9.95424242424243e+00 1.46742553303002e-02 1.68336064102831e-04
1.00190909090909e+01 1.45215382323813e-02 1.67125913674826e-04
1.00839393939394e+01 1.43704104827161e-02 1.65920986780464e-04
1.01487878787879e+01 1.42208555426582e-02 1.64721340537827e-04
1.02136363636364e+01 1.40728570422688e-02 1.63527029817839e-04
1.02784848484848e+01 1.39263987834624e-02 1.62338106065768e-04
1.03433333333333e+01 1.37814647367282e-02 1.61154618736388e-04
1.04081818181818e+01 1.36380390393768e-02 1.59976614940741e-04
1.04730303030303e+01 1.34961059938049e-02 1.58804139141845e-04
1.05378787878788e+01 1.33556500671014e-02 1.57637234327144e-04
1.06027272727273e+01 1.32166558853378e-02 1.56475941323461e-04
1.06675757575758e+01 1.30791082359298e-02 1.55320298096026e-04
1.07324242424242e+01 1.29429920646124e-02 1.54170340948879e-04
1.07972727272727e+01 1.28082924737905e-02 1.53026104194739e-04
1.08621212121212e+01 1.26749947209122e-02 1.51887620208515e-04
1.09269696969697e+01 1.25430842168533e-02 1.50754919145718e-04
1.09918181818182e+01 1.24125465255015e-02 1.49628030004454e-04
1.10566666666667e+01 1.22833673586035e-02 1.48506979997406e-04
1.11215151515152e+01 1.21555325778045e-02 1.47391793909367e-04
1.11863636363636e+01 1.20290281918889e-02 1.46282495185196e-04
1.12512121212121e+01 1.19038403552493e-02 1.45179105625463e-04
1.13160606060606e+01 1.17799553663726e-02 1.44081645122799e-04
1.13809090909091e+01 1.16573596674090e-02 1.42990132638728e-04
1.14457575757576e+01 1.15360398394510e-02 1.41904585621075e-04
1.15106060606061e+01 1.14159826043297e-02 1.40825019408243e-04
1.15754545454545e+01 1.12971748220638e-02 1.39751448229828e-04
1.16403030303030e+01 1.11796034894208e-02 1.38683884922975e-04
1.17051515151515e+01 1.10632557384951e-02 1.37622340970594e-04
1.17700000000000e+01 1.09481188352995e-02 1.36566826257913e-04
1.18348484848485e+01 1.08341801793283e-02 1.35517349959420e-04
1.18996969696970e+01 1.07214272992826e-02 1.34473920004750e-04
1.19645454545455e+01 1.06098478546255e-02 1.33436542532530e-04
1.20293939393939e+01 1.04994296332496e-02 1.32405222799580e-04
1.20942424242424e+01 1.03901605501394e-02 1.31379964919418e-04
1.21590909090909e+01 1.02820286460513e-02 1.30360771894583e-04
1.22239393939394e+01 1.01750220862028e-02 1.29347645391690e-04
1.22887878787879e+01 1.00691291598346e-02 1.28340586547905e-04
1.23536363636364e+01 9.96433827633653e-03 1.27339595481124e-04
1.24184848484848e+01 9.86063796659322e-03 1.26344670789263e-04
1.24833333333333e+01 9.75801688084918e-03 1.25355810377026e-04
1.25481818181818e+01 9.65646378746761e-03 1.24373011215197e-04
1.26130303030303e+01 9.55596757170129e-03 1.23396269130803e-04
1.26778787878788e+01 9.45651723525505e-03 1.22425579550646e-04
1.27427272727273e+01 9.35810189272459e-03 1.21460937046818e-04
1.28075757575758e+01 9.26071077278215e-03 1.20502334872128e-04
1.28724242424242e+01 9.16433321619868e-03 1.19549765722670e-04
1.29372727272727e+01 9.06895867467634e-03 1.18603221513459e-04
1.30021212121212e+01 8.97457670969572e-03 1.17662693401788e-04
1.30669696969697e+01 8.88117699137250e-03 1.16728171593800e-04
1.31318181818182e+01 8.78874929802645e-03 1.15799646021507e-04
1.31966666666667e+01 8.69728351294672e-03 1.14877105925898e-04
1.32615151515152e+01 8.60676962541808e-03 1.13960539430843e-04
1.33263636363636e+01 8.51719772890788e-03 1.13049934237709e-04
1.33912121212121e+01 8.42855801998198e-03 1.12145277418875e-04
1.34560606060606e+01 8.34084079723239e-03 1.11246555237161e-04
1.35209090909091e+01 8.25403646085259e-03 1.10353753771055e-04
1.35857575757576e+01 8.16813550965837e-03 1.09466858527687e-04
1.36506060606061e+01 8.08312854199239e-03 1.08585854047371e-04
1.37154545454545e+01 7.99900625404160e-03 1.07710724544947e-04
1.37803030303030e+01 7.91575943881853e-03 1.06841453717576e-04
1.38451515151515e+01 7.83337898515448e-03 1.05978024761677e-04
1.39100000000000e+01 7.75185587670208e-03 1.05120420206514e-04
1.39748484848485e+01 7.67118119152184e-03 1.04268622484357e-04
1.40396969696970e+01 7.59134609937106e-03 1.03422613575311e-04
1.41045454545455e+01 7.51234186248624e-03 1.02582374644371e-04
1.41693939393939e+01 7.43415983403888e-03 1.01747886626599e-04
1.42342424242424e+01 7.35679145718888e-03 1.00919130050074e-04
1.42990909090909e+01 7.28022826414882e-03 1.00096085050317e-04
1.43639393939394e+01 7.20446187525668e-03 9.92787312167825e-05
1.44287878787879e+01 7.12948399857521e-03 9.84670481133006e-05
1.44936363636364e+01 7.05528642742246e-03 9.76610149520181e-05
1.45584848484848e+01 6.98186104104825e-03 9.68606102602719e-05
1.46233333333333e+01 6.90919980321585e-03 9.60658124146973e-05
1.46881818181818e+01 6.83729476132286e-03 9.52765994783210e-05
1.47530303030303e+01 6.76613804553095e-03 9.44929490575023e-05
1.48178787878788e+01 6.69572186837620e-03 9.37148387832258e-05
1.48827272727273e+01 6.62603852248952e-03 9.29422460082287e-05
1.49475757575758e+01 6.55708038119201e-03 9.21751474975714e-05
1.50124242424242e+01 6.48883989717668e-03 9.14135199227557e-05
1.50772727272727e+01 6.42130960168197e-03 9.06573397099005e-05
1.51421212121212e+01 6.35448210367518e-03 8.99065830501554e-05
1.52069696969697e+01 6.28835008904314e-03 8.91612257679049e-05
1.52718181818182e+01 6.22290632021737e-03 8.84212437604742e-05
1.53366666666667e+01 6.15814363409452e-03 8.76866127199669e-05
1.54015151515152e+01 6.09405494255027e-03 8.69573078491066e-05
1.54663636363636e+01 6.03063323122723e-03 8.62333043127575e-05
1.55312121212121e+01 5.96787155876733e-03 8.55145770981995e-05
1.55960606060606e+01 5.90576305605241e-03 8.48011008921234e-05
1.56609090909091e+01 5.84430092584182e-03 8.40928504877601e-05
1.57257575757576e+01 5.78347844085017e-03 8.33898005263699e-05
1.57906060606061e+01 5.72328894419885e-03 8.26919252331904e-05
1.58554545454545e+01 5.66372584828834e-03 8.19991988354219e-05
1.59203030303030e+01 5.60478263407688e-03 8.13115954321114e-05
1.59851515151515e+01 5.54645285036750e-03 8.06290890016232e-05
1.60500000000000e+01 5.48873011310183e-03 7.99516532883217e-05
1.61148484848485e+01 5.43160810501327e-03 7.92792621748948e-05
1.61796969696970e+01 5.37508057387112e-03 7.86118894448112e-05
1.62445454545455e+01 5.31914133286934e-03 7.79495085396922e-05
1.63093939393939e+01 5.26378425958878e-03 7.72920929417192e-05
1.63742424242424e+01 5.20900329532699e-03 7.66396160537497e-05
1.64390909090909e+01 5.15479244443552e-03 7.59920512056495e-05
1.65039393939394e+01 5.10114577366347e-03 7.53493715497637e-05
1.65687878787879e+01 5.04805741182639e-03 7.47115504016490e-05
1.66336363636364e+01 4.99552154820123e-03 7.40785610217486e-05
1.66984848484848e+01 4.94353243286056e-03 7.34503763924133e-05
1.67633333333333e+01 4.89208437571706e-03 7.28269695678303e-05
1.68281818181818e+01 4.84117174590103e-03 7.22083135636512e-05
1.68930303030303e+01 4.79078897114412e-03 7.15943812595431e-05
1.69578787878788e+01 4.74093053746124e-03 7.09851457149714e-05
1.70227272727273e+01 4.69159098766444e-03 7.03805799661668e-05
1.70875757575758e+01 4.64276492165531e-03 6.97806568187661e-05
1.71524242424242e+01 4.59444699553503e-03 6.91853491722223e-05
1.72172727272727e+01 4.54663192101923e-03 6.85946299168850e-05
1.72821212121212e+01 4.49931446485973e-03 6.80084719384608e-05
1.73469696969697e+01 4.45248944827145e-03 6.74268480282017e-05
1.74118181818182e+01 4.40615174662997e-03 6.68497311720619e-05
1.74766666666667e+01 4.36029628811146e-03 6.62770943640199e-05
1.75415151515152e+01 4.31491805394312e-03 6.57089104154259e-05
1.76063636363636e+01 4.27001207758311e-03 6.51451522520921e-05
1.76712121212121e+01 4.22557344417707e-03 6.45857928195092e-05
1.77360606060606e+01 4.18159729002034e-03 6.40308049990331e-05
1.78009090909091e+01 4.13807880226816e-03 6.34801618761160e-05
1.78657575757576e+01 4.09501321767522e-03 6.29338365666015e-05
1.79306060606061e+01 4.05239582281387e-03 6.23918020393737e-05
1.79954545454545e+01 4.01022195330974e-03 6.18540313919110e-05
1.80603030303030e+01 3.96848699333113e-03 6.13204977619509e-05
1.81251515151515e+01 3.92718637508405e-03 6.07911743305590e-05
1.81900000000000e+01 3.88631557831223e-03 6.02660342448628e-05
1.82548484848485e+01 3.84587013002231e-03 5.97450508638438e-05
1.83196969696970e+01 3.80584560332915e-03 5.92281975985571e-05
1.83845454545455e+01 3.76623761764175e-03 5.87154477489750e-05
1.84493939393939e+01 3.72704183795848e-03 5.82067747565744e-05
1.85142424242424e+01 3.68825397439259e-03 5.77021521229048e-05
1.85790909090909e+01 3.64986978170291e-03 5.72015534121217e-05
1.86439393939394e+01 3.61188505882910e-03 5.67049521796865e-05
1.87087878787879e+01 3.57429564863137e-03 5.62123221977302e-05
1.87736363636364e+01 3.53709743683220e-03 5.57236373080316e-05
1.88384848484848e+01 3.50028635217410e-03 5.52388712718960e-05
1.89033333333333e+01 3.46385836576965e-03 5.47579980017324e-05
1.89681818181818e+01 3.42780949066065e-03 5.42809914860286e-05
1.90330303030303e+01 3.39213578138179e-03 5.38078257228364e-05
1.90978787878788e+01 3.35683333371226e-03 5.33384749289657e-05
1.91627272727273e+01 3.32189828369367e-03 5.28729134031289e-05
1.92275757575758e+01 3.28732680776630e-03 5.24111153861949e-05
1.92924242424242e+01 3.25311512216274e-03 5.19530552761963e-05
1.93572727272727e+01 3.21925948249365e-03 5.14987075583338e-05
1.94221212121212e+01 3.18575618333821e-03 5.10480468066101e-05
1.94869696969697e+01 3.15260155783843e-03 5.06010476225033e-05
1.95518181818182e+01 3.11979197746445e-03 5.01576848268464e-05
1.96166666666667e+01 3.08732385111364e-03 4.97179333338517e-05
1.96815151515152e+01 3.05519362522529e-03 4.92817680224843e-05
1.97463636363636e+01 3.02339778322103e-03 4.88491639337042e-05
1.98112121212121e+01 2.99193284512000e-03 4.84200962059529e-05
1.98760606060606e+01 2.96079536715807e-03 4.79945400178801e-05
1.99409090909091e+01 2.92998194156418e-03 4.75724707665858e-05
2.00057575757576e+01 2.89948919572377e-03 4.71538639503068e-05
2.00706060606061e+01 2.86931379227690e-03 4.67386950486425e-05
2.01354545454545e+01 2.83945242859599e-03 4.63269397057420e-05
2.02003030303030e+01 2.80990183642430e-03 4.59185736701429e-05
2.02651515151515e+01 2.78065878151836e-03 4.55135727957480e-05
2.03300000000000e+01 2.75172006329394e-03 4.51119129890015e-05
2.03948484848485e+01 2.72308251461512e-03 4.47135703724675e-05
2.04596969696970e+01 2.69474300102629e-03 4.43185211768078e-05
