Energy (eV)          EEDF (eV^-(3/2))     First Anisotropy
7.78125000000000e-02 5.76273955950944e-02 5.36234759748527e-05
2.33437500000000e-01 5.63971265772412e-02 8.78979084514665e-05
3.89062500000000e-01 5.51931221830193e-02 1.14326689072215e-04
5.44687500000000e-01 5.40148216972986e-02 1.33394607518712e-04
7.00312500000000e-01 5.28616763754773e-02 1.48482496155383e-04
8.55937500000000e-01 5.17331491879282e-02 1.60897947008334e-04
1.01156250000000e+00 5.06287145698993e-02 1.71332227967716e-04
1.16718750000000e+00 4.95478581767542e-02 1.80211375304401e-04
1.32281250000000e+00 4.84900766444371e-02 1.87823530363870e-04
1.47843750000000e+00 4.74548773550520e-02 1.94376204866438e-04
1.63406250000000e+00 4.64417782074465e-02 2.00025789320965e-04
1.78968750000000e+00 4.54503073926928e-02 2.04894273292473e-04
1.94531250000000e+00 4.44800031743626e-02 2.09079411440708e-04
2.10093750000000e+00 4.35304136734924e-02 2.12661251569044e-04
2.25656250000000e+00 4.26010966581396e-02 2.15706513850403e-04
2.41218750000000e+00 4.16916193374311e-02 2.18271635771419e-04
2.56781250000000e+00 4.08015581600093e-02 2.20404953767075e-04
2.72343750000000e+00 3.99304986167802e-02 2.22148306651575e-04
2.87906250000000e+00 3.90780350478733e-02 2.23538240232462e-04
3.03468750000000e+00 3.82437704537223e-02 2.24606929764379e-04
3.19031250000000e+00 3.74273163101786e-02 2.25382898302046e-04
3.34593750000000e+00 3.66282923875729e-02 2.25891584505940e-04
3.50156250000000e+00 3.58463265736386e-02 2.26155797459808e-04
3.65718750000000e+00 3.50810547002159e-02 2.26196085363005e-04
3.81281250000000e+00 3.43321203736559e-02 2.26031037650831e-04
3.96843750000000e+00 3.35991748088448e-02 2.25677535002126e-04
4.12406250000000e+00 3.28818766667716e-02 2.25150958080939e-04
4.27968750000000e+00 3.21798918955639e-02 2.24465363256019e-04
4.43531250000000e+00 3.14928935749168e-02 2.23633631638811e-04
4.59093750000000e+00 3.08205617638436e-02 2.22667596370636e-04
4.74656250000000e+00 3.01625833516762e-02 2.21578152032250e-04
4.90218750000000e+00 2.95186519122472e-02 2.20375349246889e-04
5.05781250000000e+00 2.88884675611843e-02 2.19068476933097e-04
5.21343750000000e+00 2.82717368162517e-02 2.17666134187884e-04
5.36906250000000e+00 2.76681724606729e-02 2.16176293409247e-04
5.52468750000000e+00 2.70774934093714e-02 2.14606355974415e-04
5.68031250000000e+00 2.64994245780670e-02 2.12963201557992e-04
5.83593750000000e+00 2.59336967551666e-02 2.11253231988410e-04
5.99156250000000e+00 2.53800464763903e-02 2.09482410391639e-04
6.14718750000000e+00 2.48382159020735e-02 2.07656296249793e-04
6.30281250000000e+00 2.43079526970891e-02 2.05780076903565e-04
6.45843750000000e+00 2.37890099133325e-02 2.03858595946235e-04
6.61406250000000e+00 2.32811458747162e-02 2.01896378890217e-04
6.76968750000000e+00 2.27841240646189e-02 1.99897656431626e-04
6.92531250000000e+00 2.22977130157376e-02 1.97866385592151e-04
7.08093750000000e+00 2.18216862022916e-02 1.95806268978845e-04
7.23656250000000e+00 2.13558219345272e-02 1.93720772369947e-04
7.39218750000000e+00 2.08999032554753e-02 1.91613140807346e-04
7.54781250000000e+00 2.04537178399122e-02 1.89486413353004e-04
7.70343750000000e+00 2.00170578954782e-02 1.87343436646844e-04
7.85906250000000e+00 1.95897200659069e-02 1.85186877386638e-04
8.01468750000000e+00 1.91715053363204e-02 1.83019233835903e-04
8.17031250000000e+00 1.87622189405465e-02 1.80842846453307e-04
8.32593750000000e+00 1.83616702704143e-02 1.78659907726277e-04
8.48156250000000e+00 1.79696727869861e-02 1.76472471282147e-04
8.63718750000000e+00 1.75860439336854e-02 1.74282460342060e-04
8.79281250000000e+00 1.72106050512777e-02 1.72091675575771e-04
8.94843750000000e+00 1.68431812946684e-02 1.69901802409271e-04
9.10406250000000e+00 1.64836015514752e-02 1.67714417831764e-04
9.25968750000000e+00 1.61316983623399e-02 1.65530996743754e-04
9.41531250000000e+00 1.57873078429410e-02 1.63352917883811e-04
9.57093750000000e+00 1.54502696076716e-02 1.61181469367860e-04
9.72656250000000e+00 1.51204266949463e-02 1.59017853871594e-04
9.88218750000000e+00 1.47976254941030e-02 1.56863193483672e-04
1.00378125000000e+01 1.44817156738648e-02 1.54718534254813e-04
1.01934375000000e+01 1.41725501123295e-02 1.52584850465561e-04
1.03490625000000e+01 1.38699848284542e-02 1.50463048633452e-04
1.05046875000000e+01 1.35738789150014e-02 1.48353971278511e-04
1.06603125000000e+01 1.32840944729175e-02 1.46258400464318e-04
1.08159375000000e+01 1.30004965471125e-02 1.44177061130399e-04
1.09715625000000e+01 1.27229530636094e-02 1.42110624230429e-04
1.11271875000000e+01 1.24513347680372e-02 1.40059709689452e-04
1.12828125000000e+01 1.21855151654351e-02 1.38024889192312e-04
1.14384375000000e+01 1.19253704613434e-02 1.36006688814480e-04
1.15940625000000e+01 1.16707795041510e-02 1.34005591505564e-04
1.17496875000000e+01 1.14216237286743e-02 1.32022039435032e-04
1.19053125000000e+01 1.11777871009402e-02 1.30056436208890e-04
1.20609375000000e+01 1.09391560641481e-02 1.28109148965446e-04
1.22165625000000e+01 1.07056194857855e-02 1.26180510357653e-04
1.23721875000000e+01 1.04770686058729e-02 1.24270820428976e-04
1.25278125000000e+01 1.02533969863131e-02 1.22380348389247e-04
1.26834375000000e+01 1.00345004613221e-02 1.20509334296491e-04
1.28390625000000e+01 9.82027708891817e-03 1.18657990650274e-04
1.29946875000000e+01 9.61062710344675e-03 1.16826503901781e-04
1.31503125000000e+01 9.40545286911863e-03 1.15015035885420e-04
1.33059375000000e+01 9.20465883454012e-03 1.13223725176454e-04
1.34615625000000e+01 9.00815148821399e-03 1.11452688378874e-04
1.36171875000000e+01 8.81583931499033e-03 1.09702021347405e-04
1.37728125000000e+01 8.62763275344720e-03 1.07971800347325e-04
1.39284375000000e+01 8.44344415418109e-03 1.06262083155525e-04
1.40840625000000e+01 8.26318773898784e-03 1.04572910106007e-04
1.42396875000000e+01 8.08677956091501e-03 1.02904305082831e-04
1.43953125000000e+01 7.91413746516707e-03 1.01256276463336e-04
1.45509375000000e+01 7.74518105084517e-03 9.96288180142757e-05
1.47065625000000e+01 7.57983163350383e-03 9.80219097433482e-05
1.48621875000000e+01 7.41801220850684e-03 9.64355187084670e-05
1.50178125000000e+01 7.25964741516560e-03 9.48695997869603e-05
1.51734375000000e+01 7.10466350164297e-03 9.33240964067723e-05
1.53290625000000e+01 6.95298829060645e-03 9.17989412416023e-05
1.54846875000000e+01 6.80455114561453e-03 9.02940568718268e-05
1.56403125000000e+01 6.65928293822072e-03 8.88093564129254e-05
1.57959375000000e+01 6.51711601577985e-03 8.73447441130474e-05
1.59515625000000e+01 6.37798416994165e-03 8.59001159212541e-05
1.61071875000000e+01 6.24182260581693e-03 8.44753600278869e-05
1.62628125000000e+01 6.10856791180210e-03 8.30703573784501e-05
1.64184375000000e+01 5.97815803004777e-03 8.16849821622947e-05
1.65740625000000e+01 5.85053222755797e-03 8.03191022773310e-05
1.67296875000000e+01 5.72563106790619e-03 7.89725797719394e-05
1.68853125000000e+01 5.60339638355539e-03 7.76452712651787e-05
1.70409375000000e+01 5.48377124876884e-03 7.63370283463312e-05
1.71965625000000e+01 5.36669995309935e-03 7.50476979547770e-05
1.73521875000000e+01 5.25212797544441e-03 7.37771227411317e-05
1.75078125000000e+01 5.14000195865528e-03 7.25251414105363e-05
1.76634375000000e+01 5.03026968468806e-03 7.12915890489444e-05
1.78190625000000e+01 4.92288005028535e-03 7.00762974332030e-05
1.79746875000000e+01 4.81778304317701e-03 6.88790953256935e-05
1.81303125000000e+01 4.71492971878901e-03 6.76998087542471e-05
1.82859375000000e+01 4.61427217744953e-03 6.65382612780252e-05
1.84415625000000e+01 4.51576354208168e-03 6.53942742400221e-05
1.85971875000000e+01 4.41935793637243e-03 6.42676670067936e-05
1.87528125000000e+01 4.32501046340763e-03 6.31582571960180e-05
1.89084375000000e+01 4.23267718476314e-03 6.20658608924434e-05
1.90640625000000e+01 4.14231510004230e-03 6.09902928527578e-05
1.92196875000000e+01 4.05388212685034e-03 5.99313666998887e-05
1.93753125000000e+01 3.96733708119617e-03 5.88888951072146e-05
1.95309375000000e+01 3.88263965831269e-03 5.78626899731543e-05
1.96865625000000e+01 3.79975041388652e-03 5.68525625865732e-05
1.98421875000000e+01 3.71863074568843e-03 5.58583237834215e-05
1.99978125000000e+01 3.63924287559596e-03 5.48797840950069e-05
2.01534375000000e+01 3.56154983199980e-03 5.39167538882857e-05
2.03090625000000e+01 3.48551543258584e-03 5.29690434985240e-05
2.04646875000000e+01 3.41110426748474e-03 5.20364633546904e-05
2.06203125000000e+01 3.33828168278123e-03 5.11188240979035e-05
2.07759375000000e+01 3.26701376437551e-03 5.02159366932463e-05
2.09315625000000e+01 3.19726732218915e-03 4.93276125352551e-05
2.10871875000000e+01 3.12900987470820e-03 4.84536635473699e-05
2.12428125000000e+01 3.06220963385626e-03 4.75939022756172e-05
2.13984375000000e+01 2.99683549019051e-03 4.67481419767857e-05
2.15540625000000e+01 2.93285699841376e-03 4.59161967013567e-05
2.17096875000000e+01 2.87024436319586e-03 4.50978813714166e-05
2.18653125000000e+01 2.80896842529768e-03 4.42930118537849e-05
2.20209375000000e+01 2.74900064799149e-03 4.35014050285775e-05
2.21765625000000e+01 2.69031310377110e-03 4.27228788534106e-05
2.23321875000000e+01 2.63287846134581e-03 4.19572524234503e-05
2.24878125000000e+01 2.57666997291201e-03 4.12043460274942e-05
2.26434375000000e+01 2.52166146169646e-03 4.04639812002663e-05
2.27990625000000e+01 2.46782730976554e-03 3.97359807711059e-05
2.29546875000000e+01 2.41514244609482e-03 3.90201689092151e-05
2.31103125000000e+01 2.36358233489322e-03 3.83163711656194e-05
2.32659375000000e+01 2.31312296417647e-03 3.76244145119998e-05
2.34215625000000e+01 2.26374083458458e-03 3.69441273765444e-05
2.35771875000000e+01 2.21541294843794e-03 3.62753396769522e-05
2.37328125000000e+01 2.16811679902711e-03 3.56178828507277e-05
2.38884375000000e+01 2.12183036013128e-03 3.49715898828904e-05
2.40440625000000e+01 2.07653207576043e-03 3.43362953312296e-05
2.41996875000000e+01 2.03220085011656e-03 3.37118353492146e-05
2.43553125000000e+01 1.98881603776919e-03 3.30980477066710e-05
2.45109375000000e+01 1.94635743404057e-03 3.24947718083371e-05
2.46665625000000e+01 1.90480526559623e-03 3.19018487104002e-05
2.48221875000000e+01 1.86414018123636e-03 3.13191211351075e-05
2.49778125000000e+01 1.82434324288379e-03 3.07464334835519e-05
2.51334375000000e+01 1.78539591676434e-03 3.01836318467179e-05
2.52890625000000e+01 1.74728006477552e-03 2.96305640148769e-05
2.54446875000000e+01 1.70997793603945e-03 2.90870794854111e-05
2.56003125000000e+01 1.67347215863612e-03 2.85530294691497e-05
2.57559375000000e+01 1.63774573151312e-03 2.80282668952880e-05
2.59115625000000e+01 1.60278201656814e-03 2.75126464149657e-05
2.60671875000000e+01 1.56856473090046e-03 2.70060244035715e-05
2.62228125000000e+01 1.53507793922781e-03 2.65082589618383e-05
2.63784375000000e+01 1.50230604646525e-03 2.60192099157986e-05
2.65340625000000e+01 1.47023379046237e-03 2.55387388156560e-05
2.66896875000000e+01 1.43884623489554e-03 2.50667089336314e-05
2.68453125000000e+01 1.40812876231201e-03 2.46029852608395e-05
2.70009375000000e+01 1.37806706732240e-03 2.41474345032508e-05
2.71565625000000e+01 1.34864714993852e-03 2.36999250767876e-05
2.73121875000000e+01 1.31985530905352e-03 2.32603271016046e-05
2.74678125000000e+01 1.29167813606115e-03 2.28285123955991e-05
2.76234375000000e+01 1.26410250861123e-03 2.24043544671955e-05
2.77790625000000e+01 1.23711558449849e-03 2.19877285074487e-05
2.79346875000000e+01 1.21070479568182e-03 2.15785113815059e-05
2.80903125000000e+01 1.18485784243126e-03 2.11765816194650e-05
2.82459375000000e+01 1.15956268759986e-03 2.07818194066665e-05
2.84015625000000e+01 1.13480755101793e-03 2.03941065734576e-05
2.85571875000000e+01 1.11058090400690e-03 2.00133265844596e-05
2.87128125000000e+01 1.08687146401028e-03 1.96393645273733e-05
2.88684375000000e+01 1.06366818933932e-03 1.92721071013501e-05
2.90240625000000e+01 1.04096027403079e-03 1.89114426049642e-05
2.91796875000000e+01 1.01873714281455e-03 1.85572609238080e-05
2.93353125000000e+01 9.96988446188537e-04 1.82094535177433e-05
2.94909375000000e+01 9.75704055598941e-04 1.78679134078308e-05
2.96465625000000e+01 9.54874058723236e-04 1.75325351629628e-05
2.98021875000000e+01 9.34488754853931e-04 1.72032148862252e-05
2.99578125000000e+01 9.14538650380870e-04 1.68798502010095e-05
3.01134375000000e+01 8.95014454369968e-04 1.65623402368958e-05
3.02690625000000e+01 8.75907074236355e-04 1.62505856153293e-05
3.04246875000000e+01 8.57207611509871e-04 1.59444884351081e-05
3.05803125000000e+01 8.38907357690981e-04 1.56439522577024e-05
3.07359375000000e+01 8.20997790195147e-04 1.53488820924208e-05
3.08915625000000e+01 8.03470568383788e-04 1.50591843814429e-05
3.10471875000000e+01 7.86317529679976e-04 1.47747669847343e-05
3.12028125000000e+01 7.69530685767053e-04 1.44955391648573e-05
3.13584375000000e+01 7.53102218868402e-04 1.42214115716942e-05
3.15140625000000e+01 7.37024478106645e-04 1.39522962270948e-05
3.16696875000000e+01 7.21289975940560e-04 1.36881065094645e-05
3.18253125000000e+01 7.05891384678073e-04 1.34287571383030e-05
3.19809375000000e+01 6.90821533063686e-04 1.31741641587063e-05
3.21365625000000e+01 6.76073402938765e-04 1.29242449258446e-05
3.22921875000000e+01 6.61640125973121e-04 1.26789180894238e-05
3.24478125000000e+01 6.47514980466371e-04 1.24381035781450e-05
3.26034375000000e+01 6.33691388217585e-04 1.22017225841685e-05
3.27590625000000e+01 6.20162911461762e-04 1.19696975475933e-05
3.29146875000000e+01 6.06923249871705e-04 1.17419521409593e-05
3.30703125000000e+01 5.93966237623908e-04 1.15184112537824e-05
3.32259375000000e+01 5.81285840527080e-04 1.12990009771284e-05
3.33815625000000e+01 5.68876153211967e-04 1.10836485882348e-05
3.35371875000000e+01 5.56731396381174e-04 1.08722825351863e-05
3.36928125000000e+01 5.44845914117695e-04 1.06648324216504e-05
3.38484375000000e+01 5.33214171250904e-04 1.04612289916812e-05
3.40040625000000e+01 5.21830750778782e-04 1.02614041145950e-05
3.41596875000000e+01 5.10690351345169e-04 1.00652907699239e-05
3.43153125000000e+01 4.99787784770879e-04 9.87282303245379e-06
3.44709375000000e+01 4.89117973637521e-04 9.68393605735028e-06
3.46265625000000e+01 4.78675948922899e-04 9.49856606537688e-06
3.47821875000000e+01 4.68456847686902e-04 9.31665032821125e-06
3.49378125000000e+01 4.58455910806783e-04 9.13812715386244e-06
3.50934375000000e+01 4.48668480760803e-04 8.96293587219245e-06
3.52490625000000e+01 4.39089999459178e-04 8.79101682054626e-06
3.54046875000000e+01 4.29716006121338e-04 8.62231132949405e-06
3.55603125000000e+01 4.20542135198507e-04 8.45676170868753e-06
3.57159375000000e+01 4.11564114340625e-04 8.29431123283350e-06
3.58715625000000e+01 4.02777762406682e-04 8.13490412778765e-06
3.60271875000000e+01 3.94178987517524e-04 7.97848555677057e-06
3.61828125000000e+01 3.85763785150226e-04 7.82500160670820e-06
3.63384375000000e+01 3.77528236273157e-04 7.67439927469870e-06
3.64940625000000e+01 3.69468505520851e-04 7.52662645460740e-06
3.66496875000000e+01 3.61580839407845e-04 7.38163192379204e-06
3.68053125000000e+01 3.53861564580647e-04 7.23936532995900e-06
3.69609375000000e+01 3.46307086107026e-04 7.09977717815232e-06
3.71165625000000e+01 3.38913885801821e-04 6.96281881787661e-06
3.72721875000000e+01 3.31678520588492e-04 6.82844243035468e-06
3.74278125000000e+01 3.24597620895648e-04 6.69660101592113e-06
3.75834375000000e+01 3.17667889087813e-04 6.56724838155284e-06
3.77390625000000e+01 3.10886097929685e-04 6.44033912853565e-06
3.78946875000000e+01 3.04249089083186e-04 6.31582864026969e-06
3.80503125000000e+01 2.97753771636597e-04 6.19367307021272e-06
3.82059375000000e+01 2.91397120665097e-04 6.07382932996167e-06
3.83615625000000e+01 2.85176175822025e-04 5.95625507747335e-06
3.85171875000000e+01 2.79088039960222e-04 5.84090870542319e-06
3.86728125000000e+01 2.73129877782809e-04 5.72774932970379e-06
3.88284375000000e+01 2.67298914522761e-04 5.61673677806185e-06
3.89840625000000e+01 2.61592434650675e-04 5.50783157887356e-06
3.91396875000000e+01 2.56007780610125e-04 5.40099495005929e-06
3.92953125000000e+01 2.50542351580017e-04 5.29618878813580e-06
3.94509375000000e+01 2.45193602263360e-04 5.19337565740616e-06
3.96065625000000e+01 2.39959041701907e-04 5.09251877928789e-06
3.97621875000000e+01 2.34836232116085e-04 4.99358202177774e-06
3.99178125000000e+01 2.29822787769707e-04 4.89652988905262e-06
4.00734375000000e+01 2.24916373858913e-04 4.80132751120681e-06
4.02290625000000e+01 2.20114705424831e-04 4.70794063412426e-06
4.03846875000000e+01 2.15415546289450e-04 4.61633560948552e-06
4.05403125000000e+01 2.10816708014218e-04 4.52647938490833e-06
4.06959375000000e+01 2.06316048880863e-04 4.43833949422120e-06
4.08515625000000e+01 2.01911472893979e-04 4.35188404786971e-06
4.10071875000000e+01 1.97600928804902e-04 4.26708172345373e-06
4.11628125000000e+01 1.93382409156426e-04 4.18390175639489e-06
4.13184375000000e+01 1.89253949347911e-04 4.10231393073429e-06
4.14740625000000e+01 1.85213626720358e-04 4.02228857005836e-06
4.16296875000000e+01 1.81259559661003e-04 3.94379652855237e-06
4.17853125000000e+01 1.77389906727037e-04 3.86680918218069e-06
4.19409375000000e+01 1.73602865788033e-04 3.79129841999256e-06
4.20965625000000e+01 1.69896673186673e-04 3.71723663555242e-06
4.22521875000000e+01 1.66269602917400e-04 3.64459671849347e-06
4.24078125000000e+01 1.62719965822607e-04 3.57335204619383e-06
4.25634375000000e+01 1.59246108805974e-04 3.50347647557390e-06
4.27190625000000e+01 1.55846414062612e-04 3.43494433501352e-06
4.28746875000000e+01 1.52519298325637e-04 3.36773041638859e-06
4.30303125000000e+01 1.49263212128826e-04 3.30180996722490e-06
4.31859375000000e+01 1.46076639085023e-04 3.23715868296880e-06
4.33415625000000e+01 1.42958095179938e-04 3.17375269937361e-06
4.34971875000000e+01 1.39906128081034e-04 3.11156858499972e-06
4.36528125000000e+01 1.36919316461162e-04 3.05058333382798e-06
4.38084375000000e+01 1.33996269336633e-04 2.99077435798503e-06
4.39640625000000e+01 1.31135625419431e-04 2.93211948057895e-06
4.41196875000000e+01 1.28336052483246e-04 2.87459692864444e-06
4.42753125000000e+01 1.25596246743046e-04 2.81818532619612e-06
4.44309375000000e+01 1.22914932247893e-04 2.76286368738884e-06
4.45865625000000e+01 1.20290860286718e-04 2.70861140978358e-06
4.47421875000000e+01 1.17722808806795e-04 2.65540826771783e-06
4.48978125000000e+01 1.15209581844610e-04 2.60323440577921e-06
4.50534375000000e+01 1.12750008968897e-04 2.55207033238111e-06
4.52090625000000e+01 1.10342944735556e-04 2.50189691343908e-06
4.53646875000000e+01 1.07987268154211e-04 2.45269536614667e-06
4.55203125000000e+01 1.05681882166154e-04 2.40444725284977e-06
4.56759375000000e+01 1.03425713133436e-04 2.35713447501779e-06
4.58315625000000e+01 1.01217710338865e-04 2.31073926731085e-06
4.59871875000000e+01 9.90568454966764e-05 2.26524419174164e-06
4.61428125000000e+01 9.69421122736538e-05 2.22063213193057e-06
4.62984375000000e+01 9.48725258204697e-05 2.17688628745319e-06
4.64540625000000e+01 9.28471223130327e-05 2.13399016827866e-06
4.66096875000000e+01 9.08649585036270e-05 2.09192758929798e-06
4.67653125000000e+01 8.89251112816334e-05 2.05068266494089e-06
4.69209375000000e+01 8.70266772436289e-05 2.01023980388012e-06
4.70765625000000e+01 8.51687722726641e-05 1.97058370382196e-06
4.72321875000000e+01 8.33505311265226e-05 1.93169934638199e-06
4.73878125000000e+01 8.15711070347697e-05 1.89357199204460e-06
4.75434375000000e+01 7.98296713044047e-05 1.85618717520530e-06
4.76990625000000e+01 7.81254129339314e-05 1.81953069929470e-06
4.78546875000000e+01 7.64575382356675e-05 1.78358863198293e-06
4.80103125000000e+01 7.48252704661178e-05 1.74834730046349e-06
4.81659375000000e+01 7.32278494642380e-05 1.71379328681520e-06
4.83215625000000e+01 7.16645312974212e-05 1.67991342344138e-06
4.84771875000000e+01 7.01345879150420e-05 1.64669478858508e-06
4.86328125000000e+01 6.86373068093973e-05 1.61412470191895e-06
4.87884375000000e+01 6.71719906838853e-05 1.58219072020941e-06
4.89440625000000e+01 6.57379571282686e-05 1.55088063305323e-06
4.90996875000000e+01 6.43345383008696e-05 1.52018245868590e-06
