Energy (eV)          EEDF (eV^-(3/2))     First Anisotropy
2.23584905660377e-02 6.25186301267235e-02 3.21977662203207e-05
6.70754716981132e-02 6.21127560731274e-02 5.31738400964090e-05
1.11792452830189e-01 6.17095169737353e-02 7.02118590425692e-05
1.56509433962264e-01 6.13088957238539e-02 8.31657449077836e-05
2.01226415094340e-01 6.09108753248127e-02 9.39777040339844e-05
2.45943396226415e-01 6.05154388945735e-02 1.03381644245440e-04
2.90660377358491e-01 6.01225696576524e-02 1.11757159969294e-04
3.35377358490566e-01 5.97322509475840e-02 1.19333356797736e-04
3.80094339622641e-01 5.93444662061401e-02 1.26262102713969e-04
4.24811320754717e-01 5.89591989826196e-02 1.32650679394118e-04
4.69528301886792e-01 5.85764329331486e-02 1.38578461373407e-04
5.14245283018868e-01 5.81961518199647e-02 1.44106285755330e-04
5.58962264150943e-01 5.78183395100305e-02 1.49282099901034e-04
6.03679245283019e-01 5.74429799765051e-02 1.54144557052751e-04
6.48396226415094e-01 5.70700572958231e-02 1.58725407463462e-04
6.93113207547170e-01 5.66995556477999e-02 1.63051146067654e-04
7.37830188679245e-01 5.63314593149539e-02 1.67144182713722e-04
7.82547169811321e-01 5.59657526818501e-02 1.71023694431242e-04
8.27264150943396e-01 5.56024202344323e-02 1.74706259905141e-04
8.71981132075472e-01 5.52414465589409e-02 1.78206340623652e-04
9.16698113207547e-01 5.48828163425564e-02 1.81536652261998e-04
9.61415094339623e-01 5.45265143714184e-02 1.84708455446877e-04
1.00613207547170e+00 5.41725255304368e-02 1.87731786347062e-04
1.05084905660377e+00 5.38208348012461e-02 1.90615641183174e-04
1.09556603773585e+00 5.34714272661927e-02 1.93368126850621e-04
1.14028301886792e+00 5.31242881026252e-02 1.95996584294832e-04
1.18500000000000e+00 5.27794025841266e-02 1.98507689488360e-04
1.22971698113208e+00 5.24367560798798e-02 2.00907538369968e-04
1.27443396226415e+00 5.20963340540575e-02 2.03201717935578e-04
1.31915094339623e+00 5.17581220652118e-02 2.05395366328343e-04
1.36386792452830e+00 5.14221057656519e-02 2.07493224318167e-04
1.40858490566038e+00 5.10882708984431e-02 2.09499677907577e-04
1.45330188679245e+00 5.07566033040946e-02 2.11418796712973e-04
1.49801886792453e+00 5.04270889125408e-02 2.13254367250145e-04
1.54273584905660e+00 5.00997137450612e-02 2.15009920051713e-04
1.58745283018868e+00 4.97744639136879e-02 2.16688754727822e-04
1.63216981132075e+00 4.94513256206099e-02 2.18293961589267e-04
1.67688679245283e+00 4.91302851575977e-02 2.19828440676256e-04
1.72160377358491e+00 4.88113289054207e-02 2.21294918569571e-04
1.76632075471698e+00 4.84944433332661e-02 2.22695963597063e-04
1.81103773584906e+00 4.81796149964182e-02 2.24033998156192e-04
1.85575471698113e+00 4.78668305409998e-02 2.25311311165767e-04
1.90047169811321e+00 4.75560766980180e-02 2.26530069272701e-04
1.94518867924528e+00 4.72473402846234e-02 2.27692325398355e-04
1.98990566037736e+00 4.69406082035515e-02 2.28800027606357e-04
2.03462264150943e+00 4.66358674425620e-02 2.29855026812556e-04
2.07933962264151e+00 4.63331050738957e-02 2.30859083760057e-04
2.12405660377358e+00 4.60323082537225e-02 2.31813875345341e-04
2.16877358490566e+00 4.57334642215958e-02 2.32721000625767e-04
2.21349056603774e+00 4.54365602985668e-02 2.33581985262656e-04
2.25820754716981e+00 4.51415838907276e-02 2.34398286830309e-04
2.30292452830189e+00 4.48485224845452e-02 2.35171299715689e-04
2.34764150943396e+00 4.45573636477255e-02 2.35902358311400e-04
2.39235849056604e+00 4.42680950286862e-02 2.36592740960358e-04
2.43707547169811e+00 4.39807043560286e-02 2.37243673330482e-04
2.48179245283019e+00 4.36951794380251e-02 2.37856331524196e-04
2.52650943396226e+00 4.34115081620977e-02 2.38431844948470e-04
2.57122641509434e+00 4.31296784943042e-02 2.38971299190595e-04
2.61594339622641e+00 4.28496784777572e-02 2.39475737786185e-04
2.66066037735849e+00 4.25714962353631e-02 2.39946164952575e-04
2.70537735849057e+00 4.22951199660358e-02 2.40383548159226e-04
2.75009433962264e+00 4.20205379453028e-02 2.40788819388563e-04
2.79481132075472e+00 4.17477385248072e-02 2.41162877194805e-04
2.83952830188679e+00 4.14767101318125e-02 2.41506588401932e-04
2.88424528301887e+00 4.12074412687155e-02 2.41820789688760e-04
2.92896226415094e+00 4.09399205125561e-02 2.42106289069954e-04
2.97367924528302e+00 4.06741365145331e-02 2.42363867477951e-04
3.01839622641509e+00 4.04100779986487e-02 2.42594279458361e-04
3.06311320754717e+00 4.01477337638774e-02 2.42798254787421e-04
3.10783018867925e+00 3.98870926810167e-02 2.42976500015558e-04
3.15254716981132e+00 3.96281436931157e-02 2.43129698924199e-04
3.19726415094340e+00 3.93708758150051e-02 2.43258513736619e-04
3.24198113207547e+00 3.91152781328315e-02 2.43363586062999e-04
3.28669811320755e+00 3.88613398035966e-02 2.43445537791268e-04
3.33141509433962e+00 3.86090500546951e-02 2.43504971926980e-04
3.37613207547170e+00 3.83583981834585e-02 2.43542473560654e-04
3.42084905660377e+00 3.81093735559742e-02 2.43558610084537e-04
3.46556603773585e+00 3.78619656088339e-02 2.43553932256094e-04
3.51028301886792e+00 3.76161638464650e-02 2.43528975224780e-04
3.55500000000000e+00 3.73719578414331e-02 2.43484258622899e-04
3.59971698113208e+00 3.71293372339985e-02 2.43420287346645e-04
3.64443396226415e+00 3.68882917316776e-02 2.43337552123922e-04
3.68915094339623e+00 3.66488111088070e-02 2.43236530053685e-04
3.73386792452830e+00 3.64108852061089e-02 2.43117685276757e-04
3.77858490566038e+00 3.61745039296354e-02 2.42981468981505e-04
3.82330188679245e+00 3.59396572522312e-02 2.42828320188556e-04
3.86801886792453e+00 3.57063352112003e-02 2.42658666514629e-04
3.91273584905660e+00 3.54745279085249e-02 2.42472924101076e-04
3.95745283018868e+00 3.52442255104460e-02 2.42271498177207e-04
4.00216981132075e+00 3.50154182470449e-02 2.42054783439921e-04
4.04688679245283e+00 3.47880964118304e-02 2.41823164415882e-04
4.09160377358491e+00 3.45622503613267e-02 2.41577015807769e-04
4.13632075471698e+00 3.43378705146640e-02 2.41316702966791e-04
4.18103773584906e+00 3.41149473526402e-02 2.41042581777850e-04
4.22575471698113e+00 3.38934714189262e-02 2.40754999249880e-04
4.27047169811321e+00 3.36734333180418e-02 2.40454294094620e-04
4.31518867924528e+00 3.34548237155029e-02 2.40140796563780e-04
4.35990566037736e+00 3.32376333374251e-02 2.39814828860685e-04
4.40462264150943e+00 3.30218529701301e-02 2.39476705392909e-04
4.44933962264151e+00 3.28074734597559e-02 2.39126733014720e-04
4.49405660377358e+00 3.25944857118679e-02 2.38765211260036e-04
4.53877358490566e+00 3.23828806910733e-02 2.38392432693499e-04
4.58349056603774e+00 3.21726494201800e-02 2.38008682737354e-04
4.62820754716981e+00 3.19637829811993e-02 2.37614240136779e-04
4.67292452830189e+00 3.17562725135729e-02 2.37209377418769e-04
4.71764150943396e+00 3.15501092142657e-02 2.36794360687022e-04
4.76235849056604e+00 3.13452843373925e-02 2.36369449937030e-04
4.80707547169811e+00 3.11417891938460e-02 2.35934899231098e-04
4.85179245283019e+00 3.09396151509299e-02 2.35490956867124e-04
4.89650943396226e+00 3.07387536319918e-02 2.35037865541481e-04
4.94122641509434e+00 3.05391961160594e-02 2.34575862621184e-04
4.98594339622642e+00 3.03409341370829e-02 2.34105179944697e-04
5.03066037735849e+00 3.01439592847734e-02 2.33626044201881e-04
5.07537735849057e+00 2.99482632030394e-02 2.33138677310422e-04
5.12009433962264e+00 2.97538375900374e-02 2.32643296194125e-04
5.16481132075472e+00 2.95606741978197e-02 2.32140113032919e-04
5.20952830188679e+00 2.93687648319846e-02 2.31629335388345e-04
5.25424528301887e+00 2.91781013513293e-02 2.31111166325046e-04
5.29896226415094e+00 2.89886756675039e-02 2.30585804528177e-04
5.34367924528302e+00 2.88004797446690e-02 2.30053444521635e-04
5.38839622641509e+00 2.86135055988082e-02 2.29514276460261e-04
5.43311320754717e+00 2.84277452984348e-02 2.28968486448360e-04
5.47783018867925e+00 2.82431909632024e-02 2.28416256856376e-04
5.52254716981132e+00 2.80598347639243e-02 2.27857766096420e-04
5.56726415094340e+00 2.78776689222409e-02 2.27293188826550e-04
5.61198113207547e+00 2.76966857102904e-02 2.26722696043239e-04
5.65669811320755e+00 2.75168774503805e-02 2.26146455171185e-04
5.70141509433962e+00 2.73382365146634e-02 2.25564630150340e-04
5.74613207547170e+00 2.71607553248114e-02 2.24977381615562e-04
5.79084905660377e+00 2.69844263513925e-02 2.24384866689690e-04
5.83556603773585e+00 2.68092421144673e-02 2.23787239256002e-04
5.88028301886792e+00 2.66351951823487e-02 2.23184650229769e-04
5.92500000000000e+00 2.64622781715963e-02 2.22577247338550e-04
5.96971698113208e+00 2.62904837467034e-02 2.21965175292860e-04
6.01443396226415e+00 2.61198046197857e-02 2.21348575855975e-04
6.05915094339623e+00 2.59502335502725e-02 2.20727587911953e-04
6.10386792452830e+00 2.57817633445990e-02 2.20102347619705e-04
6.14858490566038e+00 2.56143868556306e-02 2.19472988210878e-04
6.19330188679245e+00 2.54480969831785e-02 2.18839640230313e-04
6.23801886792453e+00 2.52828866728734e-02 2.18202431776152e-04
6.28273584905660e+00 2.51187489161433e-02 2.17561488287341e-04
6.32745283018868e+00 2.49556767499164e-02 2.16916932691613e-04
6.37216981132075e+00 2.47936632563251e-02 2.16268885460767e-04
6.41688679245283e+00 2.46327015624132e-02 2.15617464664467e-04
6.46160377358491e+00 2.44727848398442e-02 2.14962786022768e-04
6.50632075471698e+00 2.43139063046115e-02 2.14304963037557e-04
6.55103773584906e+00 2.41560592165104e-02 2.13644106799129e-04
6.59575471698113e+00 2.39992368795779e-02 2.12980326197239e-04
6.64047169811321e+00 2.38434326410776e-02 2.12313728132233e-04
6.68518867924528e+00 2.36886398914633e-02 2.11644417313120e-04
6.72990566037736e+00 2.35348520640980e-02 2.10972496385195e-04
6.77462264150943e+00 2.33820626349757e-02 2.10298065973228e-04
6.81933962264151e+00 2.32302651224447e-02 2.09621224723616e-04
6.86405660377358e+00 2.30794530869326e-02 2.08942069345642e-04
6.90877358490566e+00 2.29296201306729e-02 2.08260694725169e-04
6.95349056603774e+00 2.27807598972208e-02 2.07577193741377e-04
6.99820754716981e+00 2.26328660718268e-02 2.06891657453744e-04
7.04292452830189e+00 2.24859323805214e-02 2.06204175289402e-04
7.08764150943396e+00 2.23399525900656e-02 2.05514834852783e-04
7.13235849056604e+00 2.21949205076870e-02 2.04823722036888e-04
7.17707547169811e+00 2.20508299808171e-02 2.04130921057590e-04
7.22179245283019e+00 2.19076748968300e-02 2.03436514487173e-04
7.26650943396226e+00 2.17654491827836e-02 2.02740583287220e-04
7.31122641509434e+00 2.16241468051613e-02 2.02043206908048e-04
7.35594339622642e+00 2.14837617694269e-02 2.01344463116134e-04
7.40066037735849e+00 2.13442881203431e-02 2.00644428161062e-04
7.44537735849057e+00 2.12057199411421e-02 1.99943176942966e-04
7.49009433962264e+00 2.10680513534677e-02 1.99240782833973e-04
7.53481132075472e+00 2.09312765171266e-02 1.98537317776173e-04
7.57952830188679e+00 2.07953896298400e-02 1.97832852309178e-04
7.62424528301887e+00 2.06603849269980e-02 1.97127455597202e-04
7.66896226415094e+00 2.05262566814149e-02 1.96421195455581e-04
7.71367924528302e+00 2.03929992030862e-02 1.95714138438527e-04
7.75839622641509e+00 2.02606068387772e-02 1.95006349677312e-04
7.80311320754717e+00 2.01290739722964e-02 1.94297893030236e-04
7.84783018867925e+00 1.99983950237407e-02 1.93588831233155e-04
7.89254716981132e+00 1.98685644494319e-02 1.92879225732486e-04
7.93726415094340e+00 1.97395767416820e-02 1.92169136772151e-04
7.98198113207547e+00 1.96114264285585e-02 1.91458623416009e-04
8.02669811320755e+00 1.94841080736538e-02 1.90747743569948e-04
8.07141509433962e+00 1.93576162758531e-02 1.90036554003515e-04
8.11613207547170e+00 1.92319456691063e-02 1.89325110427920e-04
8.16084905660377e+00 1.91070909220477e-02 1.88613467344722e-04
8.20556603773585e+00 1.89830467382293e-02 1.87901678181217e-04
8.25028301886792e+00 1.88598078554340e-02 1.87189795426410e-04
8.29500000000000e+00 1.87373690456071e-02 1.86477870475172e-04
8.33971698113208e+00 1.86157251146346e-02 1.85765953705880e-04
8.38443396226415e+00 1.84948709021230e-02 1.85054094498887e-04
8.42915094339623e+00 1.83748012811805e-02 1.84342341254701e-04
8.47386792452830e+00 1.82555111581992e-02 1.83630741464737e-04
8.51858490566038e+00 1.81369954725008e-02 1.82919341568862e-04
8.56330188679245e+00 1.80192491965399e-02 1.82208187079470e-04
8.60801886792453e+00 1.79022673352698e-02 1.81497322706199e-04
8.65273584905660e+00 1.77860449260719e-02 1.80786792209434e-04
8.69745283018868e+00 1.76705770385454e-02 1.80076638470918e-04
8.74216981132076e+00 1.75558587742977e-02 1.79366903509387e-04
8.78688679245283e+00 1.74418852667366e-02 1.78657628495892e-04
8.83160377358491e+00 1.73286516808647e-02 1.77948853768932e-04
8.87632075471698e+00 1.72161532130730e-02 1.77240618897996e-04
8.92103773584906e+00 1.71043850908135e-02 1.76532962550751e-04
8.96575471698113e+00 1.69933425727726e-02 1.75825922605817e-04
9.01047169811321e+00 1.68830209482914e-02 1.75119536266249e-04
9.05518867924528e+00 1.67734155372926e-02 1.74413839923083e-04
9.09990566037736e+00 1.66645216900825e-02 1.73708869219027e-04
9.14462264150943e+00 1.65563347871532e-02 1.73004659061509e-04
9.18933962264151e+00 1.64488502389870e-02 1.72301243635469e-04
9.23405660377358e+00 1.63420634858615e-02 1.71598656416030e-04
9.27877358490566e+00 1.62359699976564e-02 1.70896930225836e-04
9.32349056603774e+00 1.61305652735486e-02 1.70196097111335e-04
9.36820754716981e+00 1.60258448421609e-02 1.69496188445591e-04
9.41292452830189e+00 1.59218042610307e-02 1.68797235031782e-04
9.45764150943396e+00 1.58184391165361e-02 1.68099266976251e-04
9.50235849056604e+00 1.57157450237085e-02 1.67402313746156e-04
9.54707547169811e+00 1.56137176260468e-02 1.66706404180376e-04
9.59179245283019e+00 1.55123525953326e-02 1.66011566500309e-04
9.63650943396226e+00 1.54116456314465e-02 1.65317828320549e-04
9.68122641509434e+00 1.53115924621858e-02 1.64625216700803e-04
9.72594339622641e+00 1.52121888429812e-02 1.63933758030715e-04
9.77066037735849e+00 1.51134305570242e-02 1.63243478123841e-04
9.81537735849057e+00 1.50153134147790e-02 1.62554402312248e-04
9.86009433962264e+00 1.49178332539085e-02 1.61866555328459e-04
9.90481132075472e+00 1.48209859390977e-02 1.61179961357747e-04
9.94952830188679e+00 1.47247673618782e-02 1.60494644047373e-04
9.99424528301887e+00 1.46291734404541e-02 1.59810626633408e-04
1.00389622641509e+01 1.45342001192456e-02 1.59127931672766e-04
1.00836792452830e+01 1.44398433693844e-02 1.58446580747179e-04
1.01283962264151e+01 1.43460991889845e-02 1.57766595872270e-04
1.01731132075472e+01 1.42529636002873e-02 1.57087998529123e-04
1.02178301886792e+01 1.41604326522891e-02 1.56410808928555e-04
1.02625471698113e+01 1.40685024196348e-02 1.55735047198825e-04
1.03072641509434e+01 1.39771690024545e-02 1.55060732630271e-04
1.03519811320755e+01 1.38864285270687e-02 1.54387884793841e-04
1.03966981132075e+01 1.37962771431922e-02 1.53716522806480e-04
1.04414150943396e+01 1.37067110264171e-02 1.53046664588104e-04
1.04861320754717e+01 1.36177263771631e-02 1.52378327998169e-04
1.05308490566038e+01 1.35293194205173e-02 1.51711530112036e-04
1.05755660377358e+01 1.34414864069006e-02 1.51046288291332e-04
1.06202830188679e+01 1.33542236094152e-02 1.50382619480648e-04
1.06650000000000e+01 1.32675273261929e-02 1.49720539495715e-04
1.07097169811321e+01 1.31813938793977e-02 1.49060064111469e-04
1.07544339622642e+01 1.30958196150704e-02 1.48401208706234e-04
1.07991509433962e+01 1.30108009029737e-02 1.47743987933774e-04
1.08438679245283e+01 1.29263341372141e-02 1.47088416739747e-04
1.08885849056604e+01 1.28424157337482e-02 1.46434509692958e-04
1.09333018867925e+01 1.27590421325837e-02 1.45782280308514e-04
1.09780188679245e+01 1.26762097968394e-02 1.45131742081221e-04
1.10227358490566e+01 1.25939152125962e-02 1.44482907826751e-04
1.10674528301887e+01 1.25121548894832e-02 1.43835790655249e-04
1.11121698113208e+01 1.24309253583109e-02 1.43190403330412e-04
1.11568867924528e+01 1.23502231731547e-02 1.42546757621187e-04
1.12016037735849e+01 1.22700449104601e-02 1.41904865291192e-04
1.12463207547170e+01 1.21903871688992e-02 1.41264737467204e-04
1.12910377358491e+01 1.21112465699233e-02 1.40626385571778e-04
1.13357547169811e+01 1.20326197555157e-02 1.39989820709060e-04
1.13804716981132e+01 1.19545033901641e-02 1.39355053043341e-04
1.14251886792453e+01 1.18768941600102e-02 1.38722092747039e-04
1.14699056603774e+01 1.17997887727094e-02 1.38090949689751e-04
1.15146226415094e+01 1.17231839572914e-02 1.37461633151361e-04
1.15593396226415e+01 1.16470764646772e-02 1.36834152708275e-04
1.16040566037736e+01 1.15714630655629e-02 1.36208517649209e-04
1.16487735849057e+01 1.14963405522715e-02 1.35584736383726e-04
1.16934905660377e+01 1.14217057379497e-02 1.34962817343472e-04
1.17382075471698e+01 1.13475554564341e-02 1.34342768406438e-04
1.17829245283019e+01 1.12738865627384e-02 1.33724597746403e-04
1.18276415094340e+01 1.12006959310434e-02 1.33108313272708e-04
1.18723584905660e+01 1.11279804564506e-02 1.32493922063470e-04
1.19170754716981e+01 1.10557370542183e-02 1.31881431228958e-04
1.19617924528302e+01 1.09839626596315e-02 1.31270847359428e-04
1.20065094339623e+01 1.09126542284628e-02 1.30662177339440e-04
1.20512264150943e+01 1.08418087350602e-02 1.30055427810624e-04
1.20959433962264e+01 1.07714231740110e-02 1.29450604628114e-04
1.21406603773585e+01 1.07014945594133e-02 1.28847713688249e-04
1.21853773584906e+01 1.06320199247501e-02 1.28246760398913e-04
1.22300943396226e+01 1.05629963233247e-02 1.27647750459936e-04
1.22748113207547e+01 1.04944208264425e-02 1.27050689348129e-04
1.23195283018868e+01 1.04262905249886e-02 1.26455581795819e-04
1.23642452830189e+01 1.03586025287341e-02 1.25862432584505e-04
1.24089622641509e+01 1.02913539662134e-02 1.25271246283665e-04
1.24536792452830e+01 1.02245419846029e-02 1.24682027009385e-04
1.24983962264151e+01 1.01581637501284e-02 1.24094779166961e-04
1.25431132075472e+01 1.00922164463504e-02 1.23509506960397e-04
1.25878301886792e+01 1.00266972756473e-02 1.22926213895978e-04
1.26325471698113e+01 9.96160345855951e-03 1.22344903537249e-04
1.26772641509434e+01 9.89693223367206e-03 1.21765579021424e-04
1.27219811320755e+01 9.83268085799996e-03 1.21188243771680e-04
1.27666981132075e+01 9.76884660535597e-03 1.20612901026515e-04
1.28114150943396e+01 9.70542676775855e-03 1.20039553363537e-04
1.28561320754717e+01 9.64241865480608e-03 1.19468203423509e-04
1.29008490566038e+01 9.57981959356347e-03 1.18898853446274e-04
1.29455660377358e+01 9.51762692892644e-03 1.18331505953878e-04
1.29902830188679e+01 9.45583802206756e-03 1.17766163299089e-04
1.30350000000000e+01 9.39445025177308e-03 1.17202827208397e-04
1.30797169811321e+01 9.33346101384601e-03 1.16641499476638e-04
1.31244339622642e+01 9.27286772099594e-03 1.16082181737939e-04
1.31691509433962e+01 9.21266780272945e-03 1.15524875253921e-04
1.32138679245283e+01 9.15285870569147e-03 1.14969581563958e-04
1.32585849056604e+01 9.09343789219823e-03 1.14416302055091e-04
1.33033018867925e+01 9.03440284149522e-03 1.13865037526611e-04
1.33480188679245e+01 8.97575104919257e-03 1.13315788851351e-04
1.33927358490566e+01 8.91748002715930e-03 1.12768556551554e-04
1.34374528301887e+01 8.85958730384626e-03 1.12223341422917e-04
1.34821698113208e+01 8.80207042288838e-03 1.11680144121727e-04
1.35268867924528e+01 8.74492694429998e-03 1.11138964747053e-04
1.35716037735849e+01 8.68815444393554e-03 1.10599803475165e-04
1.36163207547170e+01 8.63175051338749e-03 1.10062660152335e-04
1.36610377358491e+01 8.57571276029186e-03 1.09527534893725e-04
1.37057547169811e+01 8.52003880699624e-03 1.08994427687091e-04
1.37504716981132e+01 8.46472629169574e-03 1.08463337991657e-04
1.37951886792453e+01 8.40977286791820e-03 1.07934265347059e-04
1.38399056603774e+01 8.35517620442490e-03 1.07407209172190e-04
1.38846226415094e+01 8.30093398511179e-03 1.06882168579104e-04
1.39293396226415e+01 8.24704390929619e-03 1.06359142943362e-04
1.39740566037736e+01 8.19350369045788e-03 1.05838131526358e-04
1.40187735849057e+01 8.14031105730928e-03 1.05319133092912e-04
1.40634905660377e+01 8.08746375330796e-03 1.04802146491360e-04
1.41082075471698e+01 8.03495953656129e-03 1.04287170281074e-04
