Energy (eV)          EEDF (eV^-(3/2))     First Anisotropy
1.72093023255814e-04 1.26250069499397e+02 4.55570260173624e-02
5.16279069767442e-04 1.25242415810379e+02 7.51801282434251e-02
8.60465116279070e-04 1.24242804620675e+02 9.91206116101174e-02
1.20465116279070e-03 1.23251171738467e+02 1.17232073307785e-01
1.54883720930233e-03 1.22267453484679e+02 1.32274234741801e-01
1.89302325581395e-03 1.21291586692436e+02 1.45292208781495e-01
2.23720930232558e-03 1.20323508693406e+02 1.56827677619860e-01
2.58139534883721e-03 1.19363157322142e+02 1.67208239951967e-01
2.92558139534884e-03 1.18410470910882e+02 1.76651487750269e-01
3.26976744186047e-03 1.17465388280936e+02 1.85311437055940e-01
3.61395348837209e-03 1.16527848743462e+02 1.93302265485347e-01
3.95813953488372e-03 1.15597792095044e+02 2.00711657269654e-01
4.30232558139535e-03 1.14675158610625e+02 2.07608853991343e-01
4.64651162790698e-03 1.13759889043739e+02 2.14049783697947e-01
4.99069767441860e-03 1.12851924619128e+02 2.20080474307104e-01
5.33488372093023e-03 1.11951207031472e+02 2.25739408141441e-01
5.67906976744186e-03 1.11057678441464e+02 2.31059194951574e-01
6.02325581395349e-03 1.10171281470116e+02 2.36067791536555e-01
6.36744186046512e-03 1.09291959197063e+02 2.40789410371761e-01
6.71162790697674e-03 1.08419655156786e+02 2.45245209298698e-01
7.05581395348837e-03 1.07554313333355e+02 2.49453824115226e-01
7.40000000000000e-03 1.06695878158464e+02 2.53431785886624e-01
7.74418604651163e-03 1.05844294507782e+02 2.57193852075065e-01
8.08837209302326e-03 1.04999507696028e+02 2.60753272679447e-01
8.43255813953488e-03 1.04161463474844e+02 2.64122006353394e-01
8.77674418604651e-03 1.03330108029247e+02 2.67310897442622e-01
9.12093023255814e-03 1.02505387972980e+02 2.70329822548775e-01
9.46511627906977e-03 1.01687250346282e+02 2.73187812765556e-01
9.80930232558140e-03 1.00875642612427e+02 2.75893156232878e-01
1.01534883720930e-02 1.00070512653317e+02 2.78453485008151e-01
1.04976744186047e-02 9.92718087671744e+01 2.80875849087897e-01
1.08418604651163e-02 9.84794796663288e+01 2.83166779407684e-01
1.11860465116279e-02 9.76934744681084e+01 2.85332342731040e-01
1.15302325581395e-02 9.69137427016536e+01 2.87378188622168e-01
1.18744186046512e-02 9.61402342934347e+01 2.89309590470004e-01
1.22186046511628e-02 9.53728995748880e+01 2.91131481403787e-01
1.25627906976744e-02 9.46116892687438e+01 2.92848485672440e-01
1.29069767441860e-02 9.38565544959951e+01 2.94464946406405e-01
1.32511627906977e-02 9.31074467629578e+01 2.95984950047311e-01
1.35953488372093e-02 9.23643179676426e+01 2.97412348132737e-01
1.39395348837209e-02 9.16271203874796e+01 2.98750776587526e-01
1.42837209302326e-02 9.08958066851554e+01 3.00003673050047e-01
1.46279069767442e-02 9.01703298969436e+01 3.01174292301308e-01
1.49720930232558e-02 8.94506434380594e+01 3.02265720315187e-01
1.53162790697674e-02 8.87367010934175e+01 3.03280886338424e-01
1.56604651162791e-02 8.80284570150431e+01 3.04222574829370e-01
1.60046511627907e-02 8.73258657245280e+01 3.05093435306944e-01
1.63488372093023e-02 8.66288821029095e+01 3.05895991718634e-01
1.66930232558140e-02 8.59374613947784e+01 3.06632650928769e-01
1.70372093023256e-02 8.52515591985873e+01 3.07305710396962e-01
1.73813953488372e-02 8.45711314704370e+01 3.07917365249214e-01
1.77255813953488e-02 8.38961345147835e+01 3.08469714696586e-01
1.80697674418605e-02 8.32265249879306e+01 3.08964767972982e-01
1.84139534883721e-02 8.25622598891081e+01 3.09404449741974e-01
1.87581395348837e-02 8.19032965636948e+01 3.09790605119613e-01
1.91023255813953e-02 8.12495926946437e+01 3.10125004261364e-01
1.94465116279070e-02 8.06011063054570e+01 3.10409346639813e-01
1.97906976744186e-02 7.99577957519367e+01 3.10645264961602e-01
2.01348837209302e-02 7.93196197249295e+01 3.10834328912662e-01
2.04790697674419e-02 7.86865372436249e+01 3.10978048210791e-01
2.08232558139535e-02 7.80585076531193e+01 3.11077876226322e-01
2.11674418604651e-02 7.74354906254137e+01 3.11135212599064e-01
2.15116279069767e-02 7.68174461520166e+01 3.11151406027192e-01
2.18558139534884e-02 7.62043345460747e+01 3.11127756821880e-01
2.22000000000000e-02 7.55961164352286e+01 3.11065519266374e-01
2.25441860465116e-02 7.49927527635792e+01 3.10965903846946e-01
2.28883720930233e-02 7.43942047847834e+01 3.10830079317165e-01
2.32325581395349e-02 7.38004340638667e+01 3.10659174655132e-01
2.35767441860465e-02 7.32114024705470e+01 3.10454280877934e-01
2.39209302325581e-02 7.26270721809045e+01 3.10216452766197e-01
2.42651162790698e-02 7.20474056709214e+01 3.09946710465730e-01
2.46093023255814e-02 7.14723657180191e+01 3.09646041077796e-01
2.49534883720930e-02 7.09019153957164e+01 3.09315399822336e-01
2.52976744186047e-02 7.03360180713824e+01 3.08955711772242e-01
2.56418604651163e-02 6.97746374065566e+01 3.08567872871571e-01
2.59860465116279e-02 6.92177373510564e+01 3.08152751192840e-01
2.63302325581395e-02 6.86652821441500e+01 3.07711188078341e-01
2.66744186046512e-02 6.81172363088410e+01 3.07243999207028e-01
2.70186046511628e-02 6.75735646529420e+01 3.06751975616733e-01
2.73627906976744e-02 6.70342322635283e+01 3.06235884661463e-01
2.77069767441860e-02 6.64992045079189e+01 3.05696470930003e-01
2.80511627906977e-02 6.59684470282917e+01 3.05134457107467e-01
2.83953488372093e-02 6.54419257425775e+01 3.04550544803176e-01
2.87395348837209e-02 6.49196068392297e+01 3.03945415328385e-01
2.90837209302326e-02 6.44014567780376e+01 3.03319730444487e-01
2.94279069767442e-02 6.38874422850443e+01 3.02674133067067e-01
2.97720930232558e-02 6.33775303532836e+01 3.02009247996202e-01
3.01162790697674e-02 6.28716882385101e+01 3.01325682347582e-01
3.04604651162791e-02 6.23698834571780e+01 3.00624026477684e-01
3.08046511627907e-02 6.18720837863239e+01 2.99904854362788e-01
3.11488372093023e-02 6.13782572588748e+01 2.99168724206073e-01
3.14930232558140e-02 6.08883721641711e+01 2.98416178973254e-01
3.18372093023256e-02 6.04023970434004e+01 2.97647746899783e-01
3.21813953488372e-02 5.99203006900626e+01 2.96863941980183e-01
3.25255813953488e-02 5.94420521455244e+01 2.96065264432381e-01
3.28697674418605e-02 5.89676206994300e+01 2.95252201145792e-01
3.32139534883721e-02 5.84969758853722e+01 2.94425226107177e-01
3.35581395348837e-02 5.80300874812520e+01 2.93584800811808e-01
3.39023255813953e-02 5.75669255050617e+01 2.92731374654980e-01
3.42465116279070e-02 5.71074602151966e+01 2.91865385309917e-01
3.45906976744186e-02 5.66516621063466e+01 2.90987259088344e-01
3.49348837209302e-02 5.61995019097622e+01 2.90097411331615e-01
3.52790697674419e-02 5.57509505897588e+01 2.89196246572393e-01
3.56232558139535e-02 5.53059793419059e+01 2.88284159110863e-01
3.59674418604651e-02 5.48645595926728e+01 2.87361533153518e-01
3.63116279069767e-02 5.44266629956026e+01 2.86428743151390e-01
3.66558139534884e-02 5.39922614314502e+01 2.85486154085465e-01
3.70000000000000e-02 5.35613270044505e+01 2.84534121741042e-01
3.73441860465116e-02 5.31338320424214e+01 2.83572992972154e-01
3.76883720930233e-02 5.27097490931239e+01 2.82603105956186e-01
3.80325581395349e-02 5.22890509243315e+01 2.81624790439234e-01
3.83767441860465e-02 5.18717105202790e+01 2.80638367972905e-01
3.87209302325581e-02 5.14577010817010e+01 2.79644152142220e-01
3.90651162790698e-02 5.10469960223661e+01 2.78642448786085e-01
3.94093023255814e-02 5.06395689690870e+01 2.77633556245854e-01
3.97534883720930e-02 5.02353937587413e+01 2.76617765425623e-01
4.00976744186047e-02 4.98344444366322e+01 2.75595360206965e-01
4.04418604651163e-02 4.94366952560168e+01 2.74566617496243e-01
4.07860465116279e-02 4.90421206748609e+01 2.73531807445887e-01
4.11302325581395e-02 4.86506953557662e+01 2.72491193632474e-01
4.14744186046512e-02 4.82623941628004e+01 2.71445033230433e-01
4.18186046511628e-02 4.78771921614015e+01 2.70393577178381e-01
4.21627906976744e-02 4.74950646152821e+01 2.69337070341858e-01
4.25069767441860e-02 4.71159869863123e+01 2.68275751668991e-01
4.28511627906977e-02 4.67399349314949e+01 2.67209854343080e-01
4.31953488372093e-02 4.63668843028298e+01 2.66139605928388e-01
4.35395348837209e-02 4.59968111443569e+01 2.65065228513441e-01
4.38837209302326e-02 4.56296916920030e+01 2.63986938847699e-01
4.42279069767442e-02 4.52655023706916e+01 2.62904948476291e-01
4.45720930232558e-02 4.49042197941725e+01 2.61819463898721e-01
4.49162790697674e-02 4.45458207625144e+01 2.60730686574191e-01
4.52604651162791e-02 4.41902822606452e+01 2.59638813223992e-01
4.56046511627907e-02 4.38375814578127e+01 2.58544035828966e-01
4.59488372093023e-02 4.34876957048685e+01 2.57446541775233e-01
4.62930232558139e-02 4.31406025340450e+01 2.56346513964043e-01
4.66372093023256e-02 4.27962796562992e+01 2.55244130921208e-01
4.69813953488372e-02 4.24547049610775e+01 2.54139566900534e-01
4.73255813953488e-02 4.21158565137167e+01 2.53032991987147e-01
4.76697674418605e-02 4.17797125551977e+01 2.51924572194976e-01
4.80139534883721e-02 4.14462514996030e+01 2.50814469564437e-01
4.83581395348837e-02 4.11154519338590e+01 2.49702842254334e-01
4.87023255813953e-02 4.07872926152487e+01 2.48589844634228e-01
4.90465116279070e-02 4.04617524711441e+01 2.47475627371244e-01
4.93906976744186e-02 4.01388105965721e+01 2.46360337517503e-01
4.97348837209302e-02 3.98184462539375e+01 2.45244118617716e-01
5.00790697674419e-02 3.95006388708939e+01 2.44127110689839e-01
5.04232558139535e-02 3.91853680390447e+01 2.43009450455817e-01
5.07674418604651e-02 3.88726135133807e+01 2.41891271316923e-01
5.11116279069767e-02 3.85623552099839e+01 2.40772703455235e-01
5.14558139534884e-02 3.82545732057200e+01 2.39653873904900e-01
5.18000000000000e-02 3.79492477359903e+01 2.38534906624807e-01
5.21441860465116e-02 3.76463591944179e+01 2.37415922566063e-01
5.24883720930233e-02 3.73458881306468e+01 2.36297039741047e-01
5.28325581395349e-02 3.70478152500215e+01 2.35178373287330e-01
5.31767441860465e-02 3.67521214114319e+01 2.34060035533309e-01
5.35209302325581e-02 3.64587876269880e+01 2.32942136058808e-01
5.38651162790698e-02 3.61677950599092e+01 2.31824781757509e-01
5.42093023255814e-02 3.58791250241936e+01 2.30708076916570e-01
5.45534883720930e-02 3.55927589827601e+01 2.29592123187788e-01
5.48976744186047e-02 3.53086785462757e+01 2.28477019774628e-01
5.52418604651163e-02 3.50268654725935e+01 2.27362863399323e-01
5.55860465116279e-02 3.47473016647570e+01 2.26249748379572e-01
5.59302325581395e-02 3.44699691706509e+01 2.25137766679014e-01
5.62744186046512e-02 3.41948501810468e+01 2.24027007959944e-01
5.66186046511628e-02 3.39219270292498e+01 2.22917559631289e-01
5.69627906976744e-02 3.36511821891848e+01 2.21809506898833e-01
5.73069767441860e-02 3.33825982750397e+01 2.20702932810815e-01
5.76511627906977e-02 3.31161580393905e+01 2.19597918305952e-01
5.79953488372093e-02 3.28518443728423e+01 2.18494542256769e-01
5.83395348837209e-02 3.25896403021918e+01 2.17392881515408e-01
5.86837209302326e-02 3.23295289900665e+01 2.16293010954933e-01
5.90279069767442e-02 3.20714937331240e+01 2.15195003513074e-01
5.93720930232558e-02 3.18155179616893e+01 2.14098930250269e-01
5.97162790697674e-02 3.15615852381593e+01 2.13004860316621e-01
6.00604651162791e-02 3.13096792559608e+01 2.11912861101868e-01
6.04046511627907e-02 3.10597838390048e+01 2.10822998199073e-01
6.07488372093023e-02 3.08118829399798e+01 2.09735335461908e-01
6.10930232558139e-02 3.05659606399808e+01 2.08649935039480e-01
6.14372093023256e-02 3.03220011468361e+01 2.07566857413764e-01
6.17813953488372e-02 3.00799887947355e+01 2.06486161432778e-01
6.21255813953488e-02 2.98399080425905e+01 2.05407904346482e-01
6.24697674418605e-02 2.96017434736620e+01 2.04332141838374e-01
6.28139534883721e-02 2.93654797939526e+01 2.03258928059851e-01
6.31581395348837e-02 2.91311018318343e+01 2.02188315660397e-01
6.35023255813953e-02 2.88985945364723e+01 2.01120355820486e-01
6.38465116279070e-02 2.86679429774525e+01 2.00055098280398e-01
6.41906976744186e-02 2.84391323432365e+01 1.98992591371745e-01
6.45348837209302e-02 2.82121479407894e+01 1.97932882060967e-01
6.48790697674419e-02 2.79869751942027e+01 1.96876015915778e-01
6.52232558139535e-02 2.77635996437690e+01 1.95822037227368e-01
6.55674418604651e-02 2.75420069454632e+01 1.94770988974178e-01
6.59116279069767e-02 2.73221828694757e+01 1.93722912865771e-01
6.62558139534884e-02 2.71041132998377e+01 1.92677849367354e-01
6.66000000000000e-02 2.68877842329823e+01 1.91635837727059e-01
6.69441860465116e-02 2.66731817773706e+01 1.90596915999352e-01
6.72883720930233e-02 2.64602921520816e+01 1.89561121071251e-01
6.76325581395349e-02 2.62491016864384e+01 1.88528488684709e-01
6.79767441860465e-02 2.60395968186254e+01 1.87499053461765e-01
6.83209302325581e-02 2.58317640953165e+01 1.86472848925966e-01
6.86651162790698e-02 2.56255901703182e+01 1.85449907526541e-01
6.90093023255814e-02 2.54210618041993e+01 1.84430260672781e-01
6.93534883720930e-02 2.52181658630762e+01 1.83413938701672e-01
6.96976744186047e-02 2.50168893177784e+01 1.82400970981134e-01
7.00418604651163e-02 2.48172192433570e+01 1.81391385875375e-01
7.03860465116279e-02 2.46191428177946e+01 1.80385210780202e-01
7.07302325581395e-02 2.44226473216367e+01 1.79382472141338e-01
7.10744186046512e-02 2.42277201367257e+01 1.78383195475496e-01
7.14186046511628e-02 2.40343487458342e+01 1.77387405387916e-01
7.17627906976744e-02 2.38425207314231e+01 1.76395125592614e-01
7.21069767441860e-02 2.36522237752770e+01 1.75406378929182e-01
7.24511627906977e-02 2.34634456572857e+01 1.74421187382272e-01
7.27953488372093e-02 2.32761742550815e+01 1.73439572097669e-01
7.31395348837209e-02 2.30903975428442e+01 1.72461553401062e-01
7.34837209302326e-02 2.29061035909402e+01 1.71487150813412e-01
7.38279069767442e-02 2.27232805647501e+01 1.70516383069035e-01
7.41720930232558e-02 2.25419167243100e+01 1.69549268142256e-01
7.45162790697674e-02 2.23620004232573e+01 1.68585823217163e-01
7.48604651162791e-02 2.21835201080898e+01 1.67626064773443e-01
7.52046511627907e-02 2.20064643177086e+01 1.66670008554191e-01
7.55488372093023e-02 2.18308216823027e+01 1.65717669593809e-01
7.58930232558140e-02 2.16565809229937e+01 1.64769062231264e-01
7.62372093023256e-02 2.14837308507414e+01 1.63824200125926e-01
7.65813953488372e-02 2.13122603659911e+01 1.62883096270241e-01
7.69255813953488e-02 2.11421584575989e+01 1.61945763005005e-01
7.72697674418605e-02 2.09734142024826e+01 1.61012212031503e-01
7.76139534883721e-02 2.08060167645667e+01 1.60082454426243e-01
7.79581395348837e-02 2.06399553944354e+01 1.59156500652593e-01
7.83023255813953e-02 2.04752194282980e+01 1.58234360574960e-01
7.86465116279070e-02 2.03117982876445e+01 1.57316043469959e-01
7.89906976744186e-02 2.01496814782294e+01 1.56401558040086e-01
7.93348837209302e-02 1.99888585897312e+01 1.55490912434650e-01
7.96790697674419e-02 1.98293192948340e+01 1.54584114222095e-01
8.00232558139535e-02 1.96710533485706e+01 1.53681170461812e-01
8.03674418604651e-02 1.95140505879006e+01 1.52782087674772e-01
8.07116279069767e-02 1.93583009307433e+01 1.51886871865863e-01
8.10558139534884e-02 1.92037943756413e+01 1.50995528533508e-01
8.14000000000000e-02 1.90505210008106e+01 1.50108062681726e-01
8.17441860465116e-02 1.88984709638075e+01 1.49224478829372e-01
8.20883720930232e-02 1.87476345005963e+01 1.48344781021753e-01
8.24325581395349e-02 1.85980019252188e+01 1.47468972839502e-01
8.27767441860465e-02 1.84495636288794e+01 1.46597057409791e-01
8.31209302325581e-02 1.83023100796177e+01 1.45729037414809e-01
8.34651162790698e-02 1.81562318214099e+01 1.44864915102605e-01
8.38093023255814e-02 1.80113194738450e+01 1.44004692304211e-01
8.41534883720930e-02 1.78675637313099e+01 1.43148370408267e-01
8.44976744186046e-02 1.77249553623971e+01 1.42295950422814e-01
8.48418604651163e-02 1.75834852095129e+01 1.41447432948410e-01
8.51860465116279e-02 1.74431441880216e+01 1.40602818196678e-01
8.55302325581395e-02 1.73039232859267e+01 1.39762105997658e-01
8.58744186046512e-02 1.71658135630307e+01 1.38925295809368e-01
8.62186046511628e-02 1.70288061506195e+01 1.38092386724830e-01
8.65627906976744e-02 1.68928922506371e+01 1.37263377481348e-01
8.69069767441860e-02 1.67580631353739e+01 1.36438266467231e-01
8.72511627906977e-02 1.66243101466556e+01 1.35617051730733e-01
8.75953488372093e-02 1.64916246955350e+01 1.34799730986531e-01
8.79395348837209e-02 1.63599982614957e+01 1.33986301624350e-01
8.82837209302326e-02 1.62294223921467e+01 1.33176760715153e-01
8.86279069767442e-02 1.60998887024406e+01 1.32371105019510e-01
8.89720930232558e-02 1.59713888743717e+01 1.31569331001241e-01
8.93162790697674e-02 1.58439146562646e+01 1.30771434804620e-01
8.96604651162791e-02 1.57174578622482e+01 1.29977412306614e-01
9.00046511627907e-02 1.55920103718987e+01 1.29187259092751e-01
9.03488372093023e-02 1.54675641294935e+01 1.28400970472207e-01
9.06930232558140e-02 1.53441111437160e+01 1.27618541483151e-01
9.10372093023256e-02 1.52216434869229e+01 1.26839966900146e-01
9.13813953488372e-02 1.51001532948520e+01 1.26065241239283e-01
9.17255813953488e-02 1.49796327659031e+01 1.25294358765321e-01
9.20697674418605e-02 1.48600741608484e+01 1.24527313496614e-01
9.24139534883721e-02 1.47414698021264e+01 1.23764099212035e-01
9.27581395348837e-02 1.46238120735563e+01 1.23004709455679e-01
9.31023255813953e-02 1.45070934196431e+01 1.22249137543540e-01
9.34465116279070e-02 1.43913063452962e+01 1.21497376568033e-01
9.37906976744186e-02 1.42764434151468e+01 1.20749419404460e-01
9.41348837209302e-02 1.41624972532692e+01 1.20005258722003e-01
9.44790697674419e-02 1.40494605425584e+01 1.19264886963330e-01
9.48232558139535e-02 1.39373260242635e+01 1.18528296388921e-01
9.51674418604651e-02 1.38260864976629e+01 1.17795479055528e-01
9.55116279069767e-02 1.37157348194140e+01 1.17066426828487e-01
9.58558139534884e-02 1.36062639032799e+01 1.16341131385651e-01
9.62000000000000e-02 1.34976667194910e+01 1.15619584223101e-01
9.65441860465116e-02 1.33899362944752e+01 1.14901776658873e-01
9.68883720930233e-02 1.32830657102303e+01 1.14187699838527e-01
9.72325581395349e-02 1.31770481040577e+01 1.13477344738713e-01
9.75767441860465e-02 1.30718766679453e+01 1.12770702172530e-01
9.79209302325581e-02 1.29675446483053e+01 1.12067762792957e-01
9.82651162790698e-02 1.28640453453673e+01 1.11368517098033e-01
9.86093023255814e-02 1.27613721129192e+01 1.10672955440006e-01
9.89534883720930e-02 1.26595183577523e+01 1.09981068006914e-01
9.92976744186047e-02 1.25584775392409e+01 1.09292844861074e-01
9.96418604651163e-02 1.24582431690439e+01 1.08608275919646e-01
9.99860465116279e-02 1.23588088105260e+01 1.07927350936766e-01
1.00330232558140e-01 1.22601680783090e+01 1.07250059597061e-01
1.00674418604651e-01 1.21623146383329e+01 1.06576391444925e-01
1.01018604651163e-01 1.20652422068942e+01 1.05906335852656e-01
1.01362790697674e-01 1.19689445504424e+01 1.05239882099062e-01
1.01706976744186e-01 1.18734154851797e+01 1.04577019346138e-01
1.02051162790698e-01 1.17786488766634e+01 1.03917736642516e-01
1.02395348837209e-01 1.16846386394124e+01 1.03262022926896e-01
1.02739534883721e-01 1.15913787365166e+01 1.02609867031387e-01
1.03083720930233e-01 1.14988631792486e+01 1.01961257684787e-01
1.03427906976744e-01 1.14070860266797e+01 1.01316183515800e-01
1.03772093023256e-01 1.13160413852982e+01 1.00674633056196e-01
1.04116279069767e-01 1.12257234086308e+01 1.00036594743937e-01
1.04460465116279e-01 1.11361262968675e+01 9.94020569262056e-02
1.04804651162791e-01 1.10472442964889e+01 9.87710078623805e-02
1.05148837209302e-01 1.09590716998968e+01 9.81434357269838e-02
1.05493023255814e-01 1.08716028450476e+01 9.75193286125563e-02
1.05837209302326e-01 1.07848321150890e+01 9.68986745324679e-02
1.06181395348837e-01 1.06987539379991e+01 9.62814614236841e-02
1.06525581395349e-01 1.06133627862284e+01 9.56676771494975e-02
1.06869767441860e-01 1.05286531763451e+01 9.50573095021874e-02
1.07213953488372e-01 1.04446196686833e+01 9.44503461596010e-02
1.07558139534884e-01 1.03612568666849e+01 9.38467748262034e-02
1.07902325581395e-01 1.02785594174836e+01 9.32465831400782e-02
1.08246511627907e-01 1.01965220106248e+01 9.26497585913701e-02
1.08590697674419e-01 1.01151393780391e+01 9.20562886555230e-02
