Energy (eV)          EEDF (eV^-(3/2))     First Anisotropy
2.27500000000000e-02 9.30604514084966e-02 5.51291307770878e-05
6.82500000000000e-02 9.22593119946784e-02 9.09477663927558e-05
1.13750000000000e-01 9.14650694348839e-02 1.19833486473266e-04
1.59250000000000e-01 9.06776643555266e-02 1.41639998736521e-04
2.04750000000000e-01 8.98970378940795e-02 1.59712891579390e-04
2.50250000000000e-01 8.91231316947391e-02 1.75320333228267e-04
2.95750000000000e-01 8.83558879040725e-02 1.89120200293373e-04
3.41250000000000e-01 8.75952491666944e-02 2.01510708439739e-04
3.86750000000000e-01 8.68411586209803e-02 2.12756579827118e-04
4.32250000000000e-01 8.60935598948161e-02 2.23045348809060e-04
4.77750000000000e-01 8.53523971013842e-02 2.32516157739083e-04
5.23250000000000e-01 8.46176148349855e-02 2.41275951597276e-04
5.68750000000000e-01 8.38891581668980e-02 2.49409250839769e-04
6.14250000000000e-01 8.31669726412703e-02 2.56984379768960e-04
6.59750000000000e-01 8.24510042710510e-02 2.64057612989621e-04
7.05250000000000e-01 8.17411995339524e-02 2.70676036329649e-04
7.50750000000000e-01 8.10375053684501e-02 2.76879580634132e-04
7.96250000000000e-01 8.03398691698160e-02 2.82702504696997e-04
8.41750000000000e-01 7.96482387861859e-02 2.88174500381689e-04
8.87250000000000e-01 7.89625625146609e-02 2.93321531967061e-04
9.32750000000000e-01 7.82827890974424e-02 2.98166484352899e-04
9.78250000000000e-01 7.76088677180001e-02 3.02729671099801e-04
1.02375000000000e+00 7.69407479972736e-02 3.07029237893690e-04
1.06925000000000e+00 7.62783799899058e-02 3.11081486774741e-04
1.11475000000000e+00 7.56217141805099e-02 3.14901139491331e-04
1.16025000000000e+00 7.49707014799671e-02 3.18501553494192e-04
1.20575000000000e+00 7.43252932217574e-02 3.21894900662482e-04
1.25125000000000e+00 7.36854411583218e-02 3.25092316395909e-04
1.29675000000000e+00 7.30510974574547e-02 3.28104024916991e-04
1.34225000000000e+00 7.24222146987289e-02 3.30939445306312e-04
1.38775000000000e+00 7.17987458699505e-02 3.33607281806592e-04
1.43325000000000e+00 7.11806443636446e-02 3.36115601185461e-04
1.47875000000000e+00 7.05678639735708e-02 3.38471899377308e-04
1.52425000000000e+00 6.99603588912694e-02 3.40683159185664e-04
1.56975000000000e+00 6.93580837026368e-02 3.42755900486087e-04
1.61525000000000e+00 6.87609933845307e-02 3.44696224101579e-04
1.66075000000000e+00 6.81690433014044e-02 3.46509850310778e-04
1.70625000000000e+00 6.75821892019697e-02 3.48202152780597e-04
1.75175000000000e+00 6.70003872158895e-02 3.49778188579683e-04
1.79725000000000e+00 6.64235938504976e-02 3.51242724819918e-04
1.84275000000000e+00 6.58517659875482e-02 3.52600262384360e-04
1.88825000000000e+00 6.52848608799916e-02 3.53855057127819e-04
1.93375000000000e+00 6.47228361487796e-02 3.55011138876706e-04
1.97925000000000e+00 6.41656497796967e-02 3.56072328505523e-04
2.02475000000000e+00 6.36132601202200e-02 3.57042253326919e-04
2.07025000000000e+00 6.30656258764048e-02 3.57924360997992e-04
2.11575000000000e+00 6.25227061097982e-02 3.58721932117142e-04
2.16125000000000e+00 6.19844602343784e-02 3.59438091662007e-04
2.20675000000000e+00 6.14508480135208e-02 3.60075819398673e-04
2.25225000000000e+00 6.09218295569901e-02 3.60637959375328e-04
2.29775000000000e+00 6.03973653179583e-02 3.61127228598891e-04
2.34325000000000e+00 5.98774160900486e-02 3.61546224980783e-04
2.38875000000000e+00 5.93619430044040e-02 3.61897434627392e-04
2.43425000000000e+00 5.88509075267822e-02 3.62183238541560e-04
2.47975000000000e+00 5.83442714546745e-02 3.62405918793518e-04
2.52525000000000e+00 5.78419969144505e-02 3.62567664213054e-04
2.57075000000000e+00 5.73440463585264e-02 3.62670575648665e-04
2.61625000000000e+00 5.68503825625582e-02 3.62716670834129e-04
2.66175000000000e+00 5.63609686226593e-02 3.62707888898766e-04
2.70725000000000e+00 5.58757679526411e-02 3.62646094553685e-04
2.75275000000000e+00 5.53947442812790e-02 3.62533081982663e-04
2.79825000000000e+00 5.49178616495998e-02 3.62370578463453e-04
2.84375000000000e+00 5.44450844081946e-02 3.62160247742700e-04
2.88925000000000e+00 5.39763772145529e-02 3.61903693185247e-04
2.93475000000000e+00 5.35117050304215e-02 3.61602460716471e-04
2.98025000000000e+00 5.30510331191844e-02 3.61258041574570e-04
3.02575000000000e+00 5.25943270432666e-02 3.60871874888124e-04
3.07125000000000e+00 5.21415526615593e-02 3.60445350092558e-04
3.11675000000000e+00 5.16926761268681e-02 3.59979809198160e-04
3.16225000000000e+00 5.12476638833826e-02 3.59476548921054e-04
3.20775000000000e+00 5.08064826641676e-02 3.58936822687360e-04
3.25325000000000e+00 5.03690994886768e-02 3.58361842519899e-04
3.29875000000000e+00 4.99354816602867e-02 3.57752780816156e-04
3.34425000000000e+00 4.95055967638531e-02 3.57110772025287e-04
3.38975000000000e+00 4.90794126632873e-02 3.56436914231334e-04
3.43525000000000e+00 4.86568974991538e-02 3.55732270649198e-04
3.48075000000000e+00 4.82380196862892e-02 3.54997871039392e-04
3.52625000000000e+00 4.78227479114403e-02 3.54234713047074e-04
3.57175000000000e+00 4.74110511309238e-02 3.53443763470455e-04
3.61725000000000e+00 4.70028985683055e-02 3.52625959463304e-04
3.66275000000000e+00 4.65982597120995e-02 3.51782209675767e-04
3.70825000000000e+00 4.61971043134873e-02 3.50913395337493e-04
3.75375000000000e+00 4.57994023840568e-02 3.50020371286736e-04
3.79925000000000e+00 4.54051241935602e-02 3.49103966948838e-04
3.84475000000000e+00 4.50142402676917e-02 3.48164987267177e-04
3.89025000000000e+00 4.46267213858841e-02 3.47204213589518e-04
3.93575000000000e+00 4.42425385791244e-02 3.46222404512462e-04
3.98125000000000e+00 4.38616631277882e-02 3.45220296686472e-04
4.02675000000000e+00 4.34840665594929e-02 3.44198605583768e-04
4.07225000000000e+00 4.31097206469689e-02 3.43158026231235e-04
4.11775000000000e+00 4.27385974059499e-02 3.42099233910439e-04
4.16325000000000e+00 4.23706690930807e-02 3.41022884826545e-04
4.20875000000000e+00 4.20059082038433e-02 3.39929616747907e-04
4.25425000000000e+00 4.16442874705006e-02 3.38820049617885e-04
4.29975000000000e+00 4.12857798600583e-02 3.37694786140446e-04
4.34525000000000e+00 4.09303585722440e-02 3.36554412341053e-04
4.39075000000000e+00 4.05779970375035e-02 3.35399498104041e-04
4.43625000000000e+00 4.02286689150148e-02 3.34230597687704e-04
4.48175000000000e+00 3.98823480907190e-02 3.33048250218396e-04
4.52725000000000e+00 3.95390086753680e-02 3.31852980164623e-04
4.57275000000000e+00 3.91986250025893e-02 3.30645297792140e-04
4.61825000000000e+00 3.88611716269671e-02 3.29425699601066e-04
4.66375000000000e+00 3.85266233221404e-02 3.28194668745888e-04
4.70925000000000e+00 3.81949550789170e-02 3.26952675439178e-04
4.75475000000000e+00 3.78661421034040e-02 3.25700177339868e-04
4.80025000000000e+00 3.75401598151544e-02 3.24437619926811e-04
4.84575000000000e+00 3.72169838453293e-02 3.23165436858265e-04
4.89125000000000e+00 3.68965900348767e-02 3.21884050318049e-04
4.93675000000000e+00 3.65789544327250e-02 3.20593871349003e-04
4.98225000000000e+00 3.62640532939928e-02 3.19295300174264e-04
5.02775000000000e+00 3.59518630782138e-02 3.17988726506952e-04
5.07325000000000e+00 3.56423604475769e-02 3.16674529848822e-04
5.11875000000000e+00 3.53355222651820e-02 3.15353079778343e-04
5.16425000000000e+00 3.50313255933097e-02 3.14024736228684e-04
5.20975000000000e+00 3.47297476917072e-02 3.12689849756051e-04
5.25525000000000e+00 3.44307660158883e-02 3.11348761798796e-04
5.30075000000000e+00 3.41343582154475e-02 3.10001804927724e-04
5.34625000000000e+00 3.38405021323901e-02 3.08649303087898e-04
5.39175000000000e+00 3.35491757994748e-02 3.07291571832378e-04
5.43725000000000e+00 3.32603574385725e-02 3.05928918548230e-04
5.48275000000000e+00 3.29740254590374e-02 3.04561642675047e-04
5.52825000000000e+00 3.26901584560935e-02 3.03190035916397e-04
5.57375000000000e+00 3.24087352092347e-02 3.01814382444435e-04
5.61925000000000e+00 3.21297346806376e-02 3.00434959097924e-04
5.66475000000000e+00 3.18531360135897e-02 2.99052035573993e-04
5.71025000000000e+00 3.15789185309299e-02 2.97665874613821e-04
5.75575000000000e+00 3.13070617335025e-02 2.96276732182518e-04
5.80125000000000e+00 3.10375452986255e-02 2.94884857643474e-04
5.84675000000000e+00 3.07703490785704e-02 2.93490493927290e-04
5.89225000000000e+00 3.05054530990571e-02 2.92093877695578e-04
5.93775000000000e+00 3.02428375577600e-02 2.90695239499779e-04
5.98325000000000e+00 2.99824828228277e-02 2.89294803935185e-04
6.02875000000000e+00 2.97243694314160e-02 2.87892789790432e-04
6.07425000000000e+00 2.94684780882322e-02 2.86489410192517e-04
6.11975000000000e+00 2.92147896640932e-02 2.85084872747582e-04
6.16525000000000e+00 2.89632851944954e-02 2.83679379677514e-04
6.21075000000000e+00 2.87139458781968e-02 2.82273127952657e-04
6.25625000000000e+00 2.84667530758118e-02 2.80866309420732e-04
6.30175000000000e+00 2.82216883084176e-02 2.79459110931985e-04
6.34725000000000e+00 2.79787332561727e-02 2.78051714460808e-04
6.39275000000000e+00 2.77378697569478e-02 2.76644297223972e-04
6.43825000000000e+00 2.74990798049678e-02 2.75237031795538e-04
6.48375000000000e+00 2.72623455494658e-02 2.73830086218536e-04
6.52925000000000e+00 2.70276492933487e-02 2.72423624113604e-04
6.57475000000000e+00 2.67949734918743e-02 2.71017804784602e-04
6.62025000000000e+00 2.65643007513396e-02 2.69612783321360e-04
6.66575000000000e+00 2.63356138277806e-02 2.68208710699663e-04
6.71125000000000e+00 2.61088956256835e-02 2.66805733878519e-04
6.75675000000000e+00 2.58841291967061e-02 2.65403995894842e-04
6.80225000000000e+00 2.56612977384116e-02 2.64003635955569e-04
6.84775000000000e+00 2.54403845930117e-02 2.62604789527386e-04
6.89325000000000e+00 2.52213732461220e-02 2.61207588424084e-04
6.93875000000000e+00 2.50042473255274e-02 2.59812160891628e-04
6.98425000000000e+00 2.47889905999577e-02 2.58418631691009e-04
7.02975000000000e+00 2.45755869778748e-02 2.57027122178970e-04
7.07525000000000e+00 2.43640205062694e-02 2.55637750386627e-04
7.12075000000000e+00 2.41542753694686e-02 2.54250631096089e-04
7.16625000000000e+00 2.39463358879537e-02 2.52865875915172e-04
7.21175000000000e+00 2.37401865171878e-02 2.51483593350169e-04
7.25725000000000e+00 2.35358118464539e-02 2.50103888876805e-04
7.30275000000000e+00 2.33331965977029e-02 2.48726865009443e-04
7.34825000000000e+00 2.31323256244116e-02 2.47352621368523e-04
7.39375000000000e+00 2.29331839104501e-02 2.45981254746341e-04
7.43925000000000e+00 2.27357565689596e-02 2.44612859171248e-04
7.48475000000000e+00 2.25400288412392e-02 2.43247525970240e-04
7.53025000000000e+00 2.23459860956431e-02 2.41885343829989e-04
7.57575000000000e+00 2.21536138264861e-02 2.40526398856447e-04
7.62125000000000e+00 2.19628976529601e-02 2.39170774632996e-04
7.66675000000000e+00 2.17738233180581e-02 2.37818552277168e-04
7.71225000000000e+00 2.15863766875094e-02 2.36469810496037e-04
7.75775000000000e+00 2.14005437487221e-02 2.35124625640279e-04
7.80325000000000e+00 2.12163106097363e-02 2.33783071756950e-04
7.84875000000000e+00 2.10336634981850e-02 2.32445220641010e-04
7.89425000000000e+00 2.08525887602652e-02 2.31111141885653e-04
7.93975000000000e+00 2.06730728597164e-02 2.29780902931395e-04
7.98525000000000e+00 2.04951023768096e-02 2.28454569114102e-04
8.03075000000000e+00 2.03186640073433e-02 2.27132203711865e-04
8.07625000000000e+00 2.01437445616496e-02 2.25813867990777e-04
8.12175000000000e+00 1.99703309636075e-02 2.24499621249671e-04
8.16725000000000e+00 1.97984102496663e-02 2.23189520863794e-04
8.21275000000000e+00 1.96279695678755e-02 2.21883622327529e-04
8.25825000000000e+00 1.94589961769249e-02 2.20581979296139e-04
8.30375000000000e+00 1.92914774451916e-02 2.19284643626527e-04
8.34925000000000e+00 1.91254008497960e-02 2.17991665417094e-04
8.39475000000000e+00 1.89607539756654e-02 2.16703093046704e-04
8.44025000000000e+00 1.87975245146064e-02 2.15418973212769e-04
8.48575000000000e+00 1.86357002643839e-02 2.14139350968468e-04
8.53125000000000e+00 1.84752691278100e-02 2.12864269759159e-04
8.57675000000000e+00 1.83162191118389e-02 2.11593771457956e-04
8.62225000000000e+00 1.81585383266706e-02 2.10327896400540e-04
8.66775000000000e+00 1.80022149848622e-02 2.09066683419187e-04
8.71325000000000e+00 1.78472374004465e-02 2.07810169876037e-04
8.75875000000000e+00 1.76935939880586e-02 2.06558391695663e-04
8.80425000000000e+00 1.75412732620698e-02 2.05311383396906e-04
8.84975000000000e+00 1.73902638357288e-02 2.04069178124018e-04
8.89525000000000e+00 1.72405544203108e-02 2.02831807677118e-04
8.94075000000000e+00 1.70921338242734e-02 2.01599302541991e-04
8.98625000000000e+00 1.69449909524199e-02 2.00371691919264e-04
9.03175000000000e+00 1.67991148050702e-02 1.99149003752941e-04
9.07725000000000e+00 1.66544944772383e-02 1.97931264758302e-04
9.12275000000000e+00 1.65111191578169e-02 1.96718500449222e-04
9.16825000000000e+00 1.63689781287696e-02 1.95510735164913e-04
9.21375000000000e+00 1.62280607643295e-02 1.94307992096085e-04
9.25925000000000e+00 1.60883565302049e-02 1.93110293310555e-04
9.30475000000000e+00 1.59498549827916e-02 1.91917659778285e-04
9.35025000000000e+00 1.58125457683926e-02 1.90730111395934e-04
9.39575000000000e+00 1.56764186224436e-02 1.89547667010865e-04
9.44125000000000e+00 1.55414633687463e-02 1.88370344444652e-04
9.48675000000000e+00 1.54076699187071e-02 1.87198160516079e-04
9.53225000000000e+00 1.52750282705830e-02 1.86031131063679e-04
9.57775000000000e+00 1.51435285087344e-02 1.84869270967785e-04
9.62325000000000e+00 1.50131608028833e-02 1.83712594172117e-04
9.66875000000000e+00 1.48839154073788e-02 1.82561113704945e-04
9.71425000000000e+00 1.47557826604683e-02 1.81414841699788e-04
9.75975000000000e+00 1.46287529835755e-02 1.80273789415675e-04
9.80525000000000e+00 1.45028168805840e-02 1.79137967256994e-04
9.85075000000000e+00 1.43779649371278e-02 1.78007384792950e-04
9.89625000000000e+00 1.42541878198873e-02 1.76882050776611e-04
9.94175000000000e+00 1.41314762758917e-02 1.75761973163537e-04
9.98725000000000e+00 1.40098211318270e-02 1.74647159130045e-04
1.00327500000000e+01 1.38892132933509e-02 1.73537615091101e-04
1.00782500000000e+01 1.37696437444122e-02 1.72433346717863e-04
1.01237500000000e+01 1.36511035465771e-02 1.71334358954818e-04
1.01692500000000e+01 1.35335838383614e-02 1.70240656036597e-04
1.02147500000000e+01 1.34170758345674e-02 1.69152241504447e-04
1.02602500000000e+01 1.33015708256276e-02 1.68069118222349e-04
1.03057500000000e+01 1.31870601769533e-02 1.66991288392856e-04
1.03512500000000e+01 1.30735353282895e-02 1.65918753572545e-04
1.03967500000000e+01 1.29609877930748e-02 1.64851514687190e-04
1.04422500000000e+01 1.28494091578068e-02 1.63789572046626e-04
1.04877500000000e+01 1.27387910814134e-02 1.62732925359306e-04
1.05332500000000e+01 1.26291252946291e-02 1.61681573746574e-04
1.05787500000000e+01 1.25204035993771e-02 1.60635515756628e-04
1.06242500000000e+01 1.24126178681561e-02 1.59594749378220e-04
1.06697500000000e+01 1.23057600434329e-02 1.58559272054069e-04
1.07152500000000e+01 1.21998221370400e-02 1.57529080694011e-04
1.07607500000000e+01 1.20947962295786e-02 1.56504171687886e-04
1.08062500000000e+01 1.19906744698265e-02 1.55484540918153e-04
1.08517500000000e+01 1.18874490741509e-02 1.54470183772261e-04
1.08972500000000e+01 1.17851123259271e-02 1.53461095154786e-04
1.09427500000000e+01 1.16836565749611e-02 1.52457269499288e-04
1.09882500000000e+01 1.15830742369181e-02 1.51458700779942e-04
1.10337500000000e+01 1.14833577927552e-02 1.50465382522974e-04
1.10792500000000e+01 1.13844997881597e-02 1.49477307817827e-04
1.11247500000000e+01 1.12864928329914e-02 1.48494469328122e-04
1.11702500000000e+01 1.11893296007306e-02 1.47516859302370e-04
1.12157500000000e+01 1.10930028279301e-02 1.46544469584517e-04
1.12612500000000e+01 1.09975053136722e-02 1.45577291624245e-04
1.13067500000000e+01 1.09028299190308e-02 1.44615316487074e-04
1.13522500000000e+01 1.08089695665370e-02 1.43658534864272e-04
1.13977500000000e+01 1.07159172396509e-02 1.42706937082558e-04
1.14432500000000e+01 1.06236659822364e-02 1.41760513113620e-04
1.14887500000000e+01 1.05322088980414e-02 1.40819252583411e-04
1.15342500000000e+01 1.04415391501824e-02 1.39883144781310e-04
1.15797500000000e+01 1.03516499606333e-02 1.38952178669075e-04
1.16252500000000e+01 1.02625346097186e-02 1.38026342889606e-04
1.16707500000000e+01 1.01741864356115e-02 1.37105625775556e-04
1.17162500000000e+01 1.00865988338351e-02 1.36190015357756e-04
1.17617500000000e+01 9.99976525676956e-03 1.35279499373471e-04
1.18072500000000e+01 9.91367921316204e-03 1.34374065274497e-04
1.18527500000000e+01 9.82833426764169e-03 1.33473700235100e-04
1.18982500000000e+01 9.74372404023853e-03 1.32578391159799e-04
1.19437500000000e+01 9.65984220590648e-03 1.31688124690971e-04
1.19892500000000e+01 9.57668249405059e-03 1.30802887216326e-04
1.20347500000000e+01 9.49423868805823e-03 1.29922664876232e-04
1.20802500000000e+01 9.41250462483438e-03 1.29047443570893e-04
1.21257500000000e+01 9.33147419434093e-03 1.28177208967375e-04
1.21712500000000e+01 9.25114133913988e-03 1.27311946506477e-04
1.22167500000000e+01 9.17150005394057e-03 1.26451641409514e-04
1.22622500000000e+01 9.09254438515069e-03 1.25596278684915e-04
1.23077500000000e+01 9.01426843043129e-03 1.24745843134713e-04
1.23532500000000e+01 8.93666633825550e-03 1.23900319360902e-04
1.23987500000000e+01 8.85973230747110e-03 1.23059691771660e-04
1.24442500000000e+01 8.78346058686689e-03 1.22223944587463e-04
1.24897500000000e+01 8.70784547474271e-03 1.21393061847050e-04
1.25352500000000e+01 8.63288131848326e-03 1.20567027413296e-04
1.25807500000000e+01 8.55856251413548e-03 1.19745824978944e-04
1.26262500000000e+01 8.48488350598968e-03 1.18929438072237e-04
1.26717500000000e+01 8.41183878616419e-03 1.18117850062434e-04
1.27172500000000e+01 8.33942289419362e-03 1.17311044165201e-04
1.27627500000000e+01 8.26763041662070e-03 1.16509003447925e-04
1.28082500000000e+01 8.19645598659152e-03 1.15711710834876e-04
1.28537500000000e+01 8.12589428345441e-03 1.14919149112298e-04
1.28992500000000e+01 8.05594003236216e-03 1.14131300933405e-04
1.29447500000000e+01 7.98658800387769e-03 1.13348148823239e-04
1.29902500000000e+01 7.91783301358312e-03 1.12569675183445e-04
1.30357500000000e+01 7.84966992169224e-03 1.11795862296961e-04
1.30812500000000e+01 7.78209363266625e-03 1.11026692332606e-04
1.31267500000000e+01 7.71509909483287e-03 1.10262147349574e-04
1.31722500000000e+01 7.64868130000868e-03 1.09502209301827e-04
1.32177500000000e+01 7.58283528312474e-03 1.08746860042402e-04
1.32632500000000e+01 7.51755612185544e-03 1.07996081327650e-04
1.33087500000000e+01 7.45283893625051e-03 1.07249854821367e-04
1.33542500000000e+01 7.38867888837022e-03 1.06508162098831e-04
1.33997500000000e+01 7.32507118192374e-03 1.05770984650781e-04
1.34452500000000e+01 7.26201106191056e-03 1.05038303887296e-04
1.34907500000000e+01 7.19949381426509e-03 1.04310101141612e-04
1.35362500000000e+01 7.13751476550417e-03 1.03586357673841e-04
1.35817500000000e+01 7.07606928237779e-03 1.02867054674614e-04
1.36272500000000e+01 7.01515277152266e-03 1.02152173268666e-04
1.36727500000000e+01 6.95476067911889e-03 1.01441694518327e-04
1.37182500000000e+01 6.89488849054954e-03 1.00735599426945e-04
1.37637500000000e+01 6.83553173006311e-03 1.00033868942248e-04
1.38092500000000e+01 6.77668596043902e-03 9.93364839596247e-05
1.38547500000000e+01 6.71834678265582e-03 9.86434253253360e-05
1.39002500000000e+01 6.66050983556242e-03 9.79546738396636e-05
1.39457500000000e+01 6.60317079555201e-03 9.72702102599867e-05
1.39912500000000e+01 6.54632537623889e-03 9.65900153038045e-05
1.40367500000000e+01 6.48996932813801e-03 9.59140696516808e-05
1.40822500000000e+01 6.43409843834733e-03 9.52423539501317e-05
1.41277500000000e+01 6.37870853023286e-03 9.45748488144527e-05
1.41732500000000e+01 6.32379546311644e-03 9.39115348314822e-05
1.42187500000000e+01 6.26935513196622e-03 9.32523925623189e-05
1.42642500000000e+01 6.21538346708977e-03 9.25974025449560e-05
1.43097500000000e+01 6.16187643382984e-03 9.19465452968732e-05
1.43552500000000e+01 6.10883003226278e-03 9.12998013175767e-05
