Energy (eV)          EEDF (eV^-(3/2))     First Anisotropy
5.50000000000000e-03 1.14307896488123e+00 7.59348956311052e-04
1.65000000000000e-02 1.13041890431846e+00 1.25116339354000e-03
2.75000000000000e-02 1.11789905903174e+00 1.64444104740001e-03
3.85000000000000e-02 1.10551787608091e+00 1.93884972808521e-03
4.95000000000000e-02 1.09327381972477e+00 2.18080247081282e-03
6.05000000000000e-02 1.08116537123102e+00 2.38795845866119e-03
7.15000000000000e-02 1.06919102868791e+00 2.56951123681826e-03
8.25000000000000e-02 1.05734930681795e+00 2.73104498656088e-03
9.35000000000000e-02 1.04563873679370e+00 2.87628453665911e-03
1.04500000000000e-01 1.03405786605559e+00 3.00787746245341e-03
1.15500000000000e-01 1.02260525813170e+00 3.12779461905265e-03
1.26500000000000e-01 1.01127949245964e+00 3.23755570559220e-03
1.37500000000000e-01 1.00007916421032e+00 3.33836556820439e-03
1.48500000000000e-01 9.89002884113686e-01 3.43120118439880e-03
1.59500000000000e-01 9.78049278286415e-01 3.51686964958778e-03
1.70500000000000e-01 9.67216988061501e-01 3.59604823988300e-03
1.81500000000000e-01 9.56504669819716e-01 3.66931293091388e-03
1.92500000000000e-01 9.45910994822962e-01 3.73715922064987e-03
2.03500000000000e-01 9.35434649049448e-01 3.80001766856875e-03
2.14500000000000e-01 9.25074333030706e-01 3.85826571423023e-03
2.25500000000000e-01 9.14828761690404e-01 3.91223681735180e-03
2.36500000000000e-01 9.04696664184951e-01 3.96222763170880e-03
2.47500000000000e-01 8.94676783745858e-01 4.00850371059969e-03
2.58500000000000e-01 8.84767877523857e-01 4.05130409854890e-03
2.69500000000000e-01 8.74968716434735e-01 4.09084506644323e-03
2.80500000000000e-01 8.65278085006883e-01 4.12732317957704e-03
2.91500000000000e-01 8.55694781230531e-01 4.16091784020089e-03
3.02500000000000e-01 8.46217616408650e-01 4.19179341177505e-03
3.13500000000000e-01 8.36845415009511e-01 4.22010100705910e-03
3.24500000000000e-01 8.27577014520874e-01 4.24598000365540e-03
3.35500000000000e-01 8.18411265305789e-01 4.26955933677934e-03
3.46500000000000e-01 8.09347030460001e-01 4.29095860856151e-03
3.57500000000000e-01 8.00383185670928e-01 4.31028904519407e-03
3.68500000000000e-01 7.91518619078200e-01 4.32765432705924e-03
3.79500000000000e-01 7.82752231135754e-01 4.34315131217872e-03
3.90500000000000e-01 7.74082934475439e-01 4.35687066955529e-03
4.01500000000000e-01 7.65509653772147e-01 4.36889743598934e-03
4.12500000000000e-01 7.57031325610428e-01 4.37931150758386e-03
4.23500000000000e-01 7.48646898352590e-01 4.38818807523979e-03
4.34500000000000e-01 7.40355332008248e-01 4.39559801190278e-03
4.45500000000000e-01 7.32155598105333e-01 4.40160821807318e-03
4.56500000000000e-01 7.24046679562518e-01 4.40628193106526e-03
4.67500000000000e-01 7.16027570563063e-01 4.40967900266132e-03
4.78500000000000e-01 7.08097276430053e-01 4.41185614911102e-03
4.89500000000000e-01 7.00254813503020e-01 4.41286717685032e-03
5.00500000000000e-01 6.92499209015934e-01 4.41276318683161e-03
5.11500000000000e-01 6.84829500976542e-01 4.41159275995318e-03
5.22500000000000e-01 6.77244738047041e-01 4.40940212573962e-03
5.33500000000000e-01 6.69743979426078e-01 4.40623531613401e-03
5.44500000000000e-01 6.62326294732058e-01 4.40213430602231e-03
5.55500000000000e-01 6.54990763887732e-01 4.39713914190256e-03
5.66500000000000e-01 6.47736477006081e-01 4.39128805993470e-03
5.77500000000000e-01 6.40562534277451e-01 4.38461759445455e-03
5.88500000000000e-01 6.33468045857944e-01 4.37716267790666e-03
5.99500000000000e-01 6.26452131759039e-01 4.36895673303664e-03
6.10500000000000e-01 6.19513921738446e-01 4.36003175808676e-03
6.21500000000000e-01 6.12652555192157e-01 4.35041840565552e-03
6.32500000000000e-01 6.05867181047702e-01 4.34014605580520e-03
6.43500000000000e-01 5.99156957658582e-01 4.32924288394138e-03
6.54500000000000e-01 5.92521052699870e-01 4.31773592392960e-03
6.65500000000000e-01 5.85958643064977e-01 4.30565112686516e-03
6.76500000000000e-01 5.79468914763549e-01 4.29301341587002e-03
6.87500000000000e-01 5.73051062820503e-01 4.27984673725233e-03
6.98500000000000e-01 5.66704291176181e-01 4.26617410833029e-03
7.09500000000000e-01 5.60427812587607e-01 4.25201766219233e-03
7.20500000000000e-01 5.54220848530838e-01 4.23739868963865e-03
7.31500000000000e-01 5.48082629104397e-01 4.22233767852753e-03
7.42500000000000e-01 5.42012392933778e-01 4.20685435072602e-03
7.53500000000000e-01 5.36009387077002e-01 4.19096769684974e-03
7.64500000000000e-01 5.30072866931229e-01 4.17469600895631e-03
7.75500000000000e-01 5.24202096140394e-01 4.15805691134349e-03
7.86500000000000e-01 5.18396346503873e-01 4.14106738959169e-03
7.97500000000000e-01 5.12654897886158e-01 4.12374381797454e-03
8.08500000000000e-01 5.06977038127531e-01 4.10610198535403e-03
8.19500000000000e-01 5.01362062955732e-01 4.08815711966456e-03
8.30500000000000e-01 4.95809275898599e-01 4.06992391108327e-03
8.41500000000000e-01 4.90317988197679e-01 4.05141653397505e-03
8.52500000000000e-01 4.84887518722800e-01 4.03264866769331e-03
8.63500000000000e-01 4.79517193887577e-01 4.01363351631201e-03
8.74500000000000e-01 4.74206347565870e-01 3.99438382735789e-03
8.85500000000000e-01 4.68954321009153e-01 3.97491190960639e-03
8.96500000000000e-01 4.63760462764804e-01 3.95522965000016e-03
9.07500000000000e-01 4.58624128595304e-01 3.93534852974428e-03
9.18500000000000e-01 4.53544681398323e-01 3.91527963962959e-03
9.29500000000000e-01 4.48521491127697e-01 3.89503369462955e-03
9.40500000000000e-01 4.43553934715276e-01 3.87462104781362e-03
9.51500000000000e-01 4.38641395993643e-01 3.85405170361881e-03
9.62500000000000e-01 4.33783265619683e-01 3.83333533051552e-03
9.73500000000000e-01 4.28978940999001e-01 3.81248127310245e-03
9.84500000000000e-01 4.24227826211178e-01 3.79149856366284e-03
9.95500000000000e-01 4.19529331935855e-01 3.77039593321220e-03
1.00650000000000e+00 4.14882875379633e-01 3.74918182206608e-03
1.01750000000000e+00 4.10287880203786e-01 3.72786438995296e-03
1.02850000000000e+00 4.05743776452770e-01 3.70645152569788e-03
1.03950000000000e+00 4.01250000483529e-01 3.68495085649839e-03
1.05050000000000e+00 3.96805994895582e-01 3.66336975681527e-03
1.06150000000000e+00 3.92411208461882e-01 3.64171535689762e-03
1.07250000000000e+00 3.88065096060447e-01 3.61999455096102e-03
1.08350000000000e+00 3.83767118606735e-01 3.59821400503652e-03
1.09450000000000e+00 3.79516742986789e-01 3.57638016450644e-03
1.10550000000000e+00 3.75313441991100e-01 3.55449926134378e-03
1.11650000000000e+00 3.71156694249218e-01 3.53257732106795e-03
1.12750000000000e+00 3.67045984165081e-01 3.51062016943204e-03
1.13850000000000e+00 3.62980801853062e-01 3.48863343885410e-03
1.14950000000000e+00 3.58960643074723e-01 3.46662257460398e-03
1.16050000000000e+00 3.54985009176268e-01 3.44459284075835e-03
1.17150000000000e+00 3.51053407026696e-01 3.42254932593341e-03
1.18250000000000e+00 3.47165348956628e-01 3.40049694880651e-03
1.19350000000000e+00 3.43320352697823e-01 3.37844046343560e-03
1.20450000000000e+00 3.39517941323351e-01 3.35638446438568e-03
1.21550000000000e+00 3.35757643188445e-01 3.33433339167187e-03
1.22650000000000e+00 3.32038991871991e-01 3.31229153552561e-03
1.23750000000000e+00 3.28361526118676e-01 3.29026304099240e-03
1.24850000000000e+00 3.24724789781780e-01 3.26825191236883e-03
1.25950000000000e+00 3.21128331766587e-01 3.24626201748531e-03
1.27050000000000e+00 3.17571705974439e-01 3.22429709184119e-03
1.28150000000000e+00 3.14054471247402e-01 3.20236074259762e-03
1.29250000000000e+00 3.10576191313541e-01 3.18045645243593e-03
1.30350000000000e+00 3.07136434732812e-01 3.15858758328562e-03
1.31450000000000e+00 3.03734774843541e-01 3.13675737992703e-03
1.32550000000000e+00 3.00370789709504e-01 3.11496897347518e-03
1.33650000000000e+00 2.97044062067593e-01 3.09322538474825e-03
1.34750000000000e+00 2.93754179276056e-01 3.07152952752615e-03
1.35850000000000e+00 2.90500733263315e-01 3.04988421170288e-03
1.36950000000000e+00 2.87283320477348e-01 3.02829214633685e-03
1.38050000000000e+00 2.84101541835636e-01 3.00675594260402e-03
1.39150000000000e+00 2.80955002675659e-01 2.98527811665648e-03
1.40250000000000e+00 2.77843312705945e-01 2.96386109239040e-03
1.41350000000000e+00 2.74766085957655e-01 2.94250720412720e-03
1.42450000000000e+00 2.71722940736713e-01 2.92121869921051e-03
1.43550000000000e+00 2.68713499576458e-01 2.89999774052290e-03
1.44650000000000e+00 2.65737389190824e-01 2.87884640892446e-03
1.45750000000000e+00 2.62794240428040e-01 2.85776670561663e-03
1.46850000000000e+00 2.59883688224837e-01 2.83676055443361e-03
1.47950000000000e+00 2.57005371561172e-01 2.81582980406438e-03
1.49050000000000e+00 2.54158933415442e-01 2.79497623020754e-03
1.50150000000000e+00 2.51344020720205e-01 2.77420153766135e-03
1.51250000000000e+00 2.48560284318382e-01 2.75350736235175e-03
1.52350000000000e+00 2.45807378919948e-01 2.73289527329937e-03
1.53450000000000e+00 2.43084963059107e-01 2.71236677452872e-03
1.54550000000000e+00 2.40392699051932e-01 2.69192330692141e-03
1.55650000000000e+00 2.37730252954484e-01 2.67156625001477e-03
1.56750000000000e+00 2.35097294521385e-01 2.65129692374798e-03
1.57850000000000e+00 2.32493497164861e-01 2.63111659015777e-03
1.58950000000000e+00 2.29918537914227e-01 2.61102645502513e-03
1.60050000000000e+00 2.27372097375828e-01 2.59102766947464e-03
1.61150000000000e+00 2.24853859693426e-01 2.57112133152787e-03
1.62250000000000e+00 2.22363512509015e-01 2.55130848761266e-03
1.63350000000000e+00 2.19900746924080e-01 2.53159013402961e-03
1.64450000000000e+00 2.17465257461285e-01 2.51196721837697e-03
1.65550000000000e+00 2.15056742026574e-01 2.49244064093550e-03
1.66650000000000e+00 2.12674901871707e-01 2.47301125601435e-03
1.67750000000000e+00 2.10319441557203e-01 2.45367987325944e-03
1.68850000000000e+00 2.07990068915688e-01 2.43444725892560e-03
1.69950000000000e+00 2.05686495015663e-01 2.41531413711310e-03
1.71050000000000e+00 2.03408434125661e-01 2.39628119097013e-03
1.72150000000000e+00 2.01155603678805e-01 2.37734906386238e-03
1.73250000000000e+00 1.98927724237763e-01 2.35851836051022e-03
1.74350000000000e+00 1.96724519460081e-01 2.33978964809467e-03
1.75450000000000e+00 1.94545716063911e-01 2.32116345733373e-03
1.76550000000000e+00 1.92391043794110e-01 2.30264028352901e-03
1.77650000000000e+00 1.90260235388723e-01 2.28422058758400e-03
1.78750000000000e+00 1.88153026545825e-01 2.26590479699521e-03
1.79850000000000e+00 1.86069155890745e-01 2.24769330681599e-03
1.80950000000000e+00 1.84008364943638e-01 2.22958648059494e-03
1.82050000000000e+00 1.81970398087431e-01 2.21158465128899e-03
1.83150000000000e+00 1.79955002536111e-01 2.19368812215197e-03
1.84250000000000e+00 1.77961928303374e-01 2.17589716759996e-03
1.85350000000000e+00 1.75990928171613e-01 2.15821203405298e-03
1.86450000000000e+00 1.74041757661257e-01 2.14063294075452e-03
1.87550000000000e+00 1.72114175000446e-01 2.12316008056979e-03
1.88650000000000e+00 1.70207941095037e-01 2.10579362076238e-03
1.89750000000000e+00 1.68322819498955e-01 2.08853370375064e-03
1.90850000000000e+00 1.66458576384860e-01 2.07138044784429e-03
1.91950000000000e+00 1.64614980515141e-01 2.05433394796137e-03
1.93050000000000e+00 1.62791803213240e-01 2.03739427632674e-03
1.94150000000000e+00 1.60988818335284e-01 2.02056148315211e-03
1.95250000000000e+00 1.59205802242033e-01 2.00383559729844e-03
1.96350000000000e+00 1.57442533771143e-01 1.98721662692094e-03
1.97450000000000e+00 1.55698794209732e-01 1.97070456009716e-03
1.98550000000000e+00 1.53974367267249e-01 1.95429936543916e-03
1.99650000000000e+00 1.52269039048653e-01 1.93800099268951e-03
2.00750000000000e+00 1.50582598027872e-01 1.92180937330188e-03
2.01850000000000e+00 1.48914835021574e-01 1.90572442100669e-03
2.02950000000000e+00 1.47265543163214e-01 1.88974603236193e-03
2.04050000000000e+00 1.45634517877380e-01 1.87387408729006e-03
2.05150000000000e+00 1.44021556854414e-01 1.85810844960062e-03
2.06250000000000e+00 1.42426460025318e-01 1.84244896749989e-03
2.07350000000000e+00 1.40849029536940e-01 1.82689547408729e-03
2.08450000000000e+00 1.39289069727433e-01 1.81144778783867e-03
2.09550000000000e+00 1.37746387101980e-01 1.79610571307749e-03
2.10650000000000e+00 1.36220790308800e-01 1.78086904043381e-03
2.11750000000000e+00 1.34712090115411e-01 1.76573754729163e-03
2.12850000000000e+00 1.33220099385154e-01 1.75071099822452e-03
2.13950000000000e+00 1.31744633053986e-01 1.73578914542013e-03
2.15050000000000e+00 1.30285508107522e-01 1.72097172909416e-03
2.16150000000000e+00 1.28842543558336e-01 1.70625847789315e-03
2.17250000000000e+00 1.27415560423511e-01 1.69164910928739e-03
2.18350000000000e+00 1.26004381702436e-01 1.67714332995368e-03
2.19450000000000e+00 1.24608832354855e-01 1.66274083614803e-03
2.20550000000000e+00 1.23228739279153e-01 1.64844131406925e-03
2.21650000000000e+00 1.21863931290886e-01 1.63424444021291e-03
2.22750000000000e+00 1.20514239101544e-01 1.62014988171632e-03
2.23850000000000e+00 1.19179495297558e-01 1.60615729669465e-03
2.24950000000000e+00 1.17859534319532e-01 1.59226633456854e-03
2.26050000000000e+00 1.16554192441706e-01 1.57847663638312e-03
2.27150000000000e+00 1.15263307751649e-01 1.56478783511906e-03
2.28250000000000e+00 1.13986720130175e-01 1.55119955599564e-03
2.29350000000000e+00 1.12724271231483e-01 1.53771141676573e-03
2.30450000000000e+00 1.11475804463517e-01 1.52432302800346e-03
2.31550000000000e+00 1.10241164968539e-01 1.51103399338462e-03
2.32650000000000e+00 1.09020199603925e-01 1.49784390995956e-03
2.33750000000000e+00 1.07812756923164e-01 1.48475236841907e-03
2.34850000000000e+00 1.06618687157080e-01 1.47175895335370e-03
2.35950000000000e+00 1.05437842195248e-01 1.45886324350621e-03
2.37050000000000e+00 1.04270075567629e-01 1.44606481201740e-03
2.38150000000000e+00 1.03115242426396e-01 1.43336322666564e-03
2.39250000000000e+00 1.01973199527970e-01 1.42075805010026e-03
2.40350000000000e+00 1.00843805215254e-01 1.40824884006903e-03
2.41450000000000e+00 9.97269194000607e-02 1.39583514963940e-03
2.42550000000000e+00 9.86224035457338e-02 1.38351652741425e-03
2.43650000000000e+00 9.75301206499681e-02 1.37129251774194e-03
2.44750000000000e+00 9.64499352278137e-02 1.35916266092074e-03
2.45850000000000e+00 9.53817132948714e-02 1.34712649339827e-03
2.46950000000000e+00 9.43253223506728e-02 1.33518354796535e-03
2.48050000000000e+00 9.32806313622460e-02 1.32333335394494e-03
2.49150000000000e+00 9.22475107478620e-02 1.31157543737616e-03
2.50250000000000e+00 9.12258323609616e-02 1.29990932119320e-03
2.51350000000000e+00 9.02154694742605e-02 1.28833452539995e-03
2.52450000000000e+00 8.92162967640304e-02 1.27685056723960e-03
2.53550000000000e+00 8.82281902945534e-02 1.26545696135991e-03
2.54650000000000e+00 8.72510275027501e-02 1.25415321997408e-03
2.55750000000000e+00 8.62846871829764e-02 1.24293885301745e-03
2.56850000000000e+00 8.53290494719896e-02 1.23181336829971e-03
2.57950000000000e+00 8.43839958340809e-02 1.22077627165326e-03
2.59050000000000e+00 8.34494090463721e-02 1.20982706707755e-03
2.60150000000000e+00 8.25251731842757e-02 1.19896525687951e-03
2.61250000000000e+00 8.16111736071159e-02 1.18819034181018e-03
2.62350000000000e+00 8.07072969439084e-02 1.17750182119750e-03
2.63450000000000e+00 7.98134310792986e-02 1.16689919307580e-03
2.64550000000000e+00 7.89294651396542e-02 1.15638195431145e-03
2.65650000000000e+00 7.80552894793135e-02 1.14594960072518e-03
2.66750000000000e+00 7.71907956669845e-02 1.13560162721102e-03
2.67850000000000e+00 7.63358764722957e-02 1.12533752785200e-03
2.68950000000000e+00 7.54904258524950e-02 1.11515679603257e-03
2.70050000000000e+00 7.46543389392967e-02 1.10505892454795e-03
2.71150000000000e+00 7.38275120258736e-02 1.09504340571041e-03
2.72250000000000e+00 7.30098425539933e-02 1.08510973145243e-03
2.73350000000000e+00 7.22012291012975e-02 1.07525739342719e-03
2.74450000000000e+00 7.14015713687212e-02 1.06548588310608e-03
2.75550000000000e+00 7.06107701680520e-02 1.05579469187335e-03
2.76650000000000e+00 6.98287274096270e-02 1.04618331111820e-03
2.77750000000000e+00 6.90553460901660e-02 1.03665123232414e-03
2.78850000000000e+00 6.82905302807389e-02 1.02719794715585e-03
2.79950000000000e+00 6.75341851148676e-02 1.01782294754338e-03
2.81050000000000e+00 6.67862167767583e-02 1.00852572576396e-03
2.82150000000000e+00 6.60465324896649e-02 9.99305774521469e-04
2.83250000000000e+00 6.53150405043814e-02 9.90162587023498e-04
2.84350000000000e+00 6.45916500878611e-02 9.81095657055991e-04
2.85450000000000e+00 6.38762715119624e-02 9.72104479055904e-04
2.86550000000000e+00 6.31688160423191e-02 9.63188548181545e-04
2.87650000000000e+00 6.24691959273337e-02 9.54347360380693e-04
2.88750000000000e+00 6.17773243872934e-02 9.45580412456806e-04
2.89850000000000e+00 6.10931156036055e-02 9.36887202133038e-04
2.90950000000000e+00 6.04164847081527e-02 9.28267228114449e-04
2.92050000000000e+00 5.97473477727665e-02 9.19719990148135e-04
2.93150000000000e+00 5.90856217988168e-02 9.11244989081483e-04
2.94250000000000e+00 5.84312247069167e-02 9.02841726918633e-04
2.95350000000000e+00 5.77840753267414e-02 8.94509706875122e-04
2.96450000000000e+00 5.71440933869607e-02 8.86248433430782e-04
2.97550000000000e+00 5.65111995052812e-02 8.78057412380829e-04
2.98650000000000e+00 5.58853151786008e-02 8.69936150885331e-04
2.99750000000000e+00 5.52663627732707e-02 8.61884157517163e-04
3.00850000000000e+00 5.46542655154663e-02 8.53900942308236e-04
3.01950000000000e+00 5.40489474816638e-02 8.45986016794069e-04
3.03050000000000e+00 5.34503335892231e-02 8.38138894057024e-04
3.04150000000000e+00 5.28583495870749e-02 8.30359088768015e-04
3.05250000000000e+00 5.22729220465101e-02 8.22646117226696e-04
3.06350000000000e+00 5.16939783520724e-02 8.14999497400271e-04
3.07450000000000e+00 5.11214466925507e-02 8.07418748960990e-04
3.08550000000000e+00 5.05552560520724e-02 7.99903393322207e-04
3.09650000000000e+00 4.99953362012940e-02 7.92452953673133e-04
3.10750000000000e+00 4.94416176886904e-02 7.85066955012290e-04
3.11850000000000e+00 4.88940318319403e-02 7.77744924179841e-04
3.12950000000000e+00 4.83525107094067e-02 7.70486389888546e-04
3.14050000000000e+00 4.78169871517120e-02 7.63290882753563e-04
3.15150000000000e+00 4.72873947334067e-02 7.56157935321167e-04
3.16250000000000e+00 4.67636677647300e-02 7.49087082096244e-04
3.17350000000000e+00 4.62457412834615e-02 7.42077859568695e-04
3.18450000000000e+00 4.57335510468637e-02 7.35129806238795e-04
3.19550000000000e+00 4.52270335237134e-02 7.28242462641474e-04
3.20650000000000e+00 4.47261258864212e-02 7.21415371369524e-04
3.21750000000000e+00 4.42307660032386e-02 7.14648077095881e-04
3.22850000000000e+00 4.37408924305514e-02 7.07940126594926e-04
3.23950000000000e+00 4.32564444052580e-02 7.01291068762814e-04
3.25050000000000e+00 4.27773618372329e-02 6.94700454636744e-04
3.26150000000000e+00 4.23035853018727e-02 6.88167837413572e-04
3.27250000000000e+00 4.18350560327257e-02 6.81692772467359e-04
3.28350000000000e+00 4.13717159142022e-02 6.75274817366074e-04
3.29450000000000e+00 4.09135074743663e-02 6.68913531887566e-04
3.30550000000000e+00 4.04603738778066e-02 6.62608478034552e-04
3.31650000000000e+00 4.00122589185872e-02 6.56359220048891e-04
3.32750000000000e+00 3.95691070132754e-02 6.50165324425146e-04
3.33850000000000e+00 3.91308631940474e-02 6.44026359923276e-04
3.34950000000000e+00 3.86974731018703e-02 6.37941897580599e-04
3.36050000000000e+00 3.82688829797595e-02 6.31911510723126e-04
3.37150000000000e+00 3.78450396661105e-02 6.25934774976079e-04
3.38250000000000e+00 3.74258905881051e-02 6.20011268273782e-04
3.39350000000000e+00 3.70113837551902e-02 6.14140570868888e-04
3.40450000000000e+00 3.66014677526293e-02 6.08322265340925e-04
3.41550000000000e+00 3.61960917351245e-02 6.02555936604243e-04
3.42650000000000e+00 3.57952054205103e-02 5.96841171915308e-04
3.43750000000000e+00 3.53987590835163e-02 5.91177560879419e-04
3.44850000000000e+00 3.50067035495997e-02 5.85564695456837e-04
3.45950000000000e+00 3.46189901888455e-02 5.80002169968339e-04
3.47050000000000e+00 3.42355709099347e-02 5.74489581100228e-04
