Energy (eV)          EEDF (eV^-(3/2))     First Anisotropy
1.37500000000000e-02 1.33796496878223e-01 6.95461901968185e-05
4.12500000000000e-02 1.32909407669069e-01 1.14845912296204e-04
6.87500000000000e-02 1.32028199984185e-01 1.51623885702600e-04
9.62500000000000e-02 1.31152834827808e-01 1.79573093548758e-04
1.23750000000000e-01 1.30283273463085e-01 2.02890282014397e-04
1.51250000000000e-01 1.29419477410047e-01 2.23161608825976e-04
1.78750000000000e-01 1.28561408443870e-01 2.41207628294934e-04
2.06250000000000e-01 1.27709028593174e-01 2.57523681422265e-04
2.33750000000000e-01 1.26862300138333e-01 2.72438176991101e-04
2.61250000000000e-01 1.26021185609814e-01 2.86183150040465e-04
2.88750000000000e-01 1.25185647786509e-01 2.98930307727981e-04
3.16250000000000e-01 1.24355649694094e-01 3.10811279838106e-04
3.43750000000000e-01 1.23531154603388e-01 3.21929826400837e-04
3.71250000000000e-01 1.22712126028731e-01 3.32369609683614e-04
3.98750000000000e-01 1.21898527726369e-01 3.42199362931652e-04
4.26250000000000e-01 1.21090323692848e-01 3.51476452937118e-04
4.53750000000000e-01 1.20287478163421e-01 3.60249409997266e-04
4.81250000000000e-01 1.19489955610469e-01 3.68559770699080e-04
5.08750000000000e-01 1.18697720741923e-01 3.76443449772746e-04
5.36250000000000e-01 1.17910738499707e-01 3.83931780923398e-04
5.63750000000000e-01 1.17128974058185e-01 3.91052319784513e-04
5.91250000000000e-01 1.16352392822620e-01 3.97829472568929e-04
6.18750000000000e-01 1.15580960427641e-01 4.04284994777722e-04
6.46250000000000e-01 1.14814642735726e-01 4.10438391531088e-04
6.73750000000000e-01 1.14053405835689e-01 4.16307242377313e-04
7.01250000000000e-01 1.13297216041180e-01 4.21907467393569e-04
7.28750000000000e-01 1.12546039889194e-01 4.27253547125333e-04
7.56250000000000e-01 1.11799844138590e-01 4.32358705849713e-04
7.83750000000000e-01 1.11058595768620e-01 4.37235065419371e-04
8.11250000000000e-01 1.10322261977470e-01 4.41893775299569e-04
8.38750000000000e-01 1.09590810180805e-01 4.46345123183080e-04
8.66250000000000e-01 1.08864208010328e-01 4.50598629640572e-04
8.93750000000000e-01 1.08142423312350e-01 4.54663129556693e-04
9.21250000000000e-01 1.07425424146364e-01 4.58546842556554e-04
9.48750000000000e-01 1.06713178783634e-01 4.62257434203961e-04
9.76250000000000e-01 1.06005655705790e-01 4.65802069420234e-04
1.00375000000000e+00 1.05302823603431e-01 4.69187459309593e-04
1.03125000000000e+00 1.04604651374745e-01 4.72419902368794e-04
1.05875000000000e+00 1.03911108124126e-01 4.75505320890558e-04
1.08625000000000e+00 1.03222163160813e-01 4.78449293235463e-04
1.11375000000000e+00 1.02537785997526e-01 4.81257082537272e-04
1.14125000000000e+00 1.01857946349123e-01 4.83933662317068e-04
1.16875000000000e+00 1.01182614131255e-01 4.86483739408124e-04
1.19625000000000e+00 1.00511759459035e-01 4.88911774532619e-04
1.22375000000000e+00 9.98453526457204e-02 4.91222000821331e-04
1.25125000000000e+00 9.91833642013926e-02 4.93418440524947e-04
1.27875000000000e+00 9.85257648316569e-02 4.95504920131302e-04
1.30625000000000e+00 9.78725254363439e-02 4.97485084072980e-04
1.33375000000000e+00 9.72236171082226e-02 4.99362407184536e-04
1.36125000000000e+00 9.65790111317208e-02 5.01140206048320e-04
1.38875000000000e+00 9.59386789816544e-02 5.02821649349296e-04
1.41625000000000e+00 9.53025923219655e-02 5.04409767344224e-04
1.44375000000000e+00 9.46707230044677e-02 5.05907460537508e-04
1.47125000000000e+00 9.40430430676014e-02 5.07317507644692e-04
1.49875000000000e+00 9.34195247351957e-02 5.08642572915239e-04
1.52625000000000e+00 9.28001404152397e-02 5.09885212877158e-04
1.55375000000000e+00 9.21848626986613e-02 5.11047882559519e-04
1.58125000000000e+00 9.15736643581143e-02 5.12132941242274e-04
1.60875000000000e+00 9.09665183467736e-02 5.13142657777248e-04
1.63625000000000e+00 9.03633977971382e-02 5.14079215519621e-04
1.66375000000000e+00 8.97642760198424e-02 5.14944716904695e-04
1.69125000000000e+00 8.91691265024746e-02 5.15741187701416e-04
1.71875000000000e+00 8.85779229084043e-02 5.16470580970549e-04
1.74625000000000e+00 8.79906390756163e-02 5.17134780752818e-04
1.77375000000000e+00 8.74072490155532e-02 5.17735605509606e-04
1.80125000000000e+00 8.68277269119656e-02 5.18274811336623e-04
1.82875000000000e+00 8.62520471197689e-02 5.18754094969104e-04
1.85625000000000e+00 8.56801841639094e-02 5.19175096595114e-04
1.88375000000000e+00 8.51121127382362e-02 5.19539402491951e-04
1.91125000000000e+00 8.45478077043818e-02 5.19848547499654e-04
1.93875000000000e+00 8.39872440906495e-02 5.20104017343981e-04
1.96625000000000e+00 8.34303970909085e-02 5.20307250819897e-04
1.99375000000000e+00 8.28772420634958e-02 5.20459641846258e-04
2.02125000000000e+00 8.23277545301264e-02 5.20562541401001e-04
2.04875000000000e+00 8.17819101748093e-02 5.20617259345379e-04
2.07625000000000e+00 8.12396848427722e-02 5.20625066145184e-04
2.10375000000000e+00 8.07010545393922e-02 5.20587194496181e-04
2.13125000000000e+00 8.01659954291339e-02 5.20504840860375e-04
2.15875000000000e+00 7.96344838344948e-02 5.20379166918980e-04
2.18625000000000e+00 7.91064962349578e-02 5.20211300948116e-04
2.21375000000000e+00 7.85820092659497e-02 5.20002339122016e-04
2.24125000000000e+00 7.80609997178078e-02 5.19753346748511e-04
2.26875000000000e+00 7.75434445347527e-02 5.19465359441371e-04
2.29625000000000e+00 7.70293208138679e-02 5.19139384233383e-04
2.32375000000000e+00 7.65186058040864e-02 5.18776400633818e-04
2.35125000000000e+00 7.60112769051841e-02 5.18377361633945e-04
2.37875000000000e+00 7.55073116667792e-02 5.17943194663706e-04
2.40625000000000e+00 7.50066877873392e-02 5.17474802502389e-04
2.43375000000000e+00 7.45093831131938e-02 5.16973064146273e-04
2.46125000000000e+00 7.40153756375546e-02 5.16438835635642e-04
2.48875000000000e+00 7.35246434995413e-02 5.15872950843556e-04
2.51625000000000e+00 7.30371649832141e-02 5.15276222228680e-04
2.54375000000000e+00 7.25529185166129e-02 5.14649441554144e-04
2.57125000000000e+00 7.20718826708028e-02 5.13993380574300e-04
2.59875000000000e+00 7.15940361589257e-02 5.13308791691356e-04
2.62625000000000e+00 7.11193578352580e-02 5.12596408583398e-04
2.65375000000000e+00 7.06478266942755e-02 5.11856946805293e-04
2.68125000000000e+00 7.01794218697233e-02 5.11091104364333e-04
2.70875000000000e+00 6.97141226336928e-02 5.10299562271316e-04
2.73625000000000e+00 6.92519083957042e-02 5.09482985068894e-04
2.76375000000000e+00 6.87927587017955e-02 5.08642021338342e-04
2.79125000000000e+00 6.83366532336172e-02 5.07777304185480e-04
2.81875000000000e+00 6.78835718075333e-02 5.06889451707263e-04
2.84625000000000e+00 6.74334943737280e-02 5.05979067439638e-04
2.87375000000000e+00 6.69864010153187e-02 5.05046740787892e-04
2.90125000000000e+00 6.65422719474744e-02 5.04093047440261e-04
2.92875000000000e+00 6.61010875165401e-02 5.03118549765541e-04
2.95625000000000e+00 6.56628281991675e-02 5.02123797195572e-04
2.98375000000000e+00 6.52274746014507e-02 5.01109326593341e-04
3.01125000000000e+00 6.47950074580680e-02 5.00075662607256e-04
3.03875000000000e+00 6.43654076314295e-02 4.99023318012382e-04
3.06625000000000e+00 6.39386561108300e-02 4.97952794039195e-04
3.09375000000000e+00 6.35147340116083e-02 4.96864580690391e-04
3.12125000000000e+00 6.30936225743107e-02 4.95759157046387e-04
3.14875000000000e+00 6.26753031638613e-02 4.94636991559865e-04
3.17625000000000e+00 6.22597572687376e-02 4.93498542340098e-04
3.20375000000000e+00 6.18469665001507e-02 4.92344257427296e-04
3.23125000000000e+00 6.14369125912322e-02 4.91174575057442e-04
3.25875000000000e+00 6.10295773962254e-02 4.89989923918171e-04
3.28625000000000e+00 6.06249428896826e-02 4.88790723395944e-04
3.31375000000000e+00 6.02229911656669e-02 4.87577383814886e-04
3.34125000000000e+00 5.98237044369608e-02 4.86350306667717e-04
3.36875000000000e+00 5.94270650342782e-02 4.85109884839139e-04
3.39625000000000e+00 5.90330554054826e-02 4.83856502821839e-04
3.42375000000000e+00 5.86416581148111e-02 4.82590536925482e-04
3.45125000000000e+00 5.82528558421018e-02 4.81312355479147e-04
3.47875000000000e+00 5.78666313820281e-02 4.80022319027206e-04
3.50625000000000e+00 5.74829676433372e-02 4.78720780519037e-04
3.53375000000000e+00 5.71018476480935e-02 4.77408085492866e-04
3.56125000000000e+00 5.67232545309273e-02 4.76084572253861e-04
3.58875000000000e+00 5.63471715382890e-02 4.74750572046833e-04
3.61625000000000e+00 5.59735820277071e-02 4.73406409223532e-04
3.64375000000000e+00 5.56024694670520e-02 4.72052401405074e-04
3.67125000000000e+00 5.52338174338044e-02 4.70688859639352e-04
3.69875000000000e+00 5.48676096143286e-02 4.69316088553845e-04
3.72625000000000e+00 5.45038298031506e-02 4.67934386503962e-04
3.75375000000000e+00 5.41424619022408e-02 4.66544045716896e-04
3.78125000000000e+00 5.37834899203018e-02 4.65145352431462e-04
3.80875000000000e+00 5.34268979720608e-02 4.63738587033838e-04
3.83625000000000e+00 5.30726702775664e-02 4.62324024189458e-04
3.86375000000000e+00 5.27207911614905e-02 4.60901932971148e-04
3.89125000000000e+00 5.23712450524347e-02 4.59472576983654e-04
3.91875000000000e+00 5.20240164822410e-02 4.58036214484744e-04
3.94625000000000e+00 5.16790900853074e-02 4.56593098502919e-04
3.97375000000000e+00 5.13364505979081e-02 4.55143476951866e-04
4.00125000000000e+00 5.09960828575177e-02 4.53687592741810e-04
4.02875000000000e+00 5.06579718021405e-02 4.52225683887846e-04
4.05625000000000e+00 5.03221024696441e-02 4.50757983615400e-04
4.08375000000000e+00 4.99884599970968e-02 4.49284720462840e-04
4.11125000000000e+00 4.96570296201104e-02 4.47806118381342e-04
4.13875000000000e+00 4.93277966721866e-02 4.46322396832137e-04
4.16625000000000e+00 4.90007465840678e-02 4.44833770881283e-04
4.19375000000000e+00 4.86758648830929e-02 4.43340451291906e-04
4.22125000000000e+00 4.83531371925564e-02 4.41842644614066e-04
4.24875000000000e+00 4.80325492310722e-02 4.40340553272384e-04
4.27625000000000e+00 4.77140868119419e-02 4.38834375651343e-04
4.30375000000000e+00 4.73977358425270e-02 4.37324306178497e-04
4.33125000000000e+00 4.70834823236247e-02 4.35810535405642e-04
4.35875000000000e+00 4.67713123488494e-02 4.34293250087856e-04
4.38625000000000e+00 4.64612121040163e-02 4.32772633260610e-04
4.41375000000000e+00 4.61531678665308e-02 4.31248864315057e-04
4.44125000000000e+00 4.58471660047809e-02 4.29722119071399e-04
4.46875000000000e+00 4.55431929775341e-02 4.28192569850475e-04
4.49625000000000e+00 4.52412353333381e-02 4.26660385543707e-04
4.52375000000000e+00 4.49412797099256e-02 4.25125731681242e-04
4.55125000000000e+00 4.46433128336230e-02 4.23588770498544e-04
4.57875000000000e+00 4.43473215187630e-02 4.22049661001416e-04
4.60625000000000e+00 4.40532926671009e-02 4.20508559029438e-04
4.63375000000000e+00 4.37612132672354e-02 4.18965617317978e-04
4.66125000000000e+00 4.34710703940326e-02 4.17420985558707e-04
4.68875000000000e+00 4.31828512080538e-02 4.15874810458753e-04
4.71625000000000e+00 4.28965429549877e-02 4.14327235798513e-04
4.74375000000000e+00 4.26121329650859e-02 4.12778402488002e-04
4.77125000000000e+00 4.23296086526019e-02 4.11228448622085e-04
4.79875000000000e+00 4.20489575152347e-02 4.09677509534465e-04
4.82625000000000e+00 4.17701671335753e-02 4.08125717850269e-04
4.85375000000000e+00 4.14932251705568e-02 4.06573203537637e-04
4.88125000000000e+00 4.12181193709091e-02 4.05020093958132e-04
4.90875000000000e+00 4.09448375606160e-02 4.03466513915973e-04
4.93625000000000e+00 4.06733676463768e-02 4.01912585706224e-04
4.96375000000000e+00 4.04036976150711e-02 4.00358429161913e-04
4.99125000000000e+00 4.01358155332269e-02 3.98804161700134e-04
5.01875000000000e+00 3.98697095464931e-02 3.97249898367182e-04
5.04625000000000e+00 3.96053678791143e-02 3.95695751882636e-04
5.07375000000000e+00 3.93427788334101e-02 3.94141832682582e-04
5.10125000000000e+00 3.90819307892574e-02 3.92588248961868e-04
5.12875000000000e+00 3.88228122035760e-02 3.91035106715430e-04
5.15625000000000e+00 3.85654116098180e-02 3.89482509778829e-04
5.18375000000000e+00 3.83097176174602e-02 3.87930559867885e-04
5.21125000000000e+00 3.80557189115003e-02 3.86379356617455e-04
5.23875000000000e+00 3.78034042519557e-02 3.84828997619485e-04
5.26625000000000e+00 3.75527624733668e-02 3.83279578460204e-04
5.29375000000000e+00 3.73037824843024e-02 3.81731192756533e-04
5.32125000000000e+00 3.70564532668689e-02 3.80183932191824e-04
5.34875000000000e+00 3.68107638762230e-02 3.78637886550835e-04
5.37625000000000e+00 3.65667034400872e-02 3.77093143753954e-04
5.40375000000000e+00 3.63242611582686e-02 3.75549789890776e-04
5.43125000000000e+00 3.60834263021811e-02 3.74007909253037e-04
5.45875000000000e+00 3.58441882143708e-02 3.72467584366777e-04
5.48625000000000e+00 3.56065363080439e-02 3.70928896023974e-04
5.51375000000000e+00 3.53704600665987e-02 3.69391923313443e-04
5.54125000000000e+00 3.51359490431599e-02 3.67856743651212e-04
5.56875000000000e+00 3.49029928601164e-02 3.66323432810260e-04
5.59625000000000e+00 3.46715812086623e-02 3.64792064949663e-04
5.62375000000000e+00 3.44417038483403e-02 3.63262712643253e-04
5.65125000000000e+00 3.42133506065887e-02 3.61735446907552e-04
5.67875000000000e+00 3.39865113782916e-02 3.60210337229285e-04
5.70625000000000e+00 3.37611761253310e-02 3.58687451592330e-04
5.73375000000000e+00 3.35373348761433e-02 3.57166856504240e-04
5.76125000000000e+00 3.33149777252777e-02 3.55648617022106e-04
5.78875000000000e+00 3.30940948329578e-02 3.54132796777950e-04
5.81625000000000e+00 3.28746764246463e-02 3.52619458003723e-04
5.84375000000000e+00 3.26567127906125e-02 3.51108661555763e-04
5.87125000000000e+00 3.24401942855025e-02 3.49600466938884e-04
5.89875000000000e+00 3.22251113279123e-02 3.48094932329849e-04
5.92625000000000e+00 3.20114543999643e-02 3.46592114600502e-04
5.95375000000000e+00 3.17992140468853e-02 3.45092069340504e-04
5.98125000000000e+00 3.15883808765888e-02 3.43594850879571e-04
6.00875000000000e+00 3.13789455592591e-02 3.42100512309333e-04
6.03625000000000e+00 3.11708988269384e-02 3.40609105504793e-04
6.06375000000000e+00 3.09642314731169e-02 3.39120681145371e-04
6.09125000000000e+00 3.07589343523250e-02 3.37635288735565e-04
6.11875000000000e+00 3.05549983797289e-02 3.36152976625275e-04
6.14625000000000e+00 3.03524145307287e-02 3.34673792029711e-04
6.17375000000000e+00 3.01511738405584e-02 3.33197781048919e-04
6.20125000000000e+00 2.99512674038902e-02 3.31724988687008e-04
6.22875000000000e+00 2.97526863744393e-02 3.30255458871038e-04
6.25625000000000e+00 2.95554219645733e-02 3.28789234469502e-04
6.28375000000000e+00 2.93594654449231e-02 3.27326357310504e-04
6.31125000000000e+00 2.91648081439962e-02 3.25866868199672e-04
6.33875000000000e+00 2.89714414477936e-02 3.24410806937664e-04
6.36625000000000e+00 2.87793567994281e-02 3.22958212337399e-04
6.39375000000000e+00 2.85885456987458e-02 3.21509122240995e-04
6.42125000000000e+00 2.83989997019503e-02 3.20063573536361e-04
6.44875000000000e+00 2.82107104212284e-02 3.18621602173588e-04
6.47625000000000e+00 2.80236695243794e-02 3.17183243180975e-04
6.50375000000000e+00 2.78378687344462e-02 3.15748530680780e-04
6.53125000000000e+00 2.76532998293492e-02 3.14317497904704e-04
6.55875000000000e+00 2.74699546415221e-02 3.12890177209134e-04
6.58625000000000e+00 2.72878250575508e-02 3.11466600090099e-04
6.61375000000000e+00 2.71069030178143e-02 3.10046797197952e-04
6.64125000000000e+00 2.69271805161280e-02 3.08630798351824e-04
6.66875000000000e+00 2.67486495993893e-02 3.07218632553826e-04
6.69625000000000e+00 2.65713023672258e-02 3.05810328003011e-04
6.72375000000000e+00 2.63951309716458e-02 3.04405912109011e-04
6.75125000000000e+00 2.62201276166906e-02 3.03005411505599e-04
6.77875000000000e+00 2.60462845580900e-02 3.01608852063928e-04
6.80625000000000e+00 2.58735941029194e-02 3.00216258905500e-04
6.83375000000000e+00 2.57020486092591e-02 2.98827656414993e-04
6.86125000000000e+00 2.55316404858566e-02 2.97443068252859e-04
6.88875000000000e+00 2.53623621917904e-02 2.96062517367716e-04
6.91625000000000e+00 2.51942062361363e-02 2.94686026008469e-04
6.94375000000000e+00 2.50271651776361e-02 2.93313615736255e-04
6.97125000000000e+00 2.48612316243680e-02 2.91945307436237e-04
6.99875000000000e+00 2.46963982334196e-02 2.90581121329174e-04
7.02625000000000e+00 2.45326577105633e-02 2.89221076982764e-04
7.05375000000000e+00 2.43700028099331e-02 2.87865193322827e-04
7.08125000000000e+00 2.42084263337039e-02 2.86513488644294e-04
7.10875000000000e+00 2.40479211317735e-02 2.85165980622048e-04
7.13625000000000e+00 2.38884801014456e-02 2.83822686321515e-04
7.16375000000000e+00 2.37300961871160e-02 2.82483622209132e-04
7.19125000000000e+00 2.35727623799598e-02 2.81148804162667e-04
7.21875000000000e+00 2.34164717176219e-02 2.79818247481284e-04
7.24625000000000e+00 2.32612172839084e-02 2.78491966895511e-04
7.27375000000000e+00 2.31069922084808e-02 2.77169976577023e-04
7.30125000000000e+00 2.29537896665517e-02 2.75852290148270e-04
7.32875000000000e+00 2.28016028785832e-02 2.74538920691936e-04
7.35625000000000e+00 2.26504251099867e-02 2.73229880760255e-04
7.38375000000000e+00 2.25002496708245e-02 2.71925182384186e-04
7.41125000000000e+00 2.23510699155146e-02 2.70624837082416e-04
7.43875000000000e+00 2.22028792425358e-02 2.69328855870219e-04
7.46625000000000e+00 2.20556710941359e-02 2.68037249268203e-04
7.49375000000000e+00 2.19094389560417e-02 2.66750027310884e-04
7.52125000000000e+00 2.17641763571703e-02 2.65467199555092e-04
7.54875000000000e+00 2.16198768693431e-02 2.64188775088325e-04
7.57625000000000e+00 2.14765341070012e-02 2.62914762536917e-04
7.60375000000000e+00 2.13341417269228e-02 2.61645170074050e-04
7.63125000000000e+00 2.11926934279426e-02 2.60380005427697e-04
7.65875000000000e+00 2.10521829506727e-02 2.59119275888405e-04
7.68625000000000e+00 2.09126040772262e-02 2.57862988316952e-04
7.71375000000000e+00 2.07739506309411e-02 2.56611149151890e-04
7.74125000000000e+00 2.06362164761081e-02 2.55363764416954e-04
7.76875000000000e+00 2.04993955176980e-02 2.54120839728403e-04
7.79625000000000e+00 2.03634817010929e-02 2.52882380302167e-04
7.82375000000000e+00 2.02284690118174e-02 2.51648390960903e-04
7.85125000000000e+00 2.00943514752734e-02 2.50418876140992e-04
7.87875000000000e+00 1.99611231564748e-02 2.49193839899398e-04
7.90625000000000e+00 1.98287781597855e-02 2.47973285920378e-04
7.93375000000000e+00 1.96973106286582e-02 2.46757217522124e-04
7.96125000000000e+00 1.95667147453754e-02 2.45545637663297e-04
7.98875000000000e+00 1.94369847307917e-02 2.44338548949459e-04
8.01625000000000e+00 1.93081148440783e-02 2.43135953639389e-04
8.04375000000000e+00 1.91800993824690e-02 2.41937853651307e-04
8.07125000000000e+00 1.90529326810076e-02 2.40744250569015e-04
8.09875000000000e+00 1.89266091122974e-02 2.39555145647943e-04
8.12625000000000e+00 1.88011230862522e-02 2.38370539821050e-04
8.15375000000000e+00 1.86764690498485e-02 2.37190433704684e-04
8.18125000000000e+00 1.85526414868806e-02 2.36014827604363e-04
8.20875000000000e+00 1.84296349177155e-02 2.34843721520406e-04
8.23625000000000e+00 1.83074438990514e-02 2.33677115153490e-04
8.26375000000000e+00 1.81860630236760e-02 2.32515007910179e-04
8.29125000000000e+00 1.80654869202277e-02 2.31357398908346e-04
8.31875000000000e+00 1.79457102529578e-02 2.30204286982423e-04
8.34625000000000e+00 1.78267277214941e-02 2.29055670688674e-04
8.37375000000000e+00 1.77085340606070e-02 2.27911548310357e-04
8.40125000000000e+00 1.75911240399759e-02 2.26771917862778e-04
8.42875000000000e+00 1.74744924639578e-02 2.25636777098338e-04
8.45625000000000e+00 1.73586341713577e-02 2.24506123511371e-04
8.48375000000000e+00 1.72435440352000e-02 2.23379954343030e-04
8.51125000000000e+00 1.71292169625017e-02 2.22258266586054e-04
8.53875000000000e+00 1.70156478940469e-02 2.21141056989450e-04
8.56625000000000e+00 1.69028318041630e-02 2.20028322063138e-04
8.59375000000000e+00 1.67907637004984e-02 2.18920058082479e-04
8.62125000000000e+00 1.66794386238014e-02 2.17816261092745e-04
8.64875000000000e+00 1.65688516477008e-02 2.16716926913541e-04
8.67625000000000e+00 1.64589978784879e-02 2.15622051143150e-04
