Energy (eV)          EEDF (eV^-(3/2))     First Anisotropy
3.87000000000000e-03 9.48396329890338e-01 4.98073050635500e-04
1.16100000000000e-02 9.41866034283382e-01 8.22393325684239e-04
1.93500000000000e-02 9.35380703800973e-01 1.08547530772203e-03
2.70900000000000e-02 9.28940028831700e-01 1.28523304105931e-03
3.48300000000000e-02 9.22543701894972e-01 1.45174438337258e-03
4.25700000000000e-02 9.16191417627227e-01 1.59638148978008e-03
5.03100000000000e-02 9.09882872767473e-01 1.72502951144358e-03
5.80500000000000e-02 9.03617766142839e-01 1.84124234433884e-03
6.57900000000000e-02 8.97395798654209e-01 1.94737701001771e-03
7.35300000000000e-02 8.91216673261942e-01 2.04509941174856e-03
8.12700000000000e-02 8.85080094971699e-01 2.13564274353869e-03
8.90100000000000e-02 8.78985770820357e-01 2.21995268362340e-03
9.67500000000000e-02 8.72933409862025e-01 2.29877493320608e-03
1.04490000000000e-01 8.66922723154153e-01 2.37271095547149e-03
1.12230000000000e-01 8.60953423743739e-01 2.44225504954358e-03
1.19970000000000e-01 8.55025226653631e-01 2.50781990718439e-03
1.27710000000000e-01 8.49137848868919e-01 2.56975476427358e-03
1.35450000000000e-01 8.43291009323427e-01 2.62835862382758e-03
1.43190000000000e-01 8.37484428886292e-01 2.68389010112732e-03
1.50930000000000e-01 8.31717830348642e-01 2.73657489425960e-03
1.58670000000000e-01 8.25990938410357e-01 2.78661154806575e-03
1.66410000000000e-01 8.20303479666930e-01 2.83417596748140e-03
1.74150000000000e-01 8.14655182596413e-01 2.87942499845581e-03
1.81890000000000e-01 8.09045777546455e-01 2.92249930287390e-03
1.89630000000000e-01 8.03474996721428e-01 2.96352569145056e-03
1.97370000000000e-01 7.97942574169641e-01 3.00261903522781e-03
2.05110000000000e-01 7.92448245770647e-01 3.03988384570104e-03
2.12850000000000e-01 7.86991749222631e-01 3.07541559163784e-03
2.20590000000000e-01 7.81572824029889e-01 3.10930180466510e-03
2.28330000000000e-01 7.76191211490391e-01 3.14162301390455e-03
2.36070000000000e-01 7.70846654683428e-01 3.17245354112912e-03
2.43810000000000e-01 7.65538898457353e-01 3.20186218125914e-03
2.51550000000000e-01 7.60267689417392e-01 3.22991278793921e-03
2.59290000000000e-01 7.55032775913555e-01 3.25666478002660e-03
2.67030000000000e-01 7.49833908028615e-01 3.28217358177917e-03
2.74770000000000e-01 7.44670837566179e-01 3.30649100714469e-03
2.82510000000000e-01 7.39543318038844e-01 3.32966559667215e-03
2.90250000000000e-01 7.34451104656421e-01 3.35174291406286e-03
2.97990000000000e-01 7.29393954314254e-01 3.37276580817567e-03
3.05730000000000e-01 7.24371625581615e-01 3.39277464533480e-03
3.13470000000000e-01 7.19383878690173e-01 3.41180751599675e-03
3.21210000000000e-01 7.14430475522552e-01 3.42990041919135e-03
3.28950000000000e-01 7.09511179600962e-01 3.44708742762540e-03
3.36690000000000e-01 7.04625756075907e-01 3.46340083589983e-03
3.44430000000000e-01 6.99773971714977e-01 3.47887129393120e-03
3.52170000000000e-01 6.94955594891710e-01 3.49352792736606e-03
3.59910000000000e-01 6.90170395574537e-01 3.50739844652740e-03
3.67650000000000e-01 6.85418145315797e-01 3.52050924521860e-03
3.75390000000000e-01 6.80698617240835e-01 3.53288549053087e-03
3.83130000000000e-01 6.76011586037166e-01 3.54455120465179e-03
3.90870000000000e-01 6.71356827943721e-01 3.55552933954167e-03
3.98610000000000e-01 6.66734120740166e-01 3.56584184523433e-03
4.06350000000000e-01 6.62143243736291e-01 3.57550973242787e-03
4.14090000000000e-01 6.57583977761474e-01 3.58455312994645e-03
4.21830000000000e-01 6.53056105154218e-01 3.59299133758592e-03
4.29570000000000e-01 6.48559409751762e-01 3.60084287479938e-03
4.37310000000000e-01 6.44093676879758e-01 3.60812552561999e-03
4.45050000000000e-01 6.39658693342023e-01 3.61485638017842e-03
4.52790000000000e-01 6.35254247410363e-01 3.62105187313302e-03
4.60530000000000e-01 6.30880128814463e-01 3.62672781929131e-03
4.68270000000000e-01 6.26536128731849e-01 3.63189944667614e-03
4.76010000000000e-01 6.22222039777921e-01 3.63658142726276e-03
4.83750000000000e-01 6.17937655996046e-01 3.64078790558621e-03
4.91490000000000e-01 6.13682772847735e-01 3.64453252540206e-03
4.99230000000000e-01 6.09457187202870e-01 3.64782845456384e-03
5.06970000000000e-01 6.05260697330009e-01 3.65068840826272e-03
5.14710000000000e-01 6.01093102886758e-01 3.65312467076356e-03
5.22450000000000e-01 5.96954204910203e-01 3.65514911575709e-03
5.30190000000000e-01 5.92843805807413e-01 3.65677322543713e-03
5.37930000000000e-01 5.88761709346007e-01 3.65800810840143e-03
5.45670000000000e-01 5.84707720644785e-01 3.65886451646497e-03
5.53410000000000e-01 5.80681646164424e-01 3.65935286046937e-03
5.61150000000000e-01 5.76683293698241e-01 3.65948322516129e-03
5.68890000000000e-01 5.72712472363013e-01 3.65926538320782e-03
5.76630000000000e-01 5.68768992589867e-01 3.65870880841134e-03
5.84370000000000e-01 5.64852666115228e-01 3.65782268818061e-03
5.92110000000000e-01 5.60963305971834e-01 3.65661593530959e-03
5.99850000000000e-01 5.57100726479807e-01 3.65509719911230e-03
6.07590000000000e-01 5.53264743237791e-01 3.65327487595791e-03
6.15330000000000e-01 5.49455173114145e-01 3.65115711924407e-03
6.23070000000000e-01 5.45671834238206e-01 3.64875184884831e-03
6.30810000000000e-01 5.41914545991600e-01 3.64606676009100e-03
6.38550000000000e-01 5.38183128999624e-01 3.64310933224005e-03
6.46290000000000e-01 5.34477405122680e-01 3.63988683658750e-03
6.54030000000000e-01 5.30797197447773e-01 3.63640634412523e-03
6.61770000000000e-01 5.27142330280061e-01 3.63267473284407e-03
6.69510000000000e-01 5.23512629134472e-01 3.62869869467922e-03
6.77250000000000e-01 5.19907920727370e-01 3.62448474212442e-03
6.84990000000000e-01 5.16328032968286e-01 3.62003921453367e-03
6.92730000000000e-01 5.12772794951698e-01 3.61536828412828e-03
7.00470000000000e-01 5.09242036948875e-01 3.61047796172894e-03
7.08210000000000e-01 5.05735590399775e-01 3.60537410222650e-03
7.15950000000000e-01 5.02253287904994e-01 3.60006240980723e-03
7.23690000000000e-01 4.98794963217778e-01 3.59454844294538e-03
7.31430000000000e-01 4.95360451236083e-01 3.58883761917756e-03
7.39170000000000e-01 4.91949587994696e-01 3.58293521967024e-03
7.46910000000000e-01 4.88562210657407e-01 3.57684639359122e-03
7.54650000000000e-01 4.85198157509232e-01 3.57057616229648e-03
7.62390000000000e-01 4.81857267948697e-01 3.56412942334066e-03
7.70130000000000e-01 4.78539382480166e-01 3.55751095432271e-03
7.77870000000000e-01 4.75244342706231e-01 3.55072541657328e-03
7.85610000000000e-01 4.71971991320147e-01 3.54377735869338e-03
7.93350000000000e-01 4.68722172098324e-01 3.53667121995135e-03
8.01090000000000e-01 4.65494729892869e-01 3.52941133354476e-03
8.08830000000000e-01 4.62289510624175e-01 3.52200192973484e-03
8.16570000000000e-01 4.59106361273572e-01 3.51444713885942e-03
8.24310000000000e-01 4.55945129876017e-01 3.50675099423036e-03
8.32050000000000e-01 4.52805665512840e-01 3.49891743492087e-03
8.39790000000000e-01 4.49687818304540e-01 3.49095030844804e-03
8.47530000000000e-01 4.46591439403627e-01 3.48285337335554e-03
8.55270000000000e-01 4.43516380987521e-01 3.47463030170139e-03
8.63010000000000e-01 4.40462496251491e-01 3.46628468145545e-03
8.70750000000000e-01 4.37429639401646e-01 3.45782001881014e-03
8.78490000000000e-01 4.34417665647979e-01 3.44923974040803e-03
8.86230000000000e-01 4.31426431197449e-01 3.44054719549126e-03
8.93970000000000e-01 4.28455793247120e-01 3.43174565797552e-03
9.01710000000000e-01 4.25505609977344e-01 3.42283832845226e-03
9.09450000000000e-01 4.22575740544986e-01 3.41382833612157e-03
9.17190000000000e-01 4.19666045076707e-01 3.40471874065965e-03
9.24930000000000e-01 4.16776384662279e-01 3.39551253402364e-03
9.32670000000000e-01 4.13906621347959e-01 3.38621264219525e-03
9.40410000000000e-01 4.11056618129899e-01 3.37682192686652e-03
9.48150000000000e-01 4.08226238947611e-01 3.36734318707158e-03
9.55890000000000e-01 4.05415348677462e-01 3.35777916076475e-03
9.63630000000000e-01 4.02623813126234e-01 3.34813252634658e-03
9.71370000000000e-01 3.99851499024710e-01 3.33840590414291e-03
9.79110000000000e-01 3.97098274021314e-01 3.32860185783640e-03
9.86850000000000e-01 3.94364006675793e-01 3.31872289585243e-03
9.94590000000000e-01 3.91648566452942e-01 3.30877147270280e-03
1.00233000000000e+00 3.88951823716369e-01 3.29874999028732e-03
1.01007000000000e+00 3.86273649722313e-01 3.28866079915603e-03
1.01781000000000e+00 3.83613916613490e-01 3.27850619973284e-03
1.02555000000000e+00 3.80972497412994e-01 3.26828844350243e-03
1.03329000000000e+00 3.78349266018233e-01 3.25800973416157e-03
1.04103000000000e+00 3.75744097194910e-01 3.24767222873610e-03
1.04877000000000e+00 3.73156866571043e-01 3.23727803866604e-03
1.05651000000000e+00 3.70587450631030e-01 3.22682923085834e-03
1.06425000000000e+00 3.68035726709746e-01 3.21632782870855e-03
1.07199000000000e+00 3.65501572986696e-01 3.20577581309459e-03
1.07973000000000e+00 3.62984868480192e-01 3.19517512334172e-03
1.08747000000000e+00 3.60485493041580e-01 3.18452765815927e-03
1.09521000000000e+00 3.58003327349505e-01 3.17383527655248e-03
1.10295000000000e+00 3.55538252904211e-01 3.16309979870817e-03
1.11069000000000e+00 3.53090152021889e-01 3.15232300685596e-03
1.11843000000000e+00 3.50658907829055e-01 3.14150664610666e-03
1.12617000000000e+00 3.48244404256969e-01 3.13065242526657e-03
1.13391000000000e+00 3.45846526036099e-01 3.11976201763065e-03
1.14165000000000e+00 3.43465158690613e-01 3.10883706175452e-03
1.14939000000000e+00 3.41100188532919e-01 3.09787916220470e-03
1.15713000000000e+00 3.38751502658230e-01 3.08688989029040e-03
1.16487000000000e+00 3.36418988939181e-01 3.07587078477593e-03
1.17261000000000e+00 3.34102536020474e-01 3.06482335257334e-03
1.18035000000000e+00 3.31802033313560e-01 3.05374906941813e-03
1.18809000000000e+00 3.29517370991360e-01 3.04264938052777e-03
1.19583000000000e+00 3.27248439983023e-01 3.03152570124231e-03
1.20357000000000e+00 3.24995131968718e-01 3.02037941764950e-03
1.21131000000000e+00 3.22757339374464e-01 3.00921188719430e-03
1.21905000000000e+00 3.20534955366994e-01 2.99802443927251e-03
1.22679000000000e+00 3.18327873848651e-01 2.98681837580990e-03
1.23453000000000e+00 3.16135989452328e-01 2.97559497182684e-03
1.24227000000000e+00 3.13959197536437e-01 2.96435547598953e-03
1.25001000000000e+00 3.11797394179910e-01 2.95310111114716e-03
1.25775000000000e+00 3.09650476177241e-01 2.94183307485648e-03
1.26549000000000e+00 3.07518341033558e-01 2.93055253989343e-03
1.27323000000000e+00 3.05400886959728e-01 2.91926065475228e-03
1.28097000000000e+00 3.03298012867501e-01 2.90795854413372e-03
1.28871000000000e+00 3.01209618364681e-01 2.89664730942024e-03
1.29645000000000e+00 2.99135603750335e-01 2.88532802914112e-03
1.30419000000000e+00 2.97075870010033e-01 2.87400175942644e-03
1.31193000000000e+00 2.95030318811119e-01 2.86266953445014e-03
1.31967000000000e+00 2.92998852498019e-01 2.85133236686295e-03
1.32741000000000e+00 2.90981374087580e-01 2.83999124821540e-03
1.33515000000000e+00 2.88977787264434e-01 2.82864714937121e-03
1.34289000000000e+00 2.86987996376408e-01 2.81730102091158e-03
1.35063000000000e+00 2.85011906429952e-01 2.80595379352947e-03
1.35837000000000e+00 2.83049423085603e-01 2.79460637841565e-03
1.36611000000000e+00 2.81100452653487e-01 2.78325966763587e-03
1.37385000000000e+00 2.79164902088841e-01 2.77191453449936e-03
1.38159000000000e+00 2.77242678987573e-01 2.76057183392016e-03
1.38933000000000e+00 2.75333691581851e-01 2.74923240276922e-03
1.39707000000000e+00 2.73437848735720e-01 2.73789706021959e-03
1.40481000000000e+00 2.71555059940754e-01 2.72656660808370e-03
1.41255000000000e+00 2.69685235311731e-01 2.71524183114348e-03
1.42029000000000e+00 2.67828285582349e-01 2.70392349747321e-03
1.42803000000000e+00 2.65984122100954e-01 2.69261235875534e-03
1.43577000000000e+00 2.64152656826318e-01 2.68130915059023e-03
1.44351000000000e+00 2.62333802323429e-01 2.67001459279831e-03
1.45125000000000e+00 2.60527471759320e-01 2.65872938971658e-03
1.45899000000000e+00 2.58733578898923e-01 2.64745423048823e-03
1.46673000000000e+00 2.56952038100951e-01 2.63618978934671e-03
1.47447000000000e+00 2.55182764313810e-01 2.62493672589378e-03
1.48221000000000e+00 2.53425673071541e-01 2.61369568537140e-03
1.48995000000000e+00 2.51680680489782e-01 2.60246729892860e-03
1.49769000000000e+00 2.49947703261770e-01 2.59125218388194e-03
1.50543000000000e+00 2.48226658654358e-01 2.58005094397160e-03
1.51317000000000e+00 2.46517464504071e-01 2.56886416961179e-03
1.52091000000000e+00 2.44820039213176e-01 2.55769243813575e-03
1.52865000000000e+00 2.43134301745796e-01 2.54653631403651e-03
1.53639000000000e+00 2.41460171624031e-01 2.53539634920207e-03
1.54413000000000e+00 2.39797568924126e-01 2.52427308314628e-03
1.55187000000000e+00 2.38146414272647e-01 2.51316704323518e-03
1.55961000000000e+00 2.36506628842696e-01 2.50207874490827e-03
1.56735000000000e+00 2.34878134350148e-01 2.49100869189584e-03
1.57509000000000e+00 2.33260853049912e-01 2.47995737643214e-03
1.58283000000000e+00 2.31654707732220e-01 2.46892527946411e-03
1.59057000000000e+00 2.30059621718941e-01 2.45791287085580e-03
1.59831000000000e+00 2.28475518859920e-01 2.44692060958914e-03
1.60605000000000e+00 2.26902323529345e-01 2.43594894396072e-03
1.61379000000000e+00 2.25339960622132e-01 2.42499831177458e-03
1.62153000000000e+00 2.23788355550342e-01 2.41406914053159e-03
1.62927000000000e+00 2.22247434239623e-01 2.40316184761489e-03
1.63701000000000e+00 2.20717123125667e-01 2.39227684047206e-03
1.64475000000000e+00 2.19197349150705e-01 2.38141451679346e-03
1.65249000000000e+00 2.17688039760013e-01 2.37057526468698e-03
1.66023000000000e+00 2.16189122898454e-01 2.35975946285061e-03
1.66797000000000e+00 2.14700527007034e-01 2.34896748074071e-03
1.67571000000000e+00 2.13222181019486e-01 2.33819967873714e-03
1.68345000000000e+00 2.11754014358879e-01 2.32745640830568e-03
1.69119000000000e+00 2.10295956934249e-01 2.31673801215729e-03
1.69893000000000e+00 2.08847939137249e-01 2.30604482440430e-03
1.70667000000000e+00 2.07409891838832e-01 2.29537717071356e-03
1.71441000000000e+00 2.05981746385944e-01 2.28473536845719e-03
1.72215000000000e+00 2.04563434598252e-01 2.27411972686048e-03
1.72989000000000e+00 2.03154888764885e-01 2.26353054714651e-03
1.73763000000000e+00 2.01756041641206e-01 2.25296812267870e-03
1.74537000000000e+00 2.00366826445595e-01 2.24243273910045e-03
1.75311000000000e+00 1.98987176856268e-01 2.23192467447215e-03
1.76085000000000e+00 1.97617027008106e-01 2.22144419940635e-03
1.76859000000000e+00 1.96256311489514e-01 2.21099157719962e-03
1.77633000000000e+00 1.94904965339292e-01 2.20056706396236e-03
1.78407000000000e+00 1.93562924043544e-01 2.19017090874651e-03
1.79181000000000e+00 1.92230123532586e-01 2.17980335367041e-03
1.79955000000000e+00 1.90906500177899e-01 2.16946463404217e-03
1.80729000000000e+00 1.89591990789081e-01 2.15915497848029e-03
1.81503000000000e+00 1.88286532610839e-01 2.14887460903214e-03
1.82277000000000e+00 1.86990063319986e-01 2.13862374129076e-03
1.83051000000000e+00 1.85702521022471e-01 2.12840258450897e-03
1.83825000000000e+00 1.84423844250419e-01 2.11821134171157e-03
1.84599000000000e+00 1.83153971959203e-01 2.10805020980638e-03
1.85373000000000e+00 1.81892843524523e-01 2.09791937969237e-03
1.86147000000000e+00 1.80640398739516e-01 2.08781903636609e-03
1.86921000000000e+00 1.79396577811881e-01 2.07774935902661e-03
1.87695000000000e+00 1.78161321361023e-01 2.06771052117825e-03
1.88469000000000e+00 1.76934570415219e-01 2.05770269073167e-03
1.89243000000000e+00 1.75716266408805e-01 2.04772603010318e-03
1.90017000000000e+00 1.74506351179376e-01 2.03778069631244e-03
1.90791000000000e+00 1.73304766965010e-01 2.02786684107818e-03
1.91565000000000e+00 1.72111456401514e-01 2.01798461091254e-03
1.92339000000000e+00 1.70926362519681e-01 2.00813414721364e-03
1.93113000000000e+00 1.69749428742574e-01 1.99831558635660e-03
1.93887000000000e+00 1.68580598882823e-01 1.98852905978299e-03
1.94661000000000e+00 1.67419817139941e-01 1.97877469408877e-03
1.95435000000000e+00 1.66267028097664e-01 1.96905261111095e-03
1.96209000000000e+00 1.65122176721301e-01 1.95936292801203e-03
1.96983000000000e+00 1.63985208355112e-01 1.94970575736381e-03
1.97757000000000e+00 1.62856068719693e-01 1.94008120722949e-03
1.98531000000000e+00 1.61734703909388e-01 1.93048938124428e-03
1.99305000000000e+00 1.60621060389714e-01 1.92093037869470e-03
2.00079000000000e+00 1.59515084994810e-01 1.91140429459656e-03
2.00853000000000e+00 1.58416724924889e-01 1.90191121977187e-03
2.01627000000000e+00 1.57325927743727e-01 1.89245124092391e-03
2.02401000000000e+00 1.56242641376155e-01 1.88302444071122e-03
2.03175000000000e+00 1.55166814105573e-01 1.87363089782085e-03
2.03949000000000e+00 1.54098394571484e-01 1.86427068703987e-03
2.04723000000000e+00 1.53037331767037e-01 1.85494387932559e-03
2.05497000000000e+00 1.51983575036596e-01 1.84565054187507e-03
2.06271000000000e+00 1.50937074073321e-01 1.83639073819319e-03
2.07045000000000e+00 1.49897778916764e-01 1.82716452815961e-03
2.07819000000000e+00 1.48865639950488e-01 1.81797196809469e-03
2.08593000000000e+00 1.47840607899694e-01 1.80881311082404e-03
2.09367000000000e+00 1.46822633828871e-01 1.79968800574236e-03
2.10141000000000e+00 1.45811669139460e-01 1.79059669887627e-03
2.10915000000000e+00 1.44807665567531e-01 1.78153923294584e-03
2.11689000000000e+00 1.43810575181484e-01 1.77251564742481e-03
2.12463000000000e+00 1.42820350379756e-01 1.76352597860056e-03
2.13237000000000e+00 1.41836943888550e-01 1.75457025963281e-03
2.14011000000000e+00 1.40860308759578e-01 1.74564852061095e-03
2.14785000000000e+00 1.39890398367823e-01 1.73676078861096e-03
2.15559000000000e+00 1.38927166409306e-01 1.72790708775114e-03
2.16333000000000e+00 1.37970566898883e-01 1.71908743924693e-03
2.17107000000000e+00 1.37020554168043e-01 1.71030186146492e-03
2.17881000000000e+00 1.36077082862734e-01 1.70155036997591e-03
2.18655000000000e+00 1.35140107941192e-01 1.69283297760725e-03
2.19429000000000e+00 1.34209584671796e-01 1.68414969449406e-03
2.20203000000000e+00 1.33285468630928e-01 1.67550052812979e-03
2.20977000000000e+00 1.32367715700855e-01 1.66688548341594e-03
2.21751000000000e+00 1.31456282067621e-01 1.65830456271090e-03
2.22525000000000e+00 1.30551124218957e-01 1.64975776587837e-03
2.23299000000000e+00 1.29652198942203e-01 1.64124509033432e-03
2.24073000000000e+00 1.28759463322245e-01 1.63276653109362e-03
2.24847000000000e+00 1.27872874739465e-01 1.62432208081605e-03
2.25621000000000e+00 1.26992390867709e-01 1.61591172985118e-03
2.26395000000000e+00 1.26117969672262e-01 1.60753546628280e-03
2.27169000000000e+00 1.25249569407849e-01 1.59919327597249e-03
2.27943000000000e+00 1.24387148616631e-01 1.59088514260263e-03
2.28717000000000e+00 1.23530666126237e-01 1.58261104771857e-03
2.29491000000000e+00 1.22680081047790e-01 1.57437097077005e-03
2.30265000000000e+00 1.21835352773960e-01 1.56616488915230e-03
2.31039000000000e+00 1.20996440977022e-01 1.55799277824624e-03
2.31813000000000e+00 1.20163305606935e-01 1.54985461145792e-03
2.32587000000000e+00 1.19335906889424e-01 1.54175036025760e-03
2.33361000000000e+00 1.18514205324087e-01 1.53367999421793e-03
2.34135000000000e+00 1.17698161682505e-01 1.52564348105181e-03
2.34909000000000e+00 1.16887737006373e-01 1.51764078664929e-03
2.35683000000000e+00 1.16082892605636e-01 1.50967187511430e-03
2.36457000000000e+00 1.15283590056644e-01 1.50173670880043e-03
2.37231000000000e+00 1.14489791200320e-01 1.49383524834620e-03
2.38005000000000e+00 1.13701458140334e-01 1.48596745270997e-03
2.38779000000000e+00 1.12918553241294e-01 1.47813327920413e-03
2.39553000000000e+00 1.12141039126955e-01 1.47033268352882e-03
2.40327000000000e+00 1.11368878678428e-01 1.46256561980489e-03
2.41101000000000e+00 1.10602035032410e-01 1.45483204060668e-03
2.41875000000000e+00 1.09840471579427e-01 1.44713189699407e-03
2.42649000000000e+00 1.09084151962081e-01 1.43946513854402e-03
2.43423000000000e+00 1.08333040073320e-01 1.43183171338157e-03
2.44197000000000e+00 1.07587100054710e-01 1.42423156821062e-03
