Energy (eV)          EEDF (eV^-(3/2))     First Anisotropy
6.45000000000000e-03 1.72801038706486e+00 1.41772436851019e-03
1.93500000000000e-02 1.69847568416555e+00 2.32888871609899e-03
3.22500000000000e-02 1.66944578070606e+00 3.04230549819154e-03
4.51500000000000e-02 1.64091204878598e+00 3.56515544050972e-03
5.80500000000000e-02 1.61286600797076e+00 3.98566191239427e-03
7.09500000000000e-02 1.58529932277122e+00 4.33771185743212e-03
8.38500000000000e-02 1.55820380016617e+00 4.63910561226306e-03
9.67500000000000e-02 1.53157138716742e+00 4.90074830765812e-03
1.09650000000000e-01 1.50539416842636e+00 5.12997439282841e-03
1.22550000000000e-01 1.47966436388143e+00 5.33203874630241e-03
1.35450000000000e-01 1.45437432644588e+00 5.51088300853418e-03
1.48350000000000e-01 1.42951653973496e+00 5.66956866040343e-03
1.61250000000000e-01 1.40508361583200e+00 5.81053963709142e-03
1.74150000000000e-01 1.38106829309269e+00 5.93579050892098e-03
1.87050000000000e-01 1.35746343398684e+00 6.04697899321955e-03
1.99950000000000e-01 1.33426202297708e+00 6.14550396717246e-03
2.12850000000000e-01 1.31145716443375e+00 6.23256120323317e-03
2.25750000000000e-01 1.28904208058551e+00 6.30918421400465e-03
2.38650000000000e-01 1.26701010950493e+00 6.37627484717311e-03
2.51550000000000e-01 1.24535470312848e+00 6.43462664358270e-03
2.64450000000000e-01 1.22406942531045e+00 6.48494297146922e-03
2.77350000000000e-01 1.20314794991004e+00 6.52785131571518e-03
2.90250000000000e-01 1.18258405891120e+00 6.56391468763512e-03
3.03150000000000e-01 1.16237164057459e+00 6.59364084472728e-03
3.16050000000000e-01 1.14250468762112e+00 6.61748982140273e-03
3.28950000000000e-01 1.12297729544656e+00 6.63588014056955e-03
3.41850000000000e-01 1.10378366036663e+00 6.64919398307727e-03
3.54750000000000e-01 1.08491807789211e+00 6.65778152519316e-03
3.67650000000000e-01 1.06637494103341e+00 6.66196460548500e-03
3.80550000000000e-01 1.04814873863415e+00 6.66203984637875e-03
3.93450000000000e-01 1.03023405373322e+00 6.65828132862142e-03
4.06350000000000e-01 1.01262556195475e+00 6.65094289639375e-03
4.19250000000000e-01 9.95318029925765e-01 6.64026015514219e-03
4.32150000000000e-01 9.78306313720698e-01 6.62645221208291e-03
4.45050000000000e-01 9.61585357332636e-01 6.60972319988296e-03
4.57950000000000e-01 9.45150191170610e-01 6.59026361659441e-03
4.70850000000000e-01 9.28995930582607e-01 6.56825150902790e-03
4.83750000000000e-01 9.13117774403811e-01 6.54385352205038e-03
4.96650000000000e-01 8.97511003529664e-01 6.51722583251169e-03
5.09550000000000e-01 8.82170979513310e-01 6.48851498344560e-03
5.22450000000000e-01 8.67093143187021e-01 6.45785863169896e-03
5.35350000000000e-01 8.52273013307171e-01 6.42538622010398e-03
5.48250000000000e-01 8.37706185222384e-01 6.39121958362746e-03
5.61150000000000e-01 8.23388329564435e-01 6.35547349754095e-03
5.74050000000000e-01 8.09315190961532e-01 6.31825617449793e-03
5.86950000000000e-01 7.95482586773590e-01 6.27966971643862e-03
5.99850000000000e-01 7.81886405849114e-01 6.23981052642926e-03
6.12750000000000e-01 7.68522607303340e-01 6.19876968485983e-03
6.25650000000000e-01 7.55387219317254e-01 6.15663329384419e-03
6.38550000000000e-01 7.42476337957135e-01 6.11348279317293e-03
6.51450000000000e-01 7.29786126014280e-01 6.06939525075090e-03
6.64350000000000e-01 7.17312811864555e-01 6.02444363009105e-03
6.77250000000000e-01 7.05052688347444e-01 5.97869703712655e-03
6.90150000000000e-01 6.93002111664251e-01 5.93222094833733e-03
7.03050000000000e-01 6.81157500295137e-01 5.88507742195682e-03
7.15950000000000e-01 6.69515333934666e-01 5.83732529382662e-03
7.28850000000000e-01 6.58072152445544e-01 5.78902035929027e-03
7.41750000000000e-01 6.46824554830243e-01 5.74021554236764e-03
7.54650000000000e-01 6.35769198220196e-01 5.69096105331999e-03
7.67550000000000e-01 6.24902796882274e-01 5.64130453559761e-03
7.80450000000000e-01 6.14222121242243e-01 5.59129120306058e-03
7.93350000000000e-01 6.03723996924908e-01 5.54096396827489e-03
8.06250000000000e-01 5.93405303810669e-01 5.49036356260468e-03
8.19150000000000e-01 5.83262975108194e-01 5.43952864875136e-03
8.32050000000000e-01 5.73293996442951e-01 5.38849592633032e-03
8.44950000000000e-01 5.63495404961310e-01 5.33730023101724e-03
8.57850000000000e-01 5.53864288449963e-01 5.28597462774908e-03
8.70750000000000e-01 5.44397784470393e-01 5.23455049842050e-03
8.83650000000000e-01 5.35093079508134e-01 5.18305762447563e-03
8.96550000000000e-01 5.25947408136577e-01 5.13152426476112e-03
9.09450000000000e-01 5.16958052195064e-01 5.07997722897558e-03
9.22350000000000e-01 5.08122339981028e-01 5.02844194701951e-03
9.35250000000000e-01 4.99437645455947e-01 4.97694253452629e-03
9.48150000000000e-01 4.90901387464865e-01 4.92550185483151e-03
9.61050000000000e-01 4.82511028969252e-01 4.87414157761595e-03
9.73950000000000e-01 4.74264076292979e-01 4.82288223443955e-03
9.86850000000000e-01 4.66158078381182e-01 4.77174327136608e-03
9.99750000000000e-01 4.58190626071782e-01 4.72074309886357e-03
1.01265000000000e+00 4.50359351379476e-01 4.66989913915018e-03
1.02555000000000e+00 4.42661926791943e-01 4.61922787114305e-03
1.03845000000000e+00 4.35096064578101e-01 4.56874487315625e-03
1.05135000000000e+00 4.27659516108166e-01 4.51846486348219e-03
1.06425000000000e+00 4.20350071185350e-01 4.46840173898220e-03
1.07715000000000e+00 4.13165557388974e-01 4.41856861180264e-03
1.09005000000000e+00 4.06103839428803e-01 4.36897784432455e-03
1.10295000000000e+00 3.99162818510429e-01 4.31964108244753e-03
1.11585000000000e+00 3.92340431711488e-01 4.27056928730107e-03
1.12875000000000e+00 3.85634651368550e-01 4.22177276547175e-03
1.14165000000000e+00 3.79043484474477e-01 4.17326119782677e-03
1.15455000000000e+00 3.72564972086090e-01 4.12504366701091e-03
1.16745000000000e+00 3.66197188741957e-01 4.07712868368746e-03
1.18035000000000e+00 3.59938241890130e-01 4.02952421159000e-03
1.19325000000000e+00 3.53786271325665e-01 3.98223769144763e-03
1.20615000000000e+00 3.47739448637756e-01 3.93527606384182e-03
1.21905000000000e+00 3.41795976666317e-01 3.88864579104992e-03
1.23195000000000e+00 3.35954088967856e-01 3.84235287792683e-03
1.24485000000000e+00 3.30212049290469e-01 3.79640289187330e-03
1.25775000000000e+00 3.24568151057819e-01 3.75080098193620e-03
1.27065000000000e+00 3.19020716861927e-01 3.70555189708369e-03
1.28355000000000e+00 3.13568097964632e-01 3.66066000369541e-03
1.29645000000000e+00 3.08208673807577e-01 3.61612930230611e-03
1.30935000000000e+00 3.02940851530566e-01 3.57196344363801e-03
1.32225000000000e+00 2.97763065498153e-01 3.52816574395573e-03
1.33515000000000e+00 2.92673776834325e-01 3.48473919977624e-03
1.34805000000000e+00 2.87671472965137e-01 3.44168650196345e-03
1.36095000000000e+00 2.82754667169164e-01 3.39901004923567e-03
1.37385000000000e+00 2.77921898135634e-01 3.35671196111375e-03
1.38675000000000e+00 2.73171729530119e-01 3.31479409033446e-03
1.39965000000000e+00 2.68502749567645e-01 3.27325803475378e-03
1.41255000000000e+00 2.63913570593097e-01 3.23210514876312e-03
1.42545000000000e+00 2.59402828668800e-01 3.19133655423920e-03
1.43835000000000e+00 2.54969183169146e-01 3.15095315104936e-03
1.45125000000000e+00 2.50611316382152e-01 3.11095562713110e-03
1.46415000000000e+00 2.46327933117821e-01 3.07134446816431e-03
1.47705000000000e+00 2.42117760323209e-01 3.03211996685433e-03
1.48995000000000e+00 2.37979546704059e-01 2.99328223184203e-03
1.50285000000000e+00 2.33912062352910e-01 2.95483119625692e-03
1.51575000000000e+00 2.29914098383559e-01 2.91676662592837e-03
1.52865000000000e+00 2.25984466571769e-01 2.87908812726977e-03
1.54155000000000e+00 2.22121999002124e-01 2.84179515484876e-03
1.55445000000000e+00 2.18325547720911e-01 2.80488701865659e-03
1.56735000000000e+00 2.14593984394945e-01 2.76836289108963e-03
1.58025000000000e+00 2.10926199976217e-01 2.73222181365425e-03
1.59315000000000e+00 2.07321104372277e-01 2.69646270340675e-03
1.60605000000000e+00 2.03777626122250e-01 2.66108435913865e-03
1.61895000000000e+00 2.00294712078392e-01 2.62608546731827e-03
1.63185000000000e+00 1.96871327093085e-01 2.59146460779795e-03
1.64475000000000e+00 1.93506453711186e-01 2.55722025929641e-03
1.65765000000000e+00 1.90199091867626e-01 2.52335080466539e-03
1.67055000000000e+00 1.86948258590192e-01 2.48985453594874e-03
1.68345000000000e+00 1.83752987707372e-01 2.45672965924242e-03
1.69635000000000e+00 1.80612329561208e-01 2.42397429936328e-03
1.70925000000000e+00 1.77525350725046e-01 2.39158650433388e-03
1.72215000000000e+00 1.74491133726119e-01 2.35956424969082e-03
1.73505000000000e+00 1.71508776772865e-01 2.32790544262319e-03
1.74795000000000e+00 1.68577393486906e-01 2.29660792594768e-03
1.76085000000000e+00 1.65696112639615e-01 2.26566948192684e-03
1.77375000000000e+00 1.62864077893175e-01 2.23508783593628e-03
1.78665000000000e+00 1.60080447546074e-01 2.20486065998688e-03
1.79955000000000e+00 1.57344394282940e-01 2.17498557610747e-03
1.81245000000000e+00 1.54655104928663e-01 2.14546015959297e-03
1.82535000000000e+00 1.52011780206707e-01 2.11628194212321e-03
1.83825000000000e+00 1.49413634501564e-01 2.08744841475768e-03
1.85115000000000e+00 1.46859895625260e-01 2.05895703081064e-03
1.86405000000000e+00 1.44349804587856e-01 2.03080520861074e-03
1.87695000000000e+00 1.41882615371874e-01 2.00299033414999e-03
1.88985000000000e+00 1.39457594710570e-01 1.97550976362612e-03
1.90275000000000e+00 1.37074021870003e-01 1.94836082588202e-03
1.91565000000000e+00 1.34731188434831e-01 1.92154082474642e-03
1.92855000000000e+00 1.32428398097761e-01 1.89504704127910e-03
1.94145000000000e+00 1.30164966452603e-01 1.86887673592469e-03
1.95435000000000e+00 1.27940220790858e-01 1.84302715057802e-03
1.96725000000000e+00 1.25753499901787e-01 1.81749551056433e-03
1.98015000000000e+00 1.23604153875892e-01 1.79227902653761e-03
1.99305000000000e+00 1.21491543911757e-01 1.76737489630018e-03
2.00595000000000e+00 1.19415042126196e-01 1.74278030654598e-03
2.01885000000000e+00 1.17374031367637e-01 1.71849243453088e-03
2.03175000000000e+00 1.15367905032700e-01 1.69450844967237e-03
2.04465000000000e+00 1.13396066885917e-01 1.67082551508125e-03
2.05755000000000e+00 1.11457930882515e-01 1.64744078902801e-03
2.07045000000000e+00 1.09552920994250e-01 1.62435142634590e-03
2.08335000000000e+00 1.07680471038200e-01 1.60155457977342e-03
2.09625000000000e+00 1.05840024508495e-01 1.57904740123823e-03
2.10915000000000e+00 1.04031034410918e-01 1.55682704308455e-03
2.12205000000000e+00 1.02252963100334e-01 1.53489065924635e-03
2.13495000000000e+00 1.00505282120899e-01 1.51323540636803e-03
2.14785000000000e+00 9.87874720489978e-02 1.49185844487471e-03
2.16075000000000e+00 9.70990223388697e-02 1.47075693999388e-03
2.17365000000000e+00 9.54394311708674e-02 1.44992806273027e-03
2.18655000000000e+00 9.38082053023149e-02 1.42936899079554e-03
2.19945000000000e+00 9.22048599209109e-02 1.40907690949429e-03
2.21235000000000e+00 9.06289185006400e-02 1.38904901256838e-03
2.22525000000000e+00 8.90799126601450e-02 1.36928250300096e-03
2.23815000000000e+00 8.75573820235207e-02 1.34977459378139e-03
2.25105000000000e+00 8.60608740834869e-02 1.33052250863280e-03
2.26395000000000e+00 8.45899440668997e-02 1.31152348270346e-03
2.27685000000000e+00 8.31441548025618e-02 1.29277476322343e-03
2.28975000000000e+00 8.17230765912922e-02 1.27427361012782e-03
2.30265000000000e+00 8.03262870782160e-02 1.25601729664760e-03
2.31555000000000e+00 7.89533711272378e-02 1.23800310986940e-03
2.32845000000000e+00 7.76039206976600e-02 1.22022835126543e-03
2.34135000000000e+00 7.62775347229103e-02 1.20269033719450e-03
2.35425000000000e+00 7.49738189913415e-02 1.18538639937531e-03
2.36715000000000e+00 7.36923860290693e-02 1.16831388533312e-03
2.38005000000000e+00 7.24328549848118e-02 1.15147015882038e-03
2.39295000000000e+00 7.11948515166979e-02 1.13485260021297e-03
2.40585000000000e+00 6.99780076810103e-02 1.11845860688232e-03
2.41875000000000e+00 6.87819618228296e-02 1.10228559354469e-03
2.43165000000000e+00 6.76063584685480e-02 1.08633099258830e-03
2.44455000000000e+00 6.64508482202199e-02 1.07059225437930e-03
2.45745000000000e+00 6.53150876517184e-02 1.05506684754712e-03
2.47035000000000e+00 6.41987392066662e-02 1.03975225925024e-03
2.48325000000000e+00 6.31014710981117e-02 1.02464599542315e-03
2.49615000000000e+00 6.20229572099192e-02 1.00974558100478e-03
2.50905000000000e+00 6.09628769998453e-02 9.95048560149732e-04
2.52195000000000e+00 5.99209154042706e-02 9.80552496422595e-04
2.53485000000000e+00 5.88967627445612e-02 9.66254972975910e-04
2.54775000000000e+00 5.78901146350295e-02 9.52153592712787e-04
2.56065000000000e+00 5.69006718924689e-02 9.38245978434489e-04
2.57355000000000e+00 5.59281404472338e-02 9.24529772973649e-04
2.58645000000000e+00 5.49722312558407e-02 9.11002639313677e-04
2.59935000000000e+00 5.40326602150615e-02 8.97662260694937e-04
2.61225000000000e+00 5.31091480774868e-02 8.84506340708183e-04
2.62515000000000e+00 5.22014203685309e-02 8.71532603375861e-04
2.63805000000000e+00 5.13092073048562e-02 8.58738793221597e-04
2.65095000000000e+00 5.04322437141914e-02 8.46122675328413e-04
2.66385000000000e+00 4.95702689565207e-02 8.33682035386276e-04
2.67675000000000e+00 4.87230268466195e-02 8.21414679729192e-04
2.68965000000000e+00 4.78902655779140e-02 8.09318435362428e-04
2.70255000000000e+00 4.70717376476429e-02 7.97391149980234e-04
2.71545000000000e+00 4.62671997832975e-02 7.85630691974438e-04
2.72835000000000e+00 4.54764128703194e-02 7.74034950434339e-04
2.74125000000000e+00 4.46991418810337e-02 7.62601835138246e-04
2.75415000000000e+00 4.39351558047976e-02 7.51329276537004e-04
2.76705000000000e+00 4.31842275793416e-02 7.40215225729900e-04
2.77995000000000e+00 4.24461340232855e-02 7.29257654433316e-04
2.79285000000000e+00 4.17206557698069e-02 7.18454554942277e-04
2.80575000000000e+00 4.10075772014441e-02 7.07803940085346e-04
2.81865000000000e+00 4.03066863860127e-02 6.97303843173261e-04
2.83155000000000e+00 3.96177750136179e-02 6.86952317941399e-04
2.84445000000000e+00 3.89406383347434e-02 6.76747438486412e-04
2.85735000000000e+00 3.82750750993983e-02 6.66687299197427e-04
2.87025000000000e+00 3.76208874973039e-02 6.56770014681878e-04
2.88315000000000e+00 3.69778810991031e-02 6.46993719686330e-04
2.89605000000000e+00 3.63458647985750e-02 6.37356569012630e-04
2.90895000000000e+00 3.57246507558362e-02 6.27856737429413e-04
2.92185000000000e+00 3.51140543415136e-02 6.18492419579348e-04
2.93475000000000e+00 3.45138940818712e-02 6.09261829882238e-04
2.94765000000000e+00 3.39239916048747e-02 6.00163202434274e-04
2.96055000000000e+00 3.33441715871783e-02 5.91194790903635e-04
2.97345000000000e+00 3.27742617020170e-02 5.82354868422516e-04
2.98635000000000e+00 3.22140925679897e-02 5.73641727475946e-04
2.99925000000000e+00 3.16634976987185e-02 5.65053679787479e-04
3.01215000000000e+00 3.11223134533668e-02 5.56589056201892e-04
3.02505000000000e+00 3.05903789880048e-02 5.48246206565176e-04
3.03795000000000e+00 3.00675362078051e-02 5.40023499601890e-04
3.05085000000000e+00 2.95536297200558e-02 5.31919322790077e-04
3.06375000000000e+00 2.90485067879768e-02 5.23932082233897e-04
3.07665000000000e+00 2.85520172853253e-02 5.16060202534097e-04
3.08955000000000e+00 2.80640136517769e-02 5.08302126656480e-04
3.10245000000000e+00 2.75843508490698e-02 5.00656315798485e-04
3.11535000000000e+00 2.71128863178985e-02 4.93121249254044e-04
3.12825000000000e+00 2.66494799355439e-02 4.85695424276842e-04
3.14115000000000e+00 2.61939939742278e-02 4.78377355942060e-04
3.15405000000000e+00 2.57462930601793e-02 4.71165577006721e-04
3.16695000000000e+00 2.53062441334007e-02 4.64058637768811e-04
3.17985000000000e+00 2.48737164081212e-02 4.57055105925237e-04
3.19275000000000e+00 2.44485813339261e-02 4.50153566428712e-04
3.20565000000000e+00 2.40307125575510e-02 4.43352621343701e-04
3.21855000000000e+00 2.36199858853284e-02 4.36650889701526e-04
3.23145000000000e+00 2.32162792462768e-02 4.30047007354680e-04
3.24435000000000e+00 2.28194726558198e-02 4.23539626830482e-04
3.25725000000000e+00 2.24294481801264e-02 4.17127417184152e-04
3.27015000000000e+00 2.20460899010596e-02 4.10809063851374e-04
3.28305000000000e+00 2.16692838817251e-02 4.04583268500424e-04
3.29595000000000e+00 2.12989181326084e-02 3.98448748883962e-04
3.30885000000000e+00 2.09348825782903e-02 3.92404238690509e-04
3.32175000000000e+00 2.05770690247322e-02 3.86448487395763e-04
3.33465000000000e+00 2.02253711271196e-02 3.80580260113787e-04
3.34755000000000e+00 1.98796843582561e-02 3.74798337448042e-04
3.36045000000000e+00 1.95399059774966e-02 3.69101515342468e-04
3.37335000000000e+00 1.92059350002125e-02 3.63488604932600e-04
3.38625000000000e+00 1.88776721677780e-02 3.57958432396758e-04
3.39915000000000e+00 1.85550199180700e-02 3.52509838807440e-04
3.41205000000000e+00 1.82378823564717e-02 3.47141679982878e-04
3.42495000000000e+00 1.79261652273719e-02 3.41852826338865e-04
3.43785000000000e+00 1.76197758861521e-02 3.36642162740890e-04
3.45075000000000e+00 1.73186232716512e-02 3.31508588356620e-04
3.46365000000000e+00 1.70226178791017e-02 3.26451016508777e-04
3.47655000000000e+00 1.67316717335284e-02 3.21468374528454e-04
3.48945000000000e+00 1.64456983636012e-02 3.16559603608902e-04
3.50235000000000e+00 1.61646127759358e-02 3.11723658659816e-04
3.51525000000000e+00 1.58883314298323e-02 3.06959508162190e-04
3.52815000000000e+00 1.56167722124468e-02 3.02266134023746e-04
3.54105000000000e+00 1.53498544143867e-02 2.97642531434973e-04
3.55395000000000e+00 1.50874987057234e-02 2.93087708725810e-04
3.56685000000000e+00 1.48296271124145e-02 2.88600687223037e-04
3.57975000000000e+00 1.45761629931297e-02 2.84180501108322e-04
3.59265000000000e+00 1.43270310164726e-02 2.79826197277027e-04
3.60555000000000e+00 1.40821571385910e-02 2.75536835197783e-04
3.61845000000000e+00 1.38414685811711e-02 2.71311486772798e-04
3.63135000000000e+00 1.36048938098070e-02 2.67149236199013e-04
3.64425000000000e+00 1.33723625127404e-02 2.63049179830082e-04
3.65715000000000e+00 1.31438055799629e-02 2.59010426039151e-04
3.67005000000000e+00 1.29191550826765e-02 2.55032095082543e-04
3.68295000000000e+00 1.26983442531047e-02 2.51113318964310e-04
3.69585000000000e+00 1.24813074646481e-02 2.47253241301682e-04
3.70875000000000e+00 1.22679802123802e-02 2.43451017191441e-04
3.72165000000000e+00 1.20582990938758e-02 2.39705813077203e-04
3.73455000000000e+00 1.18522017903676e-02 2.36016806617664e-04
3.74745000000000e+00 1.16496270482242e-02 2.32383186555789e-04
3.76035000000000e+00 1.14505146607454e-02 2.28804152588975e-04
3.77325000000000e+00 1.12548054502681e-02 2.25278915240182e-04
3.78615000000000e+00 1.10624412505786e-02 2.21806695730063e-04
3.79905000000000e+00 1.08733648896248e-02 2.18386725850106e-04
3.81195000000000e+00 1.06875201725245e-02 2.15018247836749e-04
3.82485000000000e+00 1.05048518648636e-02 2.11700514246544e-04
3.83775000000000e+00 1.03253056762804e-02 2.08432787832319e-04
3.85065000000000e+00 1.01488282443298e-02 2.05214341420387e-04
3.86355000000000e+00 9.97536711862371e-03 2.02044457788782e-04
3.87645000000000e+00 9.80487074524240e-03 1.98922429546538e-04
3.88935000000000e+00 9.63728845141229e-03 1.95847559014006e-04
3.90225000000000e+00 9.47257043044565e-03 1.92819158104235e-04
3.91515000000000e+00 9.31066772693764e-03 1.89836548205391e-04
3.92805000000000e+00 9.15153222221644e-03 1.86899060064244e-04
3.94095000000000e+00 8.99511662004205e-03 1.84006033670709e-04
3.95385000000000e+00 8.84137443254942e-03 1.81156818143441e-04
3.96675000000000e+00 8.69025996643200e-03 1.78350771616487e-04
3.97965000000000e+00 8.54172830936132e-03 1.75587261127031e-04
3.99255000000000e+00 8.39573531663870e-03 1.72865662504177e-04
4.00545000000000e+00 8.25223759807515e-03 1.70185360258779e-04
4.01835000000000e+00 8.11119250509546e-03 1.67545747474375e-04
4.03125000000000e+00 7.97255811806275e-03 1.64946225699157e-04
4.04415000000000e+00 7.83629323381966e-03 1.62386204839003e-04
4.05705000000000e+00 7.70235735344244e-03 1.59865103051583e-04
4.06995000000000e+00 7.57071067020436e-03 1.57382346641506e-04
