Energy (eV)          EEDF (eV^-(3/2))     First Anisotropy
3.10869565217391e-02 1.33227716258348e-01 1.03692997021623e-04
9.32608695652174e-02 1.31238961951248e-01 1.70521880867496e-04
1.55434782608696e-01 1.29279894738127e-01 2.23248946444391e-04
2.17608695652174e-01 1.27350071465247e-01 2.62192511515398e-04
2.79782608695652e-01 1.25449055594169e-01 2.93763266319210e-04
3.41956521739130e-01 1.23576417102904e-01 3.20415081590834e-04
4.04130434782609e-01 1.21731732388619e-01 3.43432766086297e-04
4.66304347826087e-01 1.19914584171808e-01 3.63601013314520e-04
5.28478260869565e-01 1.18124561401903e-01 3.81446032121741e-04
5.90652173913043e-01 1.16361259164286e-01 3.97343780133097e-04
6.52826086956522e-01 1.14624278588696e-01 4.11575516634929e-04
7.15000000000000e-01 1.12913226759000e-01 4.24359156969156e-04
7.77173913043478e-01 1.11227716622084e-01 4.35868260430222e-04
8.39347826086956e-01 1.09567366907238e-01 4.46244175077331e-04
9.01521739130435e-01 1.07931802032687e-01 4.55604151930182e-04
9.63695652173913e-01 1.06320652023152e-01 4.64046962976121e-04
1.02586956521739e+00 1.04733552426160e-01 4.71656909713300e-04
1.08804347826087e+00 1.03170144232427e-01 4.78506757080561e-04
1.15021739130435e+00 1.01630073789832e-01 4.84659928938423e-04
1.21239130434783e+00 1.00112992711616e-01 4.90172177492823e-04
1.27456521739130e+00 9.86185578374242e-02 4.95092882270753e-04
1.33673913043478e+00 9.71464311158045e-02 4.99466073486773e-04
1.39891304347826e+00 9.56962795315103e-02 5.03331239727523e-04
1.46108695652174e+00 9.42677750618720e-02 5.06723987308841e-04
1.52326086956522e+00 9.28605945694301e-02 5.09676578135432e-04
1.58543478260870e+00 9.14744197318638e-02 5.12218365284085e-04
1.64760869565217e+00 9.01089369967394e-02 5.14376161974827e-04
1.70978260869565e+00 8.87638374826898e-02 5.16174550748826e-04
1.77195652173913e+00 8.74388169117744e-02 5.17636137704580e-04
1.83413043478261e+00 8.61335755637113e-02 5.18781775011737e-04
1.89630434782609e+00 8.48478181842372e-02 5.19630750677989e-04
1.95847826086957e+00 8.35812539265121e-02 5.20200948856536e-04
2.02065217391304e+00 8.23335962792702e-02 5.20508988916137e-04
2.08282608695652e+00 8.11045630207356e-02 5.20570348681659e-04
2.14500000000000e+00 7.98938761354527e-02 5.20399472851114e-04
2.20717391304348e+00 7.87012617527538e-02 5.20009862792425e-04
2.26934782608696e+00 7.75264501012212e-02 5.19414160931699e-04
2.33152173913043e+00 7.63691754307169e-02 5.18624225485120e-04
2.39369565217391e+00 7.52291759533975e-02 5.17651191893627e-04
2.45586956521739e+00 7.41061937990146e-02 5.16505532434074e-04
2.51804347826087e+00 7.29999749416432e-02 5.15197109096728e-04
2.58021739130435e+00 7.19102691473472e-02 5.13735218839705e-04
2.64239130434783e+00 7.08368299135692e-02 5.12128634595405e-04
2.70456521739130e+00 6.97794144256321e-02 5.10385644041703e-04
2.76673913043478e+00 6.87377834892423e-02 5.08514085231209e-04
2.82891304347826e+00 6.77117014771181e-02 5.06521374832368e-04
2.89108695652174e+00 6.67009362866597e-02 5.04414537825517e-04
2.95326086956522e+00 6.57052592761781e-02 5.02200234596644e-04
3.01543478260870e+00 6.47244452138391e-02 4.99884781896011e-04
3.07760869565217e+00 6.37582722365630e-02 4.97474175764303e-04
3.13978260869565e+00 6.28065217897297e-02 4.94974112581299e-04
3.20195652173913e+00 6.18689785782933e-02 4.92390004877211e-04
3.26413043478261e+00 6.09454305269872e-02 4.89726999373190e-04
3.32630434782609e+00 6.00356687232423e-02 4.86989993294157e-04
3.38847826086957e+00 5.91394873730306e-02 4.84183647866203e-04
3.45065217391304e+00 5.82566837517982e-02 4.81312401001203e-04
3.51282608695652e+00 5.73870581663209e-02 4.78380480345886e-04
3.57500000000000e+00 5.65304139016439e-02 4.75391915772673e-04
3.63717391304348e+00 5.56865571769925e-02 4.72350548015834e-04
3.69934782608696e+00 5.48552971089427e-02 4.69260039646548e-04
3.76152173913043e+00 5.40364456610740e-02 4.66123885308620e-04
3.82369565217391e+00 5.32298176017970e-02 4.62945418488501e-04
3.88586956521739e+00 5.24352304688374e-02 4.59727820588125e-04
3.94804347826087e+00 5.16525045214393e-02 4.56474129142667e-04
4.01021739130435e+00 5.08814627019286e-02 4.53187244275744e-04
4.07239130434783e+00 5.01219305938232e-02 4.49869934899085e-04
4.13456521739130e+00 4.93737363879894e-02 4.46524845555372e-04
4.19673913043478e+00 4.86367108380557e-02 4.43154503143609e-04
4.25891304347826e+00 4.79106872223975e-02 4.39761320875643e-04
4.32108695652174e+00 4.71955013115591e-02 4.36347604337442e-04
4.38326086956522e+00 4.64909913258587e-02 4.32915557199505e-04
4.44543478260870e+00 4.57969978990435e-02 4.29467284381106e-04
4.50760869565217e+00 4.51133640469471e-02 4.26004797230538e-04
4.56978260869565e+00 4.44399351271730e-02 4.22530018416423e-04
4.63195652173913e+00 4.37765588043306e-02 4.19044784465797e-04
4.69413043478261e+00 4.31230850199086e-02 4.15550850223771e-04
4.75630434782609e+00 4.24793659539172e-02 4.12049892869382e-04
4.81847826086956e+00 4.18452559929472e-02 4.08543514785759e-04
4.88065217391304e+00 4.12206116959724e-02 4.05033246387592e-04
4.94282608695652e+00 4.06052917657510e-02 4.01520549577965e-04
5.00500000000000e+00 3.99991570129411e-02 3.98006821247441e-04
5.06717391304348e+00 3.94020703247885e-02 3.94493394807425e-04
5.12934782608696e+00 3.88138966376582e-02 3.90981543415380e-04
5.19152173913043e+00 3.82345029028655e-02 3.87472483038204e-04
5.25369565217391e+00 3.76637580567362e-02 3.83967373682911e-04
5.31586956521739e+00 3.71015329942365e-02 3.80467322231418e-04
5.37804347826087e+00 3.65477005364308e-02 3.76973384970465e-04
5.44021739130435e+00 3.60021354028466e-02 3.73486569248148e-04
5.50239130434783e+00 3.54647141821727e-02 3.70007835137297e-04
5.56456521739130e+00 3.49353153072753e-02 3.66538097649289e-04
5.62673913043478e+00 3.44138190247155e-02 3.63078229022787e-04
5.68891304347826e+00 3.39001073677832e-02 3.59629059455167e-04
5.75108695652174e+00 3.33940641325276e-02 3.56191379236157e-04
5.81326086956522e+00 3.28955748487055e-02 3.52765940782601e-04
5.87543478260870e+00 3.24045267540043e-02 3.49353459214143e-04
5.93760869565217e+00 3.19208087710487e-02 3.45954614256627e-04
5.99978260869565e+00 3.14443114797135e-02 3.42570052058817e-04
6.06195652173913e+00 3.09749270924756e-02 3.39200385639658e-04
6.12413043478261e+00 3.05125494323675e-02 3.35846196591262e-04
6.18630434782609e+00 3.00570739065842e-02 3.32508036578766e-04
6.24847826086957e+00 2.96083974836285e-02 3.29186428197269e-04
6.31065217391304e+00 2.91664186693143e-02 3.25881865855810e-04
6.37282608695652e+00 2.87310374859121e-02 3.22594817108324e-04
6.43500000000000e+00 2.83021554473936e-02 3.19325724063489e-04
6.49717391304348e+00 2.78796755372394e-02 3.16075003616918e-04
6.55934782608696e+00 2.74635021884469e-02 3.12843048779924e-04
6.62152173913043e+00 2.70535412599245e-02 3.09630229950833e-04
6.68369565217391e+00 2.66497000152743e-02 3.06436895078138e-04
6.74586956521739e+00 2.62518871036332e-02 3.03263370861110e-04
6.80804347826087e+00 2.58600125371599e-02 3.00109963794341e-04
6.87021739130435e+00 2.54739876713058e-02 2.96976960696522e-04
6.93239130434783e+00 2.50937251842219e-02 2.93864629269080e-04
6.99456521739130e+00 2.47191390586525e-02 2.90773219029581e-04
7.05673913043478e+00 2.43501445608051e-02 2.87702962318811e-04
7.11891304347826e+00 2.39866582212469e-02 2.84654074348748e-04
7.18108695652174e+00 2.36285978175567e-02 2.81626754157052e-04
7.24326086956522e+00 2.32758823541664e-02 2.78621185521767e-04
7.30543478260870e+00 2.29284320441000e-02 2.75637536971877e-04
7.36760869565217e+00 2.25861682923537e-02 2.72675962656077e-04
7.42978260869565e+00 2.22490136766647e-02 2.69736603175546e-04
7.49195652173913e+00 2.19168919300519e-02 2.66819585563586e-04
7.55413043478261e+00 2.15897279248985e-02 2.63925024077208e-04
7.61630434782609e+00 2.12674476546022e-02 2.61053020875018e-04
7.67847826086957e+00 2.09499782172932e-02 2.58203666300454e-04
7.74065217391304e+00 2.06372477989450e-02 2.55377039193039e-04
7.80282608695652e+00 2.03291856583424e-02 2.52573207497649e-04
7.86500000000000e+00 2.00257221098476e-02 2.49792228936410e-04
7.92717391304348e+00 1.97267885076828e-02 2.47034150938388e-04
7.98934782608696e+00 1.94323172315340e-02 2.44299011280219e-04
8.05152173913043e+00 1.91422416701047e-02 2.41586838700717e-04
8.11369565217391e+00 1.88564962060901e-02 2.38897652814430e-04
8.17586956521739e+00 1.85750162023925e-02 2.36231464698333e-04
8.23804347826087e+00 1.82977379864254e-02 2.33588277387300e-04
8.30021739130435e+00 1.80245988360740e-02 2.30968086046749e-04
8.36239130434783e+00 1.77555369651898e-02 2.28370878170439e-04
8.42456521739130e+00 1.74904915105788e-02 2.25796634026947e-04
8.48673913043478e+00 1.72294025172555e-02 2.23245327160816e-04
8.54891304347826e+00 1.69722109249148e-02 2.20716924281594e-04
8.61108695652174e+00 1.67188585554752e-02 2.18211385743046e-04
8.67326086956522e+00 1.64692880990019e-02 2.15728666003167e-04
8.73543478260870e+00 1.62234431007759e-02 2.13268713505531e-04
8.79760869565217e+00 1.59812679493688e-02 2.10831471119877e-04
8.85978260869565e+00 1.57427078632047e-02 2.08416876565025e-04
8.92195652173913e+00 1.55077088781985e-02 2.06024862284322e-04
8.98413043478261e+00 1.52762178363414e-02 2.03655355850803e-04
9.04630434782609e+00 1.50481823728720e-02 2.01308280303338e-04
9.10847826086957e+00 1.48235509047032e-02 1.98983554231386e-04
9.17065217391304e+00 1.46022726185157e-02 1.96681091880906e-04
9.23282608695652e+00 1.43842974599874e-02 1.94400803457772e-04
9.29500000000000e+00 1.41695761217368e-02 1.92142595475788e-04
9.35717391304348e+00 1.39580600321946e-02 1.89906370625291e-04
9.41934782608696e+00 1.37497013452949e-02 1.87692028107175e-04
9.48152173913043e+00 1.35444529289640e-02 1.85499463953581e-04
9.54369565217391e+00 1.33422683544821e-02 1.83328570894729e-04
9.60586956521739e+00 1.31431018866178e-02 1.81179238666931e-04
9.66804347826087e+00 1.29469084726364e-02 1.79051354264181e-04
9.73021739130435e+00 1.27536437323274e-02 1.76944801981920e-04
9.79239130434783e+00 1.25632639477736e-02 1.74859463479049e-04
9.85456521739130e+00 1.23757260540443e-02 1.72795218005041e-04
9.91673913043478e+00 1.21909876288633e-02 1.70751942665247e-04
9.97891304347826e+00 1.20090068830322e-02 1.68729512287961e-04
1.00410869565217e+01 1.18297426515250e-02 1.66727799639972e-04
1.01032608695652e+01 1.16531543837929e-02 1.64746675713527e-04
1.01654347826087e+01 1.14792021344260e-02 1.62786009711384e-04
1.02276086956522e+01 1.13078465542991e-02 1.60845669495358e-04
1.02897826086957e+01 1.11390488800480e-02 1.58925520596396e-04
1.03519565217391e+01 1.09727709302291e-02 1.57025427085149e-04
1.04141304347826e+01 1.08089750916930e-02 1.55145252459373e-04
1.04763043478261e+01 1.06476243127598e-02 1.53284858551634e-04
1.05384782608696e+01 1.04886820948379e-02 1.51444106024007e-04
1.06006521739130e+01 1.03321124841673e-02 1.49622854457786e-04
1.06628260869565e+01 1.01778800636888e-02 1.47820962440831e-04
1.07250000000000e+01 1.00259499450307e-02 1.46038287977364e-04
1.07871739130435e+01 9.87628775924563e-03 1.44274687581257e-04
1.08493478260870e+01 9.72885965320126e-03 1.42530017017185e-04
1.09115217391304e+01 9.58363227770545e-03 1.40804132056883e-04
1.09736956521739e+01 9.44057278138573e-03 1.39096887522361e-04
1.10358695652174e+01 9.29964880325723e-03 1.37408137702489e-04
1.10980434782609e+01 9.16082846540383e-03 1.35737736420019e-04
1.11602173913043e+01 9.02408036576713e-03 1.34085537096839e-04
1.12223913043478e+01 8.88937357104260e-03 1.32451393098329e-04
1.12845652173913e+01 8.75667760852025e-03 1.30835156937785e-04
1.13467391304348e+01 8.62596246271999e-03 1.29236680908765e-04
1.14089130434783e+01 8.49719856503001e-03 1.27655817730879e-04
1.14710869565217e+01 8.37035678822360e-03 1.26092419711643e-04
1.15332608695652e+01 8.24540843986928e-03 1.24546339098150e-04
1.15954347826087e+01 8.12232525584271e-03 1.23017428126575e-04
1.16576086956522e+01 8.00107939393190e-03 1.21505539319596e-04
1.17197826086957e+01 7.88164342653150e-03 1.20010524775800e-04
1.17819565217391e+01 7.76399033749807e-03 1.18532236721339e-04
1.18441304347826e+01 7.64809351294184e-03 1.17070528073746e-04
1.19063043478261e+01 7.53392673625158e-03 1.15625251694346e-04
1.19684782608696e+01 7.42146418216390e-03 1.14196260692933e-04
1.20306521739130e+01 7.31068041092140e-03 1.12783408464804e-04
1.20928260869565e+01 7.20155036251904e-03 1.11386548726768e-04
1.21550000000000e+01 7.09404935103469e-03 1.10005535768090e-04
1.22171739130435e+01 6.98815305818830e-03 1.08640223826978e-04
1.22793478260870e+01 6.88383753044197e-03 1.07290467562788e-04
1.23415217391304e+01 6.78107917094891e-03 1.05956122539016e-04
1.24036956521739e+01 6.67985473510400e-03 1.04637044568182e-04
1.24658695652174e+01 6.58014132528514e-03 1.03333089969952e-04
1.25280434782609e+01 6.48191638567450e-03 1.02044115597468e-04
1.25902173913043e+01 6.38515769715620e-03 1.00769978862899e-04
1.26523913043478e+01 6.28984337228992e-03 9.95105379495457e-05
1.27145652173913e+01 6.19595184963028e-03 9.82656512646718e-05
1.27767391304348e+01 6.10346189106432e-03 9.70351778442731e-05
1.28389130434783e+01 6.01235257476572e-03 9.58189777674007e-05
1.29010869565217e+01 5.92260329121851e-03 9.46169115819300e-05
1.29632608695652e+01 5.83419373855433e-03 9.34288405235873e-05
1.30254347826087e+01 5.74710391796140e-03 9.22546265340127e-05
1.30876086956522e+01 5.66131412915993e-03 9.10941324447197e-05
1.31497826086957e+01 5.57680496531051e-03 8.99472214883066e-05
1.32119565217391e+01 5.49355731055267e-03 8.88137576528463e-05
1.32741304347826e+01 5.41155233372910e-03 8.76936060448759e-05
1.33363043478261e+01 5.33077148478437e-03 8.65866323769653e-05
1.33984782608696e+01 5.25119649056856e-03 8.54927031582035e-05
1.34606521739130e+01 5.17280935070382e-03 8.44116857063403e-05
1.35228260869565e+01 5.09559233351306e-03 8.33434481595027e-05
1.35850000000000e+01 5.01952797200856e-03 8.22878596320803e-05
1.36471739130435e+01 4.94459905939829e-03 8.12447897856252e-05
1.37093478260870e+01 4.87078864684048e-03 8.02141091333205e-05
1.37715217391304e+01 4.79808003794316e-03 7.91956893520571e-05
1.38336956521739e+01 4.72645678554954e-03 7.81894028330278e-05
1.38958695652174e+01 4.65590268801727e-03 7.71951228437452e-05
1.39580434782609e+01 4.58640178555395e-03 7.62127235352008e-05
1.40202173913043e+01 4.51793835660691e-03 7.52420799487240e-05
1.40823913043478e+01 4.45049691430676e-03 7.42830681482257e-05
1.41445652173913e+01 4.38406220250019e-03 7.33355648433991e-05
1.42067391304348e+01 4.31861919370714e-03 7.23994476515790e-05
1.42689130434783e+01 4.25415308429656e-03 7.14745953663160e-05
1.43310869565217e+01 4.19064929161842e-03 7.05608875631048e-05
1.43932608695652e+01 4.12809345070464e-03 6.96582047373396e-05
1.44554347826087e+01 4.06647141102039e-03 6.87664283076868e-05
1.45176086956522e+01 4.00576923326274e-03 6.78854407311018e-05
1.45797826086957e+01 3.94597318580219e-03 6.70151251660795e-05
1.46419565217391e+01 3.88706974280670e-03 6.61553657025001e-05
1.47041304347826e+01 3.82904557993731e-03 6.53060475975157e-05
1.47663043478261e+01 3.77188757175396e-03 6.44670569234877e-05
1.48284782608696e+01 3.71558278874629e-03 6.36382806882705e-05
1.48906521739130e+01 3.66011849440896e-03 6.28196068358808e-05
1.49528260869565e+01 3.60548214236084e-03 6.20109242470319e-05
1.50150000000000e+01 3.55166137350672e-03 6.12121228368665e-05
1.50771739130435e+01 3.49864401289422e-03 6.04230932591145e-05
1.51393478260870e+01 3.44641806801405e-03 5.96437271040978e-05
1.52015217391304e+01 3.39497172502055e-03 5.88739171020651e-05
1.52636956521739e+01 3.34429334641904e-03 5.81135568141417e-05
1.53258695652174e+01 3.29437146843325e-03 5.73625407349169e-05
1.53880434782609e+01 3.24519479841232e-03 5.66207642909463e-05
1.54502173913043e+01 3.19675221227640e-03 5.58881238391774e-05
1.55123913043478e+01 3.14903275200017e-03 5.51645167500596e-05
1.55745652173913e+01 3.10202562283599e-03 5.44498411475679e-05
1.56367391304348e+01 3.05572019177668e-03 5.37439960799063e-05
1.56989130434783e+01 3.01010598423509e-03 5.30468816949136e-05
1.57610869565217e+01 2.96517268198329e-03 5.23583989686891e-05
1.58232608695652e+01 2.92091012081837e-03 5.16784497931456e-05
1.58854347826087e+01 2.87730828826361e-03 5.10069369729361e-05
1.59476086956522e+01 2.83435732130342e-03 5.03437642978579e-05
1.60097826086957e+01 2.79204750389108e-03 4.96888363103882e-05
1.60719565217391e+01 2.75036926554337e-03 4.90420584558052e-05
1.61341304347826e+01 2.70931317837402e-03 4.84033372365272e-05
1.61963043478261e+01 2.66886995523137e-03 4.77725799696237e-05
1.62584782608696e+01 2.62903044759755e-03 4.71496948632850e-05
1.63206521739130e+01 2.58978564351898e-03 4.65345910126515e-05
1.63828260869565e+01 2.55112666556803e-03 4.59271783956306e-05
1.64450000000000e+01 2.51304476883473e-03 4.53273679345279e-05
1.65071739130435e+01 2.47553133872413e-03 4.47350712916679e-05
1.65693478260870e+01 2.43857788968887e-03 4.41502009989772e-05
1.66315217391304e+01 2.40217606262054e-03 4.35726705912919e-05
1.66936956521739e+01 2.36631762319119e-03 4.30023943933056e-05
1.67558695652174e+01 2.33099445999060e-03 4.24392875849065e-05
1.68180434782609e+01 2.29619858269154e-03 4.18832661962246e-05
1.68802173913043e+01 2.26192212024234e-03 4.13342471026921e-05
1.69423913043478e+01 2.22815731908636e-03 4.07921480775350e-05
1.70045652173913e+01 2.19489654121485e-03 4.02568876120321e-05
1.70667391304348e+01 2.16213226302540e-03 3.97283850274351e-05
1.71289130434783e+01 2.12985707302711e-03 3.92065605901771e-05
1.71910869565217e+01 2.09806367036399e-03 3.86913353246348e-05
1.72532608695652e+01 2.06674486316335e-03 3.81826310689695e-05
1.73154347826087e+01 2.03589356690921e-03 3.76803704696840e-05
1.73776086956522e+01 2.00550280283960e-03 3.71844770273951e-05
1.74397826086957e+01 1.97556569619830e-03 3.66948749360252e-05
1.75019565217391e+01 1.94607547519437e-03 3.62114891813712e-05
1.75641304347826e+01 1.91702546894977e-03 3.57342456426151e-05
1.76263043478261e+01 1.88840910616589e-03 3.52630709249130e-05
1.76884782608696e+01 1.86021991363704e-03 3.47978924082243e-05
1.77506521739130e+01 1.83245151478620e-03 3.43386382415461e-05
1.78128260869565e+01 1.80509762822265e-03 3.38852373371925e-05
1.78750000000000e+01 1.77815206632108e-03 3.34376194097994e-05
1.79371739130435e+01 1.75160873367566e-03 3.29957148348434e-05
1.79993478260870e+01 1.72546162616477e-03 3.25594547338515e-05
1.80615217391304e+01 1.69970482914422e-03 3.21287710622150e-05
1.81236956521739e+01 1.67433251626058e-03 3.17035964619849e-05
1.81858695652174e+01 1.64933894813317e-03 3.12838643036374e-05
1.82480434782609e+01 1.62471847105587e-03 3.08695086801933e-05
1.83102173913043e+01 1.60046551571818e-03 3.04604644013851e-05
1.83723913043478e+01 1.57657459594543e-03 3.00566670269042e-05
1.84345652173913e+01 1.55304030733165e-03 2.96580527418855e-05
1.84967391304348e+01 1.52985732639958e-03 2.92645584306109e-05
1.85589130434783e+01 1.50702040900959e-03 2.88761217525064e-05
1.86210869565217e+01 1.48452438930387e-03 2.84926810126682e-05
1.86832608695652e+01 1.46236417853780e-03 2.81141751975975e-05
1.87454347826087e+01 1.44053476392900e-03 2.77405439693310e-05
1.88076086956522e+01 1.41903120752330e-03 2.73717276944463e-05
1.88697826086957e+01 1.39784864496691e-03 2.70076673326048e-05
1.89319565217391e+01 1.37698228474246e-03 2.66483045015341e-05
1.89941304347826e+01 1.35642740674485e-03 2.62935815440642e-05
1.90563043478261e+01 1.33617936132830e-03 2.59434414122958e-05
1.91184782608696e+01 1.31623356825451e-03 2.55978276988668e-05
1.91806521739130e+01 1.29658551565662e-03 2.52566846311304e-05
1.92428260869565e+01 1.27723075901861e-03 2.49199570653950e-05
1.93050000000000e+01 1.25816492016993e-03 2.45875905116496e-05
1.93671739130435e+01 1.23938368619931e-03 2.42595310354342e-05
1.94293478260870e+01 1.22088280876975e-03 2.39357253140865e-05
1.94915217391304e+01 1.20265810286363e-03 2.36161206948028e-05
1.95536956521739e+01 1.18470544593512e-03 2.33006650927092e-05
1.96158695652174e+01 1.16702077697758e-03 2.29893070176248e-05
