Energy (eV)          EEDF (eV^-(3/2))     First Anisotropy
1.82647058823529e-03 1.46550789951624e+01 1.22749740120788e-02
5.47941176470588e-03 1.43602433622514e+01 2.01332611758544e-02
9.13235294117647e-03 1.40713393287086e+01 2.62197691640359e-02
1.27852941176471e-02 1.37882475606633e+01 3.06312812220027e-02
1.64382352941176e-02 1.35108511241892e+01 3.41387645665550e-02
2.00911764705882e-02 1.32390354388535e+01 3.70398052870851e-02
2.37441176470588e-02 1.29726882294141e+01 3.94914341752072e-02
2.73970588235294e-02 1.27116994802841e+01 4.15902657910208e-02
3.10500000000000e-02 1.24559613872630e+01 4.34015406012206e-02
3.47029411764706e-02 1.22053683159815e+01 4.49721754490840e-02
3.83558823529412e-02 1.19598167572517e+01 4.63374832525936e-02
4.20088235294118e-02 1.17192052848367e+01 4.75249775935006e-02
4.56617647058824e-02 1.14834345119446e+01 4.85566840486338e-02
4.93147058823529e-02 1.12524070518308e+01 4.94506231931450e-02
5.29676470588235e-02 1.10260274770009e+01 5.02218047151859e-02
5.66205882352941e-02 1.08042022801527e+01 5.08829180579482e-02
6.02735294117647e-02 1.05868398344792e+01 5.14448267776904e-02
6.39264705882353e-02 1.03738503569170e+01 5.19169315576369e-02
6.75794117647059e-02 1.01651458706801e+01 5.23074427667675e-02
7.12323529411765e-02 9.96064016893299e+00 5.26235889201256e-02
7.48852941176471e-02 9.76024877941196e+00 5.28717789306464e-02
7.85382352941176e-02 9.56388892880737e+00 5.30577301814987e-02
8.21911764705882e-02 9.37147950931587e+00 5.31865710118415e-02
8.58441176470588e-02 9.18294104488855e+00 5.32629237697336e-02
8.94970588235294e-02 8.99819565858190e+00 5.32909727982814e-02
9.31500000000000e-02 8.81716703983598e+00 5.32745206040783e-02
9.68029411764706e-02 8.63978041351907e+00 5.32170347057412e-02
1.00455882352941e-01 8.46596250884954e+00 5.31216870869311e-02
1.04108823529412e-01 8.29564152913177e+00 5.29913875697708e-02
1.07761764705882e-01 8.12874712236492e+00 5.28288123517228e-02
1.11414705882353e-01 7.96521035161431e+00 5.26364284789520e-02
1.15067647058824e-01 7.80496366684790e+00 5.24165150288645e-02
1.18720588235294e-01 7.64794087589797e+00 5.21711812628618e-02
1.22373529411765e-01 7.49407712060183e+00 5.19023828237933e-02
1.26026470588235e-01 7.34330884643479e+00 5.16119359705147e-02
1.29679411764706e-01 7.19557377747736e+00 5.13015297269464e-02
1.33332352941176e-01 7.05081089070749e+00 5.09727370082756e-02
1.36985294117647e-01 6.90896038989669e+00 5.06270241771712e-02
1.40638235294118e-01 6.76996368364210e+00 5.02657598762917e-02
1.44291176470588e-01 6.63376335836406e+00 4.98902229516907e-02
1.47944117647059e-01 6.50030315554755e+00 4.95016092317686e-02
1.51597058823529e-01 6.36952794850456e+00 4.91010378960368e-02
1.55250000000000e-01 6.24138371960832e+00 4.86895572170507e-02
1.58902941176471e-01 6.11581753730141e+00 4.82681495525225e-02
1.62555882352941e-01 5.99277753630536e+00 4.78377361358716e-02
1.66208823529412e-01 5.87221289407469e+00 4.73991814521132e-02
1.69861764705882e-01 5.75407381052694e+00 4.69532969544001e-02
1.73514705882353e-01 5.63831148747611e+00 4.65008446814084e-02
1.77167647058824e-01 5.52487810847578e+00 4.60425405634984e-02
1.80820588235294e-01 5.41372681854284e+00 4.55790572850728e-02
1.84473529411765e-01 5.30481170641006e+00 4.51110271324636e-02
1.88126470588235e-01 5.19808778391962e+00 4.46390446303160e-02
1.91779411764706e-01 5.09351096799823e+00 4.41636687455225e-02
1.95432352941176e-01 4.99103806245329e+00 4.36854251455975e-02
1.99085294117647e-01 4.89062673969650e+00 4.32048080957986e-02
2.02738235294118e-01 4.79223552458082e+00 4.27222824040328e-02
2.06391176470588e-01 4.69582377591951e+00 4.22382852370728e-02
2.10044117647059e-01 4.60135167015825e+00 4.17532276109727e-02
2.13697058823529e-01 4.50878018492580e+00 4.12674959367956e-02
2.17350000000000e-01 4.41807108291723e+00 4.07814534551804e-02
2.21002941176471e-01 4.32918689575540e+00 4.02954414497520e-02
2.24655882352941e-01 4.24209090956430e+00 3.98097805371104e-02
2.28308823529412e-01 4.15674714873231e+00 3.93247718814522e-02
2.31961764705882e-01 4.07312036141626e+00 3.88406981646455e-02
2.35614705882353e-01 3.99117600498178e+00 3.83578246285068e-02
2.39267647058824e-01 3.91088023173515e+00 3.78764000469924e-02
2.42920588235294e-01 3.83219987466601e+00 3.73966575327606e-02
2.46573529411765e-01 3.75510243459094e+00 3.69188154271570e-02
2.50226470588235e-01 3.67955606586900e+00 3.64430781437107e-02
2.53879411764706e-01 3.60552956353943e+00 3.59696368205972e-02
2.57532352941176e-01 3.53299235043425e+00 3.54986700710917e-02
2.61185294117647e-01 3.46191446431485e+00 3.50303445703854e-02
2.64838235294118e-01 3.39226654620581e+00 3.45648157241948e-02
2.68491176470588e-01 3.32401982754406e+00 3.41022283053333e-02
2.72144117647059e-01 3.25714611854172e+00 3.36427169313591e-02
2.75797058823529e-01 3.19161779654215e+00 3.31864066141190e-02
2.79450000000000e-01 3.12740779461095e+00 3.27334132750620e-02
2.83102941176471e-01 3.06448959016594e+00 3.22838441538745e-02
2.86755882352941e-01 3.00283719460032e+00 3.18377982931712e-02
2.90408823529412e-01 2.94242514195828e+00 3.13953670020456e-02
2.94061764705882e-01 2.88322847861609e+00 3.09566341900874e-02
2.97714705882353e-01 2.82522275297548e+00 3.05216767675394e-02
3.01367647058824e-01 2.76838400536365e+00 3.00905650210513e-02
3.05020588235294e-01 2.71268875798111e+00 2.96633629027899e-02
3.08673529411765e-01 2.65811400567841e+00 2.92401283883209e-02
3.12326470588235e-01 2.60463720597034e+00 2.88209138201698e-02
3.15979411764706e-01 2.55223626988837e+00 2.84057661443482e-02
3.19632352941176e-01 2.50088955285759e+00 2.79947272211749e-02
3.23285294117647e-01 2.45057584562312e+00 2.75878340438043e-02
3.26938235294118e-01 2.40127436589456e+00 2.71851190192538e-02
3.30591176470588e-01 2.35296474934913e+00 2.67866102389344e-02
3.34244117647059e-01 2.30562704136009e+00 2.63923316570941e-02
3.37897058823529e-01 2.25924168875431e+00 2.60023033231635e-02
3.41550000000000e-01 2.21378953173606e+00 2.56165416000407e-02
3.45202941176471e-01 2.16925179586286e+00 2.52350593212040e-02
3.48855882352941e-01 2.12561008462582e+00 2.48578660030613e-02
3.52508823529412e-01 2.08284637150951e+00 2.44849680499569e-02
3.56161764705882e-01 2.04094299266164e+00 2.41163688818312e-02
3.59814705882353e-01 1.99988263959718e+00 2.37520691094402e-02
3.63467647058824e-01 1.95964835204899e+00 2.33920666988724e-02
3.67120588235294e-01 1.92022351087086e+00 2.30363570847915e-02
3.70773529411765e-01 1.88159183145148e+00 2.26849333322220e-02
3.74426470588235e-01 1.84373735670438e+00 2.23377862931378e-02
3.78079411764706e-01 1.80664445057273e+00 2.19949046976957e-02
3.81732352941176e-01 1.77029779157125e+00 2.16562752968286e-02
3.85385294117647e-01 1.73468236637864e+00 2.13218829483549e-02
3.89038235294118e-01 1.69978346387637e+00 2.09917107465657e-02
3.92691176470588e-01 1.66558666882771e+00 2.06657401478968e-02
3.96344117647059e-01 1.63207785600633e+00 2.03439510395673e-02
3.99997058823529e-01 1.59924318436179e+00 2.00263218455918e-02
4.03650000000000e-01 1.56706909130252e+00 1.97128296260451e-02
4.07302941176471e-01 1.53554228702780e+00 1.94034501386900e-02
4.10955882352941e-01 1.50464974923915e+00 1.90981579386134e-02
4.14608823529412e-01 1.47437871755701e+00 1.87969264750604e-02
4.18261764705882e-01 1.44471668831919e+00 1.84997281397001e-02
4.21914705882353e-01 1.41565140941634e+00 1.82065343475609e-02
4.25567647058824e-01 1.38717087523109e+00 1.79173156126358e-02
4.29220588235294e-01 1.35926332162376e+00 1.76320415914757e-02
4.32873529411765e-01 1.33191722124165e+00 1.73506811599669e-02
4.36526470588235e-01 1.30512127858610e+00 1.70732024880985e-02
4.40179411764706e-01 1.27886442540488e+00 1.67995730732431e-02
4.43832352941177e-01 1.25313581612061e+00 1.65297598082615e-02
4.47485294117647e-01 1.22792482330281e+00 1.62637290137069e-02
4.51138235294118e-01 1.20322103342446e+00 1.60014464996470e-02
4.54791176470588e-01 1.17901424241182e+00 1.57428776259752e-02
4.58444117647059e-01 1.15529445148002e+00 1.54879873262403e-02
4.62097058823529e-01 1.13205186300298e+00 1.52367401569298e-02
4.65750000000000e-01 1.10927687646653e+00 1.49891003432178e-02
4.69402941176471e-01 1.08696008446234e+00 1.47450318007443e-02
4.73055882352941e-01 1.06509226892545e+00 1.45044981832262e-02
4.76708823529412e-01 1.04366439720126e+00 1.42674629289932e-02
4.80361764705882e-01 1.02266761835702e+00 1.40338892762221e-02
4.84014705882353e-01 1.00209325952596e+00 1.38037403003744e-02
4.87667647058824e-01 9.81932822324897e-01 1.35769789487797e-02
4.91320588235294e-01 9.62177979309757e-01 1.33535680546716e-02
4.94973529411765e-01 9.42820570639986e-01 1.31334703737439e-02
4.98626470588235e-01 9.23852600602186e-01 1.29166486199559e-02
5.02279411764706e-01 9.05266234343267e-01 1.27030654744263e-02
5.05932352941176e-01 8.87053794634336e-01 1.24926836178706e-02
5.09585294117647e-01 8.69207758669711e-01 1.22854657397378e-02
5.13238235294118e-01 8.51720755050392e-01 1.20813745674404e-02
5.16891176470588e-01 8.34585560646916e-01 1.18803728950379e-02
5.20544117647059e-01 8.17795097647077e-01 1.16824235881498e-02
5.24197058823529e-01 8.01342430632389e-01 1.14874896061456e-02
5.27850000000000e-01 7.85220763713410e-01 1.12955340223845e-02
5.31502941176471e-01 7.69423437697359e-01 1.11065200288890e-02
5.35155882352941e-01 7.53943927414504e-01 1.09204109585436e-02
5.38808823529412e-01 7.38775838944599e-01 1.07371703069268e-02
5.42461764705882e-01 7.23912907002344e-01 1.05567617336498e-02
5.46114705882353e-01 7.09348992349507e-01 1.03791490787660e-02
5.49767647058824e-01 6.95078079259066e-01 1.02042963775874e-02
5.53420588235294e-01 6.81094273008897e-01 1.00321678620887e-02
5.57073529411765e-01 6.67391797512337e-01 9.86272797759498e-03
5.60726470588235e-01 6.53964992865835e-01 9.69594139924095e-03
5.64379411764706e-01 6.40808313033588e-01 9.53177303073438e-03
5.68032352941176e-01 6.27916323556786e-01 9.37018801906260e-03
5.71685294117647e-01 6.15283699290048e-01 9.21115175387251e-03
5.75338235294118e-01 6.02905222259096e-01 9.05462988049369e-03
5.78991176470588e-01 5.90775779447231e-01 8.90058831281864e-03
5.82644117647059e-01 5.78890360703081e-01 8.74899323050495e-03
5.86297058823529e-01 5.67244056671123e-01 8.59981108791661e-03
5.89950000000000e-01 5.55832056763868e-01 8.45300862195791e-03
5.93602941176471e-01 5.44649647158787e-01 8.30855284966846e-03
5.97255882352941e-01 5.33692208900022e-01 8.16641107772551e-03
6.00908823529412e-01 5.22955215940909e-01 8.02655091187763e-03
6.04561764705882e-01 5.12434233291251e-01 7.88894025281607e-03
6.08214705882353e-01 5.02124915185437e-01 7.75354730229451e-03
6.11867647058824e-01 4.92023003287391e-01 7.62034056833682e-03
6.15520588235294e-01 4.82124324917977e-01 7.48928886159270e-03
6.19173529411765e-01 4.72424791373057e-01 7.36036130208785e-03
6.22826470588235e-01 4.62920396192334e-01 7.23352732595953e-03
6.26479411764706e-01 4.53607213518765e-01 7.10875668044872e-03
6.30132352941177e-01 4.44481396476999e-01 6.98601942971799e-03
6.33785294117647e-01 4.35539175572383e-01 6.86528595049486e-03
6.37438235294118e-01 4.26776857170494e-01 6.74652693700040e-03
6.41091176470588e-01 4.18190821934322e-01 6.62971340589841e-03
6.44744117647059e-01 4.09777523341849e-01 6.51481669081698e-03
6.48397058823529e-01 4.01533486221140e-01 6.40180844486410e-03
6.52050000000000e-01 3.93455305314910e-01 6.29066064250442e-03
6.55702941176471e-01 3.85539643863697e-01 6.18134557464112e-03
6.59355882352941e-01 3.77783232258832e-01 6.07383585180847e-03
6.63008823529412e-01 3.70182866660162e-01 5.96810440741445e-03
6.66661764705882e-01 3.62735407683422e-01 5.86412449193930e-03
6.70314705882353e-01 3.55437779103509e-01 5.76186967411960e-03
6.73967647058824e-01 3.48286966583820e-01 5.66131384160524e-03
6.77620588235294e-01 3.41280016422381e-01 5.56243119572562e-03
6.81273529411765e-01 3.34414034358545e-01 5.46519625334381e-03
6.84926470588235e-01 3.27686184350323e-01 5.36958384877982e-03
6.88579411764706e-01 3.21093687412130e-01 5.27556912788427e-03
6.92232352941176e-01 3.14633820466931e-01 5.18312754948638e-03
6.95885294117647e-01 3.08303915213711e-01 5.09223488004056e-03
6.99538235294118e-01 3.02101357048865e-01 5.00286719460989e-03
7.03191176470588e-01 2.96023583962297e-01 4.91500087792998e-03
7.06844117647059e-01 2.90068085487256e-01 4.82861261849107e-03
7.10497058823529e-01 2.84232401663380e-01 4.74367940807963e-03
7.14150000000000e-01 2.78514122020593e-01 4.66017854094858e-03
7.17802941176471e-01 2.72910884576813e-01 4.57808760844784e-03
7.21455882352941e-01 2.67420374882516e-01 4.49738449919525e-03
7.25108823529412e-01 2.62040325044213e-01 4.41804739933635e-03
7.28761764705882e-01 2.56768512794635e-01 4.34005478673749e-03
7.32414705882353e-01 2.51602760574807e-01 4.26338542995386e-03
7.36067647058824e-01 2.46540934634598e-01 4.18801838689063e-03
7.39720588235294e-01 2.41580944145668e-01 4.11393299952130e-03
7.43373529411765e-01 2.36720740355168e-01 4.04110889345219e-03
7.47026470588235e-01 2.31958315721884e-01 3.96952597757934e-03
7.50679411764706e-01 2.27291703092963e-01 3.89916443847100e-03
7.54332352941177e-01 2.22718974891378e-01 3.83000473978727e-03
7.57985294117647e-01 2.18238242314704e-01 3.76202761712976e-03
7.61638235294118e-01 2.13847654570230e-01 3.69521407722698e-03
7.65291176470588e-01 2.09545398094939e-01 3.62954539721344e-03
7.68944117647059e-01 2.05329695811664e-01 3.56500311921136e-03
7.72597058823529e-01 2.01198806395051e-01 3.50156904865008e-03
7.76250000000000e-01 1.97151023552301e-01 3.43922525236945e-03
7.79902941176471e-01 1.93184675314050e-01 3.37795405367514e-03
7.83555882352941e-01 1.89298123356906e-01 3.31773803118806e-03
7.87208823529412e-01 1.85489762313365e-01 3.25856001778735e-03
7.90861764705882e-01 1.81758019113228e-01 3.20040309546477e-03
7.94514705882353e-01 1.78101352333833e-01 3.14325059345128e-03
7.98167647058824e-01 1.74518251563365e-01 3.08708608616572e-03
8.01820588235294e-01 1.71007236773247e-01 3.03189338851166e-03
8.05473529411765e-01 1.67566857718125e-01 2.97765655449581e-03
8.09126470588235e-01 1.64195693325342e-01 2.92435987593758e-03
8.12779411764706e-01 1.60892351111834e-01 2.87198787761860e-03
8.16432352941177e-01 1.57655466608973e-01 2.82052531588265e-03
8.20085294117647e-01 1.54483702795667e-01 2.76995717415163e-03
8.23738235294118e-01 1.51375749556103e-01 2.72026866141535e-03
8.27391176470588e-01 1.48330323128434e-01 2.67144521080940e-03
8.31044117647059e-01 1.45346165577948e-01 2.62347247501935e-03
8.34697058823529e-01 1.42422044277474e-01 2.57633632425030e-03
8.38350000000000e-01 1.39556751398236e-01 2.53002284407153e-03
8.42002941176471e-01 1.36749103408120e-01 2.48451833120621e-03
8.45655882352941e-01 1.33997940591429e-01 2.43980929192569e-03
8.49308823529412e-01 1.31302126561099e-01 2.39588244052769e-03
8.52961764705882e-01 1.28660547792268e-01 2.35272469504911e-03
8.56614705882353e-01 1.26072113162332e-01 2.31032317522632e-03
8.60267647058824e-01 1.23535753500244e-01 2.26866520035285e-03
8.63920588235294e-01 1.21050421142451e-01 2.22773828534734e-03
8.67573529411765e-01 1.18615089507575e-01 2.18753013910320e-03
8.71226470588235e-01 1.16228752664836e-01 2.14802866291780e-03
8.74879411764706e-01 1.13890424921091e-01 2.10922194651074e-03
8.78532352941176e-01 1.11599140413696e-01 2.07109826641102e-03
8.82185294117647e-01 1.09353952709384e-01 2.03364608225564e-03
8.85838235294118e-01 1.07153934419918e-01 1.99685403513284e-03
8.89491176470588e-01 1.04998176812340e-01 1.96071094600059e-03
8.93144117647059e-01 1.02885789435877e-01 1.92520581195347e-03
8.96797058823529e-01 1.00815899754136e-01 1.89032780425450e-03
9.00450000000000e-01 9.87876527846921e-02 1.85606626629579e-03
9.04102941176471e-01 9.68002107440719e-02 1.82241071016871e-03
9.07755882352941e-01 9.48527527073797e-02 1.78935081502595e-03
9.11408823529412e-01 9.29444742634400e-02 1.75687642551423e-03
9.15061764705882e-01 9.10745871844815e-02 1.72497754833001e-03
9.18714705882353e-01 8.92423191005562e-02 1.69364435032256e-03
9.22367647058824e-01 8.74469131805063e-02 1.66286715653904e-03
9.26020588235294e-01 8.56876278177374e-02 1.63263644705717e-03
9.29673529411765e-01 8.39637363288018e-02 1.60294285538903e-03
9.33326470588235e-01 8.22745266482522e-02 1.57377716695026e-03
9.36979411764706e-01 8.06193010362039e-02 1.54513031589165e-03
9.40632352941177e-01 7.89973757901317e-02 1.51699338356058e-03
9.44285294117647e-01 7.74080809610309e-02 1.48935759554412e-03
9.47938235294118e-01 7.58507600810424e-02 1.46221432012025e-03
9.51591176470588e-01 7.43247698878752e-02 1.43555506677067e-03
9.55244117647059e-01 7.28294800605976e-02 1.40937148323091e-03
9.58897058823529e-01 7.13642729592792e-02 1.38365535375667e-03
9.62550000000000e-01 6.99285433698710e-02 1.35839859735078e-03
9.66202941176471e-01 6.85216982529813e-02 1.33359326504669e-03
9.69855882352941e-01 6.71431565026800e-02 1.30923153842719e-03
9.73508823529412e-01 6.57923487026475e-02 1.28530572819992e-03
9.77161764705882e-01 6.44687168922661e-02 1.26180827149563e-03
9.80814705882353e-01 6.31717143361517e-02 1.23873173023371e-03
9.84467647058824e-01 6.19008052983205e-02 1.21606878945583e-03
9.88120588235294e-01 6.06554648198303e-02 1.19381225483632e-03
9.91773529411765e-01 5.94351785051982e-02 1.17195505127615e-03
9.95426470588235e-01 5.82394423066205e-02 1.15049022154907e-03
9.99079411764706e-01 5.70677623168904e-02 1.12941092345054e-03
1.00273235294118e+00 5.59196545673264e-02 1.10871042924032e-03
1.00638529411765e+00 5.47946448229090e-02 1.08838212351160e-03
1.01003823529412e+00 5.36922683904276e-02 1.06841950243037e-03
1.01369117647059e+00 5.26120699164784e-02 1.04881616742537e-03
1.01734411764706e+00 5.15536032269139e-02 1.02956582693880e-03
1.02099705882353e+00 5.05164311145958e-02 1.01066229866330e-03
1.02465000000000e+00 4.95001251682628e-02 9.92099502061952e-04
1.02830294117647e+00 4.85042655955694e-02 9.73871458734342e-04
1.03195588235294e+00 4.75284410496907e-02 9.55972290824972e-04
1.03560882352941e+00 4.65722484594148e-02 9.38396219454957e-04
1.03926176470588e+00 4.56352928626489e-02 9.21137564675121e-04
1.04291470588235e+00 4.47171872358038e-02 9.04190739368804e-04
1.04656764705882e+00 4.38175523566851e-02 8.87550250793172e-04
1.05022058823529e+00 4.29360166247565e-02 8.71210702354239e-04
1.05387352941176e+00 4.20722159154637e-02 8.55166787238992e-04
1.05752647058824e+00 4.12257934298294e-02 8.39413288627624e-04
1.06117941176471e+00 4.03963995470712e-02 8.23945078265048e-04
1.06483235294118e+00 3.95836916801970e-02 8.08757115053833e-04
1.06848529411765e+00 3.87873341344919e-02 7.93844443668466e-04
1.07213823529412e+00 3.80069979688575e-02 7.79202194416745e-04
1.07579117647059e+00 3.72423608539086e-02 7.64825578145660e-04
1.07944411764706e+00 3.64931069571968e-02 7.50709887410151e-04
1.08309705882353e+00 3.57589267941140e-02 7.36850497835956e-04
1.08675000000000e+00 3.50395171063654e-02 7.23242862809630e-04
1.09040294117647e+00 3.43345807367042e-02 7.09882513563064e-04
1.09405588235294e+00 3.36438265061909e-02 6.96765057916802e-04
1.09770882352941e+00 3.29669690939209e-02 6.83886179042779e-04
1.10136176470588e+00 3.23037289191693e-02 6.71241635276834e-04
1.10501470588235e+00 3.16538320209154e-02 6.58827255774387e-04
1.10866764705882e+00 3.10170099598806e-02 6.46638941421384e-04
1.11232058823529e+00 3.03929996922208e-02 6.34672665909905e-04
1.11597352941176e+00 2.97815434660941e-02 6.22924471217412e-04
1.11962647058824e+00 2.91823887151951e-02 6.11390467613657e-04
1.12327941176471e+00 2.85952879544273e-02 6.00066832542546e-04
1.12693235294118e+00 2.80199986776834e-02 5.88949809521686e-04
1.13058529411765e+00 2.74562832576735e-02 5.78035707059394e-04
1.13423823529412e+00 2.69039088477712e-02 5.67320898433031e-04
1.13789117647059e+00 2.63626472817987e-02 5.56801818059545e-04
1.14154411764706e+00 2.58322749920691e-02 5.46474962178613e-04
1.14519705882353e+00 2.53125729045683e-02 5.36336889672578e-04
1.14885000000000e+00 2.48033263526855e-02 5.26384218296290e-04
1.15250294117647e+00 2.43043249885418e-02 5.16613624622053e-04
