Energy (eV)          EEDF (eV^-(3/2))     First Anisotropy
3.14000000000000e-03 3.67094625012018e+00 2.67270026520591e-03
9.42000000000000e-03 3.62044299417626e+00 4.39781366838481e-03
1.57000000000000e-02 3.57063453970507e+00 5.76449959962216e-03
2.19800000000000e-02 3.52151132793506e+00 6.77809987432972e-03
2.82600000000000e-02 3.47306393160003e+00 7.60327420951107e-03
3.45400000000000e-02 3.42528305312993e+00 8.30293426431391e-03
4.08200000000000e-02 3.37815952286659e+00 8.90996221969577e-03
4.71000000000000e-02 3.33168429730392e+00 9.44440721880841e-03
5.33800000000000e-02 3.28584845735240e+00 9.91969241779668e-03
5.96600000000000e-02 3.24064320662741e+00 1.03453933615310e-02
6.59400000000000e-02 3.19605986976108e+00 1.07286630586542e-02
7.22200000000000e-02 3.15208989073744e+00 1.10750357513708e-02
7.85000000000000e-02 3.10872483125040e+00 1.13889133518896e-02
8.47800000000000e-02 3.06595636908434e+00 1.16738763435997e-02
9.10600000000000e-02 3.02377629651702e+00 1.19328913546894e-02
9.73400000000000e-02 2.98217651874440e+00 1.21684547917481e-02
1.03620000000000e-01 2.94114905232720e+00 1.23826952452895e-02
1.09900000000000e-01 2.90068602365875e+00 1.25774483785834e-02
1.16180000000000e-01 2.86077966745399e+00 1.27543129034523e-02
1.22460000000000e-01 2.82142232525920e+00 1.29146932227856e-02
1.28740000000000e-01 2.78260644398232e+00 1.30598324631949e-02
1.35020000000000e-01 2.74432457444334e+00 1.31908384452506e-02
1.41300000000000e-01 2.70656936994483e+00 1.33087043729733e-02
1.47580000000000e-01 2.66933358486193e+00 1.34143255132963e-02
1.53860000000000e-01 2.63261007325191e+00 1.35085127878218e-02
1.60140000000000e-01 2.59639178748277e+00 1.35920039569679e-02
1.66420000000000e-01 2.56067177688068e+00 1.36654729052146e-02
1.72700000000000e-01 2.52544318639615e+00 1.37295374129510e-02
1.78980000000000e-01 2.49069925528840e+00 1.37847657105504e-02
1.85260000000000e-01 2.45643331582794e+00 1.38316820438729e-02
1.91540000000000e-01 2.42263879201697e+00 1.38707714306908e-02
1.97820000000000e-01 2.38930919832735e+00 1.39024837499258e-02
2.04100000000000e-01 2.35643813845597e+00 1.39272372768193e-02
2.10380000000000e-01 2.32401930409723e+00 1.39454217549666e-02
2.16660000000000e-01 2.29204647373240e+00 1.39574010788464e-02
2.22940000000000e-01 2.26051351143569e+00 1.39635156468868e-02
2.29220000000000e-01 2.22941436569662e+00 1.39640844343554e-02
2.35500000000000e-01 2.19874306825875e+00 1.39594068267803e-02
2.41780000000000e-01 2.16849373297426e+00 1.39497642477169e-02
2.48060000000000e-01 2.13866055467435e+00 1.39354216091052e-02
2.54340000000000e-01 2.10923780805517e+00 1.39166286079282e-02
2.60620000000000e-01 2.08021984657906e+00 1.38936208891822e-02
2.66900000000000e-01 2.05160110139095e+00 1.38666210921148e-02
2.73180000000000e-01 2.02337608024960e+00 1.38358397941633e-02
2.79460000000000e-01 1.99553936647359e+00 1.38014763649378e-02
2.85740000000000e-01 1.96808561790184e+00 1.37637197408413e-02
2.92020000000000e-01 1.94100956586832e+00 1.37227491294481e-02
2.98300000000000e-01 1.91430601419102e+00 1.36787346515342e-02
3.04580000000000e-01 1.88796983817467e+00 1.36318379276006e-02
3.10860000000000e-01 1.86199598362732e+00 1.35822126148512e-02
3.17140000000000e-01 1.83637946589034e+00 1.35300048998256e-02
3.23420000000000e-01 1.81111536888183e+00 1.34753539512434e-02
3.29700000000000e-01 1.78619884415318e+00 1.34183923370660e-02
3.35980000000000e-01 1.76162510995860e+00 1.33592464092944e-02
3.42260000000000e-01 1.73738945033744e+00 1.32980366596230e-02
3.48540000000000e-01 1.71348721420913e+00 1.32348780487030e-02
3.54820000000000e-01 1.68991381448064e+00 1.31698803114612e-02
3.61100000000000e-01 1.66666472716613e+00 1.31031482406539e-02
3.67380000000000e-01 1.64373549051875e+00 1.30347819505936e-02
3.73660000000000e-01 1.62112170417440e+00 1.29648771227867e-02
3.79940000000000e-01 1.59881902830724e+00 1.28935252350341e-02
3.86220000000000e-01 1.57682318279684e+00 1.28208137753897e-02
3.92500000000000e-01 1.55512994640676e+00 1.27468264422285e-02
3.98780000000000e-01 1.53373515597448e+00 1.26716433315589e-02
4.05060000000000e-01 1.51263470561244e+00 1.25953411125941e-02
4.11340000000000e-01 1.49182454592003e+00 1.25179931925056e-02
4.17620000000000e-01 1.47130068320655e+00 1.24396698711969e-02
4.23900000000000e-01 1.45105917872469e+00 1.23604384868516e-02
4.30180000000000e-01 1.43109614791471e+00 1.22803635529462e-02
4.36460000000000e-01 1.41140775965891e+00 1.21995068873545e-02
4.42740000000000e-01 1.39199023554643e+00 1.21179277341149e-02
4.49020000000000e-01 1.37283984914811e+00 1.20356828783832e-02
4.55300000000000e-01 1.35395292530135e+00 1.19528267550460e-02
4.61580000000000e-01 1.33532583940482e+00 1.18694115514336e-02
4.67860000000000e-01 1.31695501672285e+00 1.17854873045323e-02
4.74140000000000e-01 1.29883693169939e+00 1.17011019930641e-02
4.80420000000000e-01 1.28096810728146e+00 1.16163016247699e-02
4.86700000000000e-01 1.26334511425182e+00 1.15311303192111e-02
4.92980000000000e-01 1.24596457057088e+00 1.14456303863733e-02
4.99260000000000e-01 1.22882314072767e+00 1.13598424013360e-02
5.05540000000000e-01 1.21191753509970e+00 1.12738052752580e-02
5.11820000000000e-01 1.19524450932165e+00 1.11875563228987e-02
5.18100000000000e-01 1.17880086366275e+00 1.11011313268852e-02
5.24380000000000e-01 1.16258344241270e+00 1.10145645989243e-02
5.30660000000000e-01 1.14658913327607e+00 1.09278890381337e-02
5.36940000000000e-01 1.13081486677503e+00 1.08411361866615e-02
5.43220000000000e-01 1.11525761566026e+00 1.07543362827502e-02
5.49500000000000e-01 1.09991439432999e+00 1.06675183113882e-02
5.55780000000000e-01 1.08478225825705e+00 1.05807100526862e-02
5.62060000000000e-01 1.06985830342377e+00 1.04939381280996e-02
5.68340000000000e-01 1.05513966576467e+00 1.04072280446182e-02
5.74620000000000e-01 1.04062352061681e+00 1.03206042370308e-02
5.80900000000000e-01 1.02630708217774e+00 1.02340901083675e-02
5.87180000000000e-01 1.01218760297082e+00 1.01477080686150e-02
5.93460000000000e-01 9.98262373317989e-01 1.00614795717936e-02
5.99740000000000e-01 9.84528720819746e-01 9.97542515148332e-03
6.06020000000000e-01 9.70984009842272e-01 9.88956445487336e-03
6.12300000000000e-01 9.57625641011640e-01 9.80391627541219e-03
6.18580000000000e-01 9.44451050714954e-01 9.71849858412644e-03
6.24860000000000e-01 9.31457710608377e-01 9.63332855967313e-03
6.31140000000000e-01 9.18643127131905e-01 9.54842261718858e-03
6.37420000000000e-01 9.06004841030832e-01 9.46379643598995e-03
6.43700000000000e-01 8.93540426883792e-01 9.37946498618511e-03
6.49980000000000e-01 8.81247492637291e-01 9.29544255424122e-03
6.56260000000000e-01 8.69123679146654e-01 9.21174276756115e-03
6.62540000000000e-01 8.57166659723273e-01 9.12837861811301e-03
6.68820000000000e-01 8.45374139688093e-01 9.04536248515564e-03
6.75100000000000e-01 8.33743855931241e-01 8.96270615710226e-03
6.81380000000000e-01 8.22273576477708e-01 8.88042085255924e-03
6.87660000000000e-01 8.10961100059011e-01 8.79851724057699e-03
6.93940000000000e-01 7.99804255690747e-01 8.71700546014811e-03
7.00220000000000e-01 7.88800902255955e-01 8.63589513898459e-03
7.06500000000000e-01 7.77948928094216e-01 8.55519541160589e-03
7.12780000000000e-01 7.67246250596401e-01 8.47491493676693e-03
7.19060000000000e-01 7.56690815804997e-01 8.39506191425349e-03
7.25340000000000e-01 7.46280598019931e-01 8.31564410107273e-03
7.31620000000000e-01 7.36013599409816e-01 8.23666882706257e-03
7.37900000000000e-01 7.25887849628546e-01 8.15814300994525e-03
7.44180000000000e-01 7.15901405437167e-01 8.08007316984695e-03
7.50460000000000e-01 7.06052350330944e-01 8.00246544330397e-03
7.56740000000000e-01 6.96338794171573e-01 7.92532559677918e-03
7.63020000000000e-01 6.86758872824431e-01 7.84865903970594e-03
7.69300000000000e-01 6.77310747800840e-01 7.77247083707795e-03
7.75580000000000e-01 6.67992605905235e-01 7.69676572160504e-03
7.81860000000000e-01 6.58802658887192e-01 7.62154810544880e-03
7.88140000000000e-01 6.49739143098250e-01 7.54682209155729e-03
7.94420000000000e-01 6.40800319153440e-01 7.47259148461252e-03
8.00700000000000e-01 6.31984471597487e-01 7.39885980160553e-03
8.06980000000000e-01 6.23289908575587e-01 7.32563028205397e-03
8.13260000000000e-01 6.14714961508729e-01 7.25290589787428e-03
8.19540000000000e-01 6.06257984773474e-01 7.18068936292312e-03
8.25820000000000e-01 5.97917355386142e-01 7.10898314221857e-03
8.32100000000000e-01 5.89691472691348e-01 7.03778946085464e-03
8.38380000000000e-01 5.81578758054813e-01 6.96711031261926e-03
8.44660000000000e-01 5.73577654560412e-01 6.89694746832545e-03
8.50940000000000e-01 5.65686626711384e-01 6.82730248386845e-03
8.57220000000000e-01 5.57904160135654e-01 6.75817670801783e-03
8.63500000000000e-01 5.50228761295208e-01 6.68957128995261e-03
8.69780000000000e-01 5.42658957199468e-01 6.62148718654963e-03
8.76060000000000e-01 5.35193295122608e-01 6.55392516943480e-03
8.82340000000000e-01 5.27830342324766e-01 6.48688583180420e-03
8.88620000000000e-01 5.20568685777077e-01 6.42036959502281e-03
8.94900000000000e-01 5.13406931890505e-01 6.35437671500956e-03
9.01180000000000e-01 5.06343706248395e-01 6.28890728841637e-03
9.07460000000000e-01 4.99377653342711e-01 6.22396125860676e-03
9.13740000000000e-01 4.92507436313894e-01 6.15953842144237e-03
9.20020000000000e-01 4.85731736694311e-01 6.09563843088257e-03
9.26300000000000e-01 4.79049254155222e-01 6.03226080440470e-03
9.32580000000000e-01 4.72458706257236e-01 5.96940492825060e-03
9.38860000000000e-01 4.65958828204195e-01 5.90707006250461e-03
9.45140000000000e-01 4.59548372600450e-01 5.84525534600940e-03
9.51420000000000e-01 4.53226109211467e-01 5.78395980112475e-03
9.57700000000000e-01 4.46990824727738e-01 5.72318233833474e-03
9.63980000000000e-01 4.40841322531928e-01 5.66292176070743e-03
9.70260000000000e-01 4.34776422469237e-01 5.60317676821316e-03
9.76540000000000e-01 4.28794960620910e-01 5.54394596190494e-03
9.82820000000000e-01 4.22895789080876e-01 5.48522784796627e-03
9.89100000000000e-01 4.17077775735444e-01 5.42702084162996e-03
9.95380000000000e-01 4.11339804046046e-01 5.36932327097243e-03
1.00166000000000e+00 4.05680772834956e-01 5.31213338058809e-03
1.00794000000000e+00 4.00099596073965e-01 5.25544933514608e-03
1.01422000000000e+00 3.94595202675962e-01 5.19926922283490e-03
1.02050000000000e+00 3.89166536289375e-01 5.14359105869738e-03
1.02678000000000e+00 3.83812555095455e-01 5.08841278785943e-03
1.03306000000000e+00 3.78532231608331e-01 5.03373228865668e-03
1.03934000000000e+00 3.73324552477830e-01 4.97954737566153e-03
1.04562000000000e+00 3.68188518295002e-01 4.92585580261387e-03
1.05190000000000e+00 3.63123143400324e-01 4.87265526525871e-03
1.05818000000000e+00 3.58127455694542e-01 4.81994340409365e-03
1.06446000000000e+00 3.53200496452112e-01 4.76771780702858e-03
1.07074000000000e+00 3.48341320137215e-01 4.71597601196049e-03
1.07702000000000e+00 3.43548994222293e-01 4.66471550926624e-03
1.08330000000000e+00 3.38822599009091e-01 4.61393374421553e-03
1.08958000000000e+00 3.34161227452157e-01 4.56362811930671e-03
1.09586000000000e+00 3.29563984984768e-01 4.51379599652795e-03
1.10214000000000e+00 3.25029989347256e-01 4.46443469954528e-03
1.10842000000000e+00 3.20558370417690e-01 4.41554151582058e-03
1.11470000000000e+00 3.16148270044892e-01 4.36711369866154e-03
1.12098000000000e+00 3.11798841883751e-01 4.31914846920519e-03
1.12726000000000e+00 3.07509251232795e-01 4.27164301833728e-03
1.13354000000000e+00 3.03278674874008e-01 4.22459450854932e-03
1.13982000000000e+00 2.99106300914842e-01 4.17800007573563e-03
1.14610000000000e+00 2.94991328632409e-01 4.13185683093169e-03
1.15238000000000e+00 2.90932968319812e-01 4.08616186199561e-03
1.15866000000000e+00 2.86930441134593e-01 4.04091223523450e-03
1.16494000000000e+00 2.82982978949264e-01 3.99610499697760e-03
1.17122000000000e+00 2.79089824203894e-01 3.95173717509763e-03
1.17750000000000e+00 2.75250229760729e-01 3.90780578048145e-03
1.18378000000000e+00 2.71463458760806e-01 3.86430780845253e-03
1.19006000000000e+00 2.67728784482540e-01 3.82124024014547e-03
1.19634000000000e+00 2.64045490202260e-01 3.77860004383483e-03
1.20262000000000e+00 2.60412869056666e-01 3.73638417621976e-03
1.20890000000000e+00 2.56830223907168e-01 3.69458958366490e-03
1.21518000000000e+00 2.53296867206100e-01 3.65321320339960e-03
1.22146000000000e+00 2.49812120864775e-01 3.61225196467615e-03
1.22774000000000e+00 2.46375316123350e-01 3.57170278988869e-03
1.23402000000000e+00 2.42985793422483e-01 3.53156259565381e-03
1.24030000000000e+00 2.39642902276759e-01 3.49182829385385e-03
1.24658000000000e+00 2.36346001149854e-01 3.45249679264384e-03
1.25286000000000e+00 2.33094457331415e-01 3.41356499742384e-03
1.25914000000000e+00 2.29887646815643e-01 3.37502981177715e-03
1.26542000000000e+00 2.26724954181530e-01 3.33688813837523e-03
1.27170000000000e+00 2.23605772474761e-01 3.29913687985058e-03
1.27798000000000e+00 2.20529503091229e-01 3.26177293963889e-03
1.28426000000000e+00 2.17495555662160e-01 3.22479322279075e-03
1.29054000000000e+00 2.14503347940808e-01 3.18819463675377e-03
1.29682000000000e+00 2.11552305690726e-01 3.15197409212682e-03
1.30310000000000e+00 2.08641862575554e-01 3.11612850338638e-03
1.30938000000000e+00 2.05771460050339e-01 3.08065478958603e-03
1.31566000000000e+00 2.02940547254343e-01 3.04554987503000e-03
1.32194000000000e+00 2.00148580905325e-01 3.01081068992152e-03
1.32822000000000e+00 1.97395025195283e-01 2.97643417098672e-03
1.33450000000000e+00 1.94679351687623e-01 2.94241726207449e-03
1.34078000000000e+00 1.92001039215748e-01 2.90875691473366e-03
1.34706000000000e+00 1.89359573783041e-01 2.87545008876736e-03
1.35334000000000e+00 1.86754448464226e-01 2.84249375276601e-03
1.35962000000000e+00 1.84185163308076e-01 2.80988488461919e-03
1.36590000000000e+00 1.81651225241476e-01 2.77762047200654e-03
1.37218000000000e+00 1.79152147974790e-01 2.74569751286940e-03
1.37846000000000e+00 1.76687451908543e-01 2.71411301586301e-03
1.38474000000000e+00 1.74256664041374e-01 2.68286400078977e-03
1.39102000000000e+00 1.71859317879270e-01 2.65194749901463e-03
1.39730000000000e+00 1.69494953346032e-01 2.62136055386269e-03
1.40358000000000e+00 1.67163116694989e-01 2.59110022099989e-03
1.40986000000000e+00 1.64863360421914e-01 2.56116356879685e-03
1.41614000000000e+00 1.62595243179148e-01 2.53154767867676e-03
1.42242000000000e+00 1.60358329690896e-01 2.50224964544793e-03
1.42870000000000e+00 1.58152190669695e-01 2.47326657762077e-03
1.43498000000000e+00 1.55976402734030e-01 2.44459559771035e-03
1.44126000000000e+00 1.53830548327082e-01 2.41623384252454e-03
1.44754000000000e+00 1.51714215636592e-01 2.38817846343848e-03
1.45382000000000e+00 1.49626998515836e-01 2.36042662665583e-03
1.46010000000000e+00 1.47568496405673e-01 2.33297551345661e-03
1.46638000000000e+00 1.45538314257679e-01 2.30582232043250e-03
1.47266000000000e+00 1.43536062458334e-01 2.27896425971043e-03
1.47894000000000e+00 1.41561356754244e-01 2.25239855916378e-03
1.48522000000000e+00 1.39613818178408e-01 2.22612246261220e-03
1.49150000000000e+00 1.37693072977482e-01 2.20013323001061e-03
1.49778000000000e+00 1.35798752540058e-01 2.17442813762695e-03
1.50406000000000e+00 1.33930493325919e-01 2.14900447820980e-03
1.51034000000000e+00 1.32087936796273e-01 2.12385956114589e-03
1.51662000000000e+00 1.30270729344949e-01 2.09899071260743e-03
1.52290000000000e+00 1.28478522230531e-01 2.07439527569033e-03
1.52918000000000e+00 1.26710971509435e-01 2.05007061054316e-03
1.53546000000000e+00 1.24967737969898e-01 2.02601409448674e-03
1.54174000000000e+00 1.23248487066886e-01 2.00222312212551e-03
1.54802000000000e+00 1.21552888857885e-01 1.97869510545058e-03
1.55430000000000e+00 1.19880617939586e-01 1.95542747393435e-03
1.56058000000000e+00 1.18231353385434e-01 1.93241767461739e-03
1.56686000000000e+00 1.16604778684040e-01 1.90966317218776e-03
1.57314000000000e+00 1.15000581678439e-01 1.88716144905308e-03
1.57942000000000e+00 1.13418454506183e-01 1.86491000540516e-03
1.58570000000000e+00 1.11858093540259e-01 1.84290635927803e-03
1.59198000000000e+00 1.10319199330822e-01 1.82114804659925e-03
1.59826000000000e+00 1.08801476547724e-01 1.79963262123465e-03
1.60454000000000e+00 1.07304633923840e-01 1.77835765502680e-03
1.61082000000000e+00 1.05828384199168e-01 1.75732073782763e-03
1.61710000000000e+00 1.04372444065703e-01 1.73651947752518e-03
1.62338000000000e+00 1.02936534113066e-01 1.71595150006453e-03
1.62966000000000e+00 1.01520378774882e-01 1.69561444946344e-03
1.63594000000000e+00 1.00123706275898e-01 1.67550598782280e-03
1.64222000000000e+00 9.87462485798222e-02 1.65562379533176e-03
1.64850000000000e+00 9.73877413378906e-02 1.63596557026801e-03
1.65478000000000e+00 9.60479238381307e-02 1.61652902899342e-03
1.66106000000000e+00 9.47265389553306e-02 1.59731190594505e-03
1.66734000000000e+00 9.34233331016934e-02 1.57831195362184e-03
1.67362000000000e+00 9.21380561781711e-02 1.55952694256671e-03
1.67990000000000e+00 9.08704615264678e-02 1.54095466134490e-03
1.68618000000000e+00 8.96203058817033e-02 1.52259291651816e-03
1.69246000000000e+00 8.83873493257284e-02 1.50443953261514e-03
1.69874000000000e+00 8.71713552410814e-02 1.48649235209816e-03
1.70502000000000e+00 8.59720902655793e-02 1.46874923532631e-03
1.71130000000000e+00 8.47893242475328e-02 1.45120806051525e-03
1.71758000000000e+00 8.36228302015776e-02 1.43386672369358e-03
1.72386000000000e+00 8.24723842651142e-02 1.41672313865613e-03
1.73014000000000e+00 8.13377656553453e-02 1.39977523691427e-03
1.73642000000000e+00 8.02187566269060e-02 1.38302096764313e-03
1.74270000000000e+00 7.91151424300759e-02 1.36645829762607e-03
1.74898000000000e+00 7.80267112695662e-02 1.35008521119650e-03
1.75526000000000e+00 7.69532542638742e-02 1.33389971017696e-03
1.76154000000000e+00 7.58945654051964e-02 1.31789981381577e-03
1.76782000000000e+00 7.48504415198938e-02 1.30208355872144e-03
1.77410000000000e+00 7.38206822295005e-02 1.28644899879445e-03
1.78038000000000e+00 7.28050899122689e-02 1.27099420515712e-03
1.78666000000000e+00 7.18034696652440e-02 1.25571726608131e-03
1.79294000000000e+00 7.08156292668597e-02 1.24061628691388e-03
1.79922000000000e+00 6.98413791400489e-02 1.22568939000054e-03
1.80550000000000e+00 6.88805323158624e-02 1.21093471460760e-03
1.81178000000000e+00 6.79329043975869e-02 1.19635041684215e-03
1.81806000000000e+00 6.69983135253577e-02 1.18193466957044e-03
1.82434000000000e+00 6.60765803412576e-02 1.16768566233463e-03
1.83062000000000e+00 6.51675279548967e-02 1.15360160126810e-03
1.83690000000000e+00 6.42709819094643e-02 1.13968070900928e-03
1.84318000000000e+00 6.33867701482500e-02 1.12592122461399e-03
1.84946000000000e+00 6.25147229816232e-02 1.11232140346660e-03
1.85574000000000e+00 6.16546730544682e-02 1.09887951718988e-03
1.86202000000000e+00 6.08064553140675e-02 1.08559385355372e-03
1.86830000000000e+00 5.99699069784253e-02 1.07246271638264e-03
1.87458000000000e+00 5.91448675050289e-02 1.05948442546224e-03
1.88086000000000e+00 5.83311785600384e-02 1.04665731644476e-03
1.88714000000000e+00 5.75286839879011e-02 1.03397974075359e-03
1.89342000000000e+00 5.67372297813831e-02 1.02145006548699e-03
1.89970000000000e+00 5.59566640520141e-02 1.00906667332088e-03
1.90598000000000e+00 5.51868370009383e-02 9.96827962410917e-04
1.91226000000000e+00 5.44276008901661e-02 9.84732346293816e-04
1.91854000000000e+00 5.36788100142221e-02 9.72778253787980e-04
1.92482000000000e+00 5.29403206721824e-02 9.60964128893573e-04
1.93110000000000e+00 5.22119911400968e-02 9.49288430691941e-04
1.93738000000000e+00 5.14936816437905e-02 9.37749633244474e-04
1.94366000000000e+00 5.07852543320403e-02 9.26346225491097e-04
1.94994000000000e+00 5.00865732501190e-02 9.15076711148158e-04
1.95622000000000e+00 4.93975043137043e-02 9.03939608606010e-04
1.96250000000000e+00 4.87179152831471e-02 8.92933450826200e-04
1.96878000000000e+00 4.80476757380926e-02 8.82056785238249e-04
1.97506000000000e+00 4.73866570524518e-02 8.71308173636289e-04
1.98134000000000e+00 4.67347323697166e-02 8.60686192075356e-04
