Energy (eV)          EEDF (eV^-(3/2))     First Anisotropy
1.95454545454545e-03 4.94462377527138e+00 3.11941225501053e-03
5.86363636363636e-03 4.89295151617831e+00 5.14140600875924e-03
9.77272727272727e-03 4.84181924201858e+00 6.76177414984331e-03
1.36818181818182e-02 4.79122130995562e+00 7.97739290655715e-03
1.75909090909091e-02 4.74115213591115e+00 8.97857973732286e-03
2.15000000000000e-02 4.69160619426191e+00 9.83767706194598e-03
2.54090909090909e-02 4.64257801693436e+00 1.05923127886309e-02
2.93181818181818e-02 4.59406219342035e+00 1.12653220137678e-02
3.32272727272727e-02 4.54605336951544e+00 1.18719233361804e-02
3.71363636363636e-02 4.49854624697113e+00 1.24229248294054e-02
4.10454545454545e-02 4.45153558290865e+00 1.29263653495706e-02
4.49545454545455e-02 4.40501618923952e+00 1.33884385263956e-02
4.88636363636364e-02 4.35898293209150e+00 1.38140509152196e-02
5.27727272727273e-02 4.31343073124418e+00 1.42071780697716e-02
5.66818181818182e-02 4.26835455956670e+00 1.45711018295392e-02
6.05909090909091e-02 4.22374944246286e+00 1.49085742040082e-02
6.45000000000000e-02 4.17961045732206e+00 1.52219339982070e-02
6.84090909090909e-02 4.13593273291536e+00 1.55131919173489e-02
7.23181818181818e-02 4.09271144904499e+00 1.57840940755306e-02
7.62272727272727e-02 4.04994183581960e+00 1.60361702829530e-02
8.01363636363636e-02 4.00761917319427e+00 1.62707713526174e-02
8.40454545454545e-02 3.96573879044954e+00 1.64890983883584e-02
8.79545454545455e-02 3.92429606567596e+00 1.66922260648984e-02
9.18636363636364e-02 3.88328642526374e+00 1.68811213561747e-02
9.57727272727273e-02 3.84270534339854e+00 1.70566587640976e-02
9.96818181818182e-02 3.80254834156169e+00 1.72196328373781e-02
1.03590909090909e-01 3.76281098788762e+00 1.73707684882721e-02
1.07500000000000e-01 3.72348889709306e+00 1.75107296322005e-02
1.11409090909091e-01 3.68457772993459e+00 1.76401266006141e-02
1.15318181818182e-01 3.64607319184086e+00 1.77595221985130e-02
1.19227272727273e-01 3.60797103346362e+00 1.78694369040554e-02
1.23136363636364e-01 3.57026704986080e+00 1.79703534853465e-02
1.27045454545455e-01 3.53295708003255e+00 1.80627208539423e-02
1.30954545454545e-01 3.49603700646206e+00 1.81469574369302e-02
1.34863636363636e-01 3.45950275466013e+00 1.82234541140302e-02
1.38772727272727e-01 3.42335029271775e+00 1.82925767879531e-02
1.42681818181818e-01 3.38757563085995e+00 1.83546686434221e-02
1.46590909090909e-01 3.35217482100552e+00 1.84100521399650e-02
1.50500000000000e-01 3.31714395633134e+00 1.84590307512058e-02
1.54409090909091e-01 3.28247917105211e+00 1.85018906116338e-02
1.58318181818182e-01 3.24817663935205e+00 1.85389018630178e-02
1.62227272727273e-01 3.21423257561374e+00 1.85703198530381e-02
1.66136363636364e-01 3.18064323378009e+00 1.85963863389898e-02
1.70045454545455e-01 3.14740490694091e+00 1.86173304715380e-02
1.73954545454545e-01 3.11451392692387e+00 1.86333697070529e-02
1.77863636363636e-01 3.08196666388911e+00 1.86447106329025e-02
1.81772727272727e-01 3.04975952592981e+00 1.86515497161904e-02
1.85681818181818e-01 3.01788895867518e+00 1.86540739846748e-02
1.89590909090909e-01 2.98635144489822e+00 1.86524616470899e-02
1.93500000000000e-01 2.95514350412754e+00 1.86468826395263e-02
1.97409090909091e-01 2.92426169240981e+00 1.86374992052767e-02
2.01318181818182e-01 2.89370260148462e+00 1.86244663291340e-02
2.05227272727273e-01 2.86346285885911e+00 1.86079321325624e-02
2.09136363636364e-01 2.83353912728356e+00 1.85880383390996e-02
2.13045454545455e-01 2.80392810438313e+00 1.85649206239281e-02
2.16954545454545e-01 2.77462652229336e+00 1.85387089564757e-02
2.20863636363636e-01 2.74563114729924e+00 1.85095279172550e-02
2.24772727272727e-01 2.71693877947901e+00 1.84774969915484e-02
2.28681818181818e-01 2.68854625235067e+00 1.84427308420613e-02
2.32590909090909e-01 2.66045043252251e+00 1.84053395621888e-02
2.36500000000000e-01 2.63264821934732e+00 1.83654288954800e-02
2.40409090909091e-01 2.60513654468716e+00 1.83231005047520e-02
2.44318181818182e-01 2.57791237225023e+00 1.82784521439659e-02
2.48227272727273e-01 2.55097269758412e+00 1.82315778161449e-02
2.52136363636364e-01 2.52431454763352e+00 1.81825680035746e-02
2.56045454545455e-01 2.49793498041207e+00 1.81315098185611e-02
2.59954545454545e-01 2.47183108467771e+00 1.80784871609043e-02
2.63863636363636e-01 2.44599997961119e+00 1.80235808656386e-02
2.67772727272727e-01 2.42043881449856e+00 1.79668688419361e-02
2.71681818181818e-01 2.39514476841636e+00 1.79084262038413e-02
2.75590909090909e-01 2.37011504992029e+00 1.78483253932869e-02
2.79500000000000e-01 2.34534689673715e+00 1.77866362827172e-02
2.83409090909091e-01 2.32083757554070e+00 1.77234263249847e-02
2.87318181818182e-01 2.29658438140529e+00 1.76587606295303e-02
2.91227272727273e-01 2.27258463775476e+00 1.75927020324357e-02
2.95136363636364e-01 2.24883569598367e+00 1.75253112305774e-02
2.99045454545455e-01 2.22533493516501e+00 1.74566468550773e-02
3.02954545454545e-01 2.20207976176094e+00 1.73867655542317e-02
3.06863636363636e-01 2.17906760933641e+00 1.73157220720905e-02
3.10772727272727e-01 2.15629593827627e+00 1.72435693230745e-02
3.14681818181818e-01 2.13376223550479e+00 1.71703584628885e-02
3.18590909090909e-01 2.11146401420836e+00 1.70961389558516e-02
3.22500000000000e-01 2.08939881356103e+00 1.70209586278726e-02
3.26409090909091e-01 2.06756419851527e+00 1.69448637609760e-02
3.30318181818182e-01 2.04595775934430e+00 1.68678991288574e-02
3.34227272727273e-01 2.02457711156706e+00 1.67901080292897e-02
3.38136363636364e-01 2.00341989562079e+00 1.67115323715153e-02
3.42045454545455e-01 1.98248377660059e+00 1.66322127149563e-02
3.45954545454545e-01 1.96176644400176e+00 1.65521883173034e-02
3.49863636363636e-01 1.94126561146469e+00 1.64714971804121e-02
3.53772727272727e-01 1.92097901652278e+00 1.63901760941986e-02
3.57681818181818e-01 1.90090442035261e+00 1.63082606786554e-02
3.61590909090909e-01 1.88103960752688e+00 1.62257854240053e-02
3.65500000000000e-01 1.86138238576994e+00 1.61427837198808e-02
3.69409090909091e-01 1.84193058576483e+00 1.60592879202394e-02
3.73318181818182e-01 1.82268206076535e+00 1.59753293598380e-02
3.77227272727273e-01 1.80363468650923e+00 1.58909383688820e-02
3.81136363636364e-01 1.78478636093310e+00 1.58061443344616e-02
3.85045454545455e-01 1.76613500394058e+00 1.57209757219685e-02
3.88954545454545e-01 1.74767855717266e+00 1.56354601050248e-02
3.92863636363636e-01 1.72941498378053e+00 1.55496241941909e-02
3.96772727272727e-01 1.71134226820087e+00 1.54634938645777e-02
4.00681818181818e-01 1.69345841593340e+00 1.53770941824139e-02
4.04590909090909e-01 1.67576145332073e+00 1.52904494305586e-02
4.08500000000000e-01 1.65824942733054e+00 1.52035831252377e-02
4.12409090909091e-01 1.64092040537921e+00 1.51165180633401e-02
4.16318181818182e-01 1.62377247500001e+00 1.50292763293162e-02
4.20227272727273e-01 1.60680374375171e+00 1.49418793009089e-02
4.24136363636364e-01 1.59001233896944e+00 1.48543476946833e-02
4.28045454545455e-01 1.57339640755803e+00 1.47667015781741e-02
4.31954545454545e-01 1.55695411578751e+00 1.46789603895183e-02
4.35863636363636e-01 1.54068364909067e+00 1.45911429563632e-02
4.39772727272727e-01 1.52458321186294e+00 1.45032675141269e-02
4.43681818181818e-01 1.50865102726413e+00 1.44153517236399e-02
4.47590909090909e-01 1.49288533702238e+00 1.43274126881473e-02
4.51500000000000e-01 1.47728440124010e+00 1.42394669631084e-02
4.55409090909091e-01 1.46184649823349e+00 1.41515305921142e-02
4.59318181818182e-01 1.44656992424702e+00 1.40636191087867e-02
4.63227272727273e-01 1.43145299336187e+00 1.39757475378768e-02
4.67136363636364e-01 1.41649403727737e+00 1.38879304302756e-02
4.71045454545455e-01 1.40169140512689e+00 1.38001818699154e-02
4.74954545454545e-01 1.38704346329569e+00 1.37125154871757e-02
4.78863636363636e-01 1.37254859524057e+00 1.36249444718325e-02
4.82772727272727e-01 1.35820520131154e+00 1.35374815856053e-02
4.86681818181818e-01 1.34401169857528e+00 1.34501391743142e-02
4.90590909090909e-01 1.32996652064037e+00 1.33629291796303e-02
4.94500000000000e-01 1.31606811748454e+00 1.32758631448194e-02
4.98409090909091e-01 1.30231495530914e+00 1.31889522428372e-02
5.02318181818182e-01 1.28870551629229e+00 1.31022072755830e-02
5.06227272727273e-01 1.27523829849974e+00 1.30156386725709e-02
5.10136363636364e-01 1.26191181569270e+00 1.29292565185768e-02
5.14045454545454e-01 1.24872459716390e+00 1.28430705574487e-02
5.17954545454545e-01 1.23567518757521e+00 1.27570902015472e-02
5.21863636363636e-01 1.22276214679704e+00 1.26713245408842e-02
5.25772727272727e-01 1.20998404974947e+00 1.25857823519975e-02
5.29681818181818e-01 1.19733948624490e+00 1.25004721065742e-02
5.33590909090909e-01 1.18482706083248e+00 1.24154019797999e-02
5.37500000000000e-01 1.17244539264407e+00 1.23305798536475e-02
5.41409090909091e-01 1.16019311526292e+00 1.22460133393297e-02
5.45318181818182e-01 1.14806887650916e+00 1.21617097751776e-02
5.49227272727273e-01 1.13607133835483e+00 1.20776762240781e-02
5.53136363636364e-01 1.12419917675464e+00 1.19939194957263e-02
5.57045454545455e-01 1.11245108149982e+00 1.19104461485698e-02
5.60954545454545e-01 1.10082575607350e+00 1.18272624966150e-02
5.64863636363636e-01 1.08932191750768e+00 1.17443746160277e-02
5.68772727272727e-01 1.07793829624162e+00 1.16617883515546e-02
5.72681818181818e-01 1.06667363598171e+00 1.15795093227725e-02
5.76590909090909e-01 1.05552669356286e+00 1.14975429301519e-02
5.80500000000000e-01 1.04449623881131e+00 1.14158943568214e-02
5.84409090909091e-01 1.03358105442618e+00 1.13345685868035e-02
5.88318181818182e-01 1.02277993579262e+00 1.12535704022224e-02
5.92227272727273e-01 1.01209169090188e+00 1.11729043801645e-02
5.96136363636364e-01 1.00151514020194e+00 1.10925749108542e-02
6.00045454545455e-01 9.91049116467308e-01 1.10125861984516e-02
6.03954545454545e-01 9.80692464670215e-01 1.09329422660478e-02
6.07863636363636e-01 9.70444041853145e-01 1.08536469605175e-02
6.11772727272727e-01 9.60302717002718e-01 1.07747039572472e-02
6.15681818181818e-01 9.50267370924854e-01 1.06961167647417e-02
6.19590909090909e-01 9.40336896121267e-01 1.06178887291009e-02
6.23500000000000e-01 9.30510196667232e-01 1.05400230348245e-02
6.27409090909091e-01 9.20786188105047e-01 1.04625227198013e-02
6.31318181818182e-01 9.11163797280774e-01 1.03853906722498e-02
6.35227272727273e-01 9.01641962269763e-01 1.03086296273792e-02
6.39136363636364e-01 8.92219632244682e-01 1.02322421823960e-02
6.43045454545454e-01 8.82895767359539e-01 1.01562307965947e-02
6.46954545454545e-01 8.73669338634932e-01 1.00805977950777e-02
6.50863636363636e-01 8.64539327844477e-01 1.00053453723684e-02
6.54772727272727e-01 8.55504727402459e-01 9.93047559593867e-03
6.58681818181818e-01 8.46564540252625e-01 9.85599040965128e-03
6.62590909090909e-01 8.37717779758148e-01 9.78189163710340e-03
6.66500000000000e-01 8.28963469592743e-01 9.70818098182525e-03
6.70409090909091e-01 8.20300643644919e-01 9.63486003971917e-03
6.74318181818182e-01 8.11728345875047e-01 9.56193029595904e-03
6.78227272727273e-01 8.03245630246483e-01 9.48939312166470e-03
6.82136363636364e-01 7.94851560608842e-01 9.41724978639909e-03
6.86045454545455e-01 7.86545210594691e-01 9.34550145782518e-03
6.89954545454545e-01 7.78325663517310e-01 9.27414920450338e-03
6.93863636363636e-01 7.70192012269521e-01 9.20319399861320e-03
6.97772727272727e-01 7.62143359223597e-01 9.13263671860915e-03
7.01681818181818e-01 7.54178816132190e-01 9.06247815181480e-03
7.05590909090909e-01 7.46297504030305e-01 8.99271899694700e-03
7.09500000000000e-01 7.38498553138297e-01 8.92335986393295e-03
7.13409090909091e-01 7.30781102775930e-01 8.85440128430620e-03
7.17318181818182e-01 7.23144301236994e-01 8.78584370819799e-03
7.21227272727273e-01 7.15587305725972e-01 8.71768750114219e-03
7.25136363636364e-01 7.08109282254721e-01 8.64993295455165e-03
7.29045454545455e-01 7.00709405550428e-01 8.58258028511835e-03
7.32954545454545e-01 6.93386858964541e-01 8.51562963693332e-03
7.36863636363636e-01 6.86140834382632e-01 8.44908108354926e-03
7.40772727272727e-01 6.78970532135229e-01 8.38293462999556e-03
7.44681818181818e-01 6.71875160909555e-01 8.31719021474745e-03
7.48590909090909e-01 6.64853937662206e-01 8.25184771164267e-03
7.52500000000000e-01 6.57906087532726e-01 8.18690692946290e-03
7.56409090909091e-01 6.51030843766537e-01 8.12236762067547e-03
7.60318181818182e-01 6.44227447604790e-01 8.05822947858619e-03
7.64227272727273e-01 6.37495148226376e-01 7.99449213433578e-03
7.68136363636364e-01 6.30833202656406e-01 7.93115516573132e-03
7.72045454545454e-01 6.24240875684223e-01 7.86821809650125e-03
7.75954545454545e-01 6.17717439782258e-01 7.80568039791040e-03
7.79863636363636e-01 6.11262175025739e-01 7.74354149033120e-03
7.83772727272727e-01 6.04874369013249e-01 7.68180074477824e-03
7.87681818181818e-01 5.98553316788101e-01 7.62045748441009e-03
7.91590909090909e-01 5.92298320760540e-01 7.55951098599022e-03
7.95500000000000e-01 5.86108690630754e-01 7.49896047933081e-03
7.99409090909091e-01 5.79983743319809e-01 7.43880515467655e-03
8.03318181818182e-01 5.73922802872746e-01 7.37904416005452e-03
8.07227272727273e-01 5.67925200405681e-01 7.31967659849282e-03
8.11136363636364e-01 5.61990274024693e-01 7.26070153549656e-03
8.15045454545455e-01 5.56117368752780e-01 7.20211799823249e-03
8.18954545454545e-01 5.50305836457572e-01 7.14392497676231e-03
8.22863636363636e-01 5.44555035779801e-01 7.08612142524216e-03
8.26772727272727e-01 5.38864332062529e-01 7.02870626309479e-03
8.30681818181818e-01 5.33233097281105e-01 6.97167837615684e-03
8.34590909090909e-01 5.27660709973853e-01 6.91503661779395e-03
8.38500000000000e-01 5.22146555173489e-01 6.85877980827071e-03
8.42409090909091e-01 5.16690024345268e-01 6.80290674101392e-03
8.46318181818182e-01 5.11290515301635e-01 6.74741618017127e-03
8.50227272727273e-01 5.05947432154111e-01 6.69230685805996e-03
8.54136363636364e-01 5.00660185241365e-01 6.63757748151987e-03
8.58045454545455e-01 4.95428191064135e-01 6.58322673107553e-03
8.61954545454545e-01 4.90250872220842e-01 6.52925326187817e-03
8.65863636363636e-01 4.85127657343857e-01 6.47565570462138e-03
8.69772727272727e-01 4.80057981036453e-01 6.42243266643657e-03
8.73681818181818e-01 4.75041283810408e-01 6.36958273176920e-03
8.77590909090909e-01 4.70077012024260e-01 6.31710446323075e-03
8.81500000000000e-01 4.65164617822200e-01 6.26499640093615e-03
8.85409090909091e-01 4.60303559078716e-01 6.21325706783266e-03
8.89318181818182e-01 4.55493299323344e-01 6.16188496747012e-03
8.93227272727273e-01 4.50733307697011e-01 6.11087858167712e-03
8.97136363636364e-01 4.46023058888217e-01 6.06023637597587e-03
9.01045454545454e-01 4.41362033075071e-01 6.00995679875210e-03
9.04954545454545e-01 4.36749715867918e-01 5.96003828197301e-03
9.08863636363636e-01 4.32185598252568e-01 5.91047924188541e-03
9.12772727272727e-01 4.27669176534131e-01 5.86127807969873e-03
9.16681818181818e-01 4.23199952281423e-01 5.81243318225239e-03
9.20590909090909e-01 4.18777432271960e-01 5.76394292266396e-03
9.24500000000000e-01 4.14401128437528e-01 5.71580565966273e-03
9.28409090909091e-01 4.10070557814645e-01 5.66801974213816e-03
9.32318181818182e-01 4.05785242478172e-01 5.62058350711287e-03
9.36227272727273e-01 4.01544709501770e-01 5.57349527763633e-03
9.40136363636364e-01 3.97348490901267e-01 5.52675336741304e-03
9.44045454545455e-01 3.93196123583017e-01 5.48035607999898e-03
9.47954545454545e-01 3.89087149292790e-01 5.43430170934715e-03
9.51863636363636e-01 3.85021114565195e-01 5.38858854033743e-03
9.55772727272727e-01 3.80997570673647e-01 5.34321484929458e-03
9.59681818181818e-01 3.77016073580834e-01 5.29817890449435e-03
9.63590909090909e-01 3.73076183889721e-01 5.25347896665466e-03
9.67500000000000e-01 3.69177466795056e-01 5.20911328828310e-03
9.71409090909091e-01 3.65319492039067e-01 5.16508011756718e-03
9.75318181818182e-01 3.61501833852839e-01 5.12137769654118e-03
9.79227272727273e-01 3.57724070920557e-01 5.07800425918373e-03
9.83136363636364e-01 3.53985786329237e-01 5.03495803538122e-03
9.87045454545455e-01 3.50286567522718e-01 4.99223725016444e-03
9.90954545454545e-01 3.46626006256123e-01 4.94984012411959e-03
9.94863636363636e-01 3.43003698550816e-01 4.90776487378701e-03
9.98772727272727e-01 3.39419244649811e-01 4.86600970898597e-03
1.00268181818182e+00 3.35872248983482e-01 4.82457284145405e-03
1.00659090909091e+00 3.32362320099425e-01 4.78345248106994e-03
1.01050000000000e+00 3.28889070642631e-01 4.74264683971325e-03
1.01440909090909e+00 3.25452117274614e-01 4.70215410924876e-03
1.01831818181818e+00 3.22051080726143e-01 4.66197247968836e-03
1.02222727272727e+00 3.18685585659536e-01 4.62210015996673e-03
1.02613636363636e+00 3.15355260659466e-01 4.58253534747699e-03
1.03004545454545e+00 3.12059738191967e-01 4.54327623873106e-03
1.03395454545455e+00 3.08798654563874e-01 4.50432102967034e-03
1.03786363636364e+00 3.05571649882675e-01 4.46566791595508e-03
1.04177272727273e+00 3.02378368016816e-01 4.42731509325445e-03
1.04568181818182e+00 2.99218456556389e-01 4.38926075753892e-03
1.04959090909091e+00 2.96091566774240e-01 4.35150310534993e-03
1.05350000000000e+00 2.92997353587479e-01 4.31404034267423e-03
1.05740909090909e+00 2.89935475492553e-01 4.27687065917938e-03
1.06131818181818e+00 2.86905594608775e-01 4.23999224588222e-03
1.06522727272727e+00 2.83907376559131e-01 4.20340331323275e-03
1.06913636363636e+00 2.80940490460911e-01 4.16710206448999e-03
1.07304545454545e+00 2.78004608889196e-01 4.13108670497984e-03
1.07695454545455e+00 2.75099407840719e-01 4.09535544232459e-03
1.08086363636364e+00 2.72224566698099e-01 4.05990648665347e-03
1.08477272727273e+00 2.69379768194482e-01 4.02473805081563e-03
1.08868181818182e+00 2.66564698378514e-01 3.98984835059483e-03
1.09259090909091e+00 2.63779046579694e-01 3.95523560490579e-03
1.09650000000000e+00 2.61022505374088e-01 3.92089804350538e-03
1.10040909090909e+00 2.58294770527420e-01 3.88683388445563e-03
1.10431818181818e+00 2.55595541031017e-01 3.85304134951454e-03
1.10822727272727e+00 2.52924518998485e-01 3.81951867989152e-03
1.11213636363636e+00 2.50281409656403e-01 3.78626411296293e-03
1.11604545454545e+00 2.47665921311789e-01 3.75327589032038e-03
1.11995454545455e+00 2.45077765319908e-01 3.72055225793614e-03
1.12386363636364e+00 2.42516656052411e-01 3.68809146631387e-03
1.12777272727273e+00 2.39982310865828e-01 3.65589177064033e-03
1.13168181818182e+00 2.37474450070372e-01 3.62395143093967e-03
1.13559090909091e+00 2.34992796899065e-01 3.59226871221301e-03
1.13950000000000e+00 2.32537077477201e-01 3.56084189114537e-03
1.14340909090909e+00 2.30107020772412e-01 3.52966923637895e-03
1.14731818181818e+00 2.27702358624361e-01 3.49874902193154e-03
1.15122727272727e+00 2.25322825655047e-01 3.46807954093592e-03
1.15513636363636e+00 2.22968159259723e-01 3.43765908526122e-03
1.15904545454545e+00 2.20638099577911e-01 3.40748595251748e-03
1.16295454545455e+00 2.18332389464726e-01 3.37755844617099e-03
1.16686363636364e+00 2.16050774462490e-01 3.34787487564750e-03
1.17077272727273e+00 2.13793002772664e-01 3.31843355643743e-03
1.17468181818182e+00 2.11558825228053e-01 3.28923281020304e-03
1.17859090909091e+00 2.09347995265309e-01 3.26027096487337e-03
1.18250000000000e+00 2.07160268897717e-01 3.23154636048305e-03
1.18640909090909e+00 2.04995404671356e-01 3.20305733189495e-03
1.19031818181818e+00 2.02853163689615e-01 3.17480222050808e-03
1.19422727272727e+00 2.00733309535241e-01 3.14677938624862e-03
1.19813636363636e+00 1.98635608261586e-01 3.11898718972375e-03
1.20204545454545e+00 1.96559828366793e-01 3.09142399832227e-03
1.20595454545455e+00 1.94505740768241e-01 3.06408818629128e-03
1.20986363636364e+00 1.92473118777260e-01 3.03697813480310e-03
1.21377272727273e+00 1.90461738074131e-01 3.01009223202396e-03
1.21768181818182e+00 1.88471376683317e-01 2.98342887318454e-03
1.22159090909091e+00 1.86501814948968e-01 2.95698646064038e-03
1.22550000000000e+00 1.84552835510682e-01 2.93076340895940e-03
1.22940909090909e+00 1.82624223264972e-01 2.90475812978078e-03
1.23331818181818e+00 1.80715765385513e-01 2.87896904203800e-03
