Energy (eV)          EEDF (eV^-(3/2))     First Anisotropy
7.50000000000000e-03 4.91261935851348e-01 2.89487579127218e-04
2.25000000000000e-02 4.87034910352285e-01 4.77575218526254e-04
3.75000000000000e-02 4.82844255966613e-01 6.29259615838572e-04
5.25000000000000e-02 4.78689659743431e-01 7.43771444043768e-04
6.75000000000000e-02 4.74570811423352e-01 8.38678440380002e-04
8.25000000000000e-02 4.70487403416400e-01 9.20639732419723e-04
9.75000000000000e-02 4.66439130779173e-01 9.93109796360616e-04
1.12500000000000e-01 4.62425691192110e-01 1.05817962943997e-03
1.27500000000000e-01 4.58446784936928e-01 1.11723925731222e-03
1.42500000000000e-01 4.54502114874240e-01 1.17127339549695e-03
1.57500000000000e-01 4.50591386421368e-01 1.22101265590447e-03
1.72500000000000e-01 4.46714307530348e-01 1.26701858447550e-03
1.87500000000000e-01 4.42870588666119e-01 1.30973497808491e-03
2.02500000000000e-01 4.39059942784901e-01 1.34952058942792e-03
2.17500000000000e-01 4.35282085312760e-01 1.38667089982000e-03
2.32500000000000e-01 4.31536734124354e-01 1.42143314169003e-03
2.47500000000000e-01 4.27823609521871e-01 1.45401697786457e-03
2.62500000000000e-01 4.24142434214132e-01 1.48460228830092e-03
2.77500000000000e-01 4.20492933295893e-01 1.51334497295674e-03
2.92500000000000e-01 4.16874834227308e-01 1.54038135909415e-03
3.07500000000000e-01 4.13287866813579e-01 1.56583160492087e-03
3.22500000000000e-01 4.09731763184781e-01 1.58980236723374e-03
3.37500000000000e-01 4.06206257775851e-01 1.61238891994651e-03
3.52500000000000e-01 4.02711087306764e-01 1.63367685656039e-03
3.67500000000000e-01 3.99245990762865e-01 1.65374347298666e-03
3.82500000000000e-01 3.95810709375380e-01 1.67265890168903e-03
3.97500000000000e-01 3.92404986602093e-01 1.69048705013652e-03
4.12500000000000e-01 3.89028568108183e-01 1.70728638365248e-03
4.27500000000000e-01 3.85681201747235e-01 1.72311058334650e-03
4.42500000000000e-01 3.82362637542408e-01 1.73800910287882e-03
4.57500000000000e-01 3.79072627667766e-01 1.75202764262271e-03
4.72500000000000e-01 3.75810926429775e-01 1.76520855587436e-03
4.87500000000000e-01 3.72577290248950e-01 1.77759119876958e-03
5.02500000000000e-01 3.69371477641668e-01 1.78921223326110e-03
5.17500000000000e-01 3.66193249202133e-01 1.80010589071739e-03
5.32500000000000e-01 3.63042367584497e-01 1.81030420229730e-03
5.47500000000000e-01 3.59918597485136e-01 1.81983720114302e-03
5.62500000000000e-01 3.56821705625079e-01 1.82873310054795e-03
5.77500000000000e-01 3.53751460732587e-01 1.83701845154540e-03
5.92500000000000e-01 3.50707633525877e-01 1.84471828279226e-03
6.07500000000000e-01 3.47689996696006e-01 1.85185622515473e-03
6.22500000000000e-01 3.44698324889895e-01 1.85845462302313e-03
6.37500000000000e-01 3.41732394693494e-01 1.86453463407167e-03
6.52500000000000e-01 3.38791984615105e-01 1.87011631891917e-03
6.67500000000000e-01 3.35876875068839e-01 1.87521872193454e-03
6.82500000000000e-01 3.32986848358213e-01 1.87985994425196e-03
6.97500000000000e-01 3.30121688659901e-01 1.88405720991035e-03
7.12500000000000e-01 3.27281182007609e-01 1.88782692590793e-03
7.27500000000000e-01 3.24465116276101e-01 1.89118473685532e-03
7.42500000000000e-01 3.21673281165357e-01 1.89414557482129e-03
7.57500000000000e-01 3.18905468184864e-01 1.89672370488850e-03
7.72500000000000e-01 3.16161470638054e-01 1.89893276687211e-03
7.87500000000000e-01 3.13441083606861e-01 1.90078581359760e-03
8.02500000000000e-01 3.10744103936421e-01 1.90229534608571e-03
8.17500000000000e-01 3.08070330219900e-01 1.90347334595235e-03
8.32500000000000e-01 3.05419562783455e-01 1.90433130529427e-03
8.47500000000000e-01 3.02791603671320e-01 1.90488025430086e-03
8.62500000000000e-01 3.00186256631025e-01 1.90513078680539e-03
8.77500000000000e-01 2.97603327098740e-01 1.90509308396538e-03
8.92500000000000e-01 2.95042622184741e-01 1.90477693624134e-03
9.07500000000000e-01 2.92503950659013e-01 1.90419176382448e-03
9.22500000000000e-01 2.89987122936963e-01 1.90334663564956e-03
9.37500000000000e-01 2.87491951065263e-01 1.90225028711432e-03
9.52500000000000e-01 2.85018248707817e-01 1.90091113661347e-03
9.67500000000000e-01 2.82565831131842e-01 1.89933730098651e-03
9.82500000000000e-01 2.80134515194075e-01 1.89753660996788e-03
9.97500000000000e-01 2.77724119327096e-01 1.89551661971926e-03
1.01250000000000e+00 2.75334463525764e-01 1.89328462551642e-03
1.02750000000000e+00 2.72965369333783e-01 1.89084767365686e-03
1.04250000000000e+00 2.70616659830368e-01 1.88821257264721e-03
1.05750000000000e+00 2.68288159617037e-01 1.88538590372510e-03
1.07250000000000e+00 2.65979694804507e-01 1.88237403076483e-03
1.08750000000000e+00 2.63691092999716e-01 1.87918310961173e-03
1.10250000000000e+00 2.61422183292943e-01 1.87581909688620e-03
1.11750000000000e+00 2.59172796245047e-01 1.87228775829568e-03
1.13250000000000e+00 2.56942763874812e-01 1.86859467648875e-03
1.14750000000000e+00 2.54731919646405e-01 1.86474525848223e-03
1.16250000000000e+00 2.52540098456938e-01 1.86074474269116e-03
1.17750000000000e+00 2.50367136624135e-01 1.85659820558802e-03
1.19250000000000e+00 2.48212871874115e-01 1.85231056801566e-03
1.20750000000000e+00 2.46077143329268e-01 1.84788660117651e-03
1.22250000000000e+00 2.43959791496245e-01 1.84333093231873e-03
1.23750000000000e+00 2.41860658254043e-01 1.83864805013898e-03
1.25250000000000e+00 2.39779586842201e-01 1.83384230991952e-03
1.26750000000000e+00 2.37716421849089e-01 1.82891793841531e-03
1.28250000000000e+00 2.35671009200307e-01 1.82387903850736e-03
1.29750000000000e+00 2.33643196147174e-01 1.81872959363595e-03
1.31250000000000e+00 2.31632831255325e-01 1.81347347202646e-03
1.32750000000000e+00 2.29639764393399e-01 1.80811443072103e-03
1.34250000000000e+00 2.27663846721831e-01 1.80265611942624e-03
1.35750000000000e+00 2.25704930681731e-01 1.79710208418796e-03
1.37250000000000e+00 2.23762869983871e-01 1.79145577090299e-03
1.38750000000000e+00 2.21837519597756e-01 1.78572052867653e-03
1.40250000000000e+00 2.19928735740796e-01 1.77989961303420e-03
1.41750000000000e+00 2.18036375867567e-01 1.77399618899651e-03
1.43250000000000e+00 2.16160298659163e-01 1.76801333402308e-03
1.44750000000000e+00 2.14300364012651e-01 1.76195404083368e-03
1.46250000000000e+00 2.12456433030599e-01 1.75582122011258e-03
1.47750000000000e+00 2.10628368010707e-01 1.74961770310214e-03
1.49250000000000e+00 2.08816032435528e-01 1.74334624409165e-03
1.50750000000000e+00 2.07019290962263e-01 1.73700952280647e-03
1.52250000000000e+00 2.05238009412665e-01 1.73061014670289e-03
1.53750000000000e+00 2.03472054763011e-01 1.72415065317279e-03
1.55250000000000e+00 2.01721295134169e-01 1.71763351166304e-03
1.56750000000000e+00 1.99985599781754e-01 1.71106112571392e-03
1.58250000000000e+00 1.98264839086358e-01 1.70443583492005e-03
1.59750000000000e+00 1.96558884543876e-01 1.69775991681753e-03
1.61250000000000e+00 1.94867608755904e-01 1.69103558870111e-03
1.62750000000000e+00 1.93190885420229e-01 1.68426500937478e-03
1.64250000000000e+00 1.91528589321397e-01 1.67745028083827e-03
1.65750000000000e+00 1.89880596321358e-01 1.67059344991289e-03
1.67250000000000e+00 1.88246783350201e-01 1.66369650980920e-03
1.68750000000000e+00 1.86627028396958e-01 1.65676140163933e-03
1.70250000000000e+00 1.85021210500498e-01 1.64979001587637e-03
1.71750000000000e+00 1.83429209740487e-01 1.64278419376279e-03
1.73250000000000e+00 1.81850907228439e-01 1.63574572867096e-03
1.74750000000000e+00 1.80286185098834e-01 1.62867636741686e-03
1.76250000000000e+00 1.78734926500318e-01 1.62157781152949e-03
1.77750000000000e+00 1.77197015586973e-01 1.61445171847806e-03
1.79250000000000e+00 1.75672337509670e-01 1.60729970285820e-03
1.80750000000000e+00 1.74160778407490e-01 1.60012333753935e-03
1.82250000000000e+00 1.72662225399222e-01 1.59292415477465e-03
1.83750000000000e+00 1.71176566574933e-01 1.58570364727491e-03
1.85250000000000e+00 1.69703690987609e-01 1.57846326924822e-03
1.86750000000000e+00 1.68243488644871e-01 1.57120443740672e-03
1.88250000000000e+00 1.66795850500763e-01 1.56392853194116e-03
1.89750000000000e+00 1.65360668447605e-01 1.55663689746520e-03
1.91250000000000e+00 1.63937835307921e-01 1.54933084393088e-03
1.92750000000000e+00 1.62527244826436e-01 1.54201164751518e-03
1.94250000000000e+00 1.61128791662140e-01 1.53468055147979e-03
1.95750000000000e+00 1.59742371380423e-01 1.52733876700517e-03
1.97250000000000e+00 1.58367880445272e-01 1.51998747399907e-03
1.98750000000000e+00 1.57005216211543e-01 1.51262782188103e-03
2.00250000000000e+00 1.55654276917294e-01 1.50526093034373e-03
2.01750000000000e+00 1.54314961676188e-01 1.49788789009199e-03
2.03250000000000e+00 1.52987170469952e-01 1.49050976356008e-03
2.04750000000000e+00 1.51670804140917e-01 1.48312758560826e-03
2.06250000000000e+00 1.50365764384606e-01 1.47574236419949e-03
2.07750000000000e+00 1.49071953742397e-01 1.46835508105633e-03
2.09250000000000e+00 1.47789275594241e-01 1.46096669229965e-03
2.10750000000000e+00 1.46517634151451e-01 1.45357812906927e-03
2.12250000000000e+00 1.45256934449546e-01 1.44619029812692e-03
2.13750000000000e+00 1.44007082341157e-01 1.43880408244266e-03
2.15250000000000e+00 1.42767984489003e-01 1.43142034176518e-03
2.16750000000000e+00 1.41539548358913e-01 1.42403991317627e-03
2.18250000000000e+00 1.40321682212920e-01 1.41666361163018e-03
2.19750000000000e+00 1.39114295102411e-01 1.40929223047855e-03
2.21250000000000e+00 1.37917296861332e-01 1.40192654198091e-03
2.22750000000000e+00 1.36730598099455e-01 1.39456729780158e-03
2.24250000000000e+00 1.35554110195704e-01 1.38721522949371e-03
2.25750000000000e+00 1.34387745291537e-01 1.37987104896991e-03
2.27250000000000e+00 1.33231416284383e-01 1.37253544896094e-03
2.28750000000000e+00 1.32085036821140e-01 1.36520910346245e-03
2.30250000000000e+00 1.30948521291723e-01 1.35789266816970e-03
2.31750000000000e+00 1.29821784822672e-01 1.35058678090128e-03
2.33250000000000e+00 1.28704743270816e-01 1.34329206201214e-03
2.34750000000000e+00 1.27597313216986e-01 1.33600911479579e-03
2.36250000000000e+00 1.26499411959788e-01 1.32873852587615e-03
2.37750000000000e+00 1.25410957509423e-01 1.32148086558992e-03
2.39250000000000e+00 1.24331868581572e-01 1.31423668835900e-03
2.40750000000000e+00 1.23262064591315e-01 1.30700653305365e-03
2.42250000000000e+00 1.22201465647123e-01 1.29979092334681e-03
2.43750000000000e+00 1.21149992544885e-01 1.29259036805922e-03
2.45250000000000e+00 1.20107566761998e-01 1.28540536149640e-03
2.46750000000000e+00 1.19074110451497e-01 1.27823638377732e-03
2.48250000000000e+00 1.18049546436248e-01 1.27108390115484e-03
2.49750000000000e+00 1.17033798203183e-01 1.26394836632855e-03
2.51250000000000e+00 1.16026789897581e-01 1.25683021875009e-03
2.52750000000000e+00 1.15028446317410e-01 1.24972988492090e-03
2.54250000000000e+00 1.14038692907707e-01 1.24264777868301e-03
2.55750000000000e+00 1.13057455755011e-01 1.23558430150290e-03
2.57250000000000e+00 1.12084661581845e-01 1.22853984274845e-03
2.58750000000000e+00 1.11120237741242e-01 1.22151477995945e-03
2.60250000000000e+00 1.10164112211319e-01 1.21450947911192e-03
2.61750000000000e+00 1.09216213589902e-01 1.20752429487595e-03
2.63250000000000e+00 1.08276471089188e-01 1.20055957086763e-03
2.64750000000000e+00 1.07344814530467e-01 1.19361563989515e-03
2.66250000000000e+00 1.06421174338872e-01 1.18669282419909e-03
2.67750000000000e+00 1.05505481538190e-01 1.17979143568740e-03
2.69250000000000e+00 1.04597667745707e-01 1.17291177616481e-03
2.70750000000000e+00 1.03697665167104e-01 1.16605413755685e-03
2.72250000000000e+00 1.02805406591393e-01 1.15921880212902e-03
2.73750000000000e+00 1.01920825385898e-01 1.15240604270110e-03
2.75250000000000e+00 1.01043855491276e-01 1.14561612285615e-03
2.76750000000000e+00 1.00174431416590e-01 1.13884929714501e-03
2.78250000000000e+00 9.93124882344136e-02 1.13210581128649e-03
2.79750000000000e+00 9.84579615759826e-02 1.12538590236270e-03
2.81250000000000e+00 9.76107876263896e-02 1.11868979901003e-03
2.82750000000000e+00 9.67709031198176e-02 1.11201772160614e-03
2.84250000000000e+00 9.59382453348153e-02 1.10536988245272e-03
2.85750000000000e+00 9.51127520896135e-02 1.09874648595402e-03
2.87250000000000e+00 9.42943617374809e-02 1.09214772879163e-03
2.88750000000000e+00 9.34830131621212e-02 1.08557380009547e-03
2.90250000000000e+00 9.26786457731083e-02 1.07902488161085e-03
2.91750000000000e+00 9.18811995013618e-02 1.07250114786206e-03
2.93250000000000e+00 9.10906147946609e-02 1.06600276631219e-03
2.94750000000000e+00 9.03068326131977e-02 1.05952989751974e-03
2.96250000000000e+00 8.95297944251674e-02 1.05308269529171e-03
2.97750000000000e+00 8.87594422023978e-02 1.04666130683335e-03
2.99250000000000e+00 8.79957184160155e-02 1.04026587289465e-03
3.00750000000000e+00 8.72385660321502e-02 1.03389652791406e-03
3.02250000000000e+00 8.64879285076747e-02 1.02755340015851e-03
3.03750000000000e+00 8.57437497859832e-02 1.02123661186100e-03
3.05250000000000e+00 8.50059742928042e-02 1.01494627935497e-03
3.06750000000000e+00 8.42745469320511e-02 1.00868251320582e-03
3.08250000000000e+00 8.35494130817073e-02 1.00244541833982e-03
3.09750000000000e+00 8.28305185897470e-02 9.96235094170144e-04
3.11250000000000e+00 8.21178097700913e-02 9.90051634720255e-04
3.12750000000000e+00 8.14112333985992e-02 9.83895128744713e-04
3.14250000000000e+00 8.07107367090926e-02 9.77765659847598e-04
3.15750000000000e+00 8.00162673894161e-02 9.71663306598179e-04
3.17250000000000e+00 7.93277735775299e-02 9.65588142644274e-04
3.18750000000000e+00 7.86452038576374e-02 9.59540236823452e-04
3.20250000000000e+00 7.79685072563451e-02 9.53519653271578e-04
3.21750000000000e+00 7.72976332388563e-02 9.47526451529272e-04
3.23250000000000e+00 7.66325317051969e-02 9.41560686646306e-04
3.24750000000000e+00 7.59731529864742e-02 9.35622409283554e-04
3.26250000000000e+00 7.53194478411679e-02 9.29711665813041e-04
3.27750000000000e+00 7.46713674514521e-02 9.23828498415822e-04
3.29250000000000e+00 7.40288634195507e-02 9.17972945177900e-04
3.30750000000000e+00 7.33918877641220e-02 9.12145040184187e-04
3.32250000000000e+00 7.27603929166764e-02 9.06344813610457e-04
3.33750000000000e+00 7.21343317180236e-02 9.00572291813528e-04
3.35250000000000e+00 7.15136574147510e-02 8.94827497419496e-04
3.36750000000000e+00 7.08983236557320e-02 8.89110449410304e-04
3.38250000000000e+00 7.02882844886647e-02 8.83421163208314e-04
3.39750000000000e+00 6.96834943566403e-02 8.77759650759346e-04
3.41250000000000e+00 6.90839080947411e-02 8.72125920614065e-04
3.42750000000000e+00 6.84894809266671e-02 8.66519978007519e-04
3.44250000000000e+00 6.79001684613928e-02 8.60941824937239e-04
3.45750000000000e+00 6.73159266898517e-02 8.55391460239746e-04
3.47250000000000e+00 6.67367119816501e-02 8.49868879665300e-04
3.48750000000000e+00 6.61624810818084e-02 8.44374075951427e-04
3.50250000000000e+00 6.55931911075314e-02 8.38907038894832e-04
3.51750000000000e+00 6.50287995450056e-02 8.33467755421762e-04
3.53250000000000e+00 6.44692642462240e-02 8.28056209657164e-04
3.54750000000000e+00 6.39145434258393e-02 8.22672382992303e-04
3.56250000000000e+00 6.33645956580427e-02 8.17316254150968e-04
3.57750000000000e+00 6.28193798734709e-02 8.11987799254559e-04
3.59250000000000e+00 6.22788553561384e-02 8.06686991885732e-04
3.60750000000000e+00 6.17429817403976e-02 8.01413803150704e-04
3.62250000000000e+00 6.12117190079237e-02 7.96168201740471e-04
3.63750000000000e+00 6.06850274847267e-02 7.90950153990607e-04
3.65250000000000e+00 6.01628678381884e-02 7.85759623940101e-04
3.66750000000000e+00 5.96452010741249e-02 7.80596573388779e-04
3.68250000000000e+00 5.91319885338749e-02 7.75460961953716e-04
3.69750000000000e+00 5.86231918914126e-02 7.70352747124582e-04
3.71250000000000e+00 5.81187731504855e-02 7.65271884317698e-04
3.72750000000000e+00 5.76186946417769e-02 7.60218326929142e-04
3.74250000000000e+00 5.71229190200929e-02 7.55192026386728e-04
3.75750000000000e+00 5.66314092615733e-02 7.50192932201049e-04
3.77250000000000e+00 5.61441286609271e-02 7.45220992015421e-04
3.78750000000000e+00 5.56610408286908e-02 7.40276151654772e-04
3.80250000000000e+00 5.51821096885116e-02 7.35358355173700e-04
3.81750000000000e+00 5.47072994744527e-02 7.30467544903476e-04
3.83250000000000e+00 5.42365747283226e-02 7.25603661498153e-04
3.84750000000000e+00 5.37699002970270e-02 7.20766643979718e-04
3.86250000000000e+00 5.33072413299438e-02 7.15956429782429e-04
3.87750000000000e+00 5.28485632763204e-02 7.11172954796108e-04
3.89250000000000e+00 5.23938318826934e-02 7.06416153408724e-04
3.90750000000000e+00 5.19430131903307e-02 7.01685958548126e-04
3.92250000000000e+00 5.14960735326956e-02 6.96982301722753e-04
3.93750000000000e+00 5.10529795329324e-02 6.92305113061797e-04
3.95250000000000e+00 5.06136981013741e-02 6.87654321354402e-04
3.96750000000000e+00 5.01781964330711e-02 6.83029854088070e-04
3.98250000000000e+00 4.97464420053414e-02 6.78431637486419e-04
3.99750000000000e+00 4.93184025753422e-02 6.73859596546072e-04
4.01250000000000e+00 4.88940461776614e-02 6.69313655072857e-04
4.02750000000000e+00 4.84733411219310e-02 6.64793735717317e-04
4.04250000000000e+00 4.80562559904604e-02 6.60299760009395e-04
4.05750000000000e+00 4.76427596358900e-02 6.55831648392555e-04
4.07250000000000e+00 4.72328211788652e-02 6.51389320257189e-04
4.08750000000000e+00 4.68264100057307e-02 6.46972693973324e-04
4.10250000000000e+00 4.64234957662437e-02 6.42581686922671e-04
4.11750000000000e+00 4.60240483713079e-02 6.38216215529996e-04
4.13250000000000e+00 4.56280379907263e-02 6.33876195293989e-04
4.14750000000000e+00 4.52354350509735e-02 6.29561540817399e-04
4.16250000000000e+00 4.48462102329873e-02 6.25272165836584e-04
4.17750000000000e+00 4.44603344699790e-02 6.21007983250512e-04
4.19250000000000e+00 4.40777789452630e-02 6.16768905149118e-04
4.20750000000000e+00 4.36985150901044e-02 6.12554842841146e-04
4.22250000000000e+00 4.33225145815861e-02 6.08365706881360e-04
4.23750000000000e+00 4.29497493404931e-02 6.04201407097260e-04
4.25250000000000e+00 4.25801915292160e-02 6.00061852615258e-04
4.26750000000000e+00 4.22138135496718e-02 5.95946951886242e-04
4.28250000000000e+00 4.18505880412432e-02 5.91856612710804e-04
4.29750000000000e+00 4.14904878787353e-02 5.87790742263737e-04
4.31250000000000e+00 4.11334861703498e-02 5.83749247118122e-04
4.32750000000000e+00 4.07795562556766e-02 5.79732033269075e-04
4.34250000000000e+00 4.04286717037034e-02 5.75739006156771e-04
4.35750000000000e+00 4.00808063108412e-02 5.71770070689047e-04
4.37250000000000e+00 3.97359340989680e-02 5.67825131263644e-04
4.38750000000000e+00 3.93940293134883e-02 5.63904091789978e-04
4.40250000000000e+00 3.90550664214102e-02 5.60006855710407e-04
4.41750000000000e+00 3.87190201094385e-02 5.56133326021020e-04
4.43250000000000e+00 3.83858652820842e-02 5.52283405292130e-04
4.44750000000000e+00 3.80555770597906e-02 5.48456995688277e-04
4.46250000000000e+00 3.77281307770752e-02 5.44653998987791e-04
4.47750000000000e+00 3.74035019806875e-02 5.40874316601891e-04
4.49250000000000e+00 3.70816664277835e-02 5.37117849593575e-04
4.50750000000000e+00 3.67626000841147e-02 5.33384498695998e-04
4.52250000000000e+00 3.64462791222334e-02 5.29674164330400e-04
4.53750000000000e+00 3.61326799197135e-02 5.25986746623826e-04
4.55250000000000e+00 3.58217790573859e-02 5.22322145426294e-04
4.56750000000000e+00 3.55135533175905e-02 5.18680260327748e-04
4.58250000000000e+00 3.52079796824411e-02 5.15060990674615e-04
4.59750000000000e+00 3.49050353321078e-02 5.11464235585961e-04
4.61250000000000e+00 3.46046976431116e-02 5.07889893969315e-04
4.62750000000000e+00 3.43069441866359e-02 5.04337864536207e-04
4.64250000000000e+00 3.40117527268508e-02 5.00808045817402e-04
4.65750000000000e+00 3.37191012192531e-02 4.97300336177684e-04
4.67250000000000e+00 3.34289678090198e-02 4.93814633830356e-04
4.68750000000000e+00 3.31413308293760e-02 4.90350836851576e-04
4.70250000000000e+00 3.28561687999769e-02 4.86908843194254e-04
4.71750000000000e+00 3.25734604253036e-02 4.83488550701586e-04
4.73250000000000e+00 3.22931845930730e-02 4.80089857120404e-04
