Energy (eV)          EEDF (eV^-(3/2))     First Anisotropy
1.33333333333333e-02 1.21747969812592e-01 6.04110274339966e-05
4.00000000000000e-02 1.21012880837297e-01 9.97900991613573e-05
6.66666666666667e-02 1.20282230179249e-01 1.31825196168756e-04
9.33333333333333e-02 1.19555991038078e-01 1.56217959590260e-04
1.20000000000000e-01 1.18834136775420e-01 1.76607781174317e-04
1.46666666666667e-01 1.18116640923334e-01 1.94368983713127e-04
1.73333333333333e-01 1.17403477160760e-01 2.10211954995468e-04
2.00000000000000e-01 1.16694619331575e-01 2.24565190020944e-04
2.26666666666667e-01 1.15990041441254e-01 2.37712556225593e-04
2.53333333333333e-01 1.15289717645007e-01 2.49854461495421e-04
2.80000000000000e-01 1.14593622257562e-01 2.61139092357257e-04
3.06666666666667e-01 1.13901729751258e-01 2.71679960074749e-04
3.33333333333333e-01 1.13214014747576e-01 2.81566473056367e-04
3.60000000000000e-01 1.12530452023662e-01 2.90870665486987e-04
3.86666666666667e-01 1.11851016510864e-01 2.99651672591046e-04
4.13333333333333e-01 1.11175683288105e-01 3.07958812777923e-04
4.40000000000000e-01 1.10504427586635e-01 3.15833775596585e-04
4.66666666666667e-01 1.09837224788782e-01 3.23312216501435e-04
4.93333333333333e-01 1.09174050422478e-01 3.30424942321186e-04
5.20000000000000e-01 1.08514880164909e-01 3.37198810282023e-04
5.46666666666667e-01 1.07859689841382e-01 3.43657422776550e-04
5.73333333333333e-01 1.07208455420652e-01 3.49821669864005e-04
6.00000000000000e-01 1.06561153017812e-01 3.55710159407577e-04
6.26666666666667e-01 1.05917758893245e-01 3.61339563560529e-04
6.53333333333333e-01 1.05278249448529e-01 3.66724898606495e-04
6.80000000000000e-01 1.04642601228785e-01 3.71879754071982e-04
7.06666666666667e-01 1.04010790921679e-01 3.76816483242240e-04
7.33333333333333e-01 1.03382795353781e-01 3.81546360741518e-04
7.60000000000000e-01 1.02758591492497e-01 3.86079714713034e-04
7.86666666666667e-01 1.02138156445115e-01 3.90426039632505e-04
8.13333333333333e-01 1.01521467455518e-01 3.94594091193985e-04
8.40000000000000e-01 1.00908501905794e-01 3.98591967423874e-04
8.66666666666667e-01 1.00299237315319e-01 4.02427179498997e-04
8.93333333333333e-01 9.96936513377562e-02 4.06106711984327e-04
9.20000000000000e-01 9.90917217624113e-02 4.09637075117199e-04
9.46666666666667e-01 9.84934265133423e-02 4.13024351417799e-04
9.73333333333333e-01 9.78987436466024e-02 4.16274235601271e-04
1.00000000000000e+00 9.73076513513821e-02 4.19392069355555e-04
1.02666666666667e+00 9.67201279508384e-02 4.22382874447097e-04
1.05333333333333e+00 9.61361518927669e-02 4.25251378915600e-04
1.08000000000000e+00 9.55557017590963e-02 4.28002039906874e-04
1.10666666666667e+00 9.49787562664035e-02 4.30639070408359e-04
1.13333333333333e+00 9.44052942491372e-02 4.33166456272170e-04
1.16000000000000e+00 9.38352946748364e-02 4.35587970931202e-04
1.18666666666667e+00 9.32687366429005e-02 4.37907196995469e-04
1.21333333333333e+00 9.27055993692026e-02 4.40127537762825e-04
1.24000000000000e+00 9.21458621999503e-02 4.42252227393836e-04
1.26666666666667e+00 9.15895046105274e-02 4.44284348076226e-04
1.29333333333333e+00 9.10365061913125e-02 4.46226838020304e-04
1.32000000000000e+00 9.04868466603655e-02 4.48082498532425e-04
1.34666666666667e+00 8.99405058623283e-02 4.49854008031315e-04
1.37333333333333e+00 8.93974637553016e-02 4.51543927605996e-04
1.40000000000000e+00 8.88577004225027e-02 4.53154705923848e-04
1.42666666666667e+00 8.83211960712196e-02 4.54688690949453e-04
1.45333333333333e+00 8.77879310206202e-02 4.56148133778536e-04
1.48000000000000e+00 8.72578857125054e-02 4.57535192005782e-04
1.50666666666667e+00 8.67310407103096e-02 4.58851939725393e-04
1.53333333333333e+00 8.62073766877390e-02 4.60100370125118e-04
1.56000000000000e+00 8.56868744387225e-02 4.61282397741062e-04
1.58666666666667e+00 8.51695148764533e-02 4.62399867143991e-04
1.61333333333333e+00 8.46552790227692e-02 4.63454554629183e-04
1.64000000000000e+00 8.41441480173877e-02 4.64448169656233e-04
1.66666666666667e+00 8.36361031169843e-02 4.65382362509429e-04
1.69333333333333e+00 8.31311256852407e-02 4.66258725320320e-04
1.72000000000000e+00 8.26291972014374e-02 4.67078792904257e-04
1.74666666666667e+00 8.21302992595662e-02 4.67844049604777e-04
1.77333333333333e+00 8.16344135589804e-02 4.68555929819015e-04
1.80000000000000e+00 8.11415219124108e-02 4.69215818383836e-04
1.82666666666667e+00 8.06516062451070e-02 4.69825056759731e-04
1.85333333333333e+00 8.01646485860363e-02 4.70384943183261e-04
1.88000000000000e+00 7.96806310753759e-02 4.70896732714627e-04
1.90666666666667e+00 7.91995359636826e-02 4.71361642878391e-04
1.93333333333333e+00 7.87213456035906e-02 4.71780853534644e-04
1.96000000000000e+00 7.82460424568282e-02 4.72155506670873e-04
1.98666666666667e+00 7.77736090934137e-02 4.72486711589377e-04
2.01333333333333e+00 7.73040281838098e-02 4.72775544565676e-04
2.04000000000000e+00 7.68372825055070e-02 4.73023048447017e-04
2.06666666666667e+00 7.63733549422434e-02 4.73230237456297e-04
2.09333333333333e+00 7.59122284765782e-02 4.73398096689357e-04
2.12000000000000e+00 7.54538861960791e-02 4.73527581567265e-04
2.14666666666667e+00 7.49983112925643e-02 4.73619622311780e-04
2.17333333333333e+00 7.45454870550623e-02 4.73675123321009e-04
2.20000000000000e+00 7.40953968756352e-02 4.73694962511564e-04
2.22666666666667e+00 7.36480242486424e-02 4.73679995509377e-04
2.25333333333333e+00 7.32033527640562e-02 4.73631054934085e-04
2.28000000000000e+00 7.27613661129514e-02 4.73548949658786e-04
2.30666666666667e+00 7.23220480867879e-02 4.73434468751700e-04
2.33333333333333e+00 7.18853825710575e-02 4.73288380692790e-04
2.36000000000000e+00 7.14513535504637e-02 4.73111432572541e-04
2.38666666666667e+00 7.10199451082243e-02 4.72904353813518e-04
2.41333333333333e+00 7.05911414200238e-02 4.72667855337519e-04
2.44000000000000e+00 7.01649267589083e-02 4.72402628720179e-04
2.46666666666667e+00 6.97412854946058e-02 4.72109349716350e-04
2.49333333333333e+00 6.93202020877635e-02 4.71788677392059e-04
2.52000000000000e+00 6.89016610945787e-02 4.71441253248150e-04
2.54666666666667e+00 6.84856471661360e-02 4.71067704569411e-04
2.57333333333333e+00 6.80721450429102e-02 4.70668643532578e-04
2.60000000000000e+00 6.76611395591521e-02 4.70244666309507e-04
2.62666666666667e+00 6.72526156422412e-02 4.69796356256758e-04
2.65333333333333e+00 6.68465583074381e-02 4.69324283008567e-04
2.68000000000000e+00 6.64429526620405e-02 4.68829001567737e-04
2.70666666666667e+00 6.60417839047527e-02 4.68311055349938e-04
2.73333333333333e+00 6.56430373206694e-02 4.67770975268694e-04
2.76000000000000e+00 6.52466982852198e-02 4.67209278820417e-04
2.78666666666667e+00 6.48527522635513e-02 4.66626472995808e-04
2.81333333333333e+00 6.44611848057312e-02 4.66023053362331e-04
2.84000000000000e+00 6.40719815504925e-02 4.65399503148514e-04
2.86666666666667e+00 6.36851282246318e-02 4.64756296033007e-04
2.89333333333333e+00 6.33006106384155e-02 4.64093895229005e-04
2.92000000000000e+00 6.29184146891398e-02 4.63412752571910e-04
2.94666666666667e+00 6.25385263605425e-02 4.62713311195250e-04
2.97333333333333e+00 6.21609317184016e-02 4.61996004620474e-04
3.00000000000000e+00 6.17856169139213e-02 4.61261255851210e-04
3.02666666666667e+00 6.14125681831571e-02 4.60509479944059e-04
3.05333333333333e+00 6.10417718427959e-02 4.59741083106659e-04
3.08000000000000e+00 6.06732142933784e-02 4.58956461801013e-04
3.10666666666667e+00 6.03068820187377e-02 4.58156005216294e-04
3.13333333333333e+00 5.99427615819494e-02 4.57340094377313e-04
3.16000000000000e+00 5.95808396284019e-02 4.56509101258881e-04
3.18666666666667e+00 5.92211028852468e-02 4.55663391166929e-04
3.21333333333333e+00 5.88635381575104e-02 4.54803321859130e-04
3.24000000000000e+00 5.85081323310206e-02 4.53929242671899e-04
3.26666666666667e+00 5.81548723718684e-02 4.53041496815394e-04
3.29333333333333e+00 5.78037453226732e-02 4.52140420507579e-04
3.32000000000000e+00 5.74547383053729e-02 4.51226342115033e-04
3.34666666666667e+00 5.71078385206984e-02 4.50299584366993e-04
3.37333333333333e+00 5.67630332445821e-02 4.49360463503859e-04
3.40000000000000e+00 5.64203098308215e-02 4.48409288432677e-04
3.42666666666667e+00 5.60796557105642e-02 4.47446362864712e-04
3.45333333333333e+00 5.57410583888536e-02 4.46471984479160e-04
3.48000000000000e+00 5.54045054471723e-02 4.45486444094070e-04
3.50666666666667e+00 5.50699845429376e-02 4.44490027731620e-04
3.53333333333333e+00 5.47374834061774e-02 4.43483015797491e-04
3.56000000000000e+00 5.44069898419601e-02 4.42465682267692e-04
3.58666666666667e+00 5.40784917299004e-02 4.41438296685286e-04
3.61333333333333e+00 5.37519770209587e-02 4.40401123355866e-04
3.64000000000000e+00 5.34274337397634e-02 4.39354420550569e-04
3.66666666666667e+00 5.31048499841275e-02 4.38298442437687e-04
3.69333333333333e+00 5.27842139219651e-02 4.37233438294571e-04
3.72000000000000e+00 5.24655137935116e-02 4.36159651726936e-04
3.74666666666667e+00 5.21487379108512e-02 4.35077322538659e-04
3.77333333333333e+00 5.18338746549438e-02 4.33986685960007e-04
3.80000000000000e+00 5.15209124777505e-02 4.32887971883459e-04
3.82666666666667e+00 5.12098399017696e-02 4.31781406674583e-04
3.85333333333333e+00 5.09006455171705e-02 4.30667212416657e-04
3.88000000000000e+00 5.05933179838276e-02 4.29545606163022e-04
3.90666666666667e+00 5.02878460308664e-02 4.28416801691625e-04
3.93333333333333e+00 4.99842184538977e-02 4.27281008766165e-04
3.96000000000000e+00 4.96824241169663e-02 4.26138432404759e-04
3.98666666666667e+00 4.93824519521052e-02 4.24989274580718e-04
4.01333333333333e+00 4.90842909566674e-02 4.23833733500077e-04
4.04000000000000e+00 4.87879301951916e-02 4.22672002886569e-04
4.06666666666667e+00 4.84933587989666e-02 4.21504273630869e-04
4.09333333333333e+00 4.82005659634540e-02 4.20330733084325e-04
4.12000000000000e+00 4.79095409500771e-02 4.19151564360058e-04
4.14666666666667e+00 4.76202730857934e-02 4.17966947932993e-04
4.17333333333333e+00 4.73327517606059e-02 4.16777060949554e-04
4.20000000000000e+00 4.70469664292775e-02 4.15582076544631e-04
4.22666666666667e+00 4.67629066109125e-02 4.14382165394413e-04
4.25333333333333e+00 4.64805618865518e-02 4.13177495041813e-04
4.28000000000000e+00 4.61999219008171e-02 4.11968229229202e-04
4.30666666666667e+00 4.59209763615008e-02 4.10754529405895e-04
4.33333333333333e+00 4.56437150372414e-02 4.09536554069030e-04
4.36000000000000e+00 4.53681277591011e-02 4.08314458111742e-04
4.38666666666667e+00 4.50942044201638e-02 4.07088394287099e-04
4.41333333333333e+00 4.48219349732876e-02 4.05858512564332e-04
4.44000000000000e+00 4.45513094326185e-02 4.04624959492187e-04
4.46666666666667e+00 4.42823178731965e-02 4.03387879620856e-04
4.49333333333333e+00 4.40149504287818e-02 4.02147414873283e-04
4.52000000000000e+00 4.37491972933080e-02 4.00903703923354e-04
4.54666666666667e+00 4.34850487204959e-02 3.99656883577571e-04
4.57333333333333e+00 4.32224950217500e-02 3.98407088161070e-04
4.60000000000000e+00 4.29615265675547e-02 3.97154448910378e-04
4.62666666666667e+00 4.27021337870950e-02 3.95899095316308e-04
4.65333333333333e+00 4.24443071662211e-02 3.94641154524375e-04
4.68000000000000e+00 4.21880372487894e-02 3.93380750741870e-04
4.70666666666667e+00 4.19333146362904e-02 3.92118006543361e-04
4.73333333333333e+00 4.16801299858788e-02 3.90853042285181e-04
4.76000000000000e+00 4.14284740116614e-02 3.89585975526508e-04
4.78666666666667e+00 4.11783374843329e-02 3.88316922298870e-04
4.81333333333333e+00 4.09297112292674e-02 3.87045996534396e-04
4.84000000000000e+00 4.06825861277573e-02 3.85773309500602e-04
4.86666666666667e+00 4.04369531166550e-02 3.84498971035120e-04
4.89333333333333e+00 4.01928031865254e-02 3.83223088987463e-04
4.92000000000000e+00 3.99501273828361e-02 3.81945768667187e-04
4.94666666666667e+00 3.97089168056063e-02 3.80667114044988e-04
4.97333333333333e+00 3.94691626076172e-02 3.79387227207712e-04
5.00000000000000e+00 3.92308559955554e-02 3.78106207819661e-04
5.02666666666667e+00 3.89939882296702e-02 3.76824154291235e-04
5.05333333333333e+00 3.87585506220373e-02 3.75541163246793e-04
5.08000000000000e+00 3.85245345376605e-02 3.74257328998704e-04
5.10666666666667e+00 3.82919313941341e-02 3.72972744684738e-04
5.13333333333333e+00 3.80607326599606e-02 3.71687501748554e-04
5.16000000000000e+00 3.78309298556101e-02 3.70401689426172e-04
5.18666666666667e+00 3.76025145531895e-02 3.69115395853039e-04
5.21333333333333e+00 3.73754783748115e-02 3.67828707556883e-04
5.24000000000000e+00 3.71498129936135e-02 3.66541708956338e-04
5.26666666666667e+00 3.69255101334334e-02 3.65254483438721e-04
5.29333333333333e+00 3.67025615672280e-02 3.63967112864894e-04
5.32000000000000e+00 3.64809591180533e-02 3.62679677079810e-04
5.34666666666667e+00 3.62606946587470e-02 3.61392254961882e-04
5.37333333333333e+00 3.60417601103936e-02 3.60104923939573e-04
5.40000000000000e+00 3.58241474432689e-02 3.58817759513624e-04
5.42666666666667e+00 3.56078486765277e-02 3.57530836278939e-04
5.45333333333333e+00 3.53928558767152e-02 3.56244227452569e-04
5.48000000000000e+00 3.51791611586760e-02 3.54958004407275e-04
5.50666666666667e+00 3.49667566852484e-02 3.53672237666869e-04
5.53333333333333e+00 3.47556346658190e-02 3.52386996445393e-04
5.56000000000000e+00 3.45457873571986e-02 3.51102348191709e-04
5.58666666666667e+00 3.43372070633220e-02 3.49818359559047e-04
5.61333333333333e+00 3.41298861338452e-02 3.48535095955085e-04
5.64000000000000e+00 3.39238169649893e-02 3.47252621097289e-04
5.66666666666667e+00 3.37189919992454e-02 3.45970997957617e-04
5.69333333333333e+00 3.35154037240135e-02 3.44690288323167e-04
5.72000000000000e+00 3.33130446724146e-02 3.43410552361997e-04
5.74666666666667e+00 3.31119074230022e-02 3.42131849543680e-04
5.77333333333333e+00 3.29119845984397e-02 3.40854238210291e-04
5.80000000000000e+00 3.27132688662836e-02 3.39577775152460e-04
5.82666666666667e+00 3.25157529387000e-02 3.38302516506551e-04
5.85333333333333e+00 3.23194295711804e-02 3.37028517335687e-04
5.88000000000000e+00 3.21242915632962e-02 3.35755831215830e-04
5.90666666666667e+00 3.19303317584209e-02 3.34484511110212e-04
5.93333333333333e+00 3.17375430424822e-02 3.33214608960211e-04
5.96000000000000e+00 3.15459183446897e-02 3.31946175281168e-04
5.98666666666667e+00 3.13554506372622e-02 3.30679260014739e-04
6.01333333333333e+00 3.11661329342151e-02 3.29413912129428e-04
6.04000000000000e+00 3.09779582920621e-02 3.28150179225863e-04
6.06666666666667e+00 3.07909198095476e-02 3.26888108367783e-04
6.09333333333333e+00 3.06050106264685e-02 3.25627745691926e-04
6.12000000000000e+00 3.04202239243506e-02 3.24369136022504e-04
6.14666666666667e+00 3.02365529261860e-02 3.23112323681494e-04
6.17333333333333e+00 3.00539908952884e-02 3.21857352107634e-04
6.20000000000000e+00 2.98725311359450e-02 3.20604263479960e-04
6.22666666666667e+00 2.96921669931588e-02 3.19353099507860e-04
6.25333333333333e+00 2.95128918515362e-02 3.18103901058976e-04
6.28000000000000e+00 2.93346991359154e-02 3.16856707791610e-04
6.30666666666667e+00 2.91575823111141e-02 3.15611558925158e-04
6.33333333333333e+00 2.89815348808473e-02 3.14368492876745e-04
6.36000000000000e+00 2.88065503883340e-02 3.13127546902133e-04
6.38666666666667e+00 2.86326224160492e-02 3.11888757847141e-04
6.41333333333333e+00 2.84597445846721e-02 3.10652161792806e-04
6.44000000000000e+00 2.82879105536710e-02 3.09417793704607e-04
6.46666666666667e+00 2.81171140210603e-02 3.08185688165438e-04
6.49333333333333e+00 2.79473487223770e-02 3.06955879028991e-04
6.52000000000000e+00 2.77786084312461e-02 3.05728399077161e-04
6.54666666666667e+00 2.76108869591410e-02 3.04503280735111e-04
6.57333333333333e+00 2.74441781543890e-02 3.03280555732592e-04
6.60000000000000e+00 2.72784759027158e-02 3.02060254769367e-04
6.62666666666667e+00 2.71137741270117e-02 3.00842408212820e-04
6.65333333333333e+00 2.69500667863631e-02 2.99627045767155e-04
6.68000000000000e+00 2.67873478765785e-02 2.98414196146567e-04
6.70666666666667e+00 2.66256114299590e-02 2.97203887755825e-04
6.73333333333333e+00 2.64648515143558e-02 2.95996148367176e-04
6.76000000000000e+00 2.63050622336784e-02 2.94791004801058e-04
6.78666666666667e+00 2.61462377276688e-02 2.93588483590205e-04
6.81333333333333e+00 2.59883721709848e-02 2.92388610663993e-04
6.84000000000000e+00 2.58314597736906e-02 2.91191411036590e-04
6.86666666666667e+00 2.56754947810348e-02 2.89996909454990e-04
6.89333333333333e+00 2.55204714725587e-02 2.88805130090601e-04
6.92000000000000e+00 2.53663841625699e-02 2.87616096234579e-04
6.94666666666667e+00 2.52132271999242e-02 2.86429830930284e-04
6.97333333333333e+00 2.50609949671582e-02 2.85246356672032e-04
7.00000000000000e+00 2.49096818809456e-02 2.84065695107359e-04
7.02666666666667e+00 2.47592823918846e-02 2.82887867654339e-04
7.05333333333333e+00 2.46097909836521e-02 2.81712895207245e-04
7.08000000000000e+00 2.44612021734455e-02 2.80540797845658e-04
7.10666666666667e+00 2.43135105117733e-02 2.79371595437046e-04
7.13333333333333e+00 2.41667105816318e-02 2.78205307349108e-04
7.16000000000000e+00 2.40207969989322e-02 2.77041952165594e-04
7.18666666666667e+00 2.38757644122946e-02 2.75881548274540e-04
7.21333333333333e+00 2.37316075022465e-02 2.74724113587204e-04
7.24000000000000e+00 2.35883209816355e-02 2.73569665260365e-04
7.26666666666667e+00 2.34458995954269e-02 2.72418220270540e-04
7.29333333333333e+00 2.33043381199236e-02 2.71269795139391e-04
7.32000000000000e+00 2.31636313631642e-02 2.70124405662375e-04
7.34666666666667e+00 2.30237741647247e-02 2.68982067469326e-04
7.37333333333333e+00 2.28847613949589e-02 2.67842795756156e-04
7.40000000000000e+00 2.27465879553824e-02 2.66706605019667e-04
7.42666666666667e+00 2.26092487784789e-02 2.65573509604902e-04
7.45333333333333e+00 2.24727388269594e-02 2.64443523442927e-04
7.48000000000000e+00 2.23370530941340e-02 2.63316659791721e-04
7.50666666666667e+00 2.22021866037210e-02 2.62192931770661e-04
7.53333333333333e+00 2.20681344091259e-02 2.61072352104174e-04
7.56000000000000e+00 2.19348915938005e-02 2.59954932868570e-04
7.58666666666667e+00 2.18024532710552e-02 2.58840686013974e-04
7.61333333333333e+00 2.16708145833572e-02 2.57729623113785e-04
7.64000000000000e+00 2.15399707026767e-02 2.56621755117249e-04
7.66666666666667e+00 2.14099168303036e-02 2.55517092859119e-04
7.69333333333333e+00 2.12806481961629e-02 2.54415646814877e-04
7.72000000000000e+00 2.11521600591500e-02 2.53317426858878e-04
7.74666666666667e+00 2.10244477069499e-02 2.52222442762068e-04
7.77333333333333e+00 2.08975064553710e-02 2.51130703952767e-04
7.80000000000000e+00 2.07713316486684e-02 2.50042219280283e-04
7.82666666666667e+00 2.06459186593675e-02 2.48956997501042e-04
7.85333333333333e+00 2.05212628876132e-02 2.47875047044735e-04
7.88000000000000e+00 2.03973597614841e-02 2.46796375783261e-04
7.90666666666667e+00 2.02742047368177e-02 2.45720991505595e-04
7.93333333333333e+00 2.01517932965777e-02 2.44648901689207e-04
7.96000000000000e+00 2.00301209511563e-02 2.43580113274210e-04
7.98666666666667e+00 1.99091832382039e-02 2.42514633127188e-04
8.01333333333333e+00 1.97889757220115e-02 2.41452467817751e-04
8.04000000000000e+00 1.96694939938031e-02 2.40393623397778e-04
8.06666666666667e+00 1.95507336715688e-02 2.39338105854541e-04
8.09333333333333e+00 1.94326903994626e-02 2.38285920892250e-04
8.12000000000000e+00 1.93153598480852e-02 2.37237073716269e-04
8.14666666666667e+00 1.91987377143200e-02 2.36191569475778e-04
8.17333333333333e+00 1.90828197207461e-02 2.35149413050218e-04
8.20000000000000e+00 1.89676016159116e-02 2.34110608838329e-04
8.22666666666667e+00 1.88530791741729e-02 2.33075161190607e-04
8.25333333333333e+00 1.87392481951221e-02 2.32043074200583e-04
8.28000000000000e+00 1.86261045038515e-02 2.31014351498562e-04
8.30666666666667e+00 1.85136439507956e-02 2.29988996674128e-04
8.33333333333333e+00 1.84018624111729e-02 2.28967013072103e-04
8.36000000000000e+00 1.82907557852418e-02 2.27948403590884e-04
8.38666666666667e+00 1.81803199981452e-02 2.26933171095266e-04
8.41333333333333e+00 1.80705509993664e-02 2.25921318216965e-04
