Energy (eV)          EEDF (eV^-(3/2))     First Anisotropy
1.27551020408163e-02 1.63180527719895e-01 8.72326122022883e-05
3.82653061224490e-02 1.62034943175416e-01 1.44024392465481e-04
6.37755102040816e-02 1.60897401036275e-01 1.90071718000584e-04
8.92857142857143e-02 1.59767844843832e-01 2.25019683794629e-04
1.14795918367347e-01 1.58646218534544e-01 2.54138147165382e-04
1.40306122448980e-01 1.57532466435451e-01 2.79419985146451e-04
1.65816326530612e-01 1.56426533266806e-01 3.01896715863393e-04
1.91326530612245e-01 1.55328364130889e-01 3.22191360640779e-04
2.16836734693878e-01 1.54237904528409e-01 3.40717195386435e-04
2.42346938775510e-01 1.53155100335510e-01 3.57766369770595e-04
2.67857142857143e-01 1.52079897808382e-01 3.73555187452782e-04
2.93367346938776e-01 1.51012243580558e-01 3.88249550980723e-04
3.18877551020408e-01 1.49952084660249e-01 4.01980303593923e-04
3.44387755102041e-01 1.48899368427688e-01 4.14852998572563e-04
3.69897959183673e-01 1.47854042632550e-01 4.26954397627213e-04
3.95408163265306e-01 1.46816055391342e-01 4.38356950840421e-04
4.20918367346939e-01 1.45785355184817e-01 4.49121978733377e-04
4.46428571428571e-01 1.44761890855415e-01 4.59301990505427e-04
4.71938775510204e-01 1.43745611604724e-01 4.68942410426393e-04
4.97448979591837e-01 1.42736466988901e-01 4.78082887021253e-04
5.22959183673469e-01 1.41734406922478e-01 4.86758304306256e-04
5.48469387755102e-01 1.40739381669410e-01 4.94999573769917e-04
5.73979591836735e-01 1.39751341842818e-01 5.02834261652170e-04
5.99489795918367e-01 1.38770238402541e-01 5.10287093440392e-04
6.25000000000000e-01 1.37796022652697e-01 5.17380363074706e-04
6.50510204081633e-01 1.36828646239267e-01 5.24134268261434e-04
6.76020408163265e-01 1.35868061147695e-01 5.30567187677943e-04
7.01530612244898e-01 1.34914219700510e-01 5.36695912004124e-04
7.27040816326531e-01 1.33967074554955e-01 5.42535837908306e-04
7.52551020408163e-01 1.33026578700635e-01 5.48101132049790e-04
7.78061224489796e-01 1.32092685457187e-01 5.53404870789355e-04
8.03571428571429e-01 1.31165348470801e-01 5.58459159096651e-04
8.29081632653061e-01 1.30244521715455e-01 5.63275233679289e-04
8.54591836734694e-01 1.29330159487035e-01 5.67863552235431e-04
8.80102040816327e-01 1.28422216402286e-01 5.72233870192155e-04
9.05612244897959e-01 1.27520647396562e-01 5.76395308350039e-04
9.31122448979592e-01 1.26625407721585e-01 5.80356412035071e-04
9.56632653061224e-01 1.25736452943227e-01 5.84125203168948e-04
9.82142857142857e-01 1.24853738939302e-01 5.87709226276596e-04
1.00765306122449e+00 1.23977221897380e-01 5.91115588866108e-04
1.03316326530612e+00 1.23106858315094e-01 5.94350999820972e-04
1.05867346938776e+00 1.22242604985537e-01 5.97421797878381e-04
1.08418367346939e+00 1.21384419020828e-01 6.00333983946669e-04
1.10969387755102e+00 1.20532257817991e-01 6.03093246030318e-04
1.13520408163265e+00 1.19686079088911e-01 6.05704981299923e-04
1.16071428571429e+00 1.18845840834249e-01 6.08174322675137e-04
1.18622448979592e+00 1.18011501342641e-01 6.10506149974743e-04
1.21173469387755e+00 1.17183019209765e-01 6.12705112526330e-04
1.23724489795918e+00 1.16360353308075e-01 6.14775643779089e-04
1.26275510204082e+00 1.15543462812337e-01 6.16721974307890e-04
1.28826530612245e+00 1.14732307176948e-01 6.18548149882275e-04
1.31377551020408e+00 1.13926846134975e-01 6.20258036179502e-04
1.33928571428571e+00 1.13127039714508e-01 6.21855334580606e-04
1.36479591836735e+00 1.12332848212175e-01 6.23343591200855e-04
1.39030612244898e+00 1.11544232215158e-01 6.24726204924227e-04
1.41581632653061e+00 1.10761152581280e-01 6.26006440500766e-04
1.44132653061224e+00 1.09983570437886e-01 6.27187429753880e-04
1.46683673469388e+00 1.09211447196044e-01 6.28272183277616e-04
1.49234693877551e+00 1.08444744527125e-01 6.29263596213777e-04
1.51785714285714e+00 1.07683424381976e-01 6.30164453359890e-04
1.54336734693878e+00 1.06927448973254e-01 6.30977439168979e-04
1.56887755102041e+00 1.06176780774216e-01 6.31705136986508e-04
1.59438775510204e+00 1.05431382531149e-01 6.32350038134025e-04
1.61989795918367e+00 1.04691217242482e-01 6.32914545696254e-04
1.64540816326531e+00 1.03956248175625e-01 6.33400978759304e-04
1.67091836734694e+00 1.03226438846815e-01 6.33811576640718e-04
1.69642857142857e+00 1.02501753037290e-01 6.34148501666915e-04
1.72193877551020e+00 1.01782154778038e-01 6.34413846542012e-04
1.74744897959184e+00 1.01067608348540e-01 6.34609632121266e-04
1.77295918367347e+00 1.00358078287271e-01 6.34737814232436e-04
1.79846938775510e+00 9.96535293735767e-02 6.34800285811819e-04
1.82397959183673e+00 9.89539266420025e-02 6.34798878718592e-04
1.84948979591837e+00 9.82592353685172e-02 6.34735369869494e-04
1.87500000000000e+00 9.75694210692556e-02 6.34611478517548e-04
1.90051020408163e+00 9.68844495098209e-02 6.34428871991738e-04
1.92602040816327e+00 9.62042866888966e-02 6.34189167125496e-04
1.95153061224490e+00 9.55288988510021e-02 6.33893931430890e-04
1.97704081632653e+00 9.48582524739982e-02 6.33544688333597e-04
2.00255102040816e+00 9.41923142678229e-02 6.33142914193667e-04
2.02806122448980e+00 9.35310511827782e-02 6.32690043242163e-04
2.05357142857143e+00 9.28744303946382e-02 6.32187468530644e-04
2.07908163265306e+00 9.22224193160570e-02 6.31636542669895e-04
2.10459183673469e+00 9.15749855851871e-02 6.31038582386287e-04
2.13010204081633e+00 9.09320970644116e-02 6.30394865429568e-04
2.15561224489796e+00 9.02937218477627e-02 6.29706634893369e-04
2.18112244897959e+00 8.96598282473285e-02 6.28975099834464e-04
2.20663265306122e+00 8.90303848034996e-02 6.28201436400164e-04
2.23214285714286e+00 8.84053602717714e-02 6.27386789092377e-04
2.25765306122449e+00 8.77847236326461e-02 6.26532271105912e-04
2.28316326530612e+00 8.71684440815218e-02 6.25638968193311e-04
2.30867346938776e+00 8.65564910274427e-02 6.24707935534662e-04
2.33418367346939e+00 8.59488340995294e-02 6.23740201424636e-04
2.35969387755102e+00 8.53454431348784e-02 6.22736767580029e-04
2.38520408163265e+00 8.47462881874982e-02 6.21698609298124e-04
2.41071428571429e+00 8.41513395190106e-02 6.20626678928044e-04
2.43622448979592e+00 8.35605675974245e-02 6.19521902792627e-04
2.46173469387755e+00 8.29739431029297e-02 6.18385184513958e-04
2.48724489795918e+00 8.23914369167655e-02 6.17217405174795e-04
2.51275510204082e+00 8.18130201293109e-02 6.16019423349778e-04
2.53826530612245e+00 8.12386640315060e-02 6.14792078252038e-04
2.56377551020408e+00 8.06683401136527e-02 6.13536186735496e-04
2.58928571428571e+00 8.01020200706482e-02 6.12252546319788e-04
2.61479591836735e+00 7.95396757917169e-02 6.10941935246738e-04
2.64030612244898e+00 7.89812793677526e-02 6.09605112419951e-04
2.66581632653061e+00 7.84268030833887e-02 6.08242820280196e-04
2.69132653061224e+00 7.78762194158194e-02 6.06855781905165e-04
2.71683673469388e+00 7.73295010395433e-02 6.05444703777936e-04
2.74234693877551e+00 7.67866208168661e-02 6.04010275769105e-04
2.76785714285714e+00 7.62475518045812e-02 6.02553171011070e-04
2.79336734693878e+00 7.57122672466204e-02 6.01074048541476e-04
2.81887755102041e+00 7.51807405728982e-02 5.99573550509833e-04
2.84438775510204e+00 7.46529454036216e-02 5.98052304725781e-04
2.86989795918367e+00 7.41288555404843e-02 5.96510924587484e-04
2.89540816326531e+00 7.36084449727596e-02 5.94950009407839e-04
2.92091836734694e+00 7.30916878687159e-02 5.93370144861489e-04
2.94642857142857e+00 7.25785585815285e-02 5.91771902796137e-04
2.97193877551020e+00 7.20690316426206e-02 5.90155843610727e-04
2.99744897959184e+00 7.15630817605490e-02 5.88522513605338e-04
3.02295918367347e+00 7.10606838248020e-02 5.86872447278788e-04
3.04846938775510e+00 7.05618128978200e-02 5.85206167201710e-04
3.07397959183673e+00 7.00664442204018e-02 5.83524183801728e-04
3.09948979591837e+00 6.95745532054991e-02 5.81826997572061e-04
3.12500000000000e+00 6.90861154371343e-02 5.80115096534987e-04
3.15051020408163e+00 6.86011066738610e-02 5.78388958378996e-04
3.17602040816327e+00 6.81195028413337e-02 5.76649050307391e-04
3.20153061224490e+00 6.76412800372598e-02 5.74895828805869e-04
3.22704081632653e+00 6.71664145256086e-02 5.73129741700695e-04
3.25255102040816e+00 6.66948827355576e-02 5.71351225734212e-04
3.27806122448980e+00 6.62266612646530e-02 5.69560708558525e-04
3.30357142857143e+00 6.57617268718782e-02 5.67758608567445e-04
3.32908163265306e+00 6.53000564821965e-02 5.65945334652606e-04
3.35459183673469e+00 6.48416271811393e-02 5.64121288127583e-04
3.38010204081633e+00 6.43864162137798e-02 5.62286860412447e-04
3.40561224489796e+00 6.39344009876239e-02 5.60442434897998e-04
3.43112244897959e+00 6.34855590661338e-02 5.58588386767231e-04
3.45663265306122e+00 6.30398681729019e-02 5.56725083135349e-04
3.48214285714286e+00 6.25973061853232e-02 5.54852883287680e-04
3.50765306122449e+00 6.21578511386534e-02 5.52972138425679e-04
3.53316326530612e+00 6.17214812210585e-02 5.51083193430718e-04
3.55867346938776e+00 6.12881747726291e-02 5.49186384687082e-04
3.58418367346939e+00 6.08579102879496e-02 5.47282041791967e-04
3.60969387755102e+00 6.04306664101759e-02 5.45370487366209e-04
3.63520408163265e+00 6.00064219347706e-02 5.43452036799692e-04
3.66071428571429e+00 5.95851558048592e-02 5.41526999907860e-04
3.68622448979592e+00 5.91668471102748e-02 5.39595678855487e-04
3.71173469387755e+00 5.87514750899130e-02 5.37658369764321e-04
3.73724489795918e+00 5.83390191261810e-02 5.35715362520840e-04
3.76275510204082e+00 5.79294587484403e-02 5.33766940523476e-04
3.78826530612245e+00 5.75227736286449e-02 5.31813382241089e-04
3.81377551020408e+00 5.71189435804159e-02 5.29854959233155e-04
3.83928571428571e+00 5.67179485612019e-02 5.27891937663614e-04
3.86479591836735e+00 5.63197686670699e-02 5.25924578108190e-04
3.89030612244898e+00 5.59243841358821e-02 5.23953135304412e-04
3.91581632653061e+00 5.55317753431952e-02 5.21977859620733e-04
3.94132653061224e+00 5.51419228013622e-02 5.19998995169103e-04
3.96683673469388e+00 5.47548071615173e-02 5.18016781231672e-04
3.99234693877551e+00 5.43704092086827e-02 5.16031452069698e-04
4.01785714285714e+00 5.39887098647017e-02 5.14043236677964e-04
4.04336734693878e+00 5.36096901843804e-02 5.12052360171317e-04
4.06887755102041e+00 5.32333313546154e-02 5.10059041985217e-04
4.09438775510204e+00 5.28596146962202e-02 5.08063497222243e-04
4.11989795918367e+00 5.24885216593223e-02 5.06065936463718e-04
4.14540816326531e+00 5.21200338260751e-02 5.04066565824266e-04
4.17091836734694e+00 5.17541329061531e-02 5.02065587080406e-04
4.19642857142857e+00 5.13908007393931e-02 5.00063197431351e-04
4.22193877551020e+00 5.10300192922349e-02 4.98059590784070e-04
4.24744897959184e+00 5.06717706568876e-02 4.96054956064496e-04
4.27295918367347e+00 5.03160370529628e-02 4.94049478466124e-04
4.29846938775510e+00 4.99628008232324e-02 4.92043339265087e-04
4.32397959183673e+00 4.96120444360732e-02 4.90036715587718e-04
4.34948979591837e+00 4.92637504821094e-02 4.88029781626082e-04
4.37500000000000e+00 4.89179016734053e-02 4.86022707027688e-04
4.40051020408163e+00 4.85744808449693e-02 4.84015658077443e-04
4.42602040816327e+00 4.82334709507549e-02 4.82008797516791e-04
4.45153061224490e+00 4.78948550659264e-02 4.80002284318144e-04
4.47704081632653e+00 4.75586163836878e-02 4.77996274835983e-04
4.50255102040816e+00 4.72247382145017e-02 4.75990921271295e-04
4.52806122448980e+00 4.68932039874749e-02 4.73986372791095e-04
4.55357142857143e+00 4.65639972465865e-02 4.71982775352302e-04
4.57908163265306e+00 4.62371016527874e-02 4.69980271483126e-04
4.60459183673469e+00 4.59125009810052e-02 4.67979001374254e-04
4.63010204081633e+00 4.55901791193866e-02 4.65979101414303e-04
4.65561224489796e+00 4.52701200705758e-02 4.63980705250758e-04
4.68112244897959e+00 4.49523079481532e-02 4.61983943619249e-04
4.70663265306122e+00 4.46367269785830e-02 4.59988944368979e-04
4.73214285714286e+00 4.43233614977242e-02 4.57995832547640e-04
4.75765306122449e+00 4.40121959527296e-02 4.56004730191691e-04
4.78316326530612e+00 4.37032148992695e-02 4.54015757342900e-04
4.80867346938776e+00 4.33964030008084e-02 4.52029030673503e-04
4.83418367346939e+00 4.30917450297519e-02 4.50044664474562e-04
4.85969387755102e+00 4.27892258641492e-02 4.48062770491620e-04
4.88520408163265e+00 4.24888304894566e-02 4.46083457722457e-04
4.91071428571429e+00 4.21905439959089e-02 4.44106833381823e-04
4.93622448979592e+00 4.18943515778208e-02 4.42133001589788e-04
4.96173469387755e+00 4.16002385346443e-02 4.40162064310414e-04
4.98724489795918e+00 4.13081902678508e-02 4.38194121192492e-04
5.01275510204082e+00 4.10181922825694e-02 4.36229269374669e-04
5.03826530612245e+00 4.07302301850973e-02 4.34267604401842e-04
5.06377551020408e+00 4.04442896822237e-02 4.32309218973431e-04
5.08928571428571e+00 4.01603565822061e-02 4.30354203835232e-04
5.11479591836735e+00 3.98784167918200e-02 4.28402647625519e-04
5.14030612244898e+00 3.95984563178815e-02 4.26454636687245e-04
5.16581632653061e+00 3.93204612648881e-02 4.24510255939097e-04
5.19132653061224e+00 3.90444178343641e-02 4.22569587680795e-04
5.21683673469388e+00 3.87703123257630e-02 4.20632712440766e-04
5.24234693877551e+00 3.84981311336734e-02 4.18699708827716e-04
5.26785714285714e+00 3.82278607492348e-02 4.16770653349648e-04
5.29336734693878e+00 3.79594877579013e-02 4.14845621242346e-04
5.31887755102041e+00 3.76929988388074e-02 4.12924685328953e-04
5.34438775510204e+00 3.74283807656021e-02 4.11007916825915e-04
5.36989795918367e+00 3.71656204038013e-02 4.09095385199963e-04
5.39540816326531e+00 3.69047047121061e-02 4.07187158177016e-04
5.42091836734694e+00 3.66456207398057e-02 4.05283301796790e-04
5.44642857142857e+00 3.63883556280638e-02 4.03383880240676e-04
5.47193877551020e+00 3.61328966078355e-02 4.01488956606392e-04
5.49744897959184e+00 3.58792309992637e-02 3.99598591836401e-04
5.52295918367347e+00 3.56273462124279e-02 3.97712845471707e-04
5.54846938775510e+00 3.53772297448830e-02 3.95831775515457e-04
5.57397959183673e+00 3.51288691828565e-02 3.93955438267583e-04
5.59948979591837e+00 3.48822521992701e-02 3.92083889062005e-04
5.62500000000000e+00 3.46373665531568e-02 3.90217181243337e-04
5.65051020408163e+00 3.43942000903525e-02 3.88355366884727e-04
5.67602040816327e+00 3.41527407411612e-02 3.86498496656234e-04
5.70153061224490e+00 3.39129765214702e-02 3.84646619665997e-04
5.72704081632653e+00 3.36748955308706e-02 3.82799784162464e-04
5.75255102040816e+00 3.34384859520935e-02 3.80958036556750e-04
5.77806122448980e+00 3.32037360516495e-02 3.79121422106278e-04
5.80357142857143e+00 3.29706341776124e-02 3.77289984788372e-04
5.82908163265306e+00 3.27391687606585e-02 3.75463767147414e-04
5.85459183673469e+00 3.25093283122804e-02 3.73642810963873e-04
5.88010204081633e+00 3.22811014242412e-02 3.71827156320466e-04
5.90561224489796e+00 3.20544767691665e-02 3.70016842253383e-04
5.93112244897959e+00 3.18294430984392e-02 3.68211906630686e-04
5.95663265306122e+00 3.16059892431685e-02 3.66412386154689e-04
5.98214285714286e+00 3.13841041121238e-02 3.64618316401624e-04
6.00765306122449e+00 3.11637766926802e-02 3.62829731676617e-04
6.03316326530612e+00 3.09449960491517e-02 3.61046665640748e-04
6.05867346938776e+00 3.07277513222705e-02 3.59269150432850e-04
6.08418367346939e+00 3.05120317297192e-02 3.57497217279820e-04
6.10969387755102e+00 3.02978265641686e-02 3.55730896380979e-04
6.13520408163265e+00 3.00851251941590e-02 3.53970216768975e-04
6.16071428571429e+00 2.98739170625143e-02 3.52215206907604e-04
6.18622448979592e+00 2.96641916858386e-02 3.50465893852382e-04
6.21173469387755e+00 2.94559386550088e-02 3.48722303832635e-04
6.23724489795918e+00 2.92491476333085e-02 3.46984462140236e-04
6.26275510204082e+00 2.90438083572509e-02 3.45252392996175e-04
6.28826530612245e+00 2.88399106350684e-02 3.43526120120612e-04
6.31377551020408e+00 2.86374443462272e-02 3.41805665930429e-04
6.33928571428571e+00 2.84363994418813e-02 3.40091052094599e-04
6.36479591836735e+00 2.82367659430991e-02 3.38382299427205e-04
6.39030612244898e+00 2.80385339416305e-02 3.36679427759180e-04
6.41581632653061e+00 2.78416935984694e-02 3.34982456482367e-04
6.44132653061224e+00 2.76462351433834e-02 3.33291403782314e-04
6.46683673469388e+00 2.74521488753344e-02 3.31606287167972e-04
6.49234693877551e+00 2.72594251607914e-02 3.29927123369014e-04
6.51785714285714e+00 2.70680544344459e-02 3.28253928212704e-04
6.54336734693878e+00 2.68780271978431e-02 3.26586717143135e-04
6.56887755102041e+00 2.66893340189269e-02 3.24925504487552e-04
6.59438775510204e+00 2.65019655324295e-02 3.23270303961912e-04
6.61989795918367e+00 2.63159124382643e-02 3.21621128572207e-04
6.64540816326531e+00 2.61311655021952e-02 3.19977990613072e-04
6.67091836734694e+00 2.59477155542587e-02 3.18340901695309e-04
6.69642857142857e+00 2.57655534894168e-02 3.16709872629257e-04
6.72193877551020e+00 2.55846702662757e-02 3.15084913912370e-04
6.74744897959184e+00 2.54050569066520e-02 3.13466035038506e-04
6.77295918367347e+00 2.52267044959228e-02 3.11853244972725e-04
6.79846938775510e+00 2.50496041815239e-02 3.10246552057698e-04
6.82397959183673e+00 2.48737471735589e-02 3.08645963901821e-04
6.84948979591837e+00 2.46991247435779e-02 3.07051487844700e-04
6.87500000000000e+00 2.45257282241584e-02 3.05463130296518e-04
6.90051020408163e+00 2.43535490092288e-02 3.03880897191466e-04
6.92602040816327e+00 2.41825785526374e-02 3.02304793897731e-04
6.95153061224490e+00 2.40128083687225e-02 3.00734825110193e-04
6.97704081632653e+00 2.38442300311460e-02 2.99170995295050e-04
7.00255102040816e+00 2.36768351724901e-02 2.97613308057678e-04
7.02806122448980e+00 2.35106154845548e-02 2.96061766575781e-04
7.05357142857143e+00 2.33455627169954e-02 2.94516373512975e-04
7.07908163265306e+00 2.31816686778543e-02 2.92977130915700e-04
7.10459183673469e+00 2.30189252324490e-02 2.91444040638102e-04
7.13010204081633e+00 2.28573243029819e-02 2.89917103737156e-04
7.15561224489796e+00 2.26968578688150e-02 2.88396320886357e-04
7.18112244897959e+00 2.25375179651717e-02 2.86881692292833e-04
7.20663265306122e+00 2.23792966836329e-02 2.85373217694512e-04
7.23214285714286e+00 2.22221861708617e-02 2.83870896380936e-04
7.25765306122449e+00 2.20661786290878e-02 2.82374727095652e-04
7.28316326530612e+00 2.19112663150658e-02 2.80884708435722e-04
7.30867346938776e+00 2.17574415397023e-02 2.79400838281848e-04
7.33418367346939e+00 2.16046966683037e-02 2.77923114187364e-04
7.35969387755102e+00 2.14530241193590e-02 2.76451533299656e-04
7.38520408163265e+00 2.13024163649934e-02 2.74986092266504e-04
7.41071428571429e+00 2.11528659299735e-02 2.73526787617853e-04
7.43622448979592e+00 2.10043653913471e-02 2.72073615220415e-04
7.46173469387755e+00 2.08569073786716e-02 2.70626570649517e-04
7.48724489795918e+00 2.07104845728534e-02 2.69185649113521e-04
7.51275510204082e+00 2.05650897065719e-02 2.67750845364041e-04
7.53826530612245e+00 2.04207155633288e-02 2.66322154060912e-04
7.56377551020408e+00 2.02773549771013e-02 2.64899569249964e-04
7.58928571428571e+00 2.01350008325517e-02 2.63483084718580e-04
7.61479591836735e+00 1.99936460639207e-02 2.62072693923217e-04
7.64030612244898e+00 1.98532836554235e-02 2.60668389903113e-04
7.66581632653061e+00 1.97139066403419e-02 2.59270165629237e-04
7.69132653061224e+00 1.95755081006889e-02 2.57878013504424e-04
7.71683673469388e+00 1.94380811674023e-02 2.56491925703265e-04
7.74234693877551e+00 1.93016190192886e-02 2.55111894102468e-04
7.76785714285714e+00 1.91661148833924e-02 2.53737910198106e-04
7.79336734693878e+00 1.90315620341303e-02 2.52369965439367e-04
7.81887755102041e+00 1.88979537929660e-02 2.51008050749809e-04
7.84438775510204e+00 1.87652835285886e-02 2.49652156852463e-04
7.86989795918367e+00 1.86335446559050e-02 2.48302274202979e-04
7.89540816326531e+00 1.85027306363851e-02 2.46958392986053e-04
7.92091836734694e+00 1.83728349770710e-02 2.45620503130524e-04
7.94642857142857e+00 1.82438512309152e-02 2.44288594230996e-04
7.97193877551020e+00 1.81157729959658e-02 2.42962655862026e-04
7.99744897959184e+00 1.79885939150577e-02 2.41642677126765e-04
8.02295918367347e+00 1.78623076759721e-02 2.40328646963005e-04
8.04846938775510e+00 1.77369080104903e-02 2.39020554079774e-04
