Energy (eV)          EEDF (eV^-(3/2))     First Anisotropy
9.53703703703704e-04 6.86419905894435e+00 3.34825550006617e-03
2.86111111111111e-03 6.82061379946056e+00 5.52995878041146e-03
4.76851851851852e-03 6.77730529119273e+00 7.30292069972575e-03
6.67592592592593e-03 6.73427177674702e+00 8.65152839174798e-03
8.58333333333333e-03 6.69151151002445e+00 9.77767120310727e-03
1.04907407407407e-02 6.64902275600238e+00 1.07576219185862e-02
1.23981481481481e-02 6.60680379083010e+00 1.16308228777962e-02
1.43055555555556e-02 6.56485290100878e+00 1.24210750676406e-02
1.62129629629630e-02 6.52316838468416e+00 1.31441525200455e-02
1.81203703703704e-02 6.48174855046743e+00 1.38111961734168e-02
2.00277777777778e-02 6.44059171771290e+00 1.44304473154190e-02
2.19351851851852e-02 6.39969621644845e+00 1.50082213426337e-02
2.38425925925926e-02 6.35906038730701e+00 1.55494946737303e-02
2.57500000000000e-02 6.31868258145884e+00 1.60582783541525e-02
2.76574074074074e-02 6.27856116054372e+00 1.65378664848764e-02
2.95648148148148e-02 6.23869449660516e+00 1.69910074279688e-02
3.14722222222222e-02 6.19908097202447e+00 1.74200253708860e-02
3.33796296296296e-02 6.15971897945448e+00 1.78269088593143e-02
3.52870370370370e-02 6.12060692175425e+00 1.82133766954639e-02
3.71944444444444e-02 6.08174321192425e+00 1.85809279281947e-02
3.91018518518519e-02 6.04312627304195e+00 1.89308804222031e-02
4.10092592592593e-02 6.00475453811074e+00 1.92644010129401e-02
4.29166666666667e-02 5.96662645026295e+00 1.95825294689291e-02
4.48240740740741e-02 5.92874046242411e+00 1.98861977275550e-02
4.67314814814815e-02 5.89109503734324e+00 2.01762454534146e-02
4.86388888888889e-02 5.85368864753046e+00 2.04534328177679e-02
5.05462962962963e-02 5.81651977519500e+00 2.07184510509702e-02
5.24537037037037e-02 5.77958691218357e+00 2.09719312339143e-02
5.43611111111111e-02 5.74288855991896e+00 2.12144516769267e-02
5.62685185185185e-02 5.70642322933972e+00 2.14465441558859e-02
5.81759259259259e-02 5.67018944083945e+00 2.16686992161475e-02
6.00833333333333e-02 5.63418572420678e+00 2.18813707101554e-02
6.19907407407407e-02 5.59841061856568e+00 2.20849797009550e-02
6.38981481481481e-02 5.56286267231618e+00 2.22799178444936e-02
6.58055555555556e-02 5.52754044302593e+00 2.24665503006599e-02
6.77129629629630e-02 5.49244249752256e+00 2.26452183071172e-02
6.96203703703704e-02 5.45756741168230e+00 2.28162414366491e-02
7.15277777777778e-02 5.42291377042408e+00 2.29799195489514e-02
7.34351851851852e-02 5.38848016765213e+00 2.31365345412085e-02
7.53425925925926e-02 5.35426520619891e+00 2.32863518931818e-02
7.72500000000000e-02 5.32026749776843e+00 2.34296220413089e-02
7.91574074074074e-02 5.28648566287984e+00 2.35665816045991e-02
8.10648148148148e-02 5.25291833081155e+00 2.36974544816172e-02
8.29722222222222e-02 5.21956413954562e+00 2.38224528349649e-02
8.48796296296296e-02 5.18642173571249e+00 2.39417779771699e-02
8.67870370370371e-02 5.15348977453601e+00 2.40556211699226e-02
8.86944444444445e-02 5.12076691977889e+00 2.41641643469420e-02
9.06018518518519e-02 5.08825184368850e+00 2.42675807747403e-02
9.25092592592593e-02 5.05594322691090e+00 2.43660356316376e-02
9.44166666666667e-02 5.02383975853468e+00 2.44596865610900e-02
9.63240740740741e-02 4.99194013593922e+00 2.45486841774991e-02
9.82314814814815e-02 4.96024306477507e+00 2.46331725017986e-02
1.00138888888889e-01 4.92874725891150e+00 2.47132894018418e-02
1.02046296296296e-01 4.89745144026981e+00 2.47891668911342e-02
1.03953703703704e-01 4.86635433922991e+00 2.48609315612920e-02
1.05861111111111e-01 4.83545469399594e+00 2.49287049911464e-02
1.07768518518519e-01 4.80475125052791e+00 2.49926037959666e-02
1.09675925925926e-01 4.77424276327550e+00 2.50527400887192e-02
1.11583333333333e-01 4.74392799408013e+00 2.51092216891002e-02
1.13490740740741e-01 4.71380571315228e+00 2.51621523074445e-02
1.15398148148148e-01 4.68387469825194e+00 2.52116319502064e-02
1.17305555555556e-01 4.65413373467174e+00 2.52577568457208e-02
1.19212962962963e-01 4.62458161588505e+00 2.53006198151554e-02
1.21120370370370e-01 4.59521714256699e+00 2.53403104069257e-02
1.23027777777778e-01 4.56603912345898e+00 2.53769150129841e-02
1.24935185185185e-01 4.53704637463650e+00 2.54105171958295e-02
1.26842592592593e-01 4.50823771948792e+00 2.54411975743562e-02
1.28750000000000e-01 4.47961198929089e+00 2.54690341269882e-02
1.30657407407407e-01 4.45116802233323e+00 2.54941022788755e-02
1.32564814814815e-01 4.42290466468300e+00 2.55164750143595e-02
1.34472222222222e-01 4.39482076933829e+00 2.55362229927411e-02
1.36379629629630e-01 4.36691519697026e+00 2.55534146085660e-02
1.38287037037037e-01 4.33918681528599e+00 2.55681162482383e-02
1.40194444444444e-01 4.31163449900413e+00 2.55803921471742e-02
1.42101851851852e-01 4.28425713035204e+00 2.55903046310789e-02
1.44009259259259e-01 4.25705359829677e+00 2.55979141626340e-02
1.45916666666667e-01 4.23002279921190e+00 2.56032793781235e-02
1.47824074074074e-01 4.20316363629961e+00 2.56064573088530e-02
1.49731481481481e-01 4.17647501956514e+00 2.56075032305938e-02
1.51638888888889e-01 4.14995586626382e+00 2.56064708734534e-02
1.53546296296296e-01 4.12360510020206e+00 2.56034124508466e-02
1.55453703703704e-01 4.09742165233865e+00 2.55983786801989e-02
1.57361111111111e-01 4.07140446025812e+00 2.55914189775813e-02
1.59268518518519e-01 4.04555246814437e+00 2.55825813047593e-02
1.61175925925926e-01 4.01986462718439e+00 2.55719123548586e-02
1.63083333333333e-01 3.99433989493017e+00 2.55594575691800e-02
1.64990740740741e-01 3.96897723584305e+00 2.55452611469422e-02
1.66898148148148e-01 3.94377562081223e+00 2.55293662190060e-02
1.68805555555556e-01 3.91873402712732e+00 2.55118146957776e-02
1.70712962962963e-01 3.89385143884472e+00 2.54926474335670e-02
1.72620370370370e-01 3.86912684620279e+00 2.54719042430256e-02
1.74527777777778e-01 3.84455924611652e+00 2.54496238912836e-02
1.76435185185185e-01 3.82014764173567e+00 2.54258442588241e-02
1.78342592592593e-01 3.79589104241665e+00 2.54006021902364e-02
1.80250000000000e-01 3.77178846405602e+00 2.53739336448707e-02
1.82157407407407e-01 3.74783892855276e+00 2.53458736993865e-02
1.84064814814815e-01 3.72404146425928e+00 2.53164565725862e-02
1.85972222222222e-01 3.70039510545815e+00 2.52857156562314e-02
1.87879629629630e-01 3.67689889279988e+00 2.52536835100428e-02
1.89787037037037e-01 3.65355187290693e+00 2.52203920003827e-02
1.91694444444444e-01 3.63035309834552e+00 2.51858721560380e-02
1.93601851851852e-01 3.60730162792087e+00 2.51501543018732e-02
1.95509259259259e-01 3.58439652619431e+00 2.51132680556669e-02
1.97416666666667e-01 3.56163686388400e+00 2.50752423200096e-02
1.99324074074074e-01 3.53902171749864e+00 2.50361054098904e-02
2.01231481481482e-01 3.51655016930955e+00 2.49958849135048e-02
2.03138888888889e-01 3.49422130762092e+00 2.49546078155259e-02
2.05046296296296e-01 3.47203422632296e+00 2.49123004913284e-02
2.06953703703704e-01 3.44998802525960e+00 2.48689886967646e-02
2.08861111111111e-01 3.42808180988892e+00 2.48246976862070e-02
2.10768518518519e-01 3.40631469125551e+00 2.47794520786375e-02
2.12675925925926e-01 3.38468578623843e+00 2.47332759719313e-02
2.14583333333333e-01 3.36319421713678e+00 2.46861929352642e-02
2.16490740740741e-01 3.34183911200778e+00 2.46382259974104e-02
2.18398148148148e-01 3.32061960435146e+00 2.45893977565112e-02
2.20305555555556e-01 3.29953483308314e+00 2.45397302515390e-02
2.22212962962963e-01 3.27858394276153e+00 2.44892450686573e-02
2.24120370370370e-01 3.25776608320352e+00 2.44379633324046e-02
2.26027777777778e-01 3.23708040979575e+00 2.43859056930102e-02
2.27935185185185e-01 3.21652608320111e+00 2.43330924288711e-02
2.29842592592593e-01 3.19610226933150e+00 2.42795433233578e-02
2.31750000000000e-01 3.17580813955805e+00 2.42252777641508e-02
2.33657407407407e-01 3.15564287035239e+00 2.41703147336160e-02
2.35564814814815e-01 3.13560564357430e+00 2.41146728163506e-02
2.37472222222222e-01 3.11569564612136e+00 2.40583702116386e-02
2.39379629629630e-01 3.09591207020917e+00 2.40014247198766e-02
2.41287037037037e-01 3.07625411310404e+00 2.39438538364835e-02
2.43194444444444e-01 3.05672097709638e+00 2.38856746355226e-02
2.45101851851852e-01 3.03731186968962e+00 2.38269038608277e-02
2.47009259259259e-01 3.01802600327319e+00 2.37675579155622e-02
2.48916666666667e-01 2.99886259538185e+00 2.37076528484561e-02
2.50824074074074e-01 2.97982086844574e+00 2.36472044420270e-02
2.52731481481482e-01 2.96090004976439e+00 2.35862281012800e-02
2.54638888888889e-01 2.94209937168133e+00 2.35247389394072e-02
2.56546296296296e-01 2.92341807127840e+00 2.34627517670980e-02
2.58453703703704e-01 2.90485539061613e+00 2.34002810787487e-02
2.60361111111111e-01 2.88641057649969e+00 2.33373411355169e-02
2.62268518518519e-01 2.86808288045343e+00 2.32739458589286e-02
2.64175925925926e-01 2.84987155888259e+00 2.32101089116368e-02
2.66083333333333e-01 2.83177587278712e+00 2.31458436866305e-02
2.67990740740741e-01 2.81379508798473e+00 2.30811632935228e-02
2.69898148148148e-01 2.79592847489156e+00 2.30160806369296e-02
2.71805555555556e-01 2.77817530849711e+00 2.29506083147738e-02
2.73712962962963e-01 2.76053486851431e+00 2.28847586944981e-02
2.75620370370370e-01 2.74300643911118e+00 2.28185439023107e-02
2.77527777777778e-01 2.72558930911816e+00 2.27519758096385e-02
2.79435185185185e-01 2.70828277182215e+00 2.26850661072131e-02
2.81342592592593e-01 2.69108612494204e+00 2.26178262078774e-02
2.83250000000000e-01 2.67399867076803e+00 2.25502673186182e-02
2.85157407407407e-01 2.65701971590972e+00 2.24824004299275e-02
2.87064814814815e-01 2.64014857148909e+00 2.24142363183942e-02
2.88972222222222e-01 2.62338455289387e+00 2.23457855531154e-02
2.90879629629630e-01 2.60672697996596e+00 2.22770584824240e-02
2.92787037037037e-01 2.59017517681193e+00 2.22080653027349e-02
2.94694444444444e-01 2.57372847177931e+00 2.21388159670039e-02
2.96601851851852e-01 2.55738619758297e+00 2.20693202516965e-02
2.98509259259259e-01 2.54114769107338e+00 2.19995877463164e-02
3.00416666666667e-01 2.52501229341204e+00 2.19296278404596e-02
3.02324074074074e-01 2.50897934989322e+00 2.18594497890673e-02
3.04231481481481e-01 2.49304820992076e+00 2.17890626249410e-02
3.06138888888889e-01 2.47721822712575e+00 2.17184752222493e-02
3.08046296296296e-01 2.46148875914835e+00 2.16476962862648e-02
3.09953703703704e-01 2.44585916780157e+00 2.15767343407841e-02
3.11861111111111e-01 2.43032881890317e+00 2.15055977900389e-02
3.13768518518519e-01 2.41489708225308e+00 2.14342948350694e-02
3.15675925925926e-01 2.39956333174308e+00 2.13628335340146e-02
3.17583333333333e-01 2.38432694515119e+00 2.12912217920953e-02
3.19490740740741e-01 2.36918730429466e+00 2.12194673493926e-02
3.21398148148148e-01 2.35414379487139e+00 2.11475778396674e-02
3.23305555555556e-01 2.33919580643793e+00 2.10755607104117e-02
3.25212962962963e-01 2.32434273251170e+00 2.10034232801169e-02
3.27120370370370e-01 2.30958397037722e+00 2.09311727285387e-02
3.29027777777778e-01 2.29491892122901e+00 2.08588160848432e-02
3.30935185185185e-01 2.28034699002192e+00 2.07863602835341e-02
3.32842592592593e-01 2.26586758544965e+00 2.07138120880065e-02
3.34750000000000e-01 2.25148012004021e+00 2.06411781449971e-02
3.36657407407407e-01 2.23718400997298e+00 2.05684649751373e-02
3.38564814814815e-01 2.22297867521245e+00 2.04956789737978e-02
3.40472222222222e-01 2.20886353932889e+00 2.04228264149083e-02
3.42379629629630e-01 2.19483802962910e+00 2.03499134395820e-02
3.44287037037037e-01 2.18090157701775e+00 2.02769461084482e-02
3.46194444444444e-01 2.16705361597667e+00 2.02039303296189e-02
3.48101851851852e-01 2.15329358465202e+00 2.01308719096482e-02
3.50009259259259e-01 2.13962092468481e+00 2.00577765444414e-02
3.51916666666667e-01 2.12603508133340e+00 1.99846498082660e-02
3.53824074074074e-01 2.11253550334223e+00 1.99114972035909e-02
3.55731481481482e-01 2.09912164292178e+00 1.98383240921782e-02
3.57638888888889e-01 2.08579295583001e+00 1.97651357436240e-02
3.59546296296296e-01 2.07254890121212e+00 1.96919373265584e-02
3.61453703703704e-01 2.05938894171535e+00 1.96187338980483e-02
3.63361111111111e-01 2.04631254336470e+00 1.95455304510807e-02
3.65268518518519e-01 2.03331917554347e+00 1.94723318486300e-02
3.67175925925926e-01 2.02040831106940e+00 1.93991428699315e-02
3.69083333333333e-01 2.00757942604308e+00 1.93259682019689e-02
3.70990740740741e-01 1.99483199995560e+00 1.92528124292469e-02
3.72898148148148e-01 1.98216551557085e+00 1.91796800790781e-02
3.74805555555556e-01 1.96957945890651e+00 1.91065755584826e-02
3.76712962962963e-01 1.95707331930541e+00 1.90335031983062e-02
3.78620370370370e-01 1.94464658929195e+00 1.89604672450075e-02
3.80527777777778e-01 1.93229876467313e+00 1.88874718507921e-02
3.82435185185185e-01 1.92002934442699e+00 1.88145211168240e-02
3.84342592592593e-01 1.90783783068408e+00 1.87416190328253e-02
3.86250000000000e-01 1.89572372879436e+00 1.86687695191622e-02
3.88157407407407e-01 1.88368654719113e+00 1.85959764189234e-02
3.90064814814815e-01 1.87172579748591e+00 1.85232434980837e-02
3.91972222222222e-01 1.85984099433492e+00 1.84505744479971e-02
3.93879629629630e-01 1.84803165553196e+00 1.83779728759883e-02
3.95787037037037e-01 1.83629730190455e+00 1.83054423459540e-02
3.97694444444444e-01 1.82463745729611e+00 1.82329863213836e-02
3.99601851851852e-01 1.81305164862729e+00 1.81606082049041e-02
4.01509259259259e-01 1.80153940576935e+00 1.80883113307146e-02
4.03416666666667e-01 1.79010026163148e+00 1.80160989555366e-02
4.05324074074074e-01 1.77873375206209e+00 1.79439742973844e-02
4.07231481481482e-01 1.76743941583162e+00 1.78719404809940e-02
4.09138888888889e-01 1.75621679469000e+00 1.78000005756019e-02
4.11046296296296e-01 1.74506543324654e+00 1.77281575876492e-02
4.12953703703704e-01 1.73398487905198e+00 1.76564144520715e-02
4.14861111111111e-01 1.72297468250482e+00 1.75847740693390e-02
4.16768518518519e-01 1.71203439683450e+00 1.75132392531871e-02
4.18675925925926e-01 1.70116357815544e+00 1.74418127667179e-02
4.20583333333333e-01 1.69036178535293e+00 1.73704973153640e-02
4.22490740740741e-01 1.67962858016035e+00 1.72992955385064e-02
4.24398148148148e-01 1.66896352707014e+00 1.72282100448870e-02
4.26305555555556e-01 1.65836619331749e+00 1.71572433625235e-02
4.28212962962963e-01 1.64783614893103e+00 1.70863979732176e-02
4.30120370370370e-01 1.63737296662447e+00 1.70156763057845e-02
4.32027777777778e-01 1.62697622186929e+00 1.69450807279784e-02
4.33935185185185e-01 1.61664549281007e+00 1.68746135803610e-02
4.35842592592593e-01 1.60638036024864e+00 1.68042771283033e-02
4.37750000000000e-01 1.59618040769171e+00 1.67340735949840e-02
4.39657407407407e-01 1.58604522124788e+00 1.66640051548721e-02
4.41564814814815e-01 1.57597438969612e+00 1.65940739336084e-02
4.43472222222222e-01 1.56596750438459e+00 1.65242820097290e-02
4.45379629629630e-01 1.55602415929774e+00 1.64546314069899e-02
4.47287037037037e-01 1.54614395097720e+00 1.63851241262711e-02
4.49194444444445e-01 1.53632647850652e+00 1.63157621002416e-02
4.51101851851852e-01 1.52657134355501e+00 1.62465472244489e-02
4.53009259259259e-01 1.51687815028154e+00 1.61774813511110e-02
4.54916666666667e-01 1.50724650539776e+00 1.61085662817342e-02
4.56824074074074e-01 1.49767601809275e+00 1.60398037976429e-02
4.58731481481482e-01 1.48816630001825e+00 1.59711956165172e-02
4.60638888888889e-01 1.47871696532989e+00 1.59027434221459e-02
4.62546296296296e-01 1.46932763059561e+00 1.58344488584489e-02
4.64453703703704e-01 1.45999791485533e+00 1.57663135223821e-02
4.66361111111111e-01 1.45072743954912e+00 1.56983389931542e-02
4.68268518518519e-01 1.44151582850290e+00 1.56305267905530e-02
4.70175925925926e-01 1.43236270796721e+00 1.55628784034333e-02
4.72083333333333e-01 1.42326770653006e+00 1.54953952839571e-02
4.73990740740741e-01 1.41423045517318e+00 1.54280788407681e-02
4.75898148148148e-01 1.40525058720360e+00 1.53609304669736e-02
4.77805555555556e-01 1.39632773823977e+00 1.52939515001748e-02
4.79712962962963e-01 1.38746154624802e+00 1.52271432497413e-02
4.81620370370370e-01 1.37865165145960e+00 1.51605069912728e-02
4.83527777777778e-01 1.36989769642373e+00 1.50940439600299e-02
4.85435185185185e-01 1.36119932594241e+00 1.50277553777382e-02
4.87342592592593e-01 1.35255618705690e+00 1.49616424142466e-02
4.89250000000000e-01 1.34396792908210e+00 1.48957062136502e-02
4.91157407407407e-01 1.33543420352749e+00 1.48299478889641e-02
4.93064814814815e-01 1.32695466414719e+00 1.47643685218998e-02
4.94972222222222e-01 1.31852896686227e+00 1.46989691641028e-02
4.96879629629630e-01 1.31015676980991e+00 1.46337508309086e-02
4.98787037037037e-01 1.30183773328220e+00 1.45687145266444e-02
5.00694444444444e-01 1.29357151971326e+00 1.45038612083762e-02
5.02601851851852e-01 1.28535779371090e+00 1.44391918105639e-02
5.04509259259259e-01 1.27719622198255e+00 1.43747072399948e-02
5.06416666666667e-01 1.26908647338168e+00 1.43104083697826e-02
5.08324074074074e-01 1.26102821884941e+00 1.42462960636104e-02
5.10231481481482e-01 1.25302113140203e+00 1.41823711409424e-02
5.12138888888889e-01 1.24506488616082e+00 1.41186344006576e-02
5.14046296296296e-01 1.23715916028143e+00 1.40550866161685e-02
5.15953703703704e-01 1.22930363299768e+00 1.39917285296542e-02
5.17861111111111e-01 1.22149798556594e+00 1.39285608752947e-02
5.19768518518519e-01 1.21374190125290e+00 1.38655843458836e-02
5.21675925925926e-01 1.20603506536377e+00 1.38027996154853e-02
5.23583333333333e-01 1.19837716517484e+00 1.37402073347367e-02
5.25490740740741e-01 1.19076788997495e+00 1.36778081252975e-02
5.27398148148148e-01 1.18320693101232e+00 1.36156026021315e-02
5.29305555555556e-01 1.17569398148272e+00 1.35535913414533e-02
5.31212962962963e-01 1.16822873655605e+00 1.34917749024535e-02
5.33120370370370e-01 1.16081089331199e+00 1.34301538227803e-02
5.35027777777778e-01 1.15344015077918e+00 1.33687286131959e-02
5.36935185185185e-01 1.14611620988450e+00 1.33074997789472e-02
5.38842592592593e-01 1.13883877344152e+00 1.32464677889966e-02
5.40750000000000e-01 1.13160754617561e+00 1.31856330968495e-02
5.42657407407407e-01 1.12442223466250e+00 1.31249961362079e-02
5.44564814814815e-01 1.11728254736536e+00 1.30645573207203e-02
5.46472222222222e-01 1.11018819457443e+00 1.30043170448936e-02
5.48379629629630e-01 1.10313888844339e+00 1.29442756790149e-02
5.50287037037037e-01 1.09613434294159e+00 1.28844335893555e-02
5.52194444444445e-01 1.08917427384315e+00 1.28247911090440e-02
5.54101851851852e-01 1.08225839875000e+00 1.27653485577565e-02
5.56009259259259e-01 1.07538643703431e+00 1.27061062375875e-02
5.57916666666667e-01 1.06855810987284e+00 1.26470644281665e-02
5.59824074074074e-01 1.06177314020135e+00 1.25882234060377e-02
5.61731481481482e-01 1.05503125270392e+00 1.25295834166909e-02
5.63638888888889e-01 1.04833217383483e+00 1.24711446934526e-02
5.65546296296296e-01 1.04167563176344e+00 1.24129074535103e-02
5.67453703703704e-01 1.03506135640677e+00 1.23548718932171e-02
5.69361111111111e-01 1.02848907938587e+00 1.22970382066865e-02
5.71268518518519e-01 1.02195853401553e+00 1.22394065589265e-02
5.73175925925926e-01 1.01546945532482e+00 1.21819771039717e-02
5.75083333333333e-01 1.00902158000456e+00 1.21247499810546e-02
5.76990740740741e-01 1.00261464643802e+00 1.20677253100877e-02
5.78898148148148e-01 9.96248394659321e-01 1.20109032095103e-02
5.80805555555556e-01 9.89922566343356e-01 1.19542837704827e-02
5.82712962962963e-01 9.83636904825244e-01 1.18978670742863e-02
5.84620370370370e-01 9.77391155050066e-01 1.18416531886379e-02
5.86527777777778e-01 9.71185063602008e-01 1.17856421633436e-02
5.88435185185185e-01 9.65018378664494e-01 1.17298340474327e-02
5.90342592592593e-01 9.58890850010461e-01 1.16742288643627e-02
5.92250000000000e-01 9.52802229020699e-01 1.16188266287205e-02
5.94157407407407e-01 9.46752268635812e-01 1.15636273426781e-02
5.96064814814815e-01 9.40740723383812e-01 1.15086309957428e-02
5.97972222222222e-01 9.34767349332865e-01 1.14538375654441e-02
5.99879629629630e-01 9.28831904118363e-01 1.13992470132029e-02
6.01787037037037e-01 9.22934146905394e-01 1.13448593005439e-02
