Energy (eV)          EEDF (eV^-(3/2))     First Anisotropy
3.05714285714286e-02 7.27504343309365e-02 4.60218068017041e-05
9.17142857142857e-02 7.20363619557697e-02 7.58772081983130e-05
1.52857142857143e-01 7.13292984655565e-02 9.98547261056999e-05
2.14000000000000e-01 7.06291750646822e-02 1.17881992727632e-04
2.75142857142857e-01 6.99359236307108e-02 1.32761653183636e-04
3.36285714285714e-01 6.92494767162812e-02 1.45558003702538e-04
3.97428571428571e-01 6.85697675322320e-02 1.56824115446091e-04
4.58571428571429e-01 6.78967299451017e-02 1.66895328831107e-04
5.19714285714286e-01 6.72302984705792e-02 1.75994937771339e-04
5.80857142857143e-01 6.65704082671905e-02 1.84281386664555e-04
6.42000000000000e-01 6.59169951299158e-02 1.91872424114952e-04
7.03142857142857e-01 6.52699954829897e-02 1.98858695572499e-04
7.64285714285714e-01 6.46293463766722e-02 2.05311951624012e-04
8.25428571428571e-01 6.39949854780313e-02 2.11290282697655e-04
8.86571428571429e-01 6.33668510659629e-02 2.16841605939484e-04
9.47714285714286e-01 6.27448820251737e-02 2.22006072847133e-04
1.00885714285714e+00 6.21290178402555e-02 2.26817781842307e-04
1.07000000000000e+00 6.15191985903401e-02 2.31306028160625e-04
1.13114285714286e+00 6.09153649399270e-02 2.35496235261746e-04
1.19228571428571e+00 6.03174581382878e-02 2.39410662442234e-04
1.25342857142857e+00 5.97254200162761e-02 2.43068954117982e-04
1.31457142857143e+00 5.91391929657155e-02 2.46488567872230e-04
1.37571428571429e+00 5.85587199488505e-02 2.49685114110211e-04
1.43685714285714e+00 5.79839444919270e-02 2.52672633243211e-04
1.49800000000000e+00 5.74148106671954e-02 2.55463817290114e-04
1.55914285714286e+00 5.68512631000308e-02 2.58070191971545e-04
1.62028571428571e+00 5.62932469593260e-02 2.60502269221763e-04
1.68142857142857e+00 5.57407079555421e-02 2.62769674436896e-04
1.74257142857143e+00 5.51935923251786e-02 2.64881252093152e-04
1.80371428571429e+00 5.46518468358569e-02 2.66845154676930e-04
1.86485714285714e+00 5.41154187806476e-02 2.68668921788347e-04
1.92600000000000e+00 5.35842559640472e-02 2.70359544866885e-04
1.98714285714286e+00 5.30583067058420e-02 2.71923523210316e-04
2.04828571428571e+00 5.25375198330763e-02 2.73366913947626e-04
2.10942857142857e+00 5.20218446775719e-02 2.74695375485110e-04
2.17057142857143e+00 5.15112310634402e-02 2.75914204316437e-04
2.23171428571429e+00 5.10056293098067e-02 2.77028366948970e-04
2.29285714285714e+00 5.05049902256596e-02 2.78042530844306e-04
2.35400000000000e+00 5.00092650983552e-02 2.78961089170535e-04
2.41514285714286e+00 4.95184056956242e-02 2.79788183000345e-04
2.47628571428571e+00 4.90323642586136e-02 2.80527722310565e-04
2.53742857142857e+00 4.85510934991678e-02 2.81183404699621e-04
2.59857142857143e+00 4.80745465893974e-02 2.81758731151964e-04
2.65971428571429e+00 4.76026771629900e-02 2.82257019884936e-04
2.72085714285714e+00 4.71354393104789e-02 2.82681421224373e-04
2.78200000000000e+00 4.66727875695228e-02 2.83034928778799e-04
2.84314285714286e+00 4.62146769257658e-02 2.83320389762782e-04
2.90428571428571e+00 4.57610628066838e-02 2.83540515422673e-04
2.96542857142857e+00 4.53119010787817e-02 2.83697890477366e-04
3.02657142857143e+00 4.48671480386615e-02 2.83794980845011e-04
3.08771428571429e+00 4.44267604134371e-02 2.83834140430506e-04
3.14885714285714e+00 4.39906953563632e-02 2.83817619416256e-04
3.21000000000000e+00 4.35589104384418e-02 2.83747569886382e-04
3.27114285714286e+00 4.31313636485438e-02 2.83626051177059e-04
3.33228571428571e+00 4.27080133878939e-02 2.83455035716776e-04
3.39342857142857e+00 4.22888184672712e-02 2.83236414367810e-04
3.45457142857143e+00 4.18737380992302e-02 2.82972000583644e-04
3.51571428571429e+00 4.14627318979282e-02 2.82663534019877e-04
3.57685714285714e+00 4.10557598750720e-02 2.82312685695838e-04
3.63800000000000e+00 4.06527824325660e-02 2.81921061039120e-04
3.69914285714286e+00 4.02537603621421e-02 2.81490202877827e-04
3.76028571428571e+00 3.98586548403754e-02 2.81021595026256e-04
3.82142857142857e+00 3.94674274259383e-02 2.80516665583951e-04
3.88257142857143e+00 3.90800400527426e-02 2.79976789326031e-04
3.94371428571429e+00 3.86964550293735e-02 2.79403289731020e-04
4.00485714285714e+00 3.83166350353262e-02 2.78797442477639e-04
4.06600000000000e+00 3.79405431144951e-02 2.78160477172766e-04
4.12714285714286e+00 3.75681426744750e-02 2.77493579118003e-04
4.18828571428571e+00 3.71993974820287e-02 2.76797891674801e-04
4.24942857142857e+00 3.68342716604255e-02 2.76074518447340e-04
4.31057142857143e+00 3.64727296833386e-02 2.75324524723563e-04
4.37171428571429e+00 3.61147363740171e-02 2.74548938651847e-04
4.43285714285714e+00 3.57602569017870e-02 2.73748753768528e-04
4.49400000000000e+00 3.54092567762371e-02 2.72924930005208e-04
4.55514285714286e+00 3.50617018463032e-02 2.72078394772143e-04
4.61628571428571e+00 3.47175582961263e-02 2.71210044609897e-04
4.67742857142857e+00 3.43767926424939e-02 2.70320746715360e-04
4.73857142857143e+00 3.40393717293711e-02 2.69411339839747e-04
4.79971428571429e+00 3.37052627269001e-02 2.68482634980552e-04
4.86085714285714e+00 3.33744331281437e-02 2.67535417301619e-04
4.92200000000000e+00 3.30468507438609e-02 2.66570446724436e-04
4.98314285714286e+00 3.27224837014493e-02 2.65588458609421e-04
5.04428571428571e+00 3.24013004411477e-02 2.64590164963465e-04
5.10542857142857e+00 3.20832697135906e-02 2.63576255555239e-04
5.16657142857143e+00 3.17683605748788e-02 2.62547398486828e-04
5.22771428571429e+00 3.14565423854695e-02 2.61504240597320e-04
5.28885714285714e+00 3.11477848071440e-02 2.60447408978090e-04
5.35000000000000e+00 3.08420577982894e-02 2.59377511314114e-04
5.41114285714286e+00 3.05393316127528e-02 2.58295136318224e-04
5.47228571428571e+00 3.02395767963506e-02 2.57200854647335e-04
5.53342857142857e+00 2.99427641845408e-02 2.56095219747507e-04
5.59457142857143e+00 2.96488648979599e-02 2.54978768221675e-04
5.65571428571429e+00 2.93578503412489e-02 2.53852020055945e-04
5.71685714285714e+00 2.90696922002278e-02 2.52715479850988e-04
5.77800000000000e+00 2.87843624376171e-02 2.51569637008579e-04
5.83914285714286e+00 2.85018332918428e-02 2.50414966008875e-04
5.90028571428571e+00 2.82220772738211e-02 2.49251927126831e-04
5.96142857142857e+00 2.79450671647491e-02 2.48080967091683e-04
6.02257142857143e+00 2.76707760120500e-02 2.46902519323233e-04
6.08371428571429e+00 2.73991771281664e-02 2.45717004046558e-04
6.14485714285714e+00 2.71302440879270e-02 2.44524829315590e-04
6.20600000000000e+00 2.68639507246539e-02 2.43326391101803e-04
6.26714285714286e+00 2.66002711289471e-02 2.42122073469059e-04
6.32828571428571e+00 2.63391796457165e-02 2.40912249147678e-04
6.38942857142857e+00 2.60806508720912e-02 2.39697280061694e-04
6.45057142857143e+00 2.58246596537244e-02 2.38477517478331e-04
6.51171428571429e+00 2.55711810835769e-02 2.37253302051379e-04
6.57285714285714e+00 2.53201904994634e-02 2.36024964687151e-04
6.63400000000000e+00 2.50716634805003e-02 2.34792826570534e-04
6.69514285714286e+00 2.48255758458893e-02 2.33557199271583e-04
6.75628571428571e+00 2.45819036521754e-02 2.32318385214854e-04
6.81742857142857e+00 2.43406231912716e-02 2.31076678109393e-04
6.87857142857143e+00 2.41017109870824e-02 2.29832363039797e-04
6.93971428571429e+00 2.38651437942959e-02 2.28585716463700e-04
7.00085714285714e+00 2.36308985960965e-02 2.27337006954615e-04
7.06200000000000e+00 2.33989526009150e-02 2.26086495187672e-04
7.12314285714286e+00 2.31692832412278e-02 2.24834434000031e-04
7.18428571428571e+00 2.29418681710196e-02 2.23581068781024e-04
7.24542857142857e+00 2.27166852639202e-02 2.22326637828604e-04
7.30657142857143e+00 2.24937126101131e-02 2.21071372400547e-04
7.36771428571429e+00 2.22729285151481e-02 2.19815496682516e-04
7.42885714285714e+00 2.20543114978083e-02 2.18559228432272e-04
7.49000000000000e+00 2.18378402871322e-02 2.17302778939659e-04
7.55114285714286e+00 2.16234938212376e-02 2.16046353055550e-04
7.61228571428571e+00 2.14112512449724e-02 2.14790149520536e-04
7.67342857142857e+00 2.12010919081590e-02 2.13534361264441e-04
7.73457142857143e+00 2.09929953627586e-02 2.12279175430181e-04
7.79571428571429e+00 2.07869413617135e-02 2.11024773323171e-04
7.85685714285714e+00 2.05829098569581e-02 2.09771330974922e-04
7.91800000000000e+00 2.03808809966847e-02 2.08519019086966e-04
7.97914285714286e+00 2.01808351242004e-02 2.07268003038176e-04
8.04028571428571e+00 1.99827527757499e-02 2.06018443164805e-04
8.10142857142857e+00 1.97866146788638e-02 2.04770495015086e-04
8.16257142857143e+00 1.95924017497525e-02 2.03524309354151e-04
8.22371428571429e+00 1.94000950921851e-02 2.02280032102086e-04
8.28485714285714e+00 1.92096759956336e-02 2.01037804830525e-04
8.34600000000000e+00 1.90211259327598e-02 1.99797764696902e-04
8.40714285714286e+00 1.88344265583100e-02 1.98560044437001e-04
8.46828571428571e+00 1.86495597070957e-02 1.97324772605831e-04
8.52942857142857e+00 1.84665073924408e-02 1.96092073796044e-04
8.59057142857143e+00 1.82852518037841e-02 1.94862068629833e-04
8.65171428571429e+00 1.81057753055979e-02 1.93634873690533e-04
8.71285714285714e+00 1.79280604356572e-02 1.92410601962710e-04
8.77400000000000e+00 1.77520899027266e-02 1.91189362761180e-04
8.83514285714286e+00 1.75778465854959e-02 1.89971261713464e-04
8.89628571428571e+00 1.74053135307067e-02 1.88756400968611e-04
8.95742857142857e+00 1.72344739516935e-02 1.87544879386128e-04
9.01857142857143e+00 1.70653112261756e-02 1.86336792518971e-04
9.07971428571429e+00 1.68978088952178e-02 1.85132232542001e-04
9.14085714285714e+00 1.67319506616168e-02 1.83931288643903e-04
9.20200000000000e+00 1.65677203877686e-02 1.82734046953918e-04
9.26314285714286e+00 1.64051020946486e-02 1.81540590517585e-04
9.32428571428571e+00 1.62440799600721e-02 1.80350999478972e-04
9.38542857142857e+00 1.60846383173244e-02 1.79165351245185e-04
9.44657142857143e+00 1.59267616531248e-02 1.77983720463427e-04
9.50771428571429e+00 1.57704346066320e-02 1.76806178948578e-04
9.56885714285714e+00 1.56156419679384e-02 1.75632796033587e-04
9.63000000000000e+00 1.54623686761034e-02 1.74463638495970e-04
9.69114285714286e+00 1.53105998181778e-02 1.73298770529195e-04
9.75228571428571e+00 1.51603206275884e-02 1.72138253902651e-04
9.81342857142857e+00 1.50115164828528e-02 1.70982148105701e-04
9.87457142857143e+00 1.48641729056995e-02 1.69830510320872e-04
9.93571428571429e+00 1.47182755601195e-02 1.68683395352128e-04
9.99685714285714e+00 1.45738102509609e-02 1.67540856061742e-04
1.00580000000000e+01 1.44307629216872e-02 1.66402942686645e-04
1.01191428571429e+01 1.42891196555708e-02 1.65269703941759e-04
1.01802857142857e+01 1.41488666698197e-02 1.64141186252106e-04
1.02414285714286e+01 1.40099903196825e-02 1.63017434066783e-04
1.03025714285714e+01 1.38724770916257e-02 1.61898490325099e-04
1.03637142857143e+01 1.37363136061158e-02 1.60784394901289e-04
1.04248571428571e+01 1.36014866162383e-02 1.59675187005396e-04
1.04860000000000e+01 1.34679830025043e-02 1.58570903694257e-04
1.05471428571429e+01 1.33357897767515e-02 1.57471580246471e-04
1.06082857142857e+01 1.32048940757905e-02 1.56377250278813e-04
1.06694285714286e+01 1.30752831651576e-02 1.55287945717873e-04
1.07305714285714e+01 1.29469444329552e-02 1.54203697260721e-04
1.07917142857143e+01 1.28198653922936e-02 1.53124532949342e-04
1.08528571428571e+01 1.26940336800065e-02 1.52050480362541e-04
1.09140000000000e+01 1.25694370519484e-02 1.50981565250693e-04
1.09751428571429e+01 1.24460633864443e-02 1.49917811875699e-04
1.10362857142857e+01 1.23239006785461e-02 1.48859243113816e-04
1.10974285714286e+01 1.22029370433535e-02 1.47805880427009e-04
1.11585714285714e+01 1.20831607104429e-02 1.46757744281092e-04
1.12197142857143e+01 1.19645600260142e-02 1.45714852838385e-04
1.12808571428571e+01 1.18471234516946e-02 1.44677223960757e-04
1.13420000000000e+01 1.17308395602749e-02 1.43644873957250e-04
1.14031428571429e+01 1.16156970387642e-02 1.42617817892815e-04
1.14642857142857e+01 1.15016846831902e-02 1.41596069679407e-04
1.15254285714286e+01 1.13887914015415e-02 1.40579642047583e-04
1.15865714285714e+01 1.12770062087215e-02 1.39568546926604e-04
1.16477142857143e+01 1.11663182284386e-02 1.38562794244909e-04
1.17088571428571e+01 1.10567166920913e-02 1.37562393762208e-04
1.17700000000000e+01 1.09481909348976e-02 1.36567353920009e-04
1.18311428571429e+01 1.08407303986026e-02 1.35577682122459e-04
1.18922857142857e+01 1.07343246267658e-02 1.34593384817295e-04
1.19534285714286e+01 1.06289632673704e-02 1.33614467468008e-04
1.20145714285714e+01 1.05246360682474e-02 1.32640934899850e-04
1.20757142857143e+01 1.04213328787400e-02 1.31672790198660e-04
1.21368571428571e+01 1.03190436486663e-02 1.30710036387951e-04
1.21980000000000e+01 1.02177584247995e-02 1.29752675373416e-04
1.22591428571429e+01 1.01174673532715e-02 1.28800708198695e-04
1.23202857142857e+01 1.00181606752960e-02 1.27854135117486e-04
1.23814285714286e+01 9.91982872948471e-03 1.26912955566537e-04
1.24425714285714e+01 9.82246194769289e-03 1.25977168480996e-04
1.25037142857143e+01 9.72605085648674e-03 1.25046771283033e-04
1.25648571428571e+01 9.63058607617665e-03 1.24121761418178e-04
1.26260000000000e+01 9.53605831761417e-03 1.23202135385642e-04
1.26871428571429e+01 9.44245838432743e-03 1.22287888971542e-04
1.27482857142857e+01 9.34977716863471e-03 1.21379017313313e-04
1.28094285714286e+01 9.25800565370320e-03 1.20475514873641e-04
1.28705714285714e+01 9.16713490977269e-03 1.19577375728191e-04
1.29317142857143e+01 9.07715609544985e-03 1.18684592636278e-04
1.29928571428571e+01 8.98806045680771e-03 1.17797158449224e-04
1.30540000000000e+01 8.89983932446722e-03 1.16915065219152e-04
1.31151428571429e+01 8.81248411549638e-03 1.16038304411832e-04
1.31762857142857e+01 8.72598632987492e-03 1.15166866964322e-04
1.32374285714286e+01 8.64033755232584e-03 1.14300743260011e-04
1.32985714285714e+01 8.55552944887902e-03 1.13439923391349e-04
1.33597142857143e+01 8.47155376801371e-03 1.12584396305560e-04
1.34208571428571e+01 8.38840233981948e-03 1.11734151096473e-04
1.34820000000000e+01 8.30606707333444e-03 1.10889176185077e-04
1.35431428571429e+01 8.22453995823567e-03 1.10049459513984e-04
1.36042857142857e+01 8.14381306162006e-03 1.09214988599088e-04
1.36654285714286e+01 8.06387852963507e-03 1.08385750505761e-04
1.37265714285714e+01 7.98472858434851e-03 1.07561732088982e-04
1.37877142857143e+01 7.90635552475764e-03 1.06742919207685e-04
1.38488571428571e+01 7.82875172600722e-03 1.05929297910429e-04
1.39100000000000e+01 7.75190963695957e-03 1.05120853681590e-04
1.39711428571429e+01 7.67582178170050e-03 1.04317571619182e-04
1.40322857142857e+01 7.60048075660514e-03 1.03519436481253e-04
1.40934285714286e+01 7.52587923179111e-03 1.02726432663236e-04
1.41545714285714e+01 7.45200994826454e-03 1.01938544417614e-04
1.42157142857143e+01 7.37886571881169e-03 1.01155755131078e-04
1.42768571428571e+01 7.30643942727023e-03 1.00378048413348e-04
1.43380000000000e+01 7.23472402630893e-03 9.96054074034980e-05
1.43991428571429e+01 7.16371253877022e-03 9.88378149326744e-05
1.44602857142857e+01 7.09339805499340e-03 9.80752535658098e-05
1.45214285714286e+01 7.02377373411048e-03 9.73177055801451e-05
1.45825714285714e+01 6.95483280144182e-03 9.65651531663306e-05
1.46437142857143e+01 6.88656854928412e-03 9.58175777631077e-05
1.47048571428571e+01 6.81897433623137e-03 9.50749610576924e-05
1.47660000000000e+01 6.75204358514431e-03 9.43372843471997e-05
1.48271428571429e+01 6.68576978434820e-03 9.36045286876461e-05
1.48882857142857e+01 6.62014648518879e-03 9.28766749315067e-05
1.49494285714286e+01 6.55516730318861e-03 9.21537037073939e-05
1.50105714285714e+01 6.49082591566835e-03 9.14355956042707e-05
1.50717142857143e+01 6.42711606244367e-03 9.07223305588764e-05
1.51328571428571e+01 6.36403154519210e-03 9.00138887752835e-05
1.51940000000000e+01 6.30156622559484e-03 8.93102501368252e-05
1.52551428571429e+01 6.23971402640586e-03 8.86113943426378e-05
1.53162857142857e+01 6.17846892921876e-03 8.79173009414976e-05
1.53774285714286e+01 6.11782497549898e-03 8.72279493126486e-05
1.54385714285714e+01 6.05777626440991e-03 8.65433188346536e-05
1.54997142857143e+01 5.99831695342892e-03 8.58633883211551e-05
1.55608571428571e+01 5.93944125775728e-03 8.51881368665371e-05
1.56220000000000e+01 5.88114344861833e-03 8.45175433041712e-05
1.56831428571429e+01 5.82341785421233e-03 8.38515863316001e-05
1.57442857142857e+01 5.76625885767436e-03 8.31902445410832e-05
1.58054285714286e+01 5.70966089799645e-03 8.25334964015063e-05
1.58665714285714e+01 5.65361846803916e-03 8.18813204132451e-05
1.59277142857143e+01 5.59812611507641e-03 8.12336945882989e-05
1.59888571428571e+01 5.54317844024535e-03 8.05905972282899e-05
1.60500000000000e+01 5.48877009698667e-03 7.99520064252198e-05
1.61111428571429e+01 5.43489579189792e-03 7.93179001763202e-05
1.61722857142857e+01 5.38155028286473e-03 7.86882564116378e-05
1.62334285714286e+01 5.32872837988506e-03 7.80630529769917e-05
1.62945714285714e+01 5.27642494324911e-03 7.74422677760928e-05
1.63557142857143e+01 5.22463488402123e-03 7.68258782913877e-05
1.64168571428571e+01 5.17335316352699e-03 7.62138623001043e-05
1.64780000000000e+01 5.12257479192291e-03 7.56061974140419e-05
1.65391428571429e+01 5.07229482895925e-03 7.50028611849834e-05
1.66002857142857e+01 5.02250838226887e-03 7.44038311296235e-05
1.66614285714286e+01 4.97321060810418e-03 7.38090847135516e-05
1.67225714285714e+01 4.92439670967015e-03 7.32185994817334e-05
1.67837142857143e+01 4.87606193755051e-03 7.26323526167289e-05
1.68448571428571e+01 4.82820158922947e-03 7.20503215979782e-05
1.69060000000000e+01 4.78081100777931e-03 7.14724837774324e-05
1.69671428571429e+01 4.73388558254261e-03 7.08988164763460e-05
1.70282857142857e+01 4.68742074756439e-03 7.03292970078498e-05
1.70894285714286e+01 4.64141198225126e-03 6.97639026618853e-05
1.71505714285714e+01 4.59585480984379e-03 6.92026108250494e-05
1.72117142857143e+01 4.55074479779329e-03 6.86453985731812e-05
1.72728571428571e+01 4.50607755731593e-03 6.80922432785734e-05
1.73340000000000e+01 4.46184874218772e-03 6.75431222185545e-05
1.73951428571429e+01 4.41805404935488e-03 6.69980126644098e-05
1.74562857142857e+01 4.37468921749647e-03 6.64568919018113e-05
1.75174285714286e+01 4.33175002761418e-03 6.59197372166870e-05
1.75785714285714e+01 4.28923230163150e-03 6.53865260053348e-05
1.76397142857143e+01 4.24713190272684e-03 6.48572353985836e-05
1.77008571428571e+01 4.20544473491776e-03 6.43318428212522e-05
1.77620000000000e+01 4.16416674195396e-03 6.38103256310097e-05
1.78231428571429e+01 4.12329390786361e-03 6.32926612001012e-05
1.78842857142857e+01 4.08282225563474e-03 6.27788269338596e-05
1.79454285714286e+01 4.04274784774325e-03 6.22688002574417e-05
1.80065714285714e+01 4.00306678486759e-03 6.17625587170581e-05
1.80677142857143e+01 3.96377520618320e-03 6.12600796331684e-05
1.81288571428571e+01 3.92486928897478e-03 6.07613406160945e-05
1.81900000000000e+01 3.88634524761886e-03 6.02663192327296e-05
1.82511428571429e+01 3.84819933407287e-03 5.97749930816900e-05
1.83122857142857e+01 3.81042783666494e-03 5.92873398100951e-05
1.83734285714286e+01 3.77302708056656e-03 5.88033371011174e-05
1.84345714285714e+01 3.73599342661282e-03 5.83229627670889e-05
1.84957142857143e+01 3.69932327156245e-03 5.78461944293992e-05
1.85568571428571e+01 3.66301304773627e-03 5.73730099938442e-05
1.86180000000000e+01 3.62705922208160e-03 5.69033873429677e-05
1.86791428571429e+01 3.59145829661020e-03 5.64373044051740e-05
1.87402857142857e+01 3.55620680728697e-03 5.59747391699521e-05
1.88014285714286e+01 3.52130132445329e-03 5.55156696762099e-05
1.88625714285714e+01 3.48673845174339e-03 5.50600740979286e-05
1.89237142857143e+01 3.45251482631406e-03 5.46079304486322e-05
1.89848571428571e+01 3.41862711850747e-03 5.41592170197433e-05
1.90460000000000e+01 3.38507203099042e-03 5.37139120965170e-05
1.91071428571429e+01 3.35184629914655e-03 5.32719940216217e-05
1.91682857142857e+01 3.31894669005545e-03 5.28334412089623e-05
1.92294285714286e+01 3.28637000287178e-03 5.23982321327470e-05
1.92905714285714e+01 3.25411306782958e-03 5.19663454063127e-05
