Energy (eV)          EEDF (eV^-(3/2))     First Anisotropy
2.22000000000000e-04 6.89233087264578e+01 2.83080246777439e-02
6.66000000000000e-04 6.84492096653767e+01 4.67409589125683e-02
1.11000000000000e-03 6.79783717641108e+01 6.16937314216474e-02
1.55400000000000e-03 6.75107725902398e+01 7.30476116503122e-02
1.99800000000000e-03 6.70463898656931e+01 8.25120434036337e-02
2.44200000000000e-03 6.65852014656496e+01 9.07333447089620e-02
2.88600000000000e-03 6.61271854174796e+01 9.80459853654339e-02
3.33000000000000e-03 6.56723198996957e+01 1.04651941431765e-01
3.77400000000000e-03 6.52205832409134e+01 1.10685166597215e-01
4.21800000000000e-03 6.47719539188180e+01 1.16240336202418e-01
4.66200000000000e-03 6.43264105591393e+01 1.21387533538869e-01
5.10600000000000e-03 6.38839319346334e+01 1.26180501678297e-01
5.55000000000000e-03 6.34444969640710e+01 1.30661618572477e-01
5.99400000000000e-03 6.30080847112332e+01 1.34865064863855e-01
6.43800000000000e-03 6.25746743839138e+01 1.38818930899034e-01
6.88200000000000e-03 6.21442453329290e+01 1.42546669179996e-01
7.32600000000000e-03 6.17167770511335e+01 1.46068125954456e-01
7.77000000000000e-03 6.12922491724432e+01 1.49400292707723e-01
8.21400000000000e-03 6.08706414708653e+01 1.52557865679905e-01
8.65800000000000e-03 6.04519338595343e+01 1.55553670429348e-01
9.10200000000000e-03 6.00361063897552e+01 1.58398989406314e-01
9.54600000000000e-03 5.96231392500530e+01 1.61103818451790e-01
9.99000000000000e-03 5.92130127652289e+01 1.63677070304869e-01
1.04340000000000e-02 5.88057073954228e+01 1.66126737987000e-01
1.08780000000000e-02 5.84012037351824e+01 1.68460027381826e-01
1.13220000000000e-02 5.79994825125385e+01 1.70683465866326e-01
1.17660000000000e-02 5.76005245880872e+01 1.72802992109699e-01
1.22100000000000e-02 5.72043109540777e+01 1.74824030908116e-01
1.26540000000000e-02 5.68108227335066e+01 1.76751556014923e-01
1.30980000000000e-02 5.64200411792191e+01 1.78590143255585e-01
1.35420000000000e-02 5.60319476730151e+01 1.80344015715821e-01
1.39860000000000e-02 5.56465237247628e+01 1.82017082413567e-01
1.44300000000000e-02 5.52637509715171e+01 1.83612971576613e-01
1.48740000000000e-02 5.48836111766455e+01 1.85135059425630e-01
1.53180000000000e-02 5.45060862289587e+01 1.86586495189327e-01
1.57620000000000e-02 5.41311581418477e+01 1.87970222942885e-01
1.62060000000000e-02 5.37588090524273e+01 1.89289000753923e-01
1.66500000000000e-02 5.33890212206846e+01 1.90545417534752e-01
1.70940000000000e-02 5.30217770286340e+01 1.91741907931509e-01
1.75380000000000e-02 5.26570589794778e+01 1.92880765525508e-01
1.79820000000000e-02 5.22948496967726e+01 1.93964154577452e-01
1.84260000000000e-02 5.19351319236014e+01 1.94994120508649e-01
1.88700000000000e-02 5.15778885217514e+01 1.95972599283242e-01
1.93140000000000e-02 5.12231024708975e+01 1.96901425830781e-01
1.97580000000000e-02 5.08707568677914e+01 1.97782341628015e-01
2.02020000000000e-02 5.05208349254564e+01 1.98617001541546e-01
2.06460000000000e-02 5.01733199723872e+01 1.99406980018742e-01
2.10900000000000e-02 4.98281954517562e+01 2.00153776702254e-01
2.15340000000000e-02 4.94854449206241e+01 2.00858821533309e-01
2.19780000000000e-02 4.91450520491569e+01 2.01523479400451e-01
2.24220000000000e-02 4.88070006198477e+01 2.02149054382964e-01
2.28660000000000e-02 4.84712745267442e+01 2.02736793632018e-01
2.33100000000000e-02 4.81378577746811e+01 2.03287890927272e-01
2.37540000000000e-02 4.78067344785183e+01 2.03803489942036e-01
2.41980000000000e-02 4.74778888623838e+01 2.04284687246208e-01
2.46420000000000e-02 4.71513052589225e+01 2.04732535072618e-01
2.50860000000000e-02 4.68269681085492e+01 2.05148043869712e-01
2.55300000000000e-02 4.65048619587078e+01 2.05532184660727e-01
2.59740000000000e-02 4.61849714631348e+01 2.05885891227261e-01
2.64180000000000e-02 4.58672813811282e+01 2.06210062133403e-01
2.68620000000000e-02 4.55517765768215e+01 2.06505562604628e-01
2.73060000000000e-02 4.52384420184622e+01 2.06773226274235e-01
2.77500000000000e-02 4.49272627776963e+01 2.07013856808910e-01
2.81940000000000e-02 4.46182240288563e+01 2.07228229423589e-01
2.86380000000000e-02 4.43113110482555e+01 2.07417092294971e-01
2.90820000000000e-02 4.40065092134861e+01 2.07581167882024e-01
2.95260000000000e-02 4.37038040027226e+01 2.07721154161023e-01
2.99700000000000e-02 4.34031809940302e+01 2.07837725781945e-01
3.04140000000000e-02 4.31046258646772e+01 2.07931535152402e-01
3.08580000000000e-02 4.28081243904533e+01 2.08003213454736e-01
3.13020000000000e-02 4.25136624449911e+01 2.08053371601369e-01
3.17460000000000e-02 4.22212259990938e+01 2.08082601133051e-01
3.21900000000000e-02 4.19308011200664e+01 2.08091475064184e-01
3.26340000000000e-02 4.16423739710518e+01 2.08080548679181e-01
3.30780000000000e-02 4.13559308103719e+01 2.08050360283294e-01
3.35220000000000e-02 4.10714579908729e+01 2.08001431911169e-01
3.39660000000000e-02 4.07889419592745e+01 2.07934269996097e-01
3.44100000000000e-02 4.05083692555251e+01 2.07849366002644e-01
3.48540000000000e-02 4.02297265121598e+01 2.07747197025178e-01
3.52980000000000e-02 3.99530004536637e+01 2.07628226354584e-01
3.57420000000000e-02 3.96781778958396e+01 2.07492904015240e-01
3.61860000000000e-02 3.94052457451797e+01 2.07341667274190e-01
3.66300000000000e-02 3.91341909982418e+01 2.07174941124381e-01
3.70740000000000e-02 3.88650007410298e+01 2.06993138743549e-01
3.75180000000000e-02 3.85976621483784e+01 2.06796661930265e-01
3.79620000000000e-02 3.83321624833420e+01 2.06585901518640e-01
3.84060000000000e-02 3.80684890965880e+01 2.06361237772953e-01
3.88500000000000e-02 3.78066294257942e+01 2.06123040763395e-01
3.92940000000000e-02 3.75465709950499e+01 2.05871670724055e-01
3.97380000000000e-02 3.72883014142621e+01 2.05607478394272e-01
4.01820000000000e-02 3.70318083785647e+01 2.05330805344275e-01
4.06260000000000e-02 3.67770796677323e+01 2.05041984285951e-01
4.10700000000000e-02 3.65241031455983e+01 2.04741339369687e-01
4.15140000000000e-02 3.62728667594765e+01 2.04429186468087e-01
4.19580000000000e-02 3.60233585395866e+01 2.04105833447158e-01
4.24020000000000e-02 3.57755665984846e+01 2.03771580425810e-01
4.28460000000000e-02 3.55294791304957e+01 2.03426720024191e-01
4.32900000000000e-02 3.52850844111523e+01 2.03071537601517e-01
4.37340000000000e-02 3.50423707966352e+01 2.02706311483979e-01
4.41780000000000e-02 3.48013267232190e+01 2.02331313183187e-01
4.46220000000000e-02 3.45619407067210e+01 2.01946807605641e-01
4.50660000000000e-02 3.43242013419541e+01 2.01553053253736e-01
4.55100000000000e-02 3.40880973021836e+01 2.01150302418774e-01
4.59540000000000e-02 3.38536173385872e+01 2.00738801366266e-01
4.63980000000000e-02 3.36207502797194e+01 2.00318790514012e-01
4.68420000000000e-02 3.33894850309792e+01 1.99890504603229e-01
4.72860000000000e-02 3.31598105740811e+01 1.99454172863163e-01
4.77300000000000e-02 3.29317159665310e+01 1.99010019169431e-01
4.81740000000000e-02 3.27051903411038e+01 1.98558262196405e-01
4.86180000000000e-02 3.24802229053267e+01 1.98099115563954e-01
4.90620000000000e-02 3.22568029409640e+01 1.97632787978746e-01
4.95060000000000e-02 3.20349198035075e+01 1.97159483370437e-01
4.99500000000000e-02 3.18145629216683e+01 1.96679401022935e-01
5.03940000000000e-02 3.15957217968740e+01 1.96192735700953e-01
5.08380000000000e-02 3.13783860027680e+01 1.95699677772125e-01
5.12820000000000e-02 3.11625451847130e+01 1.95200413324805e-01
5.17260000000000e-02 3.09481890592975e+01 1.94695124281790e-01
5.21700000000000e-02 3.07353074138460e+01 1.94183988510151e-01
5.26140000000000e-02 3.05238901059325e+01 1.93667179927290e-01
5.30580000000000e-02 3.03139270628969e+01 1.93144868603460e-01
5.35020000000000e-02 3.01054082813657e+01 1.92617220860819e-01
5.39460000000000e-02 2.98983238267747e+01 1.92084399369242e-01
5.43900000000000e-02 2.96926638328962e+01 1.91546563238950e-01
5.48340000000000e-02 2.94884185013690e+01 1.91003868110131e-01
5.52780000000000e-02 2.92855781012311e+01 1.90456466239708e-01
5.57220000000000e-02 2.90841329684564e+01 1.89904506585300e-01
5.61660000000000e-02 2.88840735054943e+01 1.89348134886551e-01
5.66100000000000e-02 2.86853901808123e+01 1.88787493743863e-01
5.70540000000000e-02 2.84880735284419e+01 1.88222722694704e-01
5.74980000000000e-02 2.82921141475277e+01 1.87653958287572e-01
5.79420000000000e-02 2.80975027018795e+01 1.87081334153670e-01
5.83860000000000e-02 2.79042299195273e+01 1.86504981076422e-01
5.88300000000000e-02 2.77122865922799e+01 1.85925027058897e-01
5.92740000000000e-02 2.75216635752859e+01 1.85341597389185e-01
5.97180000000000e-02 2.73323517865980e+01 1.84754814703874e-01
6.01620000000000e-02 2.71443422067405e+01 1.84164799049683e-01
6.06060000000000e-02 2.69576258782796e+01 1.83571667943225e-01
6.10500000000000e-02 2.67721939053962e+01 1.82975536429103e-01
6.14940000000000e-02 2.65880374534628e+01 1.82376517136326e-01
6.19380000000000e-02 2.64051477486219e+01 1.81774720333084e-01
6.23820000000000e-02 2.62235160773682e+01 1.81170253980007e-01
6.28260000000000e-02 2.60431337861338e+01 1.80563223781956e-01
6.32700000000000e-02 2.58639922808754e+01 1.79953733238335e-01
6.37140000000000e-02 2.56860830266652e+01 1.79341883691987e-01
6.41580000000000e-02 2.55093975472842e+01 1.78727774376782e-01
6.46020000000000e-02 2.53339274248180e+01 1.78111502463957e-01
6.50460000000000e-02 2.51596642992565e+01 1.77493163107124e-01
6.54900000000000e-02 2.49865998680949e+01 1.76872849486088e-01
6.59340000000000e-02 2.48147258859383e+01 1.76250652849532e-01
6.63780000000000e-02 2.46440341641092e+01 1.75626662556554e-01
6.68220000000000e-02 2.44745165702569e+01 1.75000966117100e-01
6.72660000000000e-02 2.43061650279705e+01 1.74373649231337e-01
6.77100000000000e-02 2.41389715163937e+01 1.73744795828055e-01
6.81540000000000e-02 2.39729280698428e+01 1.73114488102023e-01
6.85980000000000e-02 2.38080267774273e+01 1.72482806550413e-01
6.90420000000000e-02 2.36442597826730e+01 1.71849830008311e-01
6.94860000000000e-02 2.34816192831474e+01 1.71215635683293e-01
6.99300000000000e-02 2.33200975300884e+01 1.70580299189180e-01
7.03740000000000e-02 2.31596868280347e+01 1.69943894578950e-01
7.08180000000000e-02 2.30003795344595e+01 1.69306494376787e-01
7.12620000000000e-02 2.28421680594061e+01 1.68668169609374e-01
7.17060000000000e-02 2.26850448651265e+01 1.68028989836432e-01
7.21500000000000e-02 2.25290024657224e+01 1.67389023180507e-01
7.25940000000000e-02 2.23740334267879e+01 1.66748336356021e-01
7.30380000000000e-02 2.22201303650562e+01 1.66106994697652e-01
7.34820000000000e-02 2.20672859480470e+01 1.65465062188020e-01
7.39260000000000e-02 2.19154928937179e+01 1.64822601484726e-01
7.43700000000000e-02 2.17647439701168e+01 1.64179673946752e-01
7.48140000000000e-02 2.16150319950378e+01 1.63536339660229e-01
7.52580000000000e-02 2.14663498356788e+01 1.62892657463614e-01
7.57020000000000e-02 2.13186904083017e+01 1.62248684972292e-01
7.61460000000000e-02 2.11720466778950e+01 1.61604478602617e-01
7.65900000000000e-02 2.10264116578384e+01 1.60960093595368e-01
7.70340000000000e-02 2.08817784095704e+01 1.60315584038707e-01
7.74780000000000e-02 2.07381400422572e+01 1.59671002890589e-01
7.79220000000000e-02 2.05954897124644e+01 1.59026402000690e-01
7.83660000000000e-02 2.04538206238316e+01 1.58381832131820e-01
7.88100000000000e-02 2.03131260267479e+01 1.57737342980886e-01
7.92540000000000e-02 2.01733992180305e+01 1.57092983199393e-01
7.96980000000000e-02 2.00346335406058e+01 1.56448800413440e-01
8.01420000000000e-02 1.98968223831915e+01 1.55804841243323e-01
8.05860000000000e-02 1.97599591799820e+01 1.55161151322715e-01
8.10300000000000e-02 1.96240374103357e+01 1.54517775317397e-01
8.14740000000000e-02 1.94890505984642e+01 1.53874756943619e-01
8.19180000000000e-02 1.93549923131236e+01 1.53232138986024e-01
8.23620000000000e-02 1.92218561673084e+01 1.52589963315237e-01
8.28060000000000e-02 1.90896358179468e+01 1.51948270905051e-01
8.32500000000000e-02 1.89583249655992e+01 1.51307101849220e-01
8.36940000000000e-02 1.88279173541572e+01 1.50666495377983e-01
8.41380000000000e-02 1.86984067705461e+01 1.50026489874159e-01
8.45820000000000e-02 1.85697870444288e+01 1.49387122888917e-01
8.50260000000000e-02 1.84420520479117e+01 1.48748431157270e-01
8.54700000000000e-02 1.83151956952529e+01 1.48110450613202e-01
8.59140000000000e-02 1.81892119425719e+01 1.47473216404482e-01
8.63580000000000e-02 1.80640947875623e+01 1.46836762907184e-01
8.68020000000000e-02 1.79398382692052e+01 1.46201123739949e-01
8.72460000000000e-02 1.78164364674855e+01 1.45566331777886e-01
8.76900000000000e-02 1.76938835031097e+01 1.44932419166219e-01
8.81340000000000e-02 1.75721735372261e+01 1.44299417333699e-01
8.85780000000000e-02 1.74513007711462e+01 1.43667357005676e-01
8.90220000000000e-02 1.73312594460686e+01 1.43036268216971e-01
8.94660000000000e-02 1.72120438428049e+01 1.42406180324475e-01
8.99100000000000e-02 1.70936482815067e+01 1.41777122019445e-01
9.03540000000000e-02 1.69760671213955e+01 1.41149121339636e-01
9.07980000000000e-02 1.68592947604935e+01 1.40522205681162e-01
9.12420000000000e-02 1.67433256353571e+01 1.39896401810096e-01
9.16860000000000e-02 1.66281542208115e+01 1.39271735873893e-01
9.21300000000000e-02 1.65137750296878e+01 1.38648233412549e-01
9.25740000000000e-02 1.64001826125613e+01 1.38025919369568e-01
9.30180000000000e-02 1.62873715574919e+01 1.37404818102723e-01
9.34620000000000e-02 1.61753364897665e+01 1.36784953394571e-01
9.39060000000000e-02 1.60640720716426e+01 1.36166348462810e-01
9.43500000000000e-02 1.59535730020942e+01 1.35549025970421e-01
9.47940000000000e-02 1.58438340165591e+01 1.34933008035598e-01
9.52380000000000e-02 1.57348498866884e+01 1.34318316241528e-01
9.56820000000000e-02 1.56266154200968e+01 1.33704971645956e-01
9.61260000000000e-02 1.55191254601158e+01 1.33092994790584e-01
9.65700000000000e-02 1.54123748855479e+01 1.32482405710283e-01
9.70140000000000e-02 1.53063586104223e+01 1.31873223942143e-01
9.74580000000000e-02 1.52010715837529e+01 1.31265468534356e-01
9.79020000000000e-02 1.50965087892975e+01 1.30659158054904e-01
9.83460000000000e-02 1.49926652453189e+01 1.30054310600134e-01
9.87900000000000e-02 1.48895360043475e+01 1.29450943803147e-01
9.92340000000000e-02 1.47871161529455e+01 1.28849074842018e-01
9.96780000000000e-02 1.46854008114731e+01 1.28248720447908e-01
1.00122000000000e-01 1.45843851338555e+01 1.27649896912977e-01
1.00566000000000e-01 1.44840643073528e+01 1.27052620098191e-01
1.01010000000000e-01 1.43844335523297e+01 1.26456905440978e-01
1.01454000000000e-01 1.42854881220288e+01 1.25862767962725e-01
1.01898000000000e-01 1.41872233023436e+01 1.25270222276171e-01
1.02342000000000e-01 1.40896344115946e+01 1.24679282592642e-01
1.02786000000000e-01 1.39927168003055e+01 1.24089962729164e-01
1.03230000000000e-01 1.38964658509825e+01 1.23502276115455e-01
1.03674000000000e-01 1.38008769778937e+01 1.22916235800781e-01
1.04118000000000e-01 1.37059456268509e+01 1.22331854460695e-01
1.04562000000000e-01 1.36116672749926e+01 1.21749144403654e-01
1.05006000000000e-01 1.35180374305682e+01 1.21168117577529e-01
1.05450000000000e-01 1.34250516327246e+01 1.20588785575985e-01
1.05894000000000e-01 1.33327054512931e+01 1.20011159644743e-01
1.06338000000000e-01 1.32409944865788e+01 1.19435250687756e-01
1.06782000000000e-01 1.31499143691504e+01 1.18861069273270e-01
1.07226000000000e-01 1.30594607596326e+01 1.18288625639762e-01
1.07670000000000e-01 1.29696293484993e+01 1.17717929701788e-01
1.08114000000000e-01 1.28804158558676e+01 1.17148991055726e-01
1.08558000000000e-01 1.27918160312949e+01 1.16581818985406e-01
1.09002000000000e-01 1.27038256535757e+01 1.16016422467681e-01
1.09446000000000e-01 1.26164405305405e+01 1.15452810177855e-01
1.09890000000000e-01 1.25296564988566e+01 1.14890990495040e-01
1.10334000000000e-01 1.24434694238291e+01 1.14330971507434e-01
1.10778000000000e-01 1.23578751992044e+01 1.13772761017477e-01
1.11222000000000e-01 1.22728697469742e+01 1.13216366546934e-01
1.11666000000000e-01 1.21884490171816e+01 1.12661795341898e-01
1.12110000000000e-01 1.21046089877276e+01 1.12109054377697e-01
1.12554000000000e-01 1.20213456641801e+01 1.11558150363718e-01
1.12998000000000e-01 1.19386550795831e+01 1.11009089748163e-01
1.13442000000000e-01 1.18565332942679e+01 1.10461878722710e-01
1.13886000000000e-01 1.17749763956656e+01 1.09916523227086e-01
1.14330000000000e-01 1.16939804981203e+01 1.09373028953591e-01
1.14774000000000e-01 1.16135417427040e+01 1.08831401351509e-01
1.15218000000000e-01 1.15336562970332e+01 1.08291645631476e-01
1.15662000000000e-01 1.14543203550859e+01 1.07753766769779e-01
1.16106000000000e-01 1.13755301370202e+01 1.07217769512550e-01
1.16550000000000e-01 1.12972818889947e+01 1.06683658379895e-01
1.16994000000000e-01 1.12195718829892e+01 1.06151437669977e-01
1.17438000000000e-01 1.11423964166272e+01 1.05621111463037e-01
1.17882000000000e-01 1.10657518129995e+01 1.05092683625307e-01
1.18326000000000e-01 1.09896344204892e+01 1.04566157812890e-01
1.18770000000000e-01 1.09140406125975e+01 1.04041537475562e-01
1.19214000000000e-01 1.08389667877711e+01 1.03518825860520e-01
1.19658000000000e-01 1.07644093692303e+01 1.02998026016064e-01
1.20102000000000e-01 1.06903648047989e+01 1.02479140795209e-01
1.20546000000000e-01 1.06168295667350e+01 1.01962172859259e-01
1.20990000000000e-01 1.05438001515627e+01 1.01447124681296e-01
1.21434000000000e-01 1.04712730799051e+01 1.00933998549631e-01
1.21878000000000e-01 1.03992448963190e+01 1.00422796571186e-01
1.22322000000000e-01 1.03277121691297e+01 9.99135206748251e-02
1.22766000000000e-01 1.02566714902680e+01 9.94061726146434e-02
1.23210000000000e-01 1.01861194751074e+01 9.89007539731741e-02
1.23654000000000e-01 1.01160527623033e+01 9.83972661645659e-02
1.24098000000000e-01 1.00464680136323e+01 9.78957104377098e-02
1.24542000000000e-01 9.97736191383376e+00 9.73960878792927e-02
1.24986000000000e-01 9.90873117045127e+00 9.68983994168167e-02
1.25430000000000e-01 9.84057251367623e+00 9.64026458215773e-02
1.25874000000000e-01 9.77288269619187e+00 9.59088277115782e-02
1.26318000000000e-01 9.70565849301853e+00 9.54169455543975e-02
1.26762000000000e-01 9.63889670136007e+00 9.49269996700200e-02
1.27206000000000e-01 9.57259414045125e+00 9.44389902336145e-02
1.27650000000000e-01 9.50674765140616e+00 9.39529172782678e-02
1.28094000000000e-01 9.44135409706780e+00 9.34687806976778e-02
1.28538000000000e-01 9.37641036185853e+00 9.29865802488032e-02
1.28982000000000e-01 9.31191335163166e+00 9.25063155544610e-02
1.29426000000000e-01 9.24785999352408e+00 9.20279861058943e-02
1.29870000000000e-01 9.18424723580976e+00 9.15515912652916e-02
1.30314000000000e-01 9.12107204775447e+00 9.10771302682589e-02
1.30758000000000e-01 9.05833141947130e+00 9.06046022262693e-02
1.31202000000000e-01 8.99602236177728e+00 9.01340061290689e-02
1.31646000000000e-01 8.93414190605099e+00 8.96653408470212e-02
1.32090000000000e-01 8.87268710409110e+00 8.91986051334388e-02
1.32534000000000e-01 8.81165502797591e+00 8.87337976268815e-02
1.32978000000000e-01 8.75104276992386e+00 8.82709168533922e-02
1.33422000000000e-01 8.69084744215500e+00 8.78099612287119e-02
1.33866000000000e-01 8.63106617675338e+00 8.73509290604630e-02
1.34310000000000e-01 8.57169612553045e+00 8.68938185502999e-02
1.34754000000000e-01 8.51273445988933e+00 8.64386277960095e-02
1.35198000000000e-01 8.45417837069005e+00 8.59853547935776e-02
1.35642000000000e-01 8.39602506811573e+00 8.55339974392474e-02
1.36086000000000e-01 8.33827178153966e+00 8.50845535315235e-02
1.36530000000000e-01 8.28091575939328e+00 8.46370207731421e-02
1.36974000000000e-01 8.22395426903509e+00 8.41913967730289e-02
1.37418000000000e-01 8.16738459662049e+00 8.37476790482040e-02
1.37862000000000e-01 8.11120404697244e+00 8.33058650256694e-02
1.38306000000000e-01 8.05540994345306e+00 8.28659520442674e-02
1.38750000000000e-01 7.99999962783613e+00 8.24279373564979e-02
1.39194000000000e-01 7.94497046018042e+00 8.19918181303127e-02
1.39638000000000e-01 7.89031981870393e+00 8.15575914508875e-02
1.40082000000000e-01 7.83604509965897e+00 8.11252543223619e-02
