Energy (eV)          EEDF (eV^-(3/2))     First Anisotropy
3.68965517241379e-02 7.26750535749243e-02 5.04554061886991e-05
1.10689655172414e-01 7.18150083335847e-02 8.31026042669990e-05
1.84482758620690e-01 7.09651409688132e-02 1.09140412012539e-04
2.58275862068966e-01 7.01253310377045e-02 1.28581386942886e-04
3.32068965517241e-01 6.92954595156149e-02 1.44516342683104e-04
4.05862068965517e-01 6.84754087931553e-02 1.58122646633619e-04
4.79655172413793e-01 6.76650626475304e-02 1.70013929190196e-04
5.53448275862069e-01 6.68643062355635e-02 1.80563312306173e-04
6.27241379310345e-01 6.60730260695707e-02 1.90019941982430e-04
7.01034482758621e-01 6.52911100079696e-02 1.98561090775178e-04
7.74827586206897e-01 6.45184472346182e-02 2.06318852759743e-04
8.48620689655172e-01 6.37549282440378e-02 2.13395182842258e-04
9.22413793103448e-01 6.30004448285185e-02 2.19870989053594e-04
9.96206896551724e-01 6.22548900591764e-02 2.25811937308447e-04
1.07000000000000e+00 6.15181582726454e-02 2.31272322071016e-04
1.14379310344828e+00 6.07901450601974e-02 2.36297743375825e-04
1.21758620689655e+00 6.00707472387068e-02 2.40927010914585e-04
1.29137931034483e+00 5.93598628589822e-02 2.45193536431140e-04
1.36517241379310e+00 5.86573911715431e-02 2.49126374693936e-04
1.43896551724138e+00 5.79632326144092e-02 2.52751011283855e-04
1.51275862068966e+00 5.72772888141272e-02 2.56089975913547e-04
1.58655172413793e+00 5.65994625559966e-02 2.59163324127738e-04
1.66034482758621e+00 5.59296577717934e-02 2.61989016957290e-04
1.73413793103448e+00 5.52677795386735e-02 2.64583230036352e-04
1.80793103448276e+00 5.46137340526657e-02 2.66960605236131e-04
1.88172413793103e+00 5.39674286165200e-02 2.69134454185423e-04
1.95551724137931e+00 5.33287716371378e-02 2.71116930139793e-04
2.02931034482759e+00 5.26976726015953e-02 2.72919171685286e-04
2.10310344827586e+00 5.20740420652153e-02 2.74551420784814e-04
2.17689655172414e+00 5.14577916479531e-02 2.76023125745588e-04
2.25068965517241e+00 5.08488340124576e-02 2.77343029119590e-04
2.32448275862069e+00 5.02470828524198e-02 2.78519240443274e-04
2.39827586206897e+00 4.96524528882074e-02 2.79559301666761e-04
2.47206896551724e+00 4.90648598466304e-02 2.80470243946622e-04
2.54586206896552e+00 4.84842204495738e-02 2.81258634657140e-04
2.61965517241379e+00 4.79104524091070e-02 2.81930620998791e-04
2.69344827586207e+00 4.73434744086907e-02 2.82491968373703e-04
2.76724137931034e+00 4.67832060921171e-02 2.82948091955785e-04
2.84103448275862e+00 4.62295680582442e-02 2.83304086930298e-04
2.91482758620690e+00 4.56824818434472e-02 2.83564755412171e-04
2.98862068965517e+00 4.51418699108792e-02 2.83734628320032e-04
3.06241379310345e+00 4.46076556449422e-02 2.83817987058497e-04
3.13620689655172e+00 4.40797633348310e-02 2.83818883008642e-04
3.21000000000000e+00 4.35581181641189e-02 2.83741153079414e-04
3.28379310344828e+00 4.30426462050515e-02 2.83588435913805e-04
3.35758620689655e+00 4.25332744015428e-02 2.83364185557776e-04
3.43137931034483e+00 4.20299305651768e-02 2.83071683797053e-04
3.50517241379310e+00 4.15325433602275e-02 2.82714052467238e-04
3.57896551724138e+00 4.10410422937994e-02 2.82294262651834e-04
3.65275862068966e+00 4.05553577100288e-02 2.81815144864307e-04
3.72655172413793e+00 4.00754207759270e-02 2.81279398382170e-04
3.80034482758621e+00 3.96011634718469e-02 2.80689598114004e-04
3.87413793103448e+00 3.91325185856399e-02 2.80048202576143e-04
3.94793103448276e+00 3.86694196992483e-02 2.79357561245022e-04
4.02172413793103e+00 3.82118011794901e-02 2.78619919750737e-04
4.09551724137931e+00 3.77595981722084e-02 2.77837426237580e-04
4.16931034482759e+00 3.73127465895512e-02 2.77012137254452e-04
4.24310344827586e+00 3.68711831010647e-02 2.76146021724581e-04
4.31689655172414e+00 3.64348451278665e-02 2.75240966097863e-04
4.39068965517241e+00 3.60036708305568e-02 2.74298779141850e-04
4.46448275862069e+00 3.55775991006132e-02 2.73321195001942e-04
4.53827586206897e+00 3.51565695546096e-02 2.72309877433686e-04
4.61206896551724e+00 3.47405225227155e-02 2.71266423753300e-04
4.68586206896552e+00 3.43293990403778e-02 2.70192367212094e-04
4.75965517241379e+00 3.39231408426088e-02 2.69089180516488e-04
4.83344827586207e+00 3.35216903530297e-02 2.67958279125882e-04
4.90724137931034e+00 3.31249906758323e-02 2.66801023103424e-04
4.98103448275862e+00 3.27329855901500e-02 2.65618720076938e-04
5.05482758620690e+00 3.23456195396089e-02 2.64412628022375e-04
5.12862068965517e+00 3.19628376245614e-02 2.63183956710327e-04
5.20241379310345e+00 3.15845855965511e-02 2.61933870222220e-04
5.27620689655172e+00 3.12108098483390e-02 2.60663489322958e-04
5.35000000000000e+00 3.08414574064011e-02 2.59373892592379e-04
5.42379310344828e+00 3.04764759254955e-02 2.58066118698032e-04
5.49758620689655e+00 3.01158136784811e-02 2.56741167975442e-04
5.57137931034483e+00 2.97594195516927e-02 2.55400003887030e-04
5.64517241379310e+00 2.94072430356734e-02 2.54043555005289e-04
5.71896551724138e+00 2.90592342180968e-02 2.52672715753761e-04
5.79275862068966e+00 2.87153437785376e-02 2.51288348112660e-04
5.86655172413793e+00 2.83755229796068e-02 2.49891283236766e-04
5.94034482758621e+00 2.80397236601194e-02 2.48482322028504e-04
6.01413793103448e+00 2.77078982299788e-02 2.47062236631898e-04
6.08793103448276e+00 2.73799996616930e-02 2.45631771851674e-04
6.16172413793103e+00 2.70559814837790e-02 2.44191645592076e-04
6.23551724137931e+00 2.67357977757647e-02 2.42742550173863e-04
6.30931034482759e+00 2.64194031600652e-02 2.41285153586839e-04
6.38310344827586e+00 2.61067527956159e-02 2.39820099820699e-04
6.45689655172414e+00 2.57978023729945e-02 2.38348010032909e-04
6.53068965517241e+00 2.54925081066381e-02 2.36869483660514e-04
6.60448275862069e+00 2.51908267286974e-02 2.35385098663878e-04
6.67827586206897e+00 2.48927154842793e-02 2.33895412567678e-04
6.75206896551724e+00 2.45981321239891e-02 2.32400963453136e-04
6.82586206896552e+00 2.43070348979962e-02 2.30902270131275e-04
6.89965517241379e+00 2.40193825514000e-02 2.29399833075037e-04
6.97344827586207e+00 2.37351343170788e-02 2.27894135309214e-04
7.04724137931034e+00 2.34542499099615e-02 2.26385642526459e-04
7.12103448275862e+00 2.31766895225154e-02 2.24874803925587e-04
7.19482758620690e+00 2.29024138178884e-02 2.23362053013235e-04
7.26862068965517e+00 2.26313839243776e-02 2.21847807673296e-04
7.34241379310345e+00 2.23635614310410e-02 2.20332470923920e-04
7.41620689655172e+00 2.20989083811159e-02 2.18816431642531e-04
7.49000000000000e+00 2.18373872666808e-02 2.17300064597356e-04
7.56379310344828e+00 2.15789610243868e-02 2.15783731202427e-04
7.63758620689655e+00 2.13235930288099e-02 2.14267779899299e-04
7.71137931034483e+00 2.10712470886306e-02 2.12752546502978e-04
7.78517241379310e+00 2.08218874404795e-02 2.11238354896406e-04
7.85896551724138e+00 2.05754787439040e-02 2.09725517010911e-04
7.93275862068965e+00 2.03319860773068e-02 2.08214333414817e-04
8.00655172413793e+00 2.00913749320364e-02 2.06705093878346e-04
8.08034482758621e+00 1.98536112075289e-02 2.05198077332576e-04
8.15413793103448e+00 1.96186612073636e-02 2.03693552407717e-04
8.22793103448276e+00 1.93864916335860e-02 2.02191777949799e-04
8.30172413793103e+00 1.91570695820206e-02 2.00693002962309e-04
8.37551724137931e+00 1.89303625384395e-02 1.99197467099759e-04
8.44931034482759e+00 1.87063383731098e-02 1.97705401141529e-04
8.52310344827586e+00 1.84849653362692e-02 1.96217026919588e-04
8.59689655172414e+00 1.82662120544079e-02 1.94732557772228e-04
8.67068965517241e+00 1.80500475250287e-02 1.93252198979625e-04
8.74448275862069e+00 1.78364411122805e-02 1.91776147680542e-04
8.81827586206897e+00 1.76253625433512e-02 1.90304593290272e-04
8.89206896551724e+00 1.74167819034317e-02 1.88837717902049e-04
8.96586206896552e+00 1.72106696315014e-02 1.87375696195064e-04
9.03965517241379e+00 1.70069965168296e-02 1.85918695820136e-04
9.11344827586207e+00 1.68057336941349e-02 1.84466877770499e-04
9.18724137931035e+00 1.66068526395174e-02 1.83020396283110e-04
9.26103448275862e+00 1.64103251670665e-02 1.81579399195185e-04
9.33482758620690e+00 1.62161234242068e-02 1.80144028287353e-04
9.40862068965517e+00 1.60242198877726e-02 1.78714419179869e-04
9.48241379310345e+00 1.58345873607191e-02 1.77290701662830e-04
9.55620689655172e+00 1.56471989676475e-02 1.75873000014332e-04
9.63000000000000e+00 1.54620281510159e-02 1.74461432892917e-04
9.70379310344827e+00 1.52790486679527e-02 1.73056113687018e-04
9.77758620689655e+00 1.50982345857686e-02 1.71657150637559e-04
9.85137931034483e+00 1.49195602790372e-02 1.70264646943694e-04
9.92517241379310e+00 1.47430004253982e-02 1.68878701091716e-04
9.99896551724138e+00 1.45685300019858e-02 1.67499406864316e-04
1.00727586206897e+01 1.43961242818957e-02 1.66126853243042e-04
1.01465517241379e+01 1.42257588317035e-02 1.64761124879700e-04
1.02203448275862e+01 1.40574095066096e-02 1.63402302354460e-04
1.02941379310345e+01 1.38910524475472e-02 1.62050461967180e-04
1.03679310344828e+01 1.37266640778004e-02 1.60705675992005e-04
1.04417241379310e+01 1.35642210996631e-02 1.59368012799618e-04
1.05155172413793e+01 1.34037004911372e-02 1.58037536975859e-04
1.05893103448276e+01 1.32450795026695e-02 1.56714309436809e-04
1.06631034482759e+01 1.30883356539281e-02 1.55398387540449e-04
1.07368965517241e+01 1.29334467306159e-02 1.54089825195163e-04
1.08106896551724e+01 1.27803907813219e-02 1.52788672964659e-04
1.08844827586207e+01 1.26291461144116e-02 1.51494978170080e-04
1.09582758620690e+01 1.24796912949516e-02 1.50208784989388e-04
1.10320689655172e+01 1.23320051416724e-02 1.48930134553444e-04
1.11058620689655e+01 1.21860667239660e-02 1.47659065039456e-04
1.11796551724138e+01 1.20418553589200e-02 1.46395611761722e-04
1.12534482758621e+01 1.18993506083858e-02 1.45139807259730e-04
1.13272413793103e+01 1.17585322760825e-02 1.43891681383756e-04
1.14010344827586e+01 1.16193804047345e-02 1.42651261378001e-04
1.14748275862069e+01 1.14818752732429e-02 1.41418571961330e-04
1.15486206896552e+01 1.13459973938908e-02 1.40193635405737e-04
1.16224137931034e+01 1.12117275095811e-02 1.38976471612573e-04
1.16962068965517e+01 1.10790465911077e-02 1.37767098186596e-04
1.17700000000000e+01 1.09479358344585e-02 1.36565530788299e-04
1.18437931034483e+01 1.08183766570639e-02 1.35371782355166e-04
1.19175862068966e+01 1.06903506984552e-02 1.34185863738923e-04
1.19913793103448e+01 1.05638398143370e-02 1.33007784352730e-04
1.20651724137931e+01 1.04388260751359e-02 1.31837551358191e-04
1.21389655172414e+01 1.03152917634591e-02 1.30675170022866e-04
1.22127586206897e+01 1.01932193715836e-02 1.29520643780924e-04
1.22865517241379e+01 1.00725915989751e-02 1.28373974292131e-04
1.23603448275862e+01 9.95339134983576e-03 1.27235161499171e-04
1.24341379310345e+01 9.83560173068146e-03 1.26104203683392e-04
1.25079310344828e+01 9.71920604794771e-03 1.24981097519007e-04
1.25817241379310e+01 9.60418780562365e-03 1.23865838125774e-04
1.26555172413793e+01 9.49053070291422e-03 1.22758419120243e-04
1.27293103448276e+01 9.37821863192993e-03 1.21658832665573e-04
1.28031034482759e+01 9.26723567540402e-03 1.20567069519978e-04
1.28768965517241e+01 9.15756610443659e-03 1.19483119083912e-04
1.29506896551724e+01 9.04919437626520e-03 1.18406969445738e-04
1.30244827586207e+01 8.94210513206260e-03 1.17338607426293e-04
1.30982758620690e+01 8.83628319475976e-03 1.16278018622361e-04
1.31720689655172e+01 8.73171356689491e-03 1.15225187448736e-04
1.32458620689655e+01 8.62838142848808e-03 1.14180097179216e-04
1.33196551724138e+01 8.52627213494070e-03 1.13142729986458e-04
1.33934482758621e+01 8.42537121496018e-03 1.12113066980758e-04
1.34672413793103e+01 8.32566436850895e-03 1.11091088247756e-04
1.35410344827586e+01 8.22713746477779e-03 1.10076772885109e-04
1.36148275862069e+01 8.12977654018323e-03 1.09070099038176e-04
1.36886206896552e+01 8.03356779638848e-03 1.08071043934710e-04
1.37624137931034e+01 7.93849759834796e-03 1.07079583918602e-04
1.38362068965517e+01 7.84455247237486e-03 1.06095694482715e-04
1.39100000000000e+01 7.75171910423161e-03 1.05119350483445e-04
1.39837931034483e+01 7.65998433659189e-03 1.04150525618994e-04
1.40575862068966e+01 7.56933516914811e-03 1.03189192830249e-04
1.41313793103448e+01 7.47975875477737e-03 1.02235324708752e-04
1.42051724137931e+01 7.39124239839119e-03 1.01288892954009e-04
1.42789655172414e+01 7.30377355513627e-03 1.00349868593429e-04
1.43527586206897e+01 7.21733982861666e-03 9.94182220093565e-05
1.44265517241379e+01 7.13192896913683e-03 9.84939229653563e-05
1.45003448275862e+01 7.04752887196563e-03 9.75769406317845e-05
1.45741379310345e+01 6.96412757562076e-03 9.66672436106528e-05
1.46479310344828e+01 6.88171326017356e-03 9.57647999598122e-05
1.47217241379310e+01 6.80027424557382e-03 9.48695772164730e-05
1.47955172413793e+01 6.71979898999446e-03 9.39815424200679e-05
1.48693103448276e+01 6.64027608819577e-03 9.31006621344969e-05
1.49431034482759e+01 6.56169426990903e-03 9.22269024697528e-05
1.50168965517241e+01 6.48404239823923e-03 9.13602291029837e-05
1.50906896551724e+01 6.40730946808659e-03 9.05006072988595e-05
1.51644827586207e+01 6.33148460458717e-03 8.96480019294583e-05
1.52382758620690e+01 6.25655706157144e-03 8.88023774936695e-05
1.53120689655172e+01 6.18251622004135e-03 8.79636981359368e-05
1.53858620689655e+01 6.10935158666537e-03 8.71319276645294e-05
1.54596551724138e+01 6.03705279229130e-03 8.63070295692945e-05
1.55334482758621e+01 5.96560959047674e-03 8.54889670389191e-05
1.56072413793103e+01 5.89501185603693e-03 8.46777029777036e-05
1.56810344827586e+01 5.82524958360977e-03 8.38732000218679e-05
1.57548275862069e+01 5.75631288623780e-03 8.30754205553935e-05
1.58286206896552e+01 5.68819199396702e-03 8.22843267254144e-05
1.59024137931034e+01 5.62087725246225e-03 8.14998804571892e-05
1.59762068965517e+01 5.55435912163885e-03 8.07220434686357e-05
1.60500000000000e+01 5.48862817431071e-03 7.99507774048595e-05
1.61237931034483e+01 5.42367509445451e-03 7.91860434874821e-05
1.61975862068966e+01 5.35949067709981e-03 7.84278027722469e-05
1.62713793103448e+01 5.29606582580250e-03 7.76760164115764e-05
1.63451724137931e+01 5.23339155176689e-03 7.69306452906053e-05
1.64189655172414e+01 5.17145897257177e-03 7.61916501660194e-05
1.64927586206897e+01 5.11025931091157e-03 7.54589916779120e-05
1.65665517241379e+01 5.04978389335244e-03 7.47326303612916e-05
1.66403448275862e+01 4.99002414910296e-03 7.40125266572568e-05
1.67141379310345e+01 4.93097160879950e-03 7.32986409238393e-05
1.67879310344828e+01 4.87261790330589e-03 7.25909334465332e-05
1.68617241379310e+01 4.81495476252734e-03 7.18893644485052e-05
1.69355172413793e+01 4.75797401423835e-03 7.11938941005077e-05
1.70093103448276e+01 4.70166758292452e-03 7.05044825304947e-05
1.70831034482759e+01 4.64602748863805e-03 6.98210898329526e-05
1.71568965517241e+01 4.59104584586683e-03 6.91436760779656e-05
1.72306896551724e+01 4.53671486241676e-03 6.84722013199442e-05
1.73044827586207e+01 4.48302683830756e-03 6.78066256061311e-05
1.73782758620690e+01 4.42997416468147e-03 6.71469089848956e-05
1.74520689655172e+01 4.37754932272487e-03 6.64930115137046e-05
1.75258620689655e+01 4.32574488260265e-03 6.58448932668634e-05
1.75996551724138e+01 4.27455350240530e-03 6.52025143430251e-05
1.76734482758621e+01 4.22396792710833e-03 6.45658348724582e-05
1.77472413793103e+01 4.17398098754408e-03 6.39348150240899e-05
1.78210344827586e+01 4.12458559938569e-03 6.33094150123268e-05
1.78948275862069e+01 4.07577476214307e-03 6.26895951036550e-05
1.79686206896552e+01 4.02754155817079e-03 6.20753156230291e-05
1.80424137931034e+01 3.97987915168764e-03 6.14665369600561e-05
1.81162068965517e+01 3.93278078780787e-03 6.08632195749782e-05
1.81900000000000e+01 3.88623979158387e-03 6.02653240845571e-05
1.82637931034483e+01 3.84024956681041e-03 5.96728110252995e-05
1.83375862068965e+01 3.79480359584605e-03 5.90856410213091e-05
1.84113793103448e+01 3.74989543792608e-03 5.85037749555497e-05
1.84851724137931e+01 3.70551872850656e-03 5.79271737244862e-05
1.85589655172414e+01 3.66166717836234e-03 5.73557983271639e-05
1.86327586206897e+01 3.61833457269572e-03 5.67896098699182e-05
1.87065517241379e+01 3.57551477025565e-03 5.62285695709235e-05
1.87803448275862e+01 3.53320170246741e-03 5.56726387645817e-05
1.88541379310345e+01 3.49138937257249e-03 5.51217789057529e-05
1.89279310344828e+01 3.45007185477876e-03 5.45759515738323e-05
1.90017241379310e+01 3.40924329342061e-03 5.40351184766864e-05
1.90755172413793e+01 3.36889790212912e-03 5.34992414544368e-05
1.91493103448276e+01 3.32902996301190e-03 5.29682824831133e-05
1.92231034482759e+01 3.28963382584282e-03 5.24422036781644e-05
1.92968965517241e+01 3.25070390726121e-03 5.19209672978462e-05
1.93706896551724e+01 3.21223468998050e-03 5.14045357464449e-05
1.94444827586207e+01 3.17422072200639e-03 5.08928715774036e-05
1.95182758620690e+01 3.13665661586417e-03 5.03859374963457e-05
1.95920689655172e+01 3.09953704783511e-03 4.98836963639394e-05
1.96658620689655e+01 3.06285675720204e-03 4.93861111986647e-05
1.97396551724138e+01 3.02661054550373e-03 4.88931451794603e-05
1.98134482758621e+01 2.99079327579817e-03 4.84047616482619e-05
1.98872413793103e+01 2.95539987193453e-03 4.79209241124304e-05
1.99610344827586e+01 2.92042531783377e-03 4.74415962470781e-05
2.00348275862069e+01 2.88586465677774e-03 4.69667418972954e-05
2.01086206896552e+01 2.85171299070665e-03 4.64963250802721e-05
2.01824137931034e+01 2.81796547952498e-03 4.60303099873196e-05
2.02562068965517e+01 2.78461734041545e-03 4.55686609858049e-05
2.03300000000000e+01 2.75166384716124e-03 4.51113426746443e-05
2.04037931034483e+01 2.71910032931786e-03 4.46583197237167e-05
2.04775862068966e+01 2.68692217203043e-03 4.42095569843104e-05
2.05513793103448e+01 2.65512481489603e-03 4.37650196019183e-05
2.06251724137931e+01 2.62370375148011e-03 4.33246728500233e-05
2.06989655172414e+01 2.59265452867780e-03 4.28884821879032e-05
2.07727586206897e+01 2.56197274608281e-03 4.24564132619675e-05
2.08465517241379e+01 2.53165405536378e-03 4.20284319070181e-05
2.09203448275862e+01 2.50169415964805e-03 4.16045041474359e-05
2.09941379310345e+01 2.47208881291263e-03 4.11845961982930e-05
2.10679310344828e+01 2.44283381938250e-03 4.07686744663948e-05
2.11417241379310e+01 2.41392503293594e-03 4.03567055512584e-05
2.12155172413793e+01 2.38535835651693e-03 3.99486562460214e-05
2.12893103448276e+01 2.35712974155450e-03 3.95444935382848e-05
2.13631034482759e+01 2.32923518738897e-03 3.91441846108943e-05
2.14368965517241e+01 2.30167074070492e-03 3.87476968426701e-05
2.15106896551724e+01 2.27443249497094e-03 3.83549978090497e-05
2.15844827586207e+01 2.24751658988599e-03 3.79660552826908e-05
2.16582758620690e+01 2.22091921083231e-03 3.75808372340372e-05
2.17320689655172e+01 2.19463658833477e-03 3.71993118318023e-05
2.18058620689655e+01 2.16866499752667e-03 3.68214474434061e-05
2.18796551724138e+01 2.14300075762181e-03 3.64472126353648e-05
2.19534482758621e+01 2.11764023139290e-03 3.60765761736285e-05
2.20272413793103e+01 2.09257982465598e-03 3.57095070238692e-05
2.21010344827586e+01 2.06781598576112e-03 3.53459743517229e-05
2.21748275862069e+01 2.04334520508905e-03 3.49859475229856e-05
2.22486206896552e+01 2.01916401455374e-03 3.46293961037643e-05
2.23224137931034e+01 1.99526898711091e-03 3.42762898605840e-05
2.23962068965517e+01 1.97165673627234e-03 3.39265987604562e-05
2.24700000000000e+01 1.94832391562590e-03 3.35802930070395e-05
2.25437931034483e+01 1.92526721825991e-03 3.32373429312894e-05
2.26175862068966e+01 1.90248337660144e-03 3.28977190646654e-05
2.26913793103448e+01 1.87996916164341e-03 3.25613922139540e-05
2.27651724137931e+01 1.85772138259123e-03 3.22283333481886e-05
2.28389655172414e+01 1.83573688641054e-03 3.18985136364672e-05
2.29127586206897e+01 1.81401255738036e-03 3.15719044477584e-05
2.29865517241379e+01 1.79254531665153e-03 3.12484773506693e-05
2.30603448275862e+01 1.77133212181036e-03 3.09282041131892e-05
2.31341379310345e+01 1.75036996644747e-03 3.06110567023951e-05
2.32079310344828e+01 1.72965587973165e-03 3.02970072841308e-05
2.32817241379310e+01 1.70918692598889e-03 2.99860282226584e-05
