Energy (eV)          EEDF (eV^-(3/2))     First Anisotropy
1.55434782608696e-02 1.33737664957910e-01 7.38783767102796e-05
4.66304347826087e-02 1.32735742635204e-01 1.21947189076527e-04
7.77173913043478e-02 1.31741326412979e-01 1.60859621543494e-04
1.08804347826087e-01 1.30754360056713e-01 1.90346042921017e-04
1.39891304347826e-01 1.29774787756316e-01 2.14875550531738e-04
1.70978260869565e-01 1.28802554113252e-01 2.36139374317404e-04
2.02065217391304e-01 1.27837604155398e-01 2.55013475859211e-04
2.33152173913043e-01 1.26879883309827e-01 2.72027263335848e-04
2.64239130434783e-01 1.25929337422805e-01 2.87532138042894e-04
2.95326086956522e-01 1.24985912737687e-01 3.01776665703252e-04
3.26413043478261e-01 1.24049555907998e-01 3.14944996525576e-04
3.57500000000000e-01 1.23120213980422e-01 3.27178459756181e-04
3.88586956521739e-01 1.22197834404137e-01 3.38588587168143e-04
4.19673913043478e-01 1.21282365016830e-01 3.49265408428400e-04
4.50760869565217e-01 1.20373754051678e-01 3.59282970177000e-04
4.81847826086957e-01 1.19471950125385e-01 3.68703141944650e-04
5.12934782608696e-01 1.18576902243556e-01 3.77578319974371e-04
5.44021739130435e-01 1.17688559790178e-01 3.85953397673531e-04
5.75108695652174e-01 1.16806872531831e-01 3.93867233037673e-04
6.06195652173913e-01 1.15931790608266e-01 4.01353762618086e-04
6.37282608695652e-01 1.15063264535735e-01 4.08442861175314e-04
6.68369565217391e-01 1.14201245198425e-01 4.15161015136029e-04
6.99456521739130e-01 1.13345683851104e-01 4.21531856996000e-04
7.30543478260870e-01 1.12496532111252e-01 4.27576594736773e-04
7.61630434782609e-01 1.11653741960039e-01 4.33314359632794e-04
7.92717391304348e-01 1.10817265739507e-01 4.38762492709890e-04
8.23804347826087e-01 1.09987056146492e-01 4.43936780331000e-04
8.54891304347826e-01 1.09163066234345e-01 4.48851651172506e-04
8.85978260869565e-01 1.08345249406095e-01 4.53520341610372e-04
9.17065217391304e-01 1.07533559415800e-01 4.57955035508145e-04
9.48152173913044e-01 1.06727950362128e-01 4.62166983256458e-04
9.79239130434783e-01 1.05928376689396e-01 4.66166603616204e-04
1.01032608695652e+00 1.05134793181517e-01 4.69963572025318e-04
1.04141304347826e+00 1.04347154958892e-01 4.73566893935223e-04
1.07250000000000e+00 1.03565417489672e-01 4.76984974771096e-04
1.10358695652174e+00 1.02789536559722e-01 4.80225675072233e-04
1.13467391304348e+00 1.02019468300562e-01 4.83296361175230e-04
1.16576086956522e+00 1.01255169158613e-01 4.86203951163988e-04
1.19684782608696e+00 1.00496595913487e-01 4.88954949900534e-04
1.22793478260870e+00 9.97437056747727e-02 4.91555490111530e-04
1.25902173913043e+00 9.89964558609483e-02 4.94011360383053e-04
1.29010869565217e+00 9.82548042157252e-02 4.96328029903467e-04
1.32119565217391e+00 9.75187088050252e-02 4.98510679134713e-04
1.35228260869565e+00 9.67881279976205e-02 5.00564219231146e-04
1.38336956521739e+00 9.60630204798219e-02 5.02493309297966e-04
1.41445652173913e+00 9.53433452526152e-02 5.04302380046320e-04
1.44554347826087e+00 9.46290616138046e-02 5.05995647486368e-04
1.47663043478261e+00 9.39201291712775e-02 5.07577125140513e-04
1.50771739130435e+00 9.32165078402776e-02 5.09050642818265e-04
1.53880434782609e+00 9.25181578268596e-02 5.10419856379384e-04
1.56989130434783e+00 9.18250396399453e-02 5.11688256465461e-04
1.60097826086957e+00 9.11371140886772e-02 5.12859183780934e-04
1.63206521739130e+00 9.04543422670608e-02 5.13935836094638e-04
1.66315217391304e+00 8.97766855649514e-02 5.14921274517757e-04
1.69423913043478e+00 8.91041056654870e-02 5.15818436217334e-04
1.72532608695652e+00 8.84365645307826e-02 5.16630139443098e-04
1.75641304347826e+00 8.77740244119758e-02 5.17359088041390e-04
1.78750000000000e+00 8.71164478467336e-02 5.18007882238398e-04
1.81858695652174e+00 8.64637976458878e-02 5.18579021540266e-04
1.84967391304348e+00 8.58160369061441e-02 5.19074910728155e-04
1.88076086956522e+00 8.51731289936378e-02 5.19497865698777e-04
1.91184782608696e+00 8.45350375524870e-02 5.19850115305986e-04
1.94293478260870e+00 8.39017265024418e-02 5.20133809805431e-04
1.97402173913043e+00 8.32731600269961e-02 5.20351022869545e-04
2.00510869565217e+00 8.26493025812573e-02 5.20503753376607e-04
2.03619565217391e+00 8.20301188896781e-02 5.20593932864901e-04
2.06728260869565e+00 8.14155739348602e-02 5.20623426896915e-04
2.09836956521739e+00 8.08056329648107e-02 5.20594036249692e-04
2.12945652173913e+00 8.02002614907494e-02 5.20507503571070e-04
2.16054347826087e+00 7.95994252765446e-02 5.20365514250639e-04
2.19163043478261e+00 7.90030903454167e-02 5.20169697154757e-04
2.22271739130435e+00 7.84112229778150e-02 5.19921630630355e-04
2.25380434782609e+00 7.78237897014317e-02 5.19622842997516e-04
2.28489130434783e+00 7.72407572974124e-02 5.19274812938363e-04
2.31597826086957e+00 7.66620927982865e-02 5.18878974959390e-04
2.34706521739130e+00 7.60877634785195e-02 5.18436719590845e-04
2.37815217391304e+00 7.55177368602754e-02 5.17949393511549e-04
2.40923913043478e+00 7.49519807113971e-02 5.17418304555391e-04
2.44032608695652e+00 7.43904630364553e-02 5.16844721684511e-04
2.47141304347826e+00 7.38331520821023e-02 5.16229874910563e-04
2.50250000000000e+00 7.32800163351008e-02 5.15574959913161e-04
2.53358695652174e+00 7.27310245138320e-02 5.14881137345376e-04
2.56467391304348e+00 7.21861455753919e-02 5.14149534573322e-04
2.59576086956522e+00 7.16453487051841e-02 5.13381247492049e-04
2.62684782608696e+00 7.11086033216023e-02 5.12577339692662e-04
2.65793478260870e+00 7.05758790741497e-02 5.11738846521060e-04
2.68902173913043e+00 7.00471458356870e-02 5.10866774686439e-04
2.72010869565217e+00 6.95223737067936e-02 5.09962101847485e-04
2.75119565217391e+00 6.90015330139401e-02 5.09025780406936e-04
2.78228260869565e+00 6.84845943021029e-02 5.08058737034487e-04
2.81336956521739e+00 6.79715283388297e-02 5.07061872171639e-04
2.84445652173913e+00 6.74623061124629e-02 5.06036063593035e-04
2.87554347826087e+00 6.69568988250962e-02 5.04982165864176e-04
2.90663043478261e+00 6.64552778963675e-02 5.03901009784166e-04
2.93771739130435e+00 6.59574149617317e-02 5.02793405739548e-04
2.96880434782609e+00 6.54632818657350e-02 5.01660143112004e-04
2.99989130434783e+00 6.49728506655620e-02 5.00501989675648e-04
3.03097826086957e+00 6.44860936293482e-02 4.99319694764862e-04
3.06206521739130e+00 6.40029832297565e-02 4.98113988643407e-04
3.09315217391304e+00 6.35234921472964e-02 4.96885581869422e-04
3.12423913043478e+00 6.30475932686745e-02 4.95635168295097e-04
3.15532608695652e+00 6.25752596806556e-02 4.94363424407702e-04
3.18641304347826e+00 6.21064646731691e-02 4.93071008671821e-04
3.21750000000000e+00 6.16411817376981e-02 4.91758564376168e-04
3.24858695652174e+00 6.11793845614067e-02 4.90426718588725e-04
3.27967391304348e+00 6.07210470314404e-02 4.89076082951870e-04
3.31076086956522e+00 6.02661432277797e-02 4.87707254555155e-04
3.34184782608696e+00 5.98146474259925e-02 4.86320814873851e-04
3.37293478260870e+00 5.93665340956910e-02 4.84917332373767e-04
3.40402173913043e+00 5.89217778950939e-02 4.83497361824810e-04
3.43510869565217e+00 5.84803536736066e-02 4.82061443619900e-04
3.46619565217391e+00 5.80422364703169e-02 4.80610106259552e-04
3.49728260869565e+00 5.76074015087807e-02 4.79143865662429e-04
3.52836956521739e+00 5.71758241994399e-02 4.77663224480478e-04
3.55945652173913e+00 5.67474801381573e-02 4.76168674472353e-04
3.59054347826087e+00 5.63223451012121e-02 4.74660695814549e-04
3.62163043478261e+00 5.59003950475682e-02 4.73139756416506e-04
3.65271739130435e+00 5.54816061174452e-02 4.71606314190959e-04
3.68380434782609e+00 5.50659546275134e-02 4.70060816367936e-04
3.71489130434783e+00 5.46534170730236e-02 4.68503698813502e-04
3.74597826086957e+00 5.42439701264109e-02 4.66935388204136e-04
3.77706521739130e+00 5.38375906326800e-02 4.65356301345173e-04
3.80815217391304e+00 5.34342556114054e-02 4.63766844496181e-04
3.83923913043478e+00 5.30339422553679e-02 4.62167415455535e-04
3.87032608695652e+00 5.26366279261185e-02 4.60558402885174e-04
3.90141304347826e+00 5.22422901558601e-02 4.58940185644444e-04
3.93250000000000e+00 5.18509066461125e-02 4.57313134790453e-04
3.96358695652174e+00 5.14624552634496e-02 4.55677612631761e-04
3.99467391304348e+00 5.10769140422260e-02 4.54033973190480e-04
4.02576086956522e+00 5.06942611794281e-02 4.52382562725922e-04
4.05684782608696e+00 5.03144750363519e-02 4.50723718794129e-04
4.08793478260870e+00 4.99375341373218e-02 4.49057772109038e-04
4.11902173913044e+00 4.95634171657083e-02 4.47385045898015e-04
4.15010869565217e+00 4.91921029655040e-02 4.45705855266637e-04
4.18119565217391e+00 4.88235705400749e-02 4.44020508988704e-04
4.21228260869565e+00 4.84577990483243e-02 4.42329308873605e-04
4.24336956521739e+00 4.80947678061741e-02 4.40632549141784e-04
4.27445652173913e+00 4.77344562853467e-02 4.38930518147490e-04
4.30554347826087e+00 4.73768441096692e-02 4.37223497758518e-04
4.33663043478261e+00 4.70219110564657e-02 4.35511762743068e-04
4.36771739130435e+00 4.66696370553686e-02 4.33795582428956e-04
4.39880434782609e+00 4.63200021847559e-02 4.32075220095663e-04
4.42989130434783e+00 4.59729866730620e-02 4.30350932373523e-04
4.46097826086956e+00 4.56285708976153e-02 4.28622970842658e-04
4.49206521739130e+00 4.52867353812043e-02 4.26891581437179e-04
4.52315217391304e+00 4.49474607933105e-02 4.25157003857501e-04
4.55423913043478e+00 4.46107279489726e-02 4.23419473111892e-04
4.58532608695652e+00 4.42765178054748e-02 4.21679218932982e-04
4.61641304347826e+00 4.39448114635075e-02 4.19936465203396e-04
4.64750000000000e+00 4.36155901660564e-02 4.18191431442674e-04
4.67858695652174e+00 4.32888352952082e-02 4.16444332020202e-04
4.70967391304348e+00 4.29645283739273e-02 4.14695376460375e-04
4.74076086956522e+00 4.26426510622276e-02 4.12944769795250e-04
4.77184782608696e+00 4.23231851582108e-02 4.11192711786924e-04
4.80293478260870e+00 4.20061125969983e-02 4.09439398322574e-04
4.83402173913043e+00 4.16914154477296e-02 4.07685020868881e-04
4.86510869565217e+00 4.13790759145382e-02 4.05929765935042e-04
4.89619565217391e+00 4.10690763355094e-02 4.04173816420075e-04
4.92728260869565e+00 4.07613991797810e-02 4.02417351080459e-04
4.95836956521739e+00 4.04560270484609e-02 4.00660544005488e-04
4.98945652173913e+00 4.01529426736099e-02 3.98903565918957e-04
5.02054347826087e+00 3.98521289154408e-02 3.97146583659885e-04
5.05163043478261e+00 3.95535687631805e-02 3.95389759670219e-04
5.08271739130435e+00 3.92572453340777e-02 3.93633253252897e-04
5.11380434782609e+00 3.89631418706950e-02 3.91877220065235e-04
5.14489130434783e+00 3.86712417417214e-02 3.90121811619189e-04
5.17597826086956e+00 3.83815284410012e-02 3.88367176497739e-04
5.20706521739130e+00 3.80939855849175e-02 3.86613459860473e-04
5.23815217391304e+00 3.78085969131561e-02 3.84860802956436e-04
5.26923913043478e+00 3.75253462877571e-02 3.83109344300520e-04
5.30032608695652e+00 3.72442176905843e-02 3.81359219191072e-04
5.33141304347826e+00 3.69651952240450e-02 3.79610559235263e-04
5.36250000000000e+00 3.66882631101617e-02 3.77863493487073e-04
5.39358695652174e+00 3.64134056881259e-02 3.76118147807312e-04
5.42467391304348e+00 3.61406074154744e-02 3.74374645080055e-04
5.45576086956522e+00 3.58698528651798e-02 3.72633105465724e-04
5.48684782608696e+00 3.56011267262932e-02 3.70893645770095e-04
5.51793478260870e+00 3.53344138030511e-02 3.69156380517160e-04
5.54902173913043e+00 3.50696990125672e-02 3.67421421500781e-04
5.58010869565217e+00 3.48069673854358e-02 3.65688877343678e-04
5.61119565217391e+00 3.45462040648598e-02 3.63958854536016e-04
5.64228260869565e+00 3.42873943044168e-02 3.62231456998813e-04
5.67336956521739e+00 3.40305234686253e-02 3.60506785653952e-04
5.70445652173913e+00 3.37755770320937e-02 3.58784939429866e-04
5.73554347826087e+00 3.35225405773575e-02 3.57066014836473e-04
5.76663043478261e+00 3.32713997954106e-02 3.55350105545951e-04
5.79771739130435e+00 3.30221404848746e-02 3.53637303366879e-04
5.82880434782609e+00 3.27747485499041e-02 3.51927697830150e-04
5.85989130434783e+00 3.25292100006862e-02 3.50221375780702e-04
5.89097826086957e+00 3.22855109526279e-02 3.48518422321199e-04
5.92206521739130e+00 3.20436376243282e-02 3.46818920408445e-04
5.95315217391304e+00 3.18035763380470e-02 3.45122950455962e-04
5.98423913043478e+00 3.15653135189107e-02 3.43430591248417e-04
6.01532608695652e+00 3.13288356929479e-02 3.41741919548303e-04
6.04641304347826e+00 3.10941294875299e-02 3.40057009709081e-04
6.07750000000000e+00 3.08611816305938e-02 3.38375934561371e-04
6.10858695652174e+00 3.06299789487396e-02 3.36698764895828e-04
6.13967391304348e+00 3.04005083680149e-02 3.35025569623198e-04
6.17076086956522e+00 3.01727569116681e-02 3.33356415962804e-04
6.20184782608696e+00 2.99467117005394e-02 3.31691368933118e-04
6.23293478260870e+00 2.97223599523136e-02 3.30030492189850e-04
6.26402173913043e+00 2.94996889797185e-02 3.28373847661059e-04
6.29510869565217e+00 2.92786861908916e-02 3.26721495188320e-04
6.32619565217391e+00 2.90593390886494e-02 3.25073493339357e-04
6.35728260869565e+00 2.88416352687418e-02 3.23429899052919e-04
6.38836956521739e+00 2.86255624201942e-02 3.21790767289135e-04
6.41945652173913e+00 2.84111083245951e-02 3.20156151817613e-04
6.45054347826087e+00 2.81982608544023e-02 3.18526104871823e-04
6.48163043478261e+00 2.79870079732640e-02 3.16900676808494e-04
6.51271739130435e+00 2.77773377353217e-02 3.15279916871973e-04
6.54380434782609e+00 2.75692382835686e-02 3.13663872857808e-04
6.57489130434783e+00 2.73626978501495e-02 3.12052590781134e-04
6.60597826086957e+00 2.71577047556796e-02 3.10446115618126e-04
6.63706521739130e+00 2.69542474076521e-02 3.08844490978285e-04
6.66815217391304e+00 2.67523143007191e-02 3.07247758781764e-04
6.69923913043478e+00 2.65518940160253e-02 3.05655959978720e-04
6.73032608695652e+00 2.63529752196636e-02 3.04069134230095e-04
6.76141304347826e+00 2.61555466629377e-02 3.02487319593562e-04
6.79250000000000e+00 2.59595971817100e-02 3.00910553221558e-04
6.82358695652174e+00 2.57651156949047e-02 2.99338870943800e-04
6.85467391304348e+00 2.55720912050310e-02 2.97772307388736e-04
6.88576086956522e+00 2.53805127964267e-02 2.96210896127330e-04
6.91684782608696e+00 2.51903696354881e-02 2.94654669261756e-04
6.94793478260870e+00 2.50016509700436e-02 2.93103658087105e-04
6.97902173913043e+00 2.48143461279318e-02 2.91557892795289e-04
7.01010869565217e+00 2.46284445172155e-02 2.90017402183696e-04
7.04119565217391e+00 2.44439356255700e-02 2.88482214297495e-04
7.07228260869565e+00 2.42608090189027e-02 2.86952356141487e-04
7.10336956521739e+00 2.40790543415522e-02 2.85427853396325e-04
7.13445652173913e+00 2.38986613156903e-02 2.83908731042053e-04
7.16554347826087e+00 2.37196197399826e-02 2.82395013077670e-04
7.19663043478261e+00 2.35419194897728e-02 2.80886722244763e-04
7.22771739130435e+00 2.33655505164985e-02 2.79383880632893e-04
7.25880434782609e+00 2.31905028463909e-02 2.77886509406576e-04
7.28989130434783e+00 2.30167665806459e-02 2.76394628536220e-04
7.32097826086957e+00 2.28443318948530e-02 2.74908257386015e-04
7.35206521739130e+00 2.26731890377323e-02 2.73427414447969e-04
7.38315217391304e+00 2.25033283312939e-02 2.71952117080069e-04
7.41423913043478e+00 2.23347401702788e-02 2.70482382077194e-04
7.44532608695652e+00 2.21674150209332e-02 2.69018225412060e-04
7.47641304347826e+00 2.20013434211555e-02 2.67559661980424e-04
7.50750000000000e+00 2.18365159799498e-02 2.66106706155482e-04
7.53858695652174e+00 2.16729233762357e-02 2.64659371450303e-04
7.56967391304348e+00 2.15105563591969e-02 2.63217670611680e-04
7.60076086956522e+00 2.13494057468938e-02 2.61781615731482e-04
7.63184782608696e+00 2.11894624263898e-02 2.60351217914147e-04
7.66293478260870e+00 2.10307173532254e-02 2.58926487803192e-04
7.69402173913043e+00 2.08731615502862e-02 2.57507435340745e-04
7.72510869565217e+00 2.07167861079192e-02 2.56094069531102e-04
7.75619565217391e+00 2.05615821834183e-02 2.54686398952205e-04
7.78728260869565e+00 2.04075409999256e-02 2.53284431521642e-04
7.81836956521739e+00 2.02546538465367e-02 2.51888174266318e-04
7.84945652173913e+00 2.01029120777988e-02 2.50497633819344e-04
7.88054347826087e+00 1.99523071126429e-02 2.49112816192330e-04
7.91163043478261e+00 1.98028304344798e-02 2.47733726551040e-04
7.94271739130435e+00 1.96544735907100e-02 2.46360369698178e-04
7.97380434782609e+00 1.95072281916856e-02 2.44992749851678e-04
8.00489130434783e+00 1.93610859107983e-02 2.43630870426254e-04
8.03597826086956e+00 1.92160384839999e-02 2.42274734502568e-04
8.06706521739130e+00 1.90720777087934e-02 2.40924344611289e-04
8.09815217391304e+00 1.89291954443134e-02 2.39579702520445e-04
8.12923913043478e+00 1.87873836108569e-02 2.38240809691351e-04
8.16032608695652e+00 1.86466341889033e-02 2.36907667068275e-04
8.19141304347826e+00 1.85069392191866e-02 2.35580274871457e-04
8.22250000000000e+00 1.83682908022369e-02 2.34258633040209e-04
8.25358695652174e+00 1.82306810974280e-02 2.32942740959412e-04
8.28467391304348e+00 1.80941023232059e-02 2.31632597532903e-04
8.31576086956522e+00 1.79585467559853e-02 2.30328201270780e-04
8.34684782608696e+00 1.78240067302085e-02 2.29029550019904e-04
8.37793478260870e+00 1.76904746379038e-02 2.27736641385286e-04
8.40902173913043e+00 1.75579429277789e-02 2.26449472534729e-04
8.44010869565217e+00 1.74264041052726e-02 2.25168040006578e-04
8.47119565217391e+00 1.72958507321239e-02 2.23892340119326e-04
8.50228260869565e+00 1.71662754254897e-02 2.22622368781433e-04
8.53336956521739e+00 1.70376708579909e-02 2.21358121304056e-04
8.56445652173913e+00 1.69100297572914e-02 2.20099592799264e-04
8.59554347826087e+00 1.67833449052398e-02 2.18846777994846e-04
8.62663043478261e+00 1.66576091379099e-02 2.17599671051933e-04
8.65771739130435e+00 1.65328153451890e-02 2.16358265952108e-04
8.68880434782609e+00 1.64089564699434e-02 2.15122556317108e-04
8.71989130434783e+00 1.62860255080539e-02 2.13892535231206e-04
8.75097826086957e+00 1.61640155080124e-02 2.12668195617578e-04
8.78206521739130e+00 1.60429195701113e-02 2.11449530062674e-04
8.81315217391304e+00 1.59227308464731e-02 2.10236530643300e-04
8.84423913043478e+00 1.58034425406567e-02 2.09029189292600e-04
8.87532608695652e+00 1.56850479068685e-02 2.07827497628902e-04
8.90641304347826e+00 1.55675402499876e-02 2.06631446787394e-04
8.93750000000000e+00 1.54509129251807e-02 2.05441027776000e-04
8.96858695652174e+00 1.53351593371349e-02 2.04256231253306e-04
8.99967391304348e+00 1.52202729402051e-02 2.03077047586451e-04
9.03076086956522e+00 1.51062472375295e-02 2.01903466920097e-04
9.06184782608696e+00 1.49930757810468e-02 2.00735478957597e-04
9.09293478260870e+00 1.48807521711251e-02 1.99573073299807e-04
9.12402173913043e+00 1.47692700558304e-02 1.98416239286031e-04
9.15510869565217e+00 1.46586231309392e-02 1.97264965837550e-04
9.18619565217391e+00 1.45488051395758e-02 1.96119241787130e-04
9.21728260869565e+00 1.44398098715009e-02 1.94979055724126e-04
9.24836956521739e+00 1.43316311631202e-02 1.93844395842033e-04
9.27945652173913e+00 1.42242628971298e-02 1.92715250258966e-04
9.31054347826087e+00 1.41176990018245e-02 1.91591606866876e-04
9.34163043478261e+00 1.40119334511017e-02 1.90473453183005e-04
9.37271739130435e+00 1.39069602641163e-02 1.89360776661593e-04
9.40380434782609e+00 1.38027735046064e-02 1.88253564547017e-04
9.43489130434783e+00 1.36993672808947e-02 1.87151803729114e-04
9.46597826086957e+00 1.35967357455504e-02 1.86055481046406e-04
9.49706521739130e+00 1.34948730947336e-02 1.84964583143000e-04
9.52815217391304e+00 1.33937735681937e-02 1.83879096327704e-04
9.55923913043478e+00 1.32934314489383e-02 1.82799006869001e-04
9.59032608695652e+00 1.31938410625956e-02 1.81724300855610e-04
9.62141304347826e+00 1.30949967774096e-02 1.80654964059304e-04
9.65250000000000e+00 1.29968930039167e-02 1.79590982221840e-04
9.68358695652174e+00 1.28995241943251e-02 1.78532340874323e-04
9.71467391304348e+00 1.28028848426058e-02 1.77479025383151e-04
9.74576086956522e+00 1.27069694837812e-02 1.76431021004826e-04
9.77684782608696e+00 1.26117726939151e-02 1.75388312707913e-04
9.80793478260870e+00 1.25172890898015e-02 1.74350885446487e-04
