Energy (eV)          EEDF (eV^-(3/2))     First Anisotropy
2.70000000000000e-01 1.05060525513406e-01 2.15801476306020e-04
8.10000000000000e-01 9.36020550189829e-02 3.38053335467874e-04
1.35000000000000e+00 8.33933074383761e-02 4.00287603653500e-04
1.89000000000000e+00 7.42979812152751e-02 4.25187627104690e-04
2.43000000000000e+00 6.61946405800555e-02 4.30859263381220e-04
2.97000000000000e+00 5.89750942064881e-02 4.25038732276763e-04
3.51000000000000e+00 5.25429507009378e-02 4.12035748546702e-04
4.05000000000000e+00 4.68123316377416e-02 3.94544384225873e-04
4.59000000000000e+00 4.17067249579266e-02 3.74353152418799e-04
5.13000000000000e+00 3.71579634224785e-02 3.52689413494151e-04
5.67000000000000e+00 3.31053144810365e-02 3.30409973745949e-04
6.21000000000000e+00 2.94946694044412e-02 3.08116393614460e-04
6.75000000000000e+00 2.62778208548842e-02 2.86229297569673e-04
7.29000000000000e+00 2.34118192481727e-02 2.65038528412783e-04
7.83000000000000e+00 2.08583993146156e-02 2.44738185705006e-04
8.37000000000000e+00 1.85834692022883e-02 2.25451749347764e-04
8.91000000000000e+00 1.65566553014647e-02 2.07250452701283e-04
9.45000000000000e+00 1.47508967129649e-02 1.90166920513612e-04
9.99000000000000e+00 1.31420839459833e-02 1.74205404562997e-04
1.05300000000000e+01 1.17087370214903e-02 1.59349526848120e-04
1.10700000000000e+01 1.04317186834223e-02 1.45568168026230e-04
1.16100000000000e+01 9.29397888861380e-03 1.32819958124867e-04
1.21500000000000e+01 8.28032716404323e-03 1.21056703274700e-04
1.26900000000000e+01 7.37722979203135e-03 1.10225996076145e-04
1.32300000000000e+01 6.57262911552160e-03 1.00273195775519e-04
1.37700000000000e+01 5.85578255090616e-03 9.11429198121817e-05
1.43100000000000e+01 5.21711915898601e-03 8.27801553898587e-05
1.48500000000000e+01 4.64811185907971e-03 7.51310751194702e-05
1.53900000000000e+01 4.14116358015416e-03 6.81436221643115e-05
1.59300000000000e+01 3.68950582893044e-03 6.17679160884168e-05
1.64700000000000e+01 3.28710832070172e-03 5.59565196353168e-05
1.70100000000000e+01 2.92859846630430e-03 5.06645981373061e-05
1.75500000000000e+01 2.60918964027599e-03 4.58499965861217e-05
1.80900000000000e+01 2.32461727247799e-03 4.14732541509632e-05
1.86300000000000e+01 2.07108190991109e-03 3.74975717858801e-05
1.91700000000000e+01 1.84519848851875e-03 3.38887452821305e-05
1.97100000000000e+01 1.64395113768245e-03 3.06150735068800e-05
2.02500000000000e+01 1.46465291398376e-03 2.76472494852869e-05
2.07900000000000e+01 1.30490992662064e-03 2.49582403185146e-05
2.13300000000000e+01 1.16258937550030e-03 2.25231605997328e-05
2.18700000000000e+01 1.03579107527100e-03 2.03191429264055e-05
2.24100000000000e+01 9.22822085097203e-04 1.83252082570133e-05
2.29500000000000e+01 8.22174105449156e-04 1.65221381817212e-05
2.34900000000000e+01 7.32503340120991e-04 1.48923506358345e-05
2.40300000000000e+01 6.52612554606404e-04 1.34197801553597e-05
2.45700000000000e+01 5.81435091285111e-04 1.20897634340784e-05
2.51100000000000e+01 5.18020627999742e-04 1.08889306739197e-05
2.56500000000000e+01 4.61522489879548e-04 9.80510301109382e-06
2.61900000000000e+01 4.11186345005403e-04 8.82719613811704e-06
2.67300000000000e+01 3.66340132986865e-04 7.94513011735778e-06
2.72700000000000e+01 3.26385091983223e-04 7.14974528762481e-06
2.78100000000000e+01 2.90787764366282e-04 6.43272409557466e-06
2.83500000000000e+01 2.59072874288899e-04 5.78651863343009e-06
2.88900000000000e+01 2.30816982064512e-04 5.20428362969389e-06
2.94300000000000e+01 2.05642830634439e-04 4.67981461697719e-06
2.99700000000000e+01 1.83214308640102e-04 4.20749098811343e-06
3.05100000000000e+01 1.63231962849908e-04 3.78222364627041e-06
3.10500000000000e+01 1.45429000025175e-04 3.39940695507999e-06
3.15900000000000e+01 1.29567724844241e-04 3.05487469948787e-06
3.21300000000000e+01 1.15436366325883e-04 2.74485977596415e-06
3.26700000000000e+01 1.02846250380199e-04 2.46595734101062e-06
3.32100000000000e+01 9.16292807364196e-05 2.21509115883521e-06
3.37500000000000e+01 8.16356946143958e-05 1.98948290206846e-06
3.42900000000000e+01 7.27320631747142e-05 1.78662417302128e-06
3.48300000000000e+01 6.47995100505678e-05 1.60425102687661e-06
3.53700000000000e+01 5.77321241761974e-05 1.44032079209842e-06
3.59100000000000e+01 5.14355457208688e-05 1.29299099702285e-06
3.64500000000000e+01 4.58257062485561e-05 1.16060022491338e-06
3.69900000000000e+01 4.08277062826404e-05 1.04165073260241e-06
3.75300000000000e+01 3.63748152894877e-05 9.34792680126165e-07
3.80700000000000e+01 3.24075807292396e-05 8.38809830437294e-07
3.86100000000000e+01 2.88730342783542e-05 7.52606589317950e-07
3.91500000000000e+01 2.57239846258212e-05 6.75196266002706e-07
3.96900000000000e+01 2.29183874008548e-05 6.05690444753362e-07
4.02300000000000e+01 2.04187838196896e-05 5.43289366715846e-07
4.07700000000000e+01 1.81918005565989e-05 4.87273229849097e-07
4.13100000000000e+01 1.62077041616919e-05 4.36994322568822e-07
4.18500000000000e+01 1.44400040763220e-05 3.91869914020851e-07
4.23900000000000e+01 1.28650989457861e-05 3.51375830617806e-07
4.29300000000000e+01 1.14619615070791e-05 3.15040654668425e-07
4.34700000000000e+01 1.02118578444975e-05 2.82440486631897e-07
4.40100000000000e+01 9.09809726474989e-06 2.53194217770358e-07
4.45500000000000e+01 8.10580945204323e-06 2.26959264781712e-07
4.50900000000000e+01 7.22174592784370e-06 2.03427722401654e-07
4.56300000000000e+01 6.43410316451255e-06 1.82322893996821e-07
4.61700000000000e+01 5.73236499112771e-06 1.63396163857790e-07
4.67100000000000e+01 5.10716218738095e-06 1.46424178267343e-07
4.72500000000000e+01 4.55014739092574e-06 1.31206305490748e-07
4.77900000000000e+01 4.05388364800798e-06 1.17562347634163e-07
4.83300000000000e+01 3.61174511936918e-06 1.05330479866487e-07
4.88700000000000e+01 3.21782861570216e-06 9.43653948196717e-08
4.94100000000000e+01 2.86687478152947e-06 8.45366320916374e-08
4.99500000000000e+01 2.55419787519548e-06 7.57270746923962e-08
5.04900000000000e+01 2.27562320743308e-06 6.78315960141795e-08
5.10300000000000e+01 2.02743140321957e-06 6.07558424855469e-08
5.15700000000000e+01 1.80630874273668e-06 5.44151385016892e-08
5.21100000000000e+01 1.60930291841476e-06 4.87335015214111e-08
5.26500000000000e+01 1.43378361735350e-06 4.36427563974866e-08
5.31900000000000e+01 1.27740740283768e-06 3.90817390722007e-08
5.37300000000000e+01 1.13808642606507e-06 3.49955807339657e-08
5.42700000000000e+01 1.01396055034305e-06 3.13350644031300e-08
5.48100000000000e+01 9.03372515571316e-07 2.80560467039112e-08
5.53500000000000e+01 8.04845811420916e-07 2.51189382924742e-08
5.58900000000000e+01 7.17064963784205e-07 2.24882370555684e-08
5.64300000000000e+01 6.38857971291520e-07 2.01321087762498e-08
5.69700000000000e+01 5.69180657396535e-07 1.80220104888764e-08
5.75100000000000e+01 5.07102729108034e-07 1.61323522201030e-08
5.80500000000000e+01 4.51795356231973e-07 1.44401932408580e-08
5.85900000000000e+01 4.02520105288744e-07 1.29249693406477e-08
5.91300000000000e+01 3.58619080357417e-07 1.15682479840137e-08
5.96700000000000e+01 3.19506139212956e-07 1.03535085231886e-08
6.02100000000000e+01 2.84659067479140e-07 9.26594492424920e-09
6.07500000000000e+01 2.53612606310783e-07 8.29228871934367e-09
6.12900000000000e+01 2.25952240514739e-07 7.42065012757939e-09
6.18300000000000e+01 2.01308664172109e-07 6.64037549434938e-09
6.23700000000000e+01 1.79352849869684e-07 5.94191938547491e-09
6.29100000000000e+01 1.59791655707754e-07 5.31672984055727e-09
6.34500000000000e+01 1.42363911431448e-07 4.75714544118468e-09
6.39900000000000e+01 1.26836931429815e-07 4.25630298577444e-09
6.45300000000000e+01 1.13003408046135e-07 3.80805468533493e-09
6.50700000000000e+01 1.00678643720637e-07 3.40689390465050e-09
6.56100000000000e+01 8.96980850107527e-08 3.04788857253944e-09
6.61500000000000e+01 7.99151255644795e-08 2.72662147400751e-09
6.66900000000000e+01 7.11991487133861e-08 2.43913671730785e-09
6.72300000000000e+01 6.34337835510336e-08 2.18189174101513e-09
6.77700000000000e+01 5.65153512129403e-08 1.95171429103485e-09
6.83100000000000e+01 5.03514806136761e-08 1.74576385572396e-09
6.88500000000000e+01 4.48598751591744e-08 1.56149709965331e-09
6.93900000000000e+01 3.99672139680858e-08 1.39663688358608e-09
6.99300000000000e+01 3.56081729318872e-08 1.24914450051287e-09
7.04700000000000e+01 3.17245525434834e-08 1.11719479555314e-09
7.10100000000000e+01 2.82645008495498e-08 9.99153871637312e-10
7.15500000000000e+01 2.51818211519046e-08 8.93559113512756e-10
7.20900000000000e+01 2.24353552147238e-08 7.99101290121896e-10
7.26300000000000e+01 1.99884337425200e-08 7.14608520096807e-10
7.31700000000000e+01 1.78083867919731e-08 6.39031907286560e-10
7.37100000000000e+01 1.58661075809004e-08 5.71432673136948e-10
7.42500000000000e+01 1.41356638705854e-08 5.10970630607261e-10
7.47900000000000e+01 1.25939517328568e-08 4.56893860342559e-10
7.53300000000000e+01 1.12203870792069e-08 4.08529464208611e-10
7.58700000000000e+01 9.99663083341626e-09 3.65275284207894e-10
7.64100000000000e+01 8.90634407834283e-09 3.26592486379312e-10
7.69500000000000e+01 7.93496990772885e-09 2.91998919677080e-10
7.74900000000000e+01 7.06953907043279e-09 2.61063169147081e-10
7.80300000000000e+01 6.29849681215497e-09 2.33399231081510e-10
7.85700000000000e+01 5.61154860274330e-09 2.08661745332898e-10
7.91100000000000e+01 4.99952268931552e-09 1.86541726695073e-10
7.96500000000000e+01 4.45424764008306e-09 1.66762743290581e-10
8.01900000000000e+01 3.96844324390931e-09 1.49077495312793e-10
8.07300000000000e+01 3.53562330895365e-09 1.33264752320437e-10
8.12700000000000e+01 3.15000906262225e-09 1.19126611630045e-10
8.18100000000000e+01 2.80645199658977e-09 1.06486044249437e-10
8.23500000000000e+01 2.50036512676129e-09 9.51846982892473e-11
8.28900000000000e+01 2.22766175039546e-09 8.50809329211405e-11
8.34300000000000e+01 1.98470088270782e-09 7.60480587582688e-11
8.39700000000000e+01 1.76823864445396e-09 6.79727630490334e-11
8.45100000000000e+01 1.57538495144644e-09 6.07537003295587e-11
8.50500000000000e+01 1.40356492774781e-09 5.43002312003681e-11
8.55900000000000e+01 1.25048452734994e-09 4.85312937028283e-11
8.61300000000000e+01 1.11409990533945e-09 4.33743933927328e-11
8.66700000000000e+01 9.92590129609831e-10 3.87646996614051e-11
8.72100000000000e+01 8.84332868782246e-10 3.46442371564215e-11
8.77500000000000e+01 7.87882731733435e-10 3.09611623201560e-11
8.82900000000000e+01 7.01951969532179e-10 2.76691161089106e-11
8.88300000000000e+01 6.25393282127184e-10 2.47266448910241e-11
8.93700000000000e+01 5.57184500230799e-10 2.20966823603720e-11
8.99100000000000e+01 4.96414937879536e-10 1.97460860522080e-11
9.04500000000000e+01 4.42273233458338e-10 1.76452227204661e-11
9.09900000000000e+01 3.94036516848654e-10 1.57675974375852e-11
9.15300000000000e+01 3.51060758066079e-10 1.40895218169415e-11
9.20700000000000e+01 3.12772168527889e-10 1.25898172406386e-11
9.26100000000000e+01 2.78659540144971e-10 1.12495494075767e-11
9.31500000000000e+01 2.48267419953904e-10 1.00517909036666e-11
9.36900000000000e+01 2.21190029160681e-10 8.98140884248642e-12
9.42300000000000e+01 1.97065845406485e-10 8.02487493482841e-12
9.47700000000000e+01 1.75572775920932e-10 7.17009562323554e-12
9.53100000000000e+01 1.56423857117390e-10 6.40626016617542e-12
9.58500000000000e+01 1.39363423213750e-10 5.72370477898856e-12
9.63900000000000e+01 1.24163692724181e-10 5.11379113789553e-12
9.69300000000000e+01 1.10621727246606e-10 4.56879773160043e-12
9.74700000000000e+01 9.85567219413033e-11 4.08182270456877e-12
9.80100000000000e+01 8.78075915245970e-11 3.64669697884508e-12
9.85500000000000e+01 7.82308195471678e-11 3.25790656906509e-12
9.90900000000000e+01 6.96985422417280e-11 2.91052311967791e-12
9.96300000000000e+01 6.20968413566596e-11 2.60014179573389e-12
1.00170000000000e+02 5.53242231824697e-11 2.32282575017319e-12
1.00710000000000e+02 4.92902634638673e-11 2.07505647249682e-12
1.01250000000000e+02 4.39144001050751e-11 1.85368939702698e-12
1.01790000000000e+02 3.91248575492462e-11 1.65591421457117e-12
1.02330000000000e+02 3.48576884708918e-11 1.47921939000527e-12
1.02870000000000e+02 3.10559199865293e-11 1.32136044080943e-12
1.03410000000000e+02 2.76687929842249e-11 1.18033157857740e-12
1.03950000000000e+02 2.46510844159812e-11 1.05434035755511e-12
1.04490000000000e+02 2.19625035045906e-11 9.41785011869338e-13
1.05030000000000e+02 1.95671538034428e-11 8.41234196747474e-13
1.05570000000000e+02 1.74330539270059e-11 7.51408879121776e-13
1.06110000000000e+02 1.55317105530404e-11 6.71166149929661e-13
1.06650000000000e+02 1.38377379955055e-11 5.99484754499364e-13
1.07190000000000e+02 1.23285192689078e-11 5.35452158946813e-13
1.07730000000000e+02 1.09839041188088e-11 4.78252989772466e-13
1.08270000000000e+02 9.78593998676323e-12 4.27158701075597e-13
1.08810000000000e+02 8.71863231767875e-12 3.81518339212549e-13
1.09350000000000e+02 7.76773100935546e-12 3.40750288506478e-13
1.09890000000000e+02 6.92054015299578e-12 3.04334893940810e-13
1.10430000000000e+02 6.16574852444600e-12 2.71807867790595e-13
1.10970000000000e+02 5.49327856298202e-12 2.42754397002631e-13
1.11510000000000e+02 4.89415182128745e-12 2.16803876949481e-13
1.12050000000000e+02 4.36036909018656e-12 1.93625205064541e-13
1.12590000000000e+02 3.88480359762377e-12 1.72922574913344e-13
1.13130000000000e+02 3.46110585594140e-12 1.54431717558536e-13
1.13670000000000e+02 3.08361888702925e-12 1.37916542711132e-13
1.14210000000000e+02 2.74730269347893e-12 1.23166137199225e-13
1.14750000000000e+02 2.44766696732358e-12 1.09992082790406e-13
1.15290000000000e+02 2.18071113792724e-12 9.82260594319843e-14
1.15830000000000e+02 1.94287095857647e-12 8.77177035743954e-14
1.16370000000000e+02 1.73097091862783e-12 7.83326944627396e-14
1.16910000000000e+02 1.54218184584457e-12 6.99510441598786e-14
1.17450000000000e+02 1.37398313285234e-12 6.24655696378030e-14
1.17990000000000e+02 1.22412908338243e-12 5.57805275744936e-14
1.18530000000000e+02 1.09061892897614e-12 4.98103945500485e-14
1.19070000000000e+02 9.71670115829994e-13 4.44787771742809e-14
1.19610000000000e+02 8.65694505122354e-13 3.97174383214061e-14
1.20150000000000e+02 7.71277169061522e-13 3.54654271164848e-14
1.20690000000000e+02 6.87157499551736e-13 3.16683016314416e-14
1.21230000000000e+02 6.12212377250505e-13 2.82774344222556e-14
1.21770000000000e+02 5.45441176299781e-13 2.52493920880938e-14
1.22310000000000e+02 4.85952404522451e-13 2.25453809709331e-14
1.22850000000000e+02 4.32951800711432e-13 2.01307519524068e-14
1.23390000000000e+02 3.85731730092944e-13 1.79745580537748e-14
1.23930000000000e+02 3.43661736378054e-13 1.60491592144968e-14
1.24470000000000e+02 3.06180124258696e-13 1.43298692233254e-14
1.25010000000000e+02 2.72786459962311e-13 1.27946403106795e-14
1.25550000000000e+02 2.43034889736662e-13 1.14237813890606e-14
1.26090000000000e+02 2.16528187056909e-13 1.01997063554593e-14
1.26630000000000e+02 1.92912449076563e-13 9.10670925147428e-15
1.27170000000000e+02 1.71872371512242e-13 8.13076341803719e-15
1.27710000000000e+02 1.53127038875124e-13 7.25934208653253e-15
1.28250000000000e+02 1.36426173842569e-13 6.48125812056016e-15
1.28790000000000e+02 1.21546795693615e-13 5.78652086606575e-15
1.29330000000000e+02 1.08290243193609e-13 5.16620828513439e-15
1.29870000000000e+02 9.64795221791842e-14 4.61235274316088e-15
1.30410000000000e+02 8.59569424299999e-14 4.11783899283656e-15
1.30950000000000e+02 7.65820122760561e-14 3.67631305362584e-15
1.31490000000000e+02 6.82295628305542e-14 3.28210082411377e-15
1.32030000000000e+02 6.07880768040885e-14 2.93013538854419e-15
1.32570000000000e+02 5.41581995874228e-14 2.61589208960843e-15
1.33110000000000e+02 4.82514127236519e-14 2.33533053849084e-15
1.33650000000000e+02 4.29888520586802e-14 2.08484282158319e-15
1.34190000000000e+02 3.83002547906172e-14 1.86120724226856e-15
1.34730000000000e+02 3.41230213596736e-14 1.66154700674686e-15
1.35270000000000e+02 3.04013796534323e-14 1.48329332592629e-15
1.35810000000000e+02 2.70856403684228e-14 1.32415246173666e-15
1.36350000000000e+02 2.41315335859998e-14 1.18207629654818e-15
1.36890000000000e+02 2.14996177048535e-14 1.05523604934171e-15
1.37430000000000e+02 1.91547528385440e-14 9.41998802445179e-16
1.37970000000000e+02 1.70656316471563e-14 8.40906538536427e-16
1.38510000000000e+02 1.52043613389981e-14 7.50657419671242e-16
1.39050000000000e+02 1.35460912614589e-14 6.70089068734744e-16
1.39590000000000e+02 1.20686811088287e-14 5.98163639298652e-16
1.40130000000000e+02 1.07524053171714e-14 5.33954482721965e-16
1.40670000000000e+02 9.57968969949498e-15 4.76634241749159e-16
1.41210000000000e+02 8.53487680491864e-15 4.25464218097870e-16
1.41750000000000e+02 7.60401686904101e-15 3.79784877819687e-16
1.42290000000000e+02 6.77468156439445e-15 3.39007372770427e-16
1.42830000000000e+02 6.03579806428473e-15 3.02605969525623e-16
1.43370000000000e+02 5.37750120452777e-15 2.70111288688601e-16
1.43910000000000e+02 4.79100176922909e-15 2.41104267910338e-16
1.44450000000000e+02 4.26846914203006e-15 2.15210771204739e-16
1.44990000000000e+02 3.80292675604554e-15 1.92096775417937e-16
1.45530000000000e+02 3.38815894659810e-15 1.71464072101486e-16
1.46070000000000e+02 3.01862796309803e-15 1.53046429641080e-16
1.46610000000000e+02 2.68940003205766e-15 1.36606166388944e-16
1.47150000000000e+02 2.39607948407415e-15 1.21931090814599e-16
1.47690000000000e+02 2.13475006528071e-15 1.08831769392589e-16
1.48230000000000e+02 1.90192264968911e-15 9.71390871469197e-17
1.48770000000000e+02 1.69448865430753e-15 8.67020695242300e-17
1.49310000000000e+02 1.50967853505835e-15 7.73859376188844e-17
1.49850000000000e+02 1.34502480935602e-15 6.90703717661763e-17
1.50390000000000e+02 1.19832911164315e-15 6.16479611928592e-17
1.50930000000000e+02 1.06763284202839e-15 5.50228198014874e-17
1.51470000000000e+02 9.51191016143019e-16 4.91093502970534e-17
1.52010000000000e+02 8.47448967073958e-16 4.38311407684442e-17
1.52550000000000e+02 7.55021588310223e-16 3.91199795376485e-17
1.53090000000000e+02 6.72674840566232e-16 3.49149756081994e-17
1.53630000000000e+02 5.99309275571185e-16 3.11617734004595e-17
1.54170000000000e+02 5.33945356843318e-16 2.78118516724141e-17
1.54710000000000e+02 4.75710381460089e-16 2.48218976061370e-17
1.55250000000000e+02 4.23826828211018e-16 2.21532480058788e-17
1.55790000000000e+02 3.77601976564142e-16 1.97713904161794e-17
1.56330000000000e+02 3.36418657844275e-16 1.76455177385594e-17
1.56870000000000e+02 2.99727015137905e-16 1.57481306130878e-17
1.57410000000000e+02 2.67037161907536e-16 1.40546824452480e-17
1.57950000000000e+02 2.37912641297357e-16 1.25432625069182e-17
1.58490000000000e+02 2.11964598802484e-16 1.11943130299775e-17
1.59030000000000e+02 1.88846590498498e-16 9.99037664830944e-18
1.59570000000000e+02 1.68249957513610e-16 8.91587093442919e-18
1.60110000000000e+02 1.49899704985973e-16 7.95688712560232e-18
1.60650000000000e+02 1.33550830484245e-16 7.10101044563415e-18
1.61190000000000e+02 1.18985052870522e-16 6.33715970647889e-18
1.61730000000000e+02 1.06007897931200e-16 5.98163911773153e-18
