Energy (eV)          EEDF (eV^-(3/2))     First Anisotropy
9.91463414634146e-04 9.84282280063424e+00 5.44500383791720e-03
2.97439024390244e-03 9.76022988566415e+00 8.98372689534471e-03
4.95731707317073e-03 9.67833002287242e+00 1.18396270342938e-02
6.94024390243903e-03 9.59711739672657e+00 1.39971966551534e-02
8.92317073170732e-03 9.51658624049095e+00 1.57866669262172e-02
1.09060975609756e-02 9.43673083582535e+00 1.73331735159258e-02
1.28890243902439e-02 9.35754551223940e+00 1.87016118788081e-02
1.48719512195122e-02 9.27902464728165e+00 1.99312516928914e-02
1.68548780487805e-02 9.20116266528578e+00 2.10481905857066e-02
1.88378048780488e-02 9.12395403704209e+00 2.20709111397906e-02
2.08207317073171e-02 9.04739328055568e+00 2.30131226413103e-02
2.28036585365854e-02 8.97147495938129e+00 2.38853590971154e-02
2.47865853658537e-02 8.89619368242750e+00 2.46959432921687e-02
2.67695121951220e-02 8.82154410444270e+00 2.54516012841275e-02
2.87524390243902e-02 8.74752092470828e+00 2.61578714383911e-02
3.07353658536585e-02 8.67411888698703e+00 2.68193865415598e-02
3.27182926829268e-02 8.60133277895501e+00 2.74400743359000e-02
3.47012195121951e-02 8.52915743244607e+00 2.80233037771716e-02
3.66841463414634e-02 8.45758772243707e+00 2.85719940363120e-02
3.86670731707317e-02 8.38661856674931e+00 2.90886971450699e-02
4.06500000000000e-02 8.31624492619689e+00 2.95756619385796e-02
4.26329268292683e-02 8.24646180369657e+00 3.00348841548745e-02
4.46158536585366e-02 8.17726424409785e+00 3.04681461597424e-02
4.65987804878049e-02 8.10864733370060e+00 3.08770488707791e-02
4.85817073170732e-02 8.04060620030854e+00 3.12630377302627e-02
5.05646341463415e-02 7.97313601246632e+00 3.16274240192116e-02
5.25475609756098e-02 7.90623197914856e+00 3.19714023844670e-02
5.45304878048780e-02 7.83988934976833e+00 3.22960655607454e-02
5.65134146341463e-02 7.77410341347894e+00 3.26024167325519e-02
5.84963414634146e-02 7.70886949896437e+00 3.28913799471568e-02
6.04792682926829e-02 7.64418297401220e+00 3.31638089851287e-02
6.24621951219512e-02 7.58003924547498e+00 3.34204949971958e-02
6.44451219512195e-02 7.51643375864617e+00 3.36621730939065e-02
6.64280487804878e-02 7.45336199695503e+00 3.38895279604674e-02
6.84109756097561e-02 7.39081948190428e+00 3.41031988282705e-02
7.03939024390244e-02 7.32880177248645e+00 3.43037838201790e-02
7.23768292682927e-02 7.26730446488403e+00 3.44918436789214e-02
7.43597560975610e-02 7.20632319238917e+00 3.46679051342944e-02
7.63426829268293e-02 7.14585362485554e+00 3.48324638732332e-02
7.83256097560976e-02 7.08589146847193e+00 3.49859871383474e-02
8.03085365853659e-02 7.02643246539192e+00 3.51289160446871e-02
8.22914634146342e-02 6.96747239363231e+00 3.52616676811670e-02
8.42743902439024e-02 6.90900706656779e+00 3.53846370027188e-02
8.62573170731707e-02 6.85103233264448e+00 3.54981984574665e-02
8.82402439024390e-02 6.79354407526770e+00 3.56027075243749e-02
9.02231707317073e-02 6.73653821232291e+00 3.56985020953834e-02
9.22060975609756e-02 6.68001069594954e+00 3.57859036948617e-02
9.41890243902439e-02 6.62395751220077e+00 3.58652185890277e-02
9.61719512195122e-02 6.56837468091932e+00 3.59367388231332e-02
9.81548780487805e-02 6.51325825529088e+00 3.60007431752463e-02
1.00137804878049e-01 6.45860432157135e+00 3.60574979434469e-02
1.02120731707317e-01 6.40440899909733e+00 3.61072578226916e-02
1.04103658536585e-01 6.35066843934184e+00 3.61502665656111e-02
1.06086585365854e-01 6.29737882631198e+00 3.61867575770016e-02
1.08069512195122e-01 6.24453637603446e+00 3.62169546169293e-02
1.10052439024390e-01 6.19213733628937e+00 3.62410722607595e-02
1.12035365853659e-01 6.14017798675766e+00 3.62593166054913e-02
1.14018292682927e-01 6.08865463749798e+00 3.62718856187998e-02
1.16001219512195e-01 6.03756362995640e+00 3.62789694522401e-02
1.17984146341463e-01 5.98690133627772e+00 3.62807510464368e-02
1.19967073170732e-01 5.93666415904837e+00 3.62774064465428e-02
1.21950000000000e-01 5.88684853104214e+00 3.62691051004041e-02
1.23932926829268e-01 5.83745091532289e+00 3.62560103612798e-02
1.25915853658537e-01 5.78846780391223e+00 3.62382796807160e-02
1.27898780487805e-01 5.73989571863208e+00 3.62160647801117e-02
1.29881707317073e-01 5.69173121048950e+00 3.61895120962733e-02
1.31864634146341e-01 5.64397085943278e+00 3.61587629743625e-02
1.33847560975610e-01 5.59661127410895e+00 3.61239538530458e-02
1.35830487804878e-01 5.54964909193189e+00 3.60852166425875e-02
1.37813414634146e-01 5.50308097790646e+00 3.60426788285402e-02
1.39796341463415e-01 5.45690362533754e+00 3.59964635619247e-02
1.41779268292683e-01 5.41111375527627e+00 3.59466900036023e-02
1.43762195121951e-01 5.36570811628842e+00 3.58934734443213e-02
1.45745121951220e-01 5.32068348422336e+00 3.58369254219013e-02
1.47728048780488e-01 5.27603666225524e+00 3.57771540182409e-02
1.49710975609756e-01 5.23176447983741e+00 3.57142639101078e-02
1.51693902439024e-01 5.18786379330326e+00 3.56483564108689e-02
1.53676829268293e-01 5.14433148536450e+00 3.55795297469768e-02
1.55659756097561e-01 5.10116446489109e+00 3.55078791328855e-02
1.57642682926829e-01 5.05835966669132e+00 3.54334968457541e-02
1.59625609756098e-01 5.01591405153185e+00 3.53564724668621e-02
1.61608536585366e-01 4.97382460520207e+00 3.52768929001840e-02
1.63591463414634e-01 4.93208833902623e+00 3.51948423845591e-02
1.65574390243902e-01 4.89070228940638e+00 3.51104027223736e-02
1.67557317073171e-01 4.84966351761330e+00 3.50236532857333e-02
1.69540243902439e-01 4.80896910979121e+00 3.49346712238842e-02
1.71523170731707e-01 4.76861617610316e+00 3.48435314646551e-02
1.73506097560976e-01 4.72860185117910e+00 3.47503067109651e-02
1.75489024390244e-01 4.68892329369265e+00 3.46550676395460e-02
1.77471951219512e-01 4.64957768615909e+00 3.45578829307184e-02
1.79454878048780e-01 4.61056223473617e+00 3.44588193000144e-02
1.81437804878049e-01 4.57187416921543e+00 3.43579416744634e-02
1.83420731707317e-01 4.53351074225018e+00 3.42553131805996e-02
1.85403658536585e-01 4.49546922974055e+00 3.41509951286997e-02
1.87386585365854e-01 4.45774693044488e+00 3.40450471836212e-02
1.89369512195122e-01 4.42034116578791e+00 3.39375273811613e-02
1.91352439024390e-01 4.38324927967109e+00 3.38284921467057e-02
1.93335365853659e-01 4.34646863845331e+00 3.37179964476510e-02
1.95318292682927e-01 4.30999663025073e+00 3.36060937731009e-02
1.97301219512195e-01 4.27383066526871e+00 3.34928361105871e-02
1.99284146341463e-01 4.23796817544381e+00 3.33782740951448e-02
2.01267073170732e-01 4.20240661426162e+00 3.32624570166395e-02
2.03250000000000e-01 4.16714345657617e+00 3.31454328295666e-02
2.05232926829268e-01 4.13217619858240e+00 3.30272482866581e-02
2.07215853658537e-01 4.09750235717882e+00 3.29079489135705e-02
2.09198780487805e-01 4.06311947025443e+00 3.27875789811327e-02
2.11181707317073e-01 4.02902509635800e+00 3.26661816369810e-02
2.13164634146341e-01 3.99521681452502e+00 3.25437989067557e-02
2.15147560975610e-01 3.96169222410582e+00 3.24204716978195e-02
2.17130487804878e-01 3.92844894473159e+00 3.22962399176499e-02
2.19113414634146e-01 3.89548461573239e+00 3.21711424456611e-02
2.21096341463415e-01 3.86279689638573e+00 3.20452171029939e-02
2.23079268292683e-01 3.83038346561033e+00 3.19185007698416e-02
2.25062195121951e-01 3.79824202180161e+00 3.17910293824857e-02
2.27045121951220e-01 3.76637028266825e+00 3.16628379328193e-02
2.29028048780488e-01 3.73476598519309e+00 3.15339605741626e-02
2.31010975609756e-01 3.70342688510039e+00 3.14044305916540e-02
2.32993902439024e-01 3.67235075707141e+00 3.12742803708994e-02
2.34976829268293e-01 3.64153539446024e+00 3.11435415033509e-02
2.36959756097561e-01 3.61097860913752e+00 3.10122447805199e-02
2.38942682926829e-01 3.58067823133487e+00 3.08804201906072e-02
2.40925609756098e-01 3.55063210960205e+00 3.07480970137596e-02
2.42908536585366e-01 3.52083811031795e+00 3.06153037919660e-02
2.44891463414634e-01 3.49129411787790e+00 3.04820682974472e-02
2.46874390243902e-01 3.46199803442943e+00 3.03484176278973e-02
2.48857317073171e-01 3.43294777972372e+00 3.02143781756138e-02
2.50840243902439e-01 3.40414129106992e+00 3.00799757151732e-02
2.52823170731707e-01 3.37557652287968e+00 2.99452353734576e-02
2.54806097560976e-01 3.34725144683321e+00 2.98101815983272e-02
2.56789024390244e-01 3.31916405163069e+00 2.96748382464928e-02
2.58771951219512e-01 3.29131234284936e+00 2.95392285747632e-02
2.60754878048781e-01 3.26369434280213e+00 2.94033752334900e-02
2.62737804878049e-01 3.23630809048984e+00 2.92673003462727e-02
2.64720731707317e-01 3.20915164118154e+00 2.91310254804839e-02
2.66703658536585e-01 3.18222306655898e+00 2.89945716165874e-02
2.68686585365854e-01 3.15552045448468e+00 2.88579592282526e-02
2.70669512195122e-01 3.12904190886620e+00 2.87212082727909e-02
2.72652439024390e-01 3.10278554952165e+00 2.85843381836674e-02
2.74635365853659e-01 3.07674951213048e+00 2.84473679432683e-02
2.76618292682927e-01 3.05093194784603e+00 2.83103160542164e-02
2.78601219512195e-01 3.02533102342120e+00 2.81732005095978e-02
2.80584146341463e-01 2.99994492099192e+00 2.80360388662725e-02
2.82567073170732e-01 2.97477183794814e+00 2.78988482348555e-02
2.84550000000000e-01 2.94980998680589e+00 2.77616452716567e-02
2.86532926829268e-01 2.92505759515722e+00 2.76244462453376e-02
2.88515853658537e-01 2.90051290531189e+00 2.74872670092052e-02
2.90498780487805e-01 2.87617417440672e+00 2.73501229725203e-02
2.92481707317073e-01 2.85203967420313e+00 2.72130291677859e-02
2.94464634146341e-01 2.82810769096452e+00 2.70760002405334e-02
2.96447560975610e-01 2.80437652533460e+00 2.69390504409406e-02
2.98430487804878e-01 2.78084449228689e+00 2.68021936850718e-02
3.00413414634146e-01 2.75750992079291e+00 2.66654435282633e-02
3.02396341463415e-01 2.73437115391724e+00 2.65288131376141e-02
3.04379268292683e-01 2.71142654862801e+00 2.63923153539111e-02
3.06362195121951e-01 2.68867447568036e+00 2.62559626813918e-02
3.08345121951220e-01 2.66611331950078e+00 2.61197672792379e-02
3.10328048780488e-01 2.64374147813647e+00 2.59837410179794e-02
3.12310975609756e-01 2.62155736294770e+00 2.58478954540330e-02
3.14293902439024e-01 2.59955939869033e+00 2.57122418034190e-02
3.16276829268293e-01 2.57774602333830e+00 2.55767909988820e-02
3.18259756097561e-01 2.55611568797285e+00 2.54415536797690e-02
3.20242682926829e-01 2.53466685667249e+00 2.53065401835211e-02
3.22225609756098e-01 2.51339800646269e+00 2.51717605977412e-02
3.24208536585366e-01 2.49230762703015e+00 2.50372247359117e-02
3.26191463414634e-01 2.47139422079444e+00 2.49029421123531e-02
3.28174390243902e-01 2.45065630274150e+00 2.47689219950193e-02
3.30157317073171e-01 2.43009240031837e+00 2.46351733813124e-02
3.32140243902439e-01 2.40970105338314e+00 2.45017050468661e-02
3.34123170731707e-01 2.38948081393632e+00 2.43685255222662e-02
3.36106097560976e-01 2.36943024618415e+00 2.42356430690665e-02
3.38089024390244e-01 2.34954792638085e+00 2.41030657292868e-02
3.40071951219512e-01 2.32983244272750e+00 2.39708013156940e-02
3.42054878048780e-01 2.31028239527188e+00 2.38388574035116e-02
3.44037804878049e-01 2.29089639585917e+00 2.37072413755991e-02
3.46020731707317e-01 2.27167306788190e+00 2.35759604003337e-02
3.48003658536585e-01 2.25261104633474e+00 2.34450214088417e-02
3.49986585365854e-01 2.23370897766634e+00 2.33144311408860e-02
3.51969512195122e-01 2.21496551968321e+00 2.31841961354500e-02
3.53952439024390e-01 2.19637934145448e+00 2.30543227226641e-02
3.55935365853659e-01 2.17794912326342e+00 2.29248170657091e-02
3.57918292682927e-01 2.15967355637461e+00 2.27956851398318e-02
3.59901219512195e-01 2.14155134308108e+00 2.26669327107624e-02
3.61884146341463e-01 2.12358119656513e+00 2.25385653773077e-02
3.63867073170732e-01 2.10576184080696e+00 2.24105885622750e-02
3.65850000000000e-01 2.08809201049414e+00 2.22830075046480e-02
3.67832926829268e-01 2.07057045097404e+00 2.21558272984983e-02
3.69815853658537e-01 2.05319591803679e+00 2.20290528731065e-02
3.71798780487805e-01 2.03596717795582e+00 2.19026889725207e-02
3.73781707317073e-01 2.01888300735694e+00 2.17767401951441e-02
3.75764634146341e-01 2.00194219313152e+00 2.16512109850141e-02
3.77747560975610e-01 1.98514353235036e+00 2.15261056242486e-02
3.79730487804878e-01 1.96848583221728e+00 2.14014282692256e-02
3.81713414634146e-01 1.95196790986654e+00 2.12771829317667e-02
3.83696341463415e-01 1.93558859239756e+00 2.11533734597946e-02
3.85679268292683e-01 1.91934671675171e+00 2.10300035741645e-02
3.87662195121951e-01 1.90324112962984e+00 2.09070768603049e-02
3.89645121951220e-01 1.88727068741035e+00 2.07845967609547e-02
3.91628048780488e-01 1.87143425610394e+00 2.06625666098354e-02
3.93610975609756e-01 1.85573071116443e+00 2.05409896138513e-02
3.95593902439024e-01 1.84015893751834e+00 2.04198688348000e-02
3.97576829268293e-01 1.82471782944892e+00 2.02992072236734e-02
3.99559756097561e-01 1.80940629051771e+00 2.01790076126647e-02
4.01542682926829e-01 1.79422323348670e+00 2.00592727081988e-02
4.03525609756098e-01 1.77916758027424e+00 1.99400051223032e-02
4.05508536585366e-01 1.76423826177829e+00 1.98212073557810e-02
4.07491463414634e-01 1.74943421790145e+00 1.97028817809214e-02
4.09474390243902e-01 1.73475439744172e+00 1.95850306734759e-02
4.11457317073171e-01 1.72019775801798e+00 1.94676561959813e-02
4.13440243902439e-01 1.70576326602693e+00 1.93507604273533e-02
4.15423170731707e-01 1.69144989647601e+00 1.92343453468456e-02
4.17406097560976e-01 1.67725663300495e+00 1.91184128175709e-02
4.19389024390244e-01 1.66318246778194e+00 1.90029646166746e-02
4.21371951219512e-01 1.64922640143205e+00 1.88880024279928e-02
4.23354878048781e-01 1.63538744296628e+00 1.87735278356138e-02
4.25337804878049e-01 1.62166460973991e+00 1.86595423514924e-02
4.27320731707317e-01 1.60805692729607e+00 1.85460474002911e-02
4.29303658536585e-01 1.59456342938374e+00 1.84330443038181e-02
4.31286585365854e-01 1.58118315785987e+00 1.83205343091923e-02
4.33269512195122e-01 1.56791516262137e+00 1.82085185818512e-02
4.35252439024390e-01 1.55475850153764e+00 1.80969981994056e-02
4.37235365853659e-01 1.54171224041019e+00 1.79859741774237e-02
4.39218292682927e-01 1.52877545282621e+00 1.78754474551156e-02
4.41201219512195e-01 1.51594722017341e+00 1.77654188806353e-02
4.43184146341463e-01 1.50322663154775e+00 1.76558892373895e-02
4.45167073170732e-01 1.49061278368873e+00 1.75468592373874e-02
4.47150000000000e-01 1.47810478091528e+00 1.74383295153825e-02
4.49132926829268e-01 1.46570173508671e+00 1.73303006529634e-02
4.51115853658537e-01 1.45340276546549e+00 1.72227731650338e-02
4.53098780487805e-01 1.44120699872936e+00 1.71157474859351e-02
4.55081707317073e-01 1.42911356888425e+00 1.70092239940397e-02
4.57064634146341e-01 1.41712161720279e+00 1.69032030054278e-02
4.59047560975610e-01 1.40523029216337e+00 1.67976847683088e-02
4.61030487804878e-01 1.39343874941240e+00 1.66926694855454e-02
4.63013414634146e-01 1.38174615163564e+00 1.65881573018855e-02
4.64996341463415e-01 1.37015166856794e+00 1.64841482908637e-02
4.66979268292683e-01 1.35865447691103e+00 1.63806424777999e-02
4.68962195121951e-01 1.34725376027507e+00 1.62776398337941e-02
4.70945121951220e-01 1.33594870912073e+00 1.61751402704206e-02
4.72928048780488e-01 1.32473852072273e+00 1.60731436607918e-02
4.74910975609756e-01 1.31362239904922e+00 1.59716498275089e-02
4.76893902439024e-01 1.30259955476931e+00 1.58706585302964e-02
4.78876829268293e-01 1.29166920517550e+00 1.57701694875220e-02
4.80859756097561e-01 1.28083057412815e+00 1.56701823704965e-02
4.82842682926829e-01 1.27008289200037e+00 1.55706967984270e-02
4.84825609756098e-01 1.25942539564287e+00 1.54717123581332e-02
4.86808536585366e-01 1.24885732827076e+00 1.53732285926715e-02
4.88791463414634e-01 1.23837793946927e+00 1.52752449896622e-02
4.90774390243902e-01 1.22798648512046e+00 1.51777610014375e-02
4.92757317073171e-01 1.21768222735043e+00 1.50807760337806e-02
4.94740243902439e-01 1.20746443449526e+00 1.49842894645911e-02
4.96723170731707e-01 1.19733238099367e+00 1.48883006330475e-02
4.98706097560976e-01 1.18728534739123e+00 1.47928088284915e-02
5.00689024390244e-01 1.17732262027060e+00 1.46978133095029e-02
5.02671951219512e-01 1.16744349220082e+00 1.46033132987182e-02
5.04654878048781e-01 1.15764726168714e+00 1.45093079782304e-02
5.06637804878049e-01 1.14793323313821e+00 1.44157965070746e-02
5.08620731707317e-01 1.13830071676524e+00 1.43227780109959e-02
5.10603658536585e-01 1.12874902858482e+00 1.42302515719563e-02
5.12586585365854e-01 1.11927749035297e+00 1.41382162460082e-02
5.14569512195122e-01 1.10988542951696e+00 1.40466710583832e-02
5.16552439024390e-01 1.10057217916758e+00 1.39556149991240e-02
5.18535365853659e-01 1.09133707800761e+00 1.38650470394669e-02
5.20518292682927e-01 1.08217947025707e+00 1.37749661221877e-02
5.22501219512195e-01 1.07309870565473e+00 1.36853711516949e-02
5.24484146341463e-01 1.06409413939583e+00 1.35962610107836e-02
5.26467073170732e-01 1.05516513208628e+00 1.35076345559795e-02
5.28450000000000e-01 1.04631104969727e+00 1.34194906133931e-02
5.30432926829268e-01 1.03753126353494e+00 1.33318279940799e-02
5.32415853658537e-01 1.02882515015134e+00 1.32446454849248e-02
5.34398780487805e-01 1.02019209134485e+00 1.31579418392930e-02
5.36381707317073e-01 1.01163147410129e+00 1.30717157927378e-02
5.38364634146342e-01 1.00314269055040e+00 1.29859660585896e-02
5.40347560975610e-01 9.94725137922669e-01 1.29006913240227e-02
5.42330487804878e-01 9.86378218520199e-01 1.28158902644599e-02
5.44313414634146e-01 9.78101339632993e-01 1.27315615349665e-02
5.46296341463415e-01 9.69893913538412e-01 1.26477037614248e-02
5.48279268292683e-01 9.61755357445500e-01 1.25643155552716e-02
5.50262195121951e-01 9.53685093453606e-01 1.24813955093175e-02
5.52245121951220e-01 9.45682548511353e-01 1.23989421940131e-02
5.54228048780488e-01 9.37747154388664e-01 1.23169541709646e-02
5.56210975609756e-01 9.29878347597996e-01 1.22354299848120e-02
5.58193902439024e-01 9.22075569392997e-01 1.21543681548948e-02
5.60176829268293e-01 9.14338265715844e-01 1.20737671890809e-02
5.62159756097561e-01 9.06665887157926e-01 1.19936255798065e-02
5.64142682926829e-01 8.99057888920816e-01 1.19139418005362e-02
5.66125609756098e-01 8.91513730789433e-01 1.18347143184466e-02
5.68108536585366e-01 8.84032877057923e-01 1.17559415867568e-02
5.70091463414634e-01 8.76614796527608e-01 1.16776220368621e-02
5.72074390243902e-01 8.69258962457188e-01 1.15997540913136e-02
5.74057317073171e-01 8.61964852525350e-01 1.15223361562294e-02
5.76040243902439e-01 8.54731948804827e-01 1.14453666333262e-02
5.78023170731707e-01 8.47559737691946e-01 1.13688439126097e-02
5.80006097560976e-01 8.40447709904054e-01 1.12927663648826e-02
5.81989024390244e-01 8.33395360431976e-01 1.12171323540597e-02
5.83971951219512e-01 8.26402188504153e-01 1.11419402335776e-02
5.85954878048781e-01 8.19467697551100e-01 1.10671883431835e-02
5.87937804878049e-01 8.12591395180523e-01 1.09928750202329e-02
5.89920731707317e-01 8.05772793110992e-01 1.09189985927889e-02
5.91903658536585e-01 7.99011407168836e-01 1.08455573725470e-02
5.93886585365854e-01 7.92306757243172e-01 1.07725496664007e-02
5.95869512195122e-01 7.85658367251807e-01 1.06999737730422e-02
5.97852439024390e-01 7.79065765107448e-01 1.06278279799172e-02
5.99835365853659e-01 7.72528482693851e-01 1.05561105738381e-02
6.01818292682927e-01 7.66046055803356e-01 1.04848198344672e-02
6.03801219512195e-01 7.59618024133337e-01 1.04139540276352e-02
6.05784146341463e-01 7.53243931243649e-01 1.03435114162065e-02
6.07767073170732e-01 7.46923324524215e-01 1.02734902568611e-02
6.09750000000000e-01 7.40655755162898e-01 1.02038887972064e-02
6.11732926829268e-01 7.34440778122647e-01 1.01347052857495e-02
6.13715853658537e-01 7.28277952082652e-01 1.00659379657432e-02
6.15698780487805e-01 7.22166839434428e-01 9.99758506887560e-03
6.17681707317073e-01 7.16107006241539e-01 9.92964482548152e-03
6.19664634146342e-01 7.10098022208785e-01 9.86211546149290e-03
6.21647560975610e-01 7.04139460651659e-01 9.79499519570380e-03
6.23630487804878e-01 6.98230898474452e-01 9.72828224914061e-03
6.25613414634146e-01 6.92371916114807e-01 9.66197483924883e-03
