Energy (eV)          EEDF (eV^-(3/2))     First Anisotropy
3.83823529411765e-02 5.39348544906257e-02 3.46104887322019e-05
1.15147058823529e-01 5.33904414292323e-02 5.70551203408752e-05
1.91911764705882e-01 5.28515236180220e-02 7.50636583485289e-05
2.68676470588235e-01 5.23180455899033e-02 8.85903442246449e-05
3.45441176470588e-01 5.17899524360831e-02 9.97445994435833e-05
4.22205882352941e-01 5.12671898035533e-02 1.09327810001422e-04
4.98970588235294e-01 5.07497038848912e-02 1.17756590804621e-04
5.75735294117647e-01 5.02374414175235e-02 1.25283644345295e-04
6.52500000000000e-01 4.97303496764861e-02 1.32077302901294e-04
7.29264705882353e-01 4.92283764689977e-02 1.38257056445442e-04
8.06029411764706e-01 4.87314701291034e-02 1.43911737375779e-04
8.82794117647059e-01 4.82395795123615e-02 1.49109755844640e-04
9.59558823529412e-01 4.77526539905732e-02 1.53905281331950e-04
1.03632352941176e+00 4.72706434470547e-02 1.58342185477687e-04
1.11308823529412e+00 4.67934982708307e-02 1.62456669314993e-04
1.18985294117647e+00 4.63211693488577e-02 1.66279076400030e-04
1.26661764705882e+00 4.58536080703238e-02 1.69835184383924e-04
1.34338235294118e+00 4.53907663073843e-02 1.73147146605220e-04
1.42014705882353e+00 4.49325964217899e-02 1.76234193265917e-04
1.49691176470588e+00 4.44790512594243e-02 1.79113167334050e-04
1.57367647058824e+00 4.40300841356219e-02 1.81798936002633e-04
1.65044117647059e+00 4.35856488429895e-02 1.84304714612514e-04
1.72720588235294e+00 4.31456996349440e-02 1.86642324360287e-04
1.80397058823529e+00 4.27101912294500e-02 1.88822398088606e-04
1.88073529411765e+00 4.22790788039749e-02 1.90854550187176e-04
1.95750000000000e+00 4.18523179835452e-02 1.92747513659455e-04
2.03426470588235e+00 4.14298648456943e-02 1.94509254693261e-04
2.11102941176471e+00 4.10116759069913e-02 1.96147068270218e-04
2.18779411764706e+00 4.05977081269936e-02 1.97667658413110e-04
2.26455882352941e+00 4.01879188958564e-02 1.99077206535707e-04
2.34132352941176e+00 3.97822660357566e-02 2.00381428530530e-04
2.41808823529412e+00 3.93807077963297e-02 2.01585625837849e-04
2.49485294117647e+00 3.89832028451903e-02 2.02694727493991e-04
2.57161764705882e+00 3.85897102704339e-02 2.03713327462737e-04
2.64838235294118e+00 3.82001895700018e-02 2.04645717269443e-04
2.72514705882353e+00 3.78146006522105e-02 2.05495913512160e-04
2.80191176470588e+00 3.74329038314712e-02 2.06267683913484e-04
2.87867647058824e+00 3.70550598199540e-02 2.06964568523654e-04
2.95544117647059e+00 3.66810297290958e-02 2.07589899296348e-04
3.03220588235294e+00 3.63107750602901e-02 2.08146817583127e-04
3.10897058823529e+00 3.59442577048214e-02 2.08638288809400e-04
3.18573529411765e+00 3.55814399398141e-02 2.09067117285808e-04
3.26250000000000e+00 3.52222844208071e-02 2.09435957894893e-04
3.33926470588235e+00 3.48667541825558e-02 2.09747327337126e-04
3.41602941176471e+00 3.45148126307644e-02 2.10003614209852e-04
3.49279411764706e+00 3.41664235426075e-02 2.10207088031921e-04
3.56955882352941e+00 3.38215510588767e-02 2.10359907657608e-04
3.64632352941176e+00 3.34801596833308e-02 2.10464128143747e-04
3.72308823529412e+00 3.31422142789495e-02 2.10521708448379e-04
3.79985294117647e+00 3.28076800615263e-02 2.10534517081217e-04
3.87661764705882e+00 3.24765225997529e-02 2.10504337907738e-04
3.95338235294118e+00 3.21487078081413e-02 2.10432875535719e-04
4.03014705882353e+00 3.18242019461213e-02 2.10321759555067e-04
4.10691176470588e+00 3.15029716144962e-02 2.10172549750397e-04
4.18367647058824e+00 3.11849837495969e-02 2.09986739650386e-04
4.26044117647059e+00 3.08702056230433e-02 2.09765760385455e-04
4.33720588235294e+00 3.05586048353163e-02 2.09510984312535e-04
4.41397058823529e+00 3.02501493146833e-02 2.09223727730386e-04
4.49073529411765e+00 2.99448073138336e-02 2.08905254593994e-04
4.56750000000000e+00 2.96425474045195e-02 2.08556778817064e-04
4.64426470588235e+00 2.93433384770759e-02 2.08179466948061e-04
4.72102941176471e+00 2.90471497345486e-02 2.07774440605447e-04
4.79779411764706e+00 2.87539506921120e-02 2.07342778691856e-04
4.87455882352941e+00 2.84637111714223e-02 2.06885519620727e-04
4.95132352941176e+00 2.81764012993687e-02 2.06403662838930e-04
5.02808823529412e+00 2.78919915049495e-02 2.05898171299556e-04
5.10485294117647e+00 2.76104525145007e-02 2.05369972770685e-04
5.18161764705882e+00 2.73317553509593e-02 2.04819961534233e-04
5.25838235294118e+00 2.70558713286711e-02 2.04249000023144e-04
5.33514705882353e+00 2.67827720520737e-02 2.03657919847216e-04
5.41191176470588e+00 2.65124294127337e-02 2.03047523721055e-04
5.48867647058824e+00 2.62448155849257e-02 2.02418586352332e-04
5.56544117647059e+00 2.59799030247820e-02 2.01771855713492e-04
5.64220588235294e+00 2.57176644654998e-02 2.01108054278933e-04
5.71897058823529e+00 2.54580729159859e-02 2.00427879722241e-04
5.79573529411765e+00 2.52011016580417e-02 1.99732006461271e-04
5.87250000000000e+00 2.49467242422574e-02 1.99021086264227e-04
5.94926470588235e+00 2.46949144870795e-02 1.98295749225360e-04
6.02602941176471e+00 2.44456464743736e-02 1.97556604642712e-04
6.10279411764706e+00 2.41988945484527e-02 1.96804241811390e-04
6.17955882352941e+00 2.39546333117849e-02 1.96039230891937e-04
6.25632352941177e+00 2.37128376236050e-02 1.95262123318073e-04
6.33308823529412e+00 2.34734825972973e-02 1.94473452970562e-04
6.40985294117647e+00 2.32365435966845e-02 1.93673736532613e-04
6.48661764705882e+00 2.30019962350097e-02 1.92863474186016e-04
6.56338235294118e+00 2.27698163709473e-02 1.92043150302456e-04
6.64014705882353e+00 2.25399801072153e-02 1.91213233716665e-04
6.71691176470588e+00 2.23124637880909e-02 1.90374178714224e-04
6.79367647058824e+00 2.20872439959436e-02 1.89526425269587e-04
6.87044117647059e+00 2.18642975501876e-02 1.88670399605010e-04
6.94720588235294e+00 2.16436015035668e-02 1.87806514749987e-04
7.02397058823529e+00 2.14251331407794e-02 1.86935170719402e-04
7.10073529411765e+00 2.12088699761172e-02 1.86056755357396e-04
7.17750000000000e+00 2.09947897502234e-02 1.85171644491440e-04
7.25426470588235e+00 2.07828704290276e-02 1.84280202388123e-04
7.33102941176471e+00 2.05730902002807e-02 1.83382782151822e-04
7.40779411764706e+00 2.03654274724791e-02 1.82479726078398e-04
7.48455882352941e+00 2.01598608714999e-02 1.81571366080921e-04
7.56132352941176e+00 1.99563692392506e-02 1.80658023779563e-04
7.63808823529412e+00 1.97549316314709e-02 1.79740011190694e-04
7.71485294117647e+00 1.95555273147782e-02 1.78817630802836e-04
7.79161764705882e+00 1.93581357655904e-02 1.77891175926238e-04
7.86838235294118e+00 1.91627366669802e-02 1.76960931048888e-04
7.94514705882353e+00 1.89693099073520e-02 1.76027171882852e-04
8.02191176470588e+00 1.87778355783551e-02 1.75090165968981e-04
8.09867647058824e+00 1.85882939721095e-02 1.74150172714354e-04
8.17544117647059e+00 1.84006655801361e-02 1.73207443685603e-04
8.25220588235294e+00 1.82149310904113e-02 1.72262222909667e-04
8.32897058823530e+00 1.80310713860767e-02 1.71314746888687e-04
8.40573529411765e+00 1.78490675434551e-02 1.70365245135124e-04
8.48250000000000e+00 1.76689008294456e-02 1.69413940180904e-04
8.55926470588235e+00 1.74905527004656e-02 1.68461047826126e-04
8.63602941176471e+00 1.73140047996906e-02 1.67506777348409e-04
8.71279411764706e+00 1.71392389559983e-02 1.66551331683813e-04
8.78955882352941e+00 1.69662371812820e-02 1.65594907667774e-04
8.86632352941177e+00 1.67949816692070e-02 1.64637696020676e-04
8.94308823529412e+00 1.66254547933641e-02 1.63679881802888e-04
9.01985294117647e+00 1.64576391048813e-02 1.62721644397686e-04
9.09661764705882e+00 1.62915173313879e-02 1.61763157711084e-04
9.17338235294118e+00 1.61270723744926e-02 1.60804590379820e-04
9.25014705882353e+00 1.59642873085771e-02 1.59846105742136e-04
9.32691176470588e+00 1.58031453790422e-02 1.58887862246679e-04
9.40367647058824e+00 1.56436300000595e-02 1.57930013422312e-04
9.48044117647059e+00 1.54857247535579e-02 1.56972708050715e-04
9.55720588235294e+00 1.53294133868541e-02 1.56016090347066e-04
9.63397058823529e+00 1.51746798114855e-02 1.55060299920374e-04
9.71073529411765e+00 1.50215081015434e-02 1.54105472142719e-04
9.78750000000000e+00 1.48698824915552e-02 1.53151738109570e-04
9.86426470588235e+00 1.47197873754957e-02 1.52199224789922e-04
9.94102941176471e+00 1.45712073045593e-02 1.51248055147256e-04
1.00177941176471e+01 1.44241269861791e-02 1.50298348350635e-04
1.00945588235294e+01 1.42785312814228e-02 1.49350219555981e-04
1.01713235294118e+01 1.41344052053319e-02 1.48403780189347e-04
1.02480882352941e+01 1.39917339236178e-02 1.47459138387022e-04
1.03248529411765e+01 1.38505027517274e-02 1.46516398637089e-04
1.04016176470588e+01 1.37106971533325e-02 1.45575662026277e-04
1.04783823529412e+01 1.35723027388331e-02 1.44637026331288e-04
1.05551470588235e+01 1.34353052638756e-02 1.43700586106768e-04
1.06319117647059e+01 1.32996906278885e-02 1.42766432771156e-04
1.07086764705882e+01 1.31654448726301e-02 1.41834654690501e-04
1.07854411764706e+01 1.30325541807519e-02 1.40905337259206e-04
1.08622058823529e+01 1.29010048743766e-02 1.39978562978684e-04
1.09389705882353e+01 1.27707834136898e-02 1.39054411533766e-04
1.10157352941176e+01 1.26418763955468e-02 1.38132959866975e-04
1.10925000000000e+01 1.25142705520931e-02 1.37214282551012e-04
1.11692647058824e+01 1.23879527482737e-02 1.36298450950636e-04
1.12460294117647e+01 1.22629099838869e-02 1.35385533900043e-04
1.13227941176471e+01 1.21391293888092e-02 1.34475598388402e-04
1.13995588235294e+01 1.20165982228267e-02 1.33568708689805e-04
1.14763235294118e+01 1.18953038743239e-02 1.32664926740066e-04
1.15530882352941e+01 1.17752338589859e-02 1.31764312197720e-04
1.16298529411765e+01 1.16563758185135e-02 1.30866922503382e-04
1.17066176470588e+01 1.15387175193505e-02 1.29972812937491e-04
1.17833823529412e+01 1.14222468514256e-02 1.29082036676646e-04
1.18601470588235e+01 1.13069518269045e-02 1.28194644847996e-04
1.19369117647059e+01 1.11928205789576e-02 1.27310686582470e-04
1.20136764705882e+01 1.10798413605382e-02 1.26430209066904e-04
1.20904411764706e+01 1.09680025431727e-02 1.25553257594339e-04
1.21672058823529e+01 1.08572926157647e-02 1.24679875613132e-04
1.22439705882353e+01 1.07477001834095e-02 1.23810104774796e-04
1.23207352941176e+01 1.06392139662213e-02 1.22943984980572e-04
1.23975000000000e+01 1.05318227981728e-02 1.22081554665930e-04
1.24742647058824e+01 1.04255156250977e-02 1.21222850121692e-04
1.25510294117647e+01 1.03202815061186e-02 1.20367906021903e-04
1.26277941176471e+01 1.02161096099324e-02 1.19516755958830e-04
1.27045588235294e+01 1.01129892145661e-02 1.18669431739950e-04
1.27813235294118e+01 1.00109097062734e-02 1.17825963677748e-04
1.28580882352941e+01 9.90986057844186e-03 1.16986380628515e-04
1.29348529411765e+01 9.80983143051211e-03 1.16150710030198e-04
1.30116176470588e+01 9.71081196690686e-03 1.15318977939271e-04
1.30883823529412e+01 9.61279199597142e-03 1.14491209066785e-04
1.31651470588235e+01 9.51576142892432e-03 1.13667426813183e-04
1.32419117647059e+01 9.41971027881969e-03 1.12847653302473e-04
1.33186764705882e+01 9.32462865951891e-03 1.12031909415770e-04
1.33954411764706e+01 9.23050678467312e-03 1.11220214823659e-04
1.34722058823529e+01 9.13733496671591e-03 1.10412588017867e-04
1.35489705882353e+01 9.04510361586626e-03 1.09609046342162e-04
1.36257352941176e+01 8.95380323914146e-03 1.08809606022481e-04
1.37025000000000e+01 8.86342443938004e-03 1.08014282387760e-04
1.37792647058824e+01 8.77395791362917e-03 1.07223089319747e-04
1.38560294117647e+01 8.68539445414037e-03 1.06436039669015e-04
1.39327941176471e+01 8.59772494545128e-03 1.05653145676980e-04
1.40095588235294e+01 8.51094036411015e-03 1.04874418407069e-04
1.40863235294118e+01 8.42503177774709e-03 1.04099867970756e-04
1.41630882352941e+01 8.33999034415468e-03 1.03329503552901e-04
1.42398529411765e+01 8.25580731037790e-03 1.02563333436473e-04
1.43166176470588e+01 8.17247401181321e-03 1.01801365026669e-04
1.43933823529412e+01 8.08998187131678e-03 1.01043604874544e-04
1.44701470588235e+01 8.00832239832133e-03 1.00290058699838e-04
1.45469117647059e+01 7.92748718796286e-03 9.95407314133825e-05
1.46236764705882e+01 7.84746792021526e-03 9.87956271391688e-05
1.47004411764706e+01 7.76825635903392e-03 9.80547492356254e-05
1.47772058823529e+01 7.68984435150811e-03 9.73181003164631e-05
1.48539705882353e+01 7.61222382702179e-03 9.65856822710428e-05
1.49307352941176e+01 7.53538679642292e-03 9.58574962842443e-05
1.50075000000000e+01 7.45932535120122e-03 9.51335430098440e-05
1.50842647058824e+01 7.38403166217802e-03 9.44138221239315e-05
1.51610294117647e+01 7.30949798020156e-03 9.36983326554008e-05
1.52377941176471e+01 7.23571663383530e-03 9.29870733215002e-05
1.53145588235294e+01 7.16268002907745e-03 9.22800420666344e-05
1.53913235294118e+01 7.09038064857934e-03 9.15772362404354e-05
1.54680882352941e+01 7.01881105087170e-03 9.08786526145650e-05
1.55448529411765e+01 6.94796386959871e-03 9.01842873991173e-05
1.56216176470588e+01 6.87783181275987e-03 8.94941362586433e-05
1.56983823529412e+01 6.80840766195940e-03 8.88081943278566e-05
1.57751470588235e+01 6.73968427166313e-03 8.81264562267825e-05
1.58519117647059e+01 6.67165456846341e-03 8.74489160756722e-05
1.59286764705882e+01 6.60431155035091e-03 8.67755675097004e-05
1.60054411764706e+01 6.53764828599386e-03 8.61064036931252e-05
1.60822058823529e+01 6.47165791402472e-03 8.54414173331747e-05
1.61589705882353e+01 6.40633364233391e-03 8.47806006936198e-05
1.62357352941176e+01 6.34166874737075e-03 8.41239456080210e-05
1.63125000000000e+01 6.27765657345143e-03 8.34714436169841e-05
1.63892647058824e+01 6.21429053168978e-03 8.28230856049996e-05
1.64660294117647e+01 6.15156410048139e-03 8.21788620646014e-05
1.65427941176471e+01 6.08947082366020e-03 8.15387633647453e-05
1.66195588235294e+01 6.02800431022806e-03 8.09027793760844e-05
1.66963235294118e+01 5.96715823369695e-03 8.02708996122981e-05
1.67730882352941e+01 5.90692633143780e-03 7.96431132413210e-05
1.68498529411765e+01 5.84730240403589e-03 7.90194090963095e-05
1.69266176470588e+01 5.78828031465282e-03 7.83997756863458e-05
1.70033823529412e+01 5.72985398839485e-03 7.77842012069508e-05
1.70801470588235e+01 5.67201741168745e-03 7.71726735502058e-05
1.71569117647059e+01 5.61476463165670e-03 7.65651803147235e-05
1.72336764705882e+01 5.55808975551641e-03 7.59617088154891e-05
1.73104411764706e+01 5.50198694996159e-03 7.53622460933299e-05
1.73872058823529e+01 5.44645044056808e-03 7.47667789242020e-05
1.74639705882353e+01 5.39147451119817e-03 7.41752938282724e-05
1.75407352941176e+01 5.33705350341231e-03 7.35877770787804e-05
1.76175000000000e+01 5.28318181588669e-03 7.30042148113710e-05
1.76942647058824e+01 5.22985390353727e-03 7.24245927282186e-05
1.77710294117647e+01 5.17706427785484e-03 7.18488963101823e-05
1.78477941176471e+01 5.12480750542675e-03 7.12771110324641e-05
1.79245588235294e+01 5.07307820768468e-03 7.07092220595058e-05
1.80013235294118e+01 5.02187106035107e-03 7.01452143577989e-05
1.80780882352941e+01 4.97118079289108e-03 6.95850727033899e-05
1.81548529411765e+01 4.92100218797016e-03 6.90287816892174e-05
1.82316176470588e+01 4.87133008091701e-03 6.84763257322583e-05
1.83083823529412e+01 4.82215935919202e-03 6.79276890805506e-05
1.83851470588235e+01 4.77348496186098e-03 6.73828558199538e-05
1.84619117647059e+01 4.72530187907433e-03 6.68418098808033e-05
1.85386764705882e+01 4.67760515155146e-03 6.63045350444785e-05
1.86154411764706e+01 4.63038987007026e-03 6.57710149497225e-05
1.86922058823529e+01 4.58365117496182e-03 6.52412330988393e-05
1.87689705882353e+01 4.53738425561025e-03 6.47151728637367e-05
1.88457352941176e+01 4.49158434995756e-03 6.41928174918364e-05
1.89225000000000e+01 4.44624674401351e-03 6.36741501936028e-05
1.89992647058824e+01 4.40136677113575e-03 6.31591539010294e-05
1.90760294117647e+01 4.35693981225927e-03 6.26478114386927e-05
1.91527941176471e+01 4.31296129470535e-03 6.21401056977042e-05
1.92295588235294e+01 4.26942669195145e-03 6.16360193867985e-05
1.93063235294118e+01 4.22633152316531e-03 6.11355351227971e-05
1.93830882352941e+01 4.18367135274374e-03 6.06386354355933e-05
1.94598529411765e+01 4.14144178985611e-03 6.01453027730048e-05
1.95366176470588e+01 4.09963848799239e-03 5.96555195055189e-05
1.96133823529412e+01 4.05825714451583e-03 5.91692679309513e-05
1.96901470588235e+01 4.01729350021997e-03 5.86865302788993e-05
1.97669117647059e+01 3.97674333889046e-03 5.82072887151465e-05
1.98436764705882e+01 3.93660248687100e-03 5.77315253460126e-05
1.99204411764706e+01 3.89686681263377e-03 5.72592222225188e-05
1.99972058823529e+01 3.85753222635417e-03 5.67903613444678e-05
2.00739705882353e+01 3.81859467948993e-03 5.63249246644322e-05
2.01507352941176e+01 3.78005016436434e-03 5.58628940916388e-05
2.02275000000000e+01 3.74189471375379e-03 5.54042515623175e-05
2.03042647058824e+01 3.70412440029468e-03 5.49489788422265e-05
2.03810294117647e+01 3.66673533663797e-03 5.44970576650050e-05
2.04577941176471e+01 3.62972367448574e-03 5.40484698729307e-05
2.05345588235294e+01 3.59308560438440e-03 5.36031972134752e-05
2.06113235294118e+01 3.55681735533261e-03 5.31612214121205e-05
2.06880882352941e+01 3.52091519439315e-03 5.27225241756133e-05
2.07648529411765e+01 3.48537542630872e-03 5.22870871951249e-05
2.08416176470588e+01 3.45019439312156e-03 5.18548921493411e-05
2.09183823529412e+01 3.41536847379701e-03 5.14259207074912e-05
2.09951470588235e+01 3.38089408385069e-03 5.10001545322370e-05
2.10719117647059e+01 3.34676767497974e-03 5.05775752825269e-05
2.11486764705882e+01 3.31298573469751e-03 5.01581646164128e-05
2.12254411764706e+01 3.27954478597204e-03 4.97419041937405e-05
2.13022058823529e+01 3.24644138686821e-03 4.93287756787835e-05
2.13789705882353e+01 3.21367213019344e-03 4.89187607428058e-05
2.14557352941176e+01 3.18123364314702e-03 4.85118410665631e-05
2.15325000000000e+01 3.14912258697297e-03 4.81079983970230e-05
2.16092647058824e+01 3.11733565647028e-03 4.77072143856409e-05
2.16860294117647e+01 3.08586958009455e-03 4.73094707005730e-05
2.17627941176471e+01 3.05472111917586e-03 4.69147491408614e-05
2.18395588235294e+01 3.02388706773511e-03 4.65230314698838e-05
2.19163235294118e+01 2.99336425215403e-03 4.61342994741424e-05
2.19930882352941e+01 2.96314953084858e-03 4.57485349653233e-05
2.20698529411765e+01 2.93323979394551e-03 4.53657197822974e-05
2.21466176470588e+01 2.90363196296237e-03 4.49858357930677e-05
2.22233823529412e+01 2.87432299049058e-03 4.46088648966755e-05
2.23001470588235e+01 2.84530985988179e-03 4.42347890250081e-05
2.23769117647059e+01 2.81658958493741e-03 4.38635901445854e-05
2.24536764705882e+01 2.78815920960129e-03 4.34952502583263e-05
2.25304411764706e+01 2.76001580765539e-03 4.31297514072170e-05
2.26072058823529e+01 2.73215648241863e-03 4.27670756719454e-05
2.26839705882353e+01 2.70457836644877e-03 4.24072051744886e-05
2.27607352941176e+01 2.67727862124721e-03 4.20501220796503e-05
2.28375000000000e+01 2.65025443696691e-03 4.16958086409321e-05
2.29142647058824e+01 2.62350303200721e-03 4.13442470678843e-05
2.29910294117647e+01 2.59702165307810e-03 4.09954196173147e-05
2.30677941176471e+01 2.57080757456348e-03 4.06493086861533e-05
2.31445588235294e+01 2.54485809835934e-03 4.03058966748830e-05
2.32213235294118e+01 2.51917055359607e-03 3.99651660351243e-05
2.32980882352941e+01 2.49374229636355e-03 3.96270992708813e-05
2.33748529411765e+01 2.46857070943904e-03 3.92916789397360e-05
2.34516176470588e+01 2.44365320201780e-03 3.89588876540080e-05
2.35283823529412e+01 2.41898720944639e-03 3.86287080818934e-05
2.36051470588235e+01 2.39457019295873e-03 3.83011229485232e-05
2.36819117647059e+01 2.37039963941480e-03 3.79761150370183e-05
2.37586764705882e+01 2.34647306104199e-03 3.76536671895282e-05
2.38354411764706e+01 2.32278799517901e-03 3.73337623081943e-05
2.39122058823529e+01 2.29934200402245e-03 3.70163833561055e-05
2.39889705882353e+01 2.27613267437582e-03 3.67015133582061e-05
2.40657352941176e+01 2.25315761740122e-03 3.63891354021755e-05
2.41425000000000e+01 2.23041446837344e-03 3.60792326756083e-05
2.42192647058824e+01 2.20790088634427e-03 3.57717883570619e-05
