Energy (eV)          EEDF (eV^-(3/2))     First Anisotropy
6.61764705882353e-02 6.69622034323475e-02 6.04252659676453e-05
1.98529411764706e-01 6.56181700323634e-02 9.91111198397288e-05
3.30882352941176e-01 6.43011134297958e-02 1.29079674823486e-04
4.63235294117647e-01 6.30104921557066e-02 1.50804709307208e-04
5.95588235294118e-01 6.17457756172778e-02 1.68080868656583e-04
7.27941176470588e-01 6.05064438664390e-02 1.82372738903647e-04
8.60294117647059e-01 5.92919873915789e-02 1.94453101264209e-04
9.92647058823529e-01 5.81019069078810e-02 2.04797384802627e-04
1.12500000000000e+00 5.69357131509141e-02 2.13726610679059e-04
1.25735294117647e+00 5.57929266798903e-02 2.21471624584492e-04
1.38970588235294e+00 5.46730776745697e-02 2.28206168584192e-04
1.52205882352941e+00 5.35757057449047e-02 2.34065605058594e-04
1.65441176470588e+00 5.25003597416197e-02 2.39158292306998e-04
1.78676470588235e+00 5.14465975646823e-02 2.43572881904383e-04
1.91911764705882e+00 5.04139860003999e-02 2.47383211297361e-04
2.05147058823529e+00 4.94021005236033e-02 2.50651702982756e-04
2.18382352941176e+00 4.84105251300229e-02 2.53431796169120e-04
2.31617647058824e+00 4.74388521652528e-02 2.55769733580319e-04
2.44852941176471e+00 4.64866821571120e-02 2.57705902308292e-04
2.58088235294118e+00 4.55536236514975e-02 2.59275859644491e-04
2.71323529411765e+00 4.46392930513957e-02 2.60511131188715e-04
2.84558823529412e+00 4.37433144591769e-02 2.61439841299767e-04
2.97794117647059e+00 4.28653195190965e-02 2.62087216772998e-04
3.11029411764706e+00 4.20049472750009e-02 2.62475995730119e-04
3.24264705882353e+00 4.11618440124938e-02 2.62626762436048e-04
3.37500000000000e+00 4.03356631167725e-02 2.62558223008222e-04
3.50735294117647e+00 3.95260649301186e-02 2.62287436218553e-04
3.63970588235294e+00 3.87327166122683e-02 2.61830007389149e-04
3.77205882352941e+00 3.79552920035808e-02 2.61200252688319e-04
3.90441176470588e+00 3.71934714909390e-02 2.60411339469601e-04
4.03676470588235e+00 3.64469418744980e-02 2.59475406166218e-04
4.16911764705882e+00 3.57153962446236e-02 2.58403666607560e-04
4.30147058823529e+00 3.49985338498609e-02 2.57206500682317e-04
4.43382352941176e+00 3.42960599752971e-02 2.55893532695414e-04
4.56617647058824e+00 3.36076858213991e-02 2.54473700739633e-04
4.69852941176471e+00 3.29331283852747e-02 2.52955317677537e-04
4.83088235294118e+00 3.22721103443410e-02 2.51346125113954e-04
4.96323529411765e+00 3.16243599423031e-02 2.49653341354395e-04
5.09558823529412e+00 3.09896108774299e-02 2.47883704289717e-04
5.22794117647059e+00 3.03676021918883e-02 2.46043509324422e-04
5.36029411764706e+00 2.97580781680942e-02 2.44138643987156e-04
5.49264705882353e+00 2.91607882198599e-02 2.42174619134883e-04
5.62500000000000e+00 2.85754867906450e-02 2.40156596549813e-04
5.75735294117647e+00 2.80019332526020e-02 2.38089414403046e-04
5.88970588235294e+00 2.74398918076520e-02 2.35977610267416e-04
6.02205882352941e+00 2.68891313905456e-02 2.33825442072382e-04
6.15441176470588e+00 2.63494255738656e-02 2.31636907318055e-04
6.28676470588235e+00 2.58205524741006e-02 2.29415760296799e-04
6.41911764705882e+00 2.53022946629924e-02 2.27165528313577e-04
6.55147058823529e+00 2.47944390755228e-02 2.24889526604427e-04
6.68382352941176e+00 2.42967769232137e-02 2.22590871602626e-04
6.81617647058824e+00 2.38091036082902e-02 2.20272493533651e-04
6.94852941176471e+00 2.33312186395646e-02 2.17937147955686e-04
7.08088235294118e+00 2.28629255500158e-02 2.15587426435679e-04
7.21323529411765e+00 2.24040318160153e-02 2.13225766441217e-04
7.34558823529412e+00 2.19543487781775e-02 2.10854460586025e-04
7.47794117647059e+00 2.15136915632135e-02 2.08475664950792e-04
7.61029411764706e+00 2.10818790097164e-02 2.06091407158269e-04
7.74264705882353e+00 2.06587335918555e-02 2.03703593910073e-04
7.87500000000000e+00 2.02440813470142e-02 2.01314017662847e-04
8.00735294117647e+00 1.98377518042699e-02 1.98924363142538e-04
8.13970588235294e+00 1.94395779143119e-02 1.96536213365027e-04
8.27205882352941e+00 1.90493959807642e-02 1.94151055271360e-04
8.40441176470588e+00 1.86670455928869e-02 1.91770285061294e-04
8.53676470588235e+00 1.82923695591920e-02 1.89395212979162e-04
8.66911764705882e+00 1.79252138441529e-02 1.87027068072661e-04
8.80147058823529e+00 1.75654275035174e-02 1.84667002673880e-04
8.93382352941176e+00 1.72128626227147e-02 1.82316096329891e-04
9.06617647058824e+00 1.68673742560448e-02 1.79975359725583e-04
9.19852941176471e+00 1.65288203670881e-02 1.77645738321860e-04
9.33088235294118e+00 1.61970617703133e-02 1.75328115784807e-04
9.46323529411765e+00 1.58719620738548e-02 1.73023317220138e-04
9.59558823529412e+00 1.55533876234399e-02 1.70732112267493e-04
9.72794117647059e+00 1.52412074471224e-02 1.68455217854465e-04
9.86029411764706e+00 1.49352932024105e-02 1.66193301007249e-04
9.99264705882353e+00 1.46355191225116e-02 1.63946981399969e-04
1.01250000000000e+01 1.43417619658203e-02 1.61716834235015e-04
1.02573529411765e+01 1.40539009609669e-02 1.59503391516622e-04
1.03897058823529e+01 1.37718177660117e-02 1.57307145124528e-04
1.05220588235294e+01 1.34953964088173e-02 1.55128548633524e-04
1.06544117647059e+01 1.32245232503183e-02 1.52968018840772e-04
1.07867647058824e+01 1.29590869296325e-02 1.50825939134169e-04
1.09191176470588e+01 1.26989783187264e-02 1.48702659083313e-04
1.10514705882353e+01 1.24440904847275e-02 1.46598497511169e-04
1.11838235294118e+01 1.21943186364104e-02 1.44513743822037e-04
1.13161764705882e+01 1.19495600903923e-02 1.42448659096508e-04
1.14485294117647e+01 1.17097142219889e-02 1.40403478844880e-04
1.15808823529412e+01 1.14746824242243e-02 1.38378412469423e-04
1.17132352941176e+01 1.12443680733888e-02 1.36373645784164e-04
1.18455882352941e+01 1.10186764811979e-02 1.34389342018234e-04
1.19779411764706e+01 1.07975148637519e-02 1.32425642625268e-04
1.21102941176471e+01 1.05807922975012e-02 1.30482669555693e-04
1.22426470588235e+01 1.03684196821743e-02 1.28560524652207e-04
1.23750000000000e+01 1.01603097093542e-02 1.26659291732651e-04
1.25073529411765e+01 9.95637681965804e-03 1.24779037352301e-04
1.26397058823529e+01 9.75653717429392e-03 1.22919811632488e-04
1.27720588235294e+01 9.56070861404854e-03 1.21081649221715e-04
1.29044117647059e+01 9.36881063187217e-03 1.19264569822880e-04
1.30367647058824e+01 9.18076433503166e-03 1.17468579955942e-04
1.31691176470588e+01 8.99649241291891e-03 1.15693672316414e-04
1.33014705882353e+01 8.81591910947898e-03 1.13939827394596e-04
1.34338235294118e+01 8.63897018646088e-03 1.12207013993490e-04
1.35661764705882e+01 8.46557289834847e-03 1.10495189616077e-04
1.36985294117647e+01 8.29565595838129e-03 1.08804301941908e-04
1.38308823529412e+01 8.12914950945491e-03 1.07134288193083e-04
1.39632352941176e+01 7.96598509901716e-03 1.05485076493142e-04
1.40955882352941e+01 7.80609564611351e-03 1.03856586259672e-04
1.42279411764706e+01 7.64941541849182e-03 1.02248728485188e-04
1.43602941176471e+01 7.49588000208139e-03 1.00661406980656e-04
1.44926470588235e+01 7.34542627468384e-03 9.90945177622891e-05
1.46250000000000e+01 7.19799238313784e-03 9.75479501962121e-05
1.47573529411765e+01 7.05351771374651e-03 9.60215872951687e-05
1.48897058823529e+01 6.91194287139059e-03 9.45153060691498e-05
1.50220588235294e+01 6.77320965118470e-03 9.30289779708174e-05
1.51544117647059e+01 6.63726101836880e-03 9.15624690677107e-05
1.52867647058824e+01 6.50404108200781e-03 9.01156410290861e-05
1.54191176470588e+01 6.37349507215184e-03 8.86883505505259e-05
1.55514705882353e+01 6.24556931986635e-03 8.72804502629472e-05
1.56838235294118e+01 6.12021123177925e-03 8.58917889288548e-05
1.58161764705882e+01 5.99736927175851e-03 8.45222115598318e-05
1.59485294117647e+01 5.87699293725983e-03 8.31715602541866e-05
1.60808823529412e+01 5.75903273868341e-03 8.18396736566152e-05
1.62132352941176e+01 5.64344018123054e-03 8.05263877305060e-05
1.63455882352941e+01 5.53016774203538e-03 7.92315359016463e-05
1.64779411764706e+01 5.41916885348248e-03 7.79549491336274e-05
1.66102941176471e+01 5.31039788192966e-03 7.66964566411320e-05
1.67426470588235e+01 5.20381010904766e-03 7.54558853859827e-05
1.68750000000000e+01 5.09936171534592e-03 7.42330607344987e-05
1.70073529411765e+01 4.99700975961703e-03 7.30278065605858e-05
1.71397058823529e+01 4.89671216375758e-03 7.18399453885512e-05
1.72720588235294e+01 4.79842769305801e-03 7.06692986016278e-05
1.74044117647059e+01 4.70211594159906e-03 6.95156864740936e-05
1.75367647058824e+01 4.60773731388644e-03 6.83789287445520e-05
1.76691176470588e+01 4.51525300865368e-03 6.72588441603881e-05
1.78014705882353e+01 4.42462500448427e-03 6.61552510060363e-05
1.79338235294118e+01 4.33581604208647e-03 6.50679671630252e-05
1.80661764705882e+01 4.24878961101598e-03 6.39968101206901e-05
1.81985294117647e+01 4.16350993314138e-03 6.29415974664201e-05
1.83308823529412e+01 4.07994194800598e-03 6.19021464654249e-05
1.84632352941176e+01 3.99805129978247e-03 6.08782745126970e-05
1.85955882352941e+01 3.91780432132755e-03 5.98697991705882e-05
1.87279411764706e+01 3.83916802211588e-03 5.88765381632722e-05
1.88602941176471e+01 3.76211007335121e-03 5.78983097968555e-05
1.89926470588235e+01 3.68659879473564e-03 5.69349325728297e-05
1.91250000000000e+01 3.61260314263815e-03 5.59862255750405e-05
1.92573529411765e+01 3.54009269574564e-03 5.50520084900662e-05
1.93897058823529e+01 3.46903764410253e-03 5.41321016559140e-05
1.95220588235294e+01 3.39940877534779e-03 5.32263261558397e-05
1.96544117647059e+01 3.33117746417483e-03 5.23345037965177e-05
1.97867647058824e+01 3.26431565946573e-03 5.14564574481390e-05
1.99191176470588e+01 3.19879587280804e-03 5.05920107004707e-05
2.00514705882353e+01 3.13459116818262e-03 4.97409881759323e-05
2.01838235294118e+01 3.07167514957449e-03 4.89032155319027e-05
2.03161764705882e+01 3.01002195140357e-03 4.80785194314266e-05
2.04485294117647e+01 2.94960622693267e-03 4.72667278352843e-05
2.05808823529412e+01 2.89040313789005e-03 4.64676696872150e-05
2.07132352941176e+01 2.83238834512150e-03 4.56811751828107e-05
2.08455882352941e+01 2.77553799743521e-03 4.49070757626853e-05
2.09779411764706e+01 2.71982872291663e-03 4.41452040778775e-05
2.11102941176471e+01 2.66523761848290e-03 4.33953942410238e-05
2.12426470588235e+01 2.61174224050385e-03 4.26574815386752e-05
2.13750000000000e+01 2.55932059633054e-03 4.19313026622638e-05
2.15073529411765e+01 2.50795113424900e-03 4.12166956945500e-05
2.16397058823529e+01 2.45761273559981e-03 4.05135001159820e-05
2.17720588235294e+01 2.40828470514005e-03 3.98215568419894e-05
2.19044117647059e+01 2.35994676346736e-03 3.91407081836591e-05
2.20367647058824e+01 2.31257903798650e-03 3.84707980518729e-05
2.21691176470588e+01 2.26616205476971e-03 3.78116717033430e-05
2.23014705882353e+01 2.22067673117987e-03 3.71631759281426e-05
2.24338235294118e+01 2.17610436718833e-03 3.65251590293960e-05
2.25661764705882e+01 2.13242663850356e-03 3.58974707824265e-05
2.26985294117647e+01 2.08962558842768e-03 3.52799626104487e-05
2.28308823529412e+01 2.04768362050080e-03 3.46724873530732e-05
2.29632352941176e+01 2.00658349181819e-03 3.40748994276789e-05
2.30955882352941e+01 1.96630830520790e-03 3.34870548060197e-05
2.32279411764706e+01 1.92684150299978e-03 3.29088109727249e-05
2.33602941176471e+01 1.88816685968367e-03 3.23400270766458e-05
2.34926470588235e+01 1.85026847526179e-03 3.17805637199977e-05
2.36250000000000e+01 1.81313076919588e-03 3.12302830971707e-05
2.37573529411765e+01 1.77673847335824e-03 3.06890489693676e-05
2.38897058823529e+01 1.74107662638270e-03 3.01567266531742e-05
2.40220588235294e+01 1.70613056690087e-03 2.96331830303562e-05
2.41544117647059e+01 1.67188592811262e-03 2.91182865065012e-05
2.42867647058824e+01 1.63832863143303e-03 2.86119071342302e-05
2.44191176470588e+01 1.60544488072345e-03 2.81139164278756e-05
2.45514705882353e+01 1.57322115702422e-03 2.76241874763283e-05
2.46838235294118e+01 1.54164421245873e-03 2.71425949160623e-05
2.48161764705882e+01 1.51070106531216e-03 2.66690148906721e-05
2.49485294117647e+01 1.48037899430207e-03 2.62033251569907e-05
2.50808823529412e+01 1.45066553336525e-03 2.57454049165365e-05
2.52132352941176e+01 1.42154846688819e-03 2.52951349126637e-05
2.53455882352941e+01 1.39301582421213e-03 2.48523974032196e-05
2.54779411764706e+01 1.36505587517333e-03 2.44170761212824e-05
2.56102941176471e+01 1.33765712493577e-03 2.39890563666042e-05
2.57426470588235e+01 1.31080830927984e-03 2.35682248523797e-05
2.58750000000000e+01 1.28449839028439e-03 2.31544697888149e-05
2.60073529411765e+01 1.25871655137273e-03 2.27476808559097e-05
2.61397058823529e+01 1.23345219327186e-03 2.23477491859640e-05
2.62720588235294e+01 1.20869492925850e-03 2.19545673606714e-05
2.64044117647059e+01 1.18443458127588e-03 2.15680293738620e-05
2.65367647058824e+01 1.16066117546038e-03 2.11880307059436e-05
2.66691176470588e+01 1.13736493805308e-03 2.08144681895793e-05
2.68014705882353e+01 1.11453629164408e-03 2.04472400775933e-05
2.69338235294118e+01 1.09216585088600e-03 2.00862460163661e-05
2.70661764705882e+01 1.07024441897628e-03 1.97313870103069e-05
2.71985294117647e+01 1.04876298362163e-03 1.93825654859318e-05
2.73308823529412e+01 1.02771271334356e-03 1.90396851698605e-05
2.74632352941176e+01 1.00708495407877e-03 1.87026511472276e-05
2.75955882352941e+01 9.86871225313819e-04 1.83713698358392e-05
2.77279411764706e+01 9.67063216898881e-04 1.80457489524297e-05
2.78602941176471e+01 9.47652785407017e-04 1.77256975678334e-05
2.79926470588235e+01 9.28631950795530e-04 1.74111259961973e-05
2.81250000000000e+01 9.09992893329053e-04 1.71019458451672e-05
2.82573529411765e+01 8.91727950093688e-04 1.67980699909992e-05
2.83897058823529e+01 8.73829612111287e-04 1.64994125604524e-05
2.85220588235294e+01 8.56290520993943e-04 1.62058889227289e-05
2.86544117647059e+01 8.39103466171179e-04 1.59174156582385e-05
2.87867647058824e+01 8.22261381737072e-04 1.56339106034378e-05
2.89191176470588e+01 8.05757343553069e-04 1.53552927538782e-05
2.90514705882353e+01 7.89584566572761e-04 1.50814823048996e-05
2.91838235294118e+01 7.73736401824459e-04 1.48124006281873e-05
2.93161764705882e+01 7.58206333900336e-04 1.45479702423965e-05
2.94485294117647e+01 7.42987978111477e-04 1.42881148516871e-05
2.95808823529412e+01 7.28075077869875e-04 1.40327592577336e-05
2.97132352941176e+01 7.13461502267512e-04 1.37818293946572e-05
2.98455882352941e+01 6.99141243354623e-04 1.35352523067218e-05
2.99779411764706e+01 6.85108413866243e-04 1.32929561207686e-05
3.01102941176471e+01 6.71357244655043e-04 1.30548700793268e-05
3.02426470588235e+01 6.57882082325493e-04 1.28209244607736e-05
3.03750000000000e+01 6.44677387043297e-04 1.25910506092706e-05
3.05073529411765e+01 6.31737730080162e-04 1.23651809136493e-05
3.06397058823529e+01 6.19057791755517e-04 1.21432487910278e-05
3.07720588235294e+01 6.06632359079961e-04 1.19251886773601e-05
3.09044117647059e+01 5.94456323777697e-04 1.17109360022901e-05
3.10367647058824e+01 5.82524680062753e-04 1.15004272159743e-05
3.11691176470588e+01 5.70832522586006e-04 1.12935997192910e-05
3.13014705882353e+01 5.59375044531163e-04 1.10903918880173e-05
3.14338235294118e+01 5.48147535488774e-04 1.08907430533456e-05
3.15661764705882e+01 5.37145379666056e-04 1.06945934784350e-05
3.16985294117647e+01 5.26364053879910e-04 1.05018843813943e-05
3.18308823529412e+01 5.15799125701800e-04 1.03125578719759e-05
3.19632352941176e+01 5.05446251735090e-04 1.01265569722591e-05
3.20955882352941e+01 4.95301175696938e-04 9.94382559833403e-06
3.22279411764706e+01 4.85359726797866e-04 9.76430853846409e-06
3.23602941176471e+01 4.75617817930409e-04 9.58795147276924e-06
3.24926470588235e+01 4.66071443992701e-04 9.41470091581026e-06
3.26250000000000e+01 4.56716680330029e-04 9.24450423424339e-06
3.27573529411765e+01 4.47549681004170e-04 9.07730962965749e-06
3.28897058823529e+01 4.38566677326720e-04 8.91306612471346e-06
3.30220588235294e+01 4.29763976197886e-04 8.75172355407708e-06
3.31544117647059e+01 4.21137958697442e-04 8.59323254468791e-06
3.32867647058824e+01 4.12685078515322e-04 8.43754453162206e-06
3.34191176470588e+01 4.04401860496919e-04 8.28461170794150e-06
3.35514705882353e+01 3.96284899288818e-04 8.13438703886561e-06
3.36838235294118e+01 3.88330857839814e-04 7.98682424613416e-06
3.38161764705882e+01 3.80536466125704e-04 7.84187778971202e-06
3.39485294117647e+01 3.72898519732667e-04 7.69950288131988e-06
3.40808823529412e+01 3.65413878542762e-04 7.55965543896023e-06
3.42132352941176e+01 3.58079465508865e-04 7.42229209897632e-06
3.43455882352941e+01 3.50892265302004e-04 7.28737020146564e-06
3.44779411764706e+01 3.43849323157335e-04 7.15484777333017e-06
3.46102941176471e+01 3.36947743595416e-04 7.02468353980629e-06
3.47426470588235e+01 3.30184689234353e-04 6.89683688323472e-06
3.48750000000000e+01 3.23557379681689e-04 6.77126785329191e-06
3.50073529411765e+01 3.17063090313705e-04 6.64793715341413e-06
3.51397058823529e+01 3.10699151231132e-04 6.52680612952828e-06
3.52720588235294e+01 3.04462946087381e-04 6.40783676210342e-06
3.54044117647059e+01 2.98351911085351e-04 6.29099165093693e-06
3.55367647058824e+01 2.92363533869301e-04 6.17623402437427e-06
3.56691176470588e+01 2.86495352494109e-04 6.06352770331681e-06
3.58014705882353e+01 2.80744954462522e-04 5.95283710935842e-06
3.59338235294118e+01 2.75109975667642e-04 5.84412725252300e-06
3.60661764705882e+01 2.69588099485201e-04 5.73736371721430e-06
3.61985294117647e+01 2.64177055773186e-04 5.63251267002735e-06
3.63308823529412e+01 2.58874619940450e-04 5.52954082712077e-06
3.64632352941176e+01 2.53678612075922e-04 5.42841546108604e-06
3.65955882352941e+01 2.48586895994178e-04 5.32910438956909e-06
3.67279411764706e+01 2.43597378414128e-04 5.23157596230214e-06
3.68602941176471e+01 2.38708008055914e-04 5.13579906771057e-06
3.69926470588235e+01 2.33916774799256e-04 5.04174310333679e-06
3.71250000000000e+01 2.29221708895903e-04 4.94937798161521e-06
3.72573529411765e+01 2.24620880108184e-04 4.85867411933269e-06
3.73897058823529e+01 2.20112396965929e-04 4.76960242870213e-06
3.75220588235294e+01 2.15694405939517e-04 4.68213431073922e-06
3.76544117647059e+01 2.11365090726075e-04 4.59624164367858e-06
3.77867647058824e+01 2.07122671466747e-04 4.51189678819563e-06
3.79191176470588e+01 2.02965404016364e-04 4.42907256159903e-06
3.80514705882353e+01 1.98891579259317e-04 4.34774224235853e-06
3.81838235294118e+01 1.94899522363133e-04 4.26787956064376e-06
3.83161764705882e+01 1.90987592132707e-04 4.18945868765813e-06
3.84485294117647e+01 1.87154180303611e-04 4.11245424001794e-06
3.85808823529412e+01 1.83397710882162e-04 4.03684125636186e-06
3.87132352941176e+01 1.79716639526715e-04 3.96259520112669e-06
3.88455882352941e+01 1.76109452873903e-04 3.88969195580226e-06
3.89779411764706e+01 1.72574667954444e-04 3.81810780911432e-06
3.91102941176471e+01 1.69110831555099e-04 3.74781946068604e-06
3.92426470588235e+01 1.65716519622324e-04 3.67880399983858e-06
3.93750000000000e+01 1.62390336702764e-04 3.61103890872022e-06
3.95073529411765e+01 1.59130915335064e-04 3.54450205423439e-06
3.96397058823529e+01 1.55936915521392e-04 3.47917168109604e-06
3.97720588235294e+01 1.52807024143589e-04 3.41502640648851e-06
3.99044117647059e+01 1.49739954455535e-04 3.35204521132643e-06
4.00367647058824e+01 1.46734445530084e-04 3.29020744309784e-06
4.01691176470588e+01 1.43789261741601e-04 3.22949279737178e-06
4.03014705882353e+01 1.40903192279989e-04 3.16988132019649e-06
4.04338235294118e+01 1.38075050623632e-04 3.11135340088640e-06
4.05661764705882e+01 1.35303674080205e-04 3.05388976399519e-06
4.06985294117647e+01 1.32587923287300e-04 2.99747147166121e-06
4.08308823529412e+01 1.29926681744837e-04 2.94207990684903e-06
4.09632352941176e+01 1.27318855375606e-04 2.88769677530891e-06
4.10955882352941e+01 1.24763372049471e-04 2.83430409892935e-06
4.12279411764706e+01 1.22259181168017e-04 2.78188420836491e-06
4.13602941176471e+01 1.19805253213637e-04 2.73041974496116e-06
4.14926470588235e+01 1.17400579327014e-04 2.67989364556772e-06
4.16250000000000e+01 1.15044170909740e-04 2.63028914412265e-06
4.17573529411765e+01 1.12735059194774e-04 2.58158976553289e-06
