Energy (eV)          EEDF (eV^-(3/2))     First Anisotropy
2.66071428571429e-03 1.40134274680722e+00 6.92767922098303e-04
7.98214285714286e-03 1.39273552188270e+00 1.14429046032739e-03
1.33035714285714e-02 1.38418116365412e+00 1.51147740821725e-03
1.86250000000000e-02 1.37567934736176e+00 1.79097121353702e-03
2.39464285714286e-02 1.36722975029142e+00 2.02451915283410e-03
2.92678571428571e-02 1.35883205170980e+00 2.22788838879127e-03
3.45892857142857e-02 1.35048593288021e+00 2.40923013786928e-03
3.99107142857143e-02 1.34219107696491e+00 2.57346178663037e-03
4.52321428571429e-02 1.33394716910104e+00 2.72384142027629e-03
5.05535714285714e-02 1.32575389637757e+00 2.86266953624315e-03
5.58750000000000e-02 1.31761094776999e+00 2.99164742091545e-03
6.11964285714286e-02 1.30951801418173e+00 3.11207843268830e-03
6.65178571428571e-02 1.30147478841471e+00 3.22498931550110e-03
7.18392857142857e-02 1.29348096516929e+00 3.33120741385011e-03
7.71607142857143e-02 1.28553624099729e+00 3.43141200788908e-03
8.24821428571429e-02 1.27764031432611e+00 3.52616968563941e-03
8.78035714285714e-02 1.26979288544472e+00 3.61595946516932e-03
9.31250000000000e-02 1.26199365646451e+00 3.70119108082219e-03
9.84464285714286e-02 1.25424233133576e+00 3.78221859407748e-03
1.03767857142857e-01 1.24653861581945e+00 3.85935071360885e-03
1.09089285714286e-01 1.23888221754081e+00 3.93285877784881e-03
1.14410714285714e-01 1.23127284580291e+00 4.00298297305265e-03
1.19732142857143e-01 1.22371021176379e+00 4.06993725520269e-03
1.25053571428571e-01 1.21619402841823e+00 4.13391336468181e-03
1.30375000000000e-01 1.20872401039935e+00 4.19508401217491e-03
1.35696428571429e-01 1.20129987421040e+00 4.25360552023853e-03
1.41017857142857e-01 1.19392133798516e+00 4.30962000368169e-03
1.46339285714286e-01 1.18658812169358e+00 4.36325718133861e-03
1.51660714285714e-01 1.17929994692614e+00 4.41463590751240e-03
1.56982142857143e-01 1.17205653703269e+00 4.46386542971907e-03
1.62303571428571e-01 1.16485761710772e+00 4.51104652440055e-03
1.67625000000000e-01 1.15770291384378e+00 4.55627240611937e-03
1.72946428571429e-01 1.15059215569845e+00 4.59962953787864e-03
1.78267857142857e-01 1.14352507271472e+00 4.64119832895401e-03
1.83589285714286e-01 1.13650139667260e+00 4.68105373781430e-03
1.88910714285714e-01 1.12952086092398e+00 4.71926580712767e-03
1.94232142857143e-01 1.12258320049611e+00 4.75590010158893e-03
1.99553571428571e-01 1.11568815207873e+00 4.79101815034432e-03
2.04875000000000e-01 1.10883545390911e+00 4.82467778322162e-03
2.10196428571429e-01 1.10202484589938e+00 4.85693345379843e-03
2.15517857142857e-01 1.09525606949464e+00 4.88783652389535e-03
2.20839285714286e-01 1.08852886779026e+00 4.91743551479815e-03
2.26160714285714e-01 1.08184298539956e+00 4.94577633952349e-03
2.31482142857143e-01 1.07519816853440e+00 4.97290248419908e-03
2.36803571428571e-01 1.06859416499343e+00 4.99885522163302e-03
2.42125000000000e-01 1.06203072406842e+00 5.02367375569054e-03
2.47446428571429e-01 1.05550759664513e+00 5.04739537431256e-03
2.52767857142857e-01 1.04902453508707e+00 5.07005558551596e-03
2.58089285714286e-01 1.04258129332944e+00 5.09168823888592e-03
2.63410714285714e-01 1.03617762676975e+00 5.11232564265976e-03
2.68732142857143e-01 1.02981329233233e+00 5.13199864662833e-03
2.74053571428571e-01 1.02348804845761e+00 5.15073676281494e-03
2.79375000000000e-01 1.01720165502362e+00 5.16856823277502e-03
2.84696428571429e-01 1.01095387342796e+00 5.18552010960211e-03
2.90017857142857e-01 1.00474446649035e+00 5.20161833073605e-03
2.95339285714286e-01 9.98573198529498e-01 5.21688778328228e-03
3.00660714285714e-01 9.92439835270691e-01 5.23135236993498e-03
3.05982142857143e-01 9.86344143898624e-01 5.24503504847375e-03
3.11303571428571e-01 9.80285893047349e-01 5.25795790867297e-03
3.16625000000000e-01 9.74264852733274e-01 5.27014220453639e-03
3.21946428571429e-01 9.68280794423086e-01 5.28160840258251e-03
3.27267857142857e-01 9.62333490950466e-01 5.29237622427654e-03
3.32589285714286e-01 9.56422716580116e-01 5.30246468403876e-03
3.37910714285714e-01 9.50548246928420e-01 5.31189212970012e-03
3.43232142857143e-01 9.44709859007339e-01 5.32067626093165e-03
3.48553571428571e-01 9.38907331214975e-01 5.32883418301255e-03
3.53875000000000e-01 9.33140443277508e-01 5.33638242165304e-03
3.59196428571429e-01 9.27408976306290e-01 5.34333695363056e-03
3.64517857142857e-01 9.21712712725680e-01 5.34971323321108e-03
3.69839285714286e-01 9.16051436327100e-01 5.35552621566328e-03
3.75160714285714e-01 9.10424932199995e-01 5.36079038386659e-03
3.80482142857143e-01 9.04832986768787e-01 5.36551975579428e-03
3.85803571428571e-01 8.99275387783963e-01 5.36972792485447e-03
3.91125000000000e-01 8.93751924271157e-01 5.37342806551983e-03
3.96446428571429e-01 8.88262386579706e-01 5.37663295398760e-03
4.01767857142857e-01 8.82806566319408e-01 5.37935498553045e-03
4.07089285714286e-01 8.77384256406653e-01 5.38160618976819e-03
4.12410714285714e-01 8.71995251003725e-01 5.38339824919464e-03
4.17732142857143e-01 8.66639345550201e-01 5.38474250070989e-03
4.23053571428571e-01 8.61316336754526e-01 5.38564996753759e-03
4.28375000000000e-01 8.56026022548922e-01 5.38613135979738e-03
4.33696428571429e-01 8.50768202131075e-01 5.38619708916415e-03
4.39017857142857e-01 8.45542675908204e-01 5.38585728077025e-03
4.44339285714286e-01 8.40349245536774e-01 5.38512178352483e-03
4.49660714285714e-01 8.35187713868666e-01 5.38400018363999e-03
4.54982142857143e-01 8.30057884978084e-01 5.38250180283637e-03
4.60303571428571e-01 8.24959564153557e-01 5.38063572462189e-03
4.65625000000000e-01 8.19892557857703e-01 5.37841079202024e-03
4.70946428571429e-01 8.14856673763288e-01 5.37583561842480e-03
4.76267857142857e-01 8.09851720703385e-01 5.37291859606675e-03
4.81589285714286e-01 8.04877508705819e-01 5.36966790321913e-03
4.86910714285714e-01 7.99933848945073e-01 5.36609151447303e-03
4.92232142857143e-01 7.95020553765510e-01 5.36219719707087e-03
4.97553571428571e-01 7.90137436673759e-01 5.35799253319348e-03
5.02875000000000e-01 7.85284312302576e-01 5.35348491608653e-03
5.08196428571429e-01 7.80460996442239e-01 5.34868155839057e-03
5.13517857142857e-01 7.75667305995852e-01 5.34358949835739e-03
5.18839285714286e-01 7.70903059009392e-01 5.33821560501822e-03
5.24160714285714e-01 7.66168074628491e-01 5.33256658625283e-03
5.29482142857143e-01 7.61462173118581e-01 5.32664898409013e-03
5.34803571428571e-01 7.56785175857645e-01 5.32046919403469e-03
5.40125000000000e-01 7.52136905303571e-01 5.31403346031415e-03
5.45446428571429e-01 7.47517185021636e-01 5.30734788246965e-03
5.50767857142857e-01 7.42925839644204e-01 5.30041842004133e-03
5.56089285714286e-01 7.38362694897072e-01 5.29325089636286e-03
5.61410714285714e-01 7.33827577560439e-01 5.28585100507730e-03
5.66732142857143e-01 7.29320315486451e-01 5.27822430490375e-03
5.72053571428571e-01 7.24840737592303e-01 5.27037623667653e-03
5.77375000000000e-01 7.20388673830601e-01 5.26231211814726e-03
5.82696428571429e-01 7.15963955213535e-01 5.25403714933601e-03
5.88017857142857e-01 7.11566413776373e-01 5.24555641614487e-03
5.93339285714286e-01 7.07195882600656e-01 5.23687489319885e-03
5.98660714285714e-01 7.02852195778796e-01 5.22799744923188e-03
6.03982142857143e-01 6.98535188429416e-01 5.21892884162042e-03
6.09303571428571e-01 6.94244696690774e-01 5.20967373160080e-03
6.14625000000000e-01 6.89980557693750e-01 5.20023667888952e-03
6.19946428571429e-01 6.85742609583193e-01 5.19062214612264e-03
6.25267857142857e-01 6.81530691484708e-01 5.18083450169952e-03
6.30589285714286e-01 6.77344643525171e-01 5.17087802194570e-03
6.35910714285714e-01 6.73184306800474e-01 5.16075689565359e-03
6.41232142857143e-01 6.69049523388997e-01 5.15047521856941e-03
6.46553571428571e-01 6.64940136345325e-01 5.14003700711607e-03
6.51875000000000e-01 6.60855989675545e-01 5.12944619299492e-03
6.57196428571429e-01 6.56796928356154e-01 5.11870662693857e-03
6.62517857142857e-01 6.52762798303745e-01 5.10782208098713e-03
6.67839285714286e-01 6.48753446393197e-01 5.09679625016034e-03
6.73160714285714e-01 6.44768720428205e-01 5.08563275634797e-03
6.78482142857143e-01 6.40808469153127e-01 5.07433514286356e-03
6.83803571428571e-01 6.36872542246993e-01 5.06290688691654e-03
6.89125000000000e-01 6.32960790300828e-01 5.05135139429645e-03
6.94446428571429e-01 6.29073064834467e-01 5.03967200259372e-03
6.99767857142857e-01 6.25209218268782e-01 5.02787198305230e-03
7.05089285714286e-01 6.21369103941873e-01 5.01595454187658e-03
7.10410714285714e-01 6.17552576082043e-01 5.00392282361116e-03
7.15732142857143e-01 6.13759489818254e-01 4.99177990583349e-03
7.21053571428571e-01 6.09989701174404e-01 4.97952881055612e-03
7.26375000000000e-01 6.06243067048461e-01 4.96717249905632e-03
7.31696428571429e-01 6.02519445227438e-01 4.95471387467759e-03
7.37017857142857e-01 5.98818694361894e-01 4.94215578435606e-03
7.42339285714286e-01 5.95140673980373e-01 4.92950101965506e-03
7.47660714285714e-01 5.91485244464558e-01 4.91675231973429e-03
7.52982142857143e-01 5.87852267058519e-01 4.90391236622236e-03
7.58303571428571e-01 5.84241603863242e-01 4.89098379369467e-03
7.63625000000000e-01 5.80653117817371e-01 4.87796918468262e-03
7.68946428571429e-01 5.77086672710600e-01 4.86487107213800e-03
7.74267857142857e-01 5.73542133160176e-01 4.85169194070693e-03
7.79589285714286e-01 5.70019364623820e-01 4.83843422755479e-03
7.84910714285714e-01 5.66518233376822e-01 4.82510032500208e-03
7.90232142857143e-01 5.63038606520238e-01 4.81169257560005e-03
7.95553571428571e-01 5.59580351975653e-01 4.79821328179563e-03
8.00875000000000e-01 5.56143338467380e-01 4.78466470114367e-03
8.06196428571429e-01 5.52727435534440e-01 4.77104904849338e-03
8.11517857142857e-01 5.49332513508885e-01 4.75736849706320e-03
8.16839285714286e-01 5.45958443527364e-01 4.74362517910565e-03
8.22160714285714e-01 5.42605097509975e-01 4.72982118826395e-03
8.27482142857143e-01 5.39272348167529e-01 4.71595857486382e-03
8.32803571428571e-01 5.35960068996550e-01 4.70203935485873e-03
8.38125000000000e-01 5.32668134262774e-01 4.68806550525264e-03
8.43446428571429e-01 5.29396419011893e-01 4.67403896605760e-03
8.48767857142857e-01 5.26144799049511e-01 4.65996164120855e-03
8.54089285714286e-01 5.22913150951520e-01 4.64583539910214e-03
8.59410714285714e-01 5.19701352044530e-01 4.63166207471973e-03
8.64732142857143e-01 5.16509280412316e-01 4.61744346513765e-03
8.70053571428571e-01 5.13336814891040e-01 4.60318133783088e-03
8.75375000000000e-01 5.10183835053931e-01 4.58887742630842e-03
8.80696428571429e-01 5.07050221220935e-01 4.57453343187666e-03
8.86017857142857e-01 5.03935854440144e-01 4.56015102442664e-03
8.91339285714286e-01 5.00840616497117e-01 4.54573184287258e-03
8.96660714285714e-01 4.97764389896744e-01 4.53127749707551e-03
9.01982142857143e-01 4.94707057868968e-01 4.51678956357216e-03
9.07303571428571e-01 4.91668504364220e-01 4.50226959329832e-03
9.12625000000000e-01 4.88648614039170e-01 4.48771910743797e-03
9.17946428571429e-01 4.85647272265405e-01 4.47313959902093e-03
9.23267857142857e-01 4.82664365112197e-01 4.45853253360348e-03
9.28589285714286e-01 4.79699779354889e-01 4.44389934962871e-03
9.33910714285714e-01 4.76753402458053e-01 4.42924146017777e-03
9.39232142857143e-01 4.73825122580576e-01 4.41456024891223e-03
9.44553571428571e-01 4.70914828571298e-01 4.39985707727376e-03
9.49875000000000e-01 4.68022409955737e-01 4.38513328054076e-03
9.55196428571429e-01 4.65147756943906e-01 4.37039016928278e-03
9.60517857142857e-01 4.62290760414292e-01 4.35562902995399e-03
9.65839285714286e-01 4.59451311921417e-01 4.34085112518992e-03
9.71160714285714e-01 4.56629303680164e-01 4.32605769540989e-03
9.76482142857143e-01 4.53824628570315e-01 4.31124995496526e-03
9.81803571428571e-01 4.51037180132366e-01 4.29642909886202e-03
9.87125000000000e-01 4.48266852555151e-01 4.28159629901933e-03
9.92446428571429e-01 4.45513540682890e-01 4.26675270559910e-03
9.97767857142857e-01 4.42777140000271e-01 4.25189944654332e-03
1.00308928571429e+00 4.40057546641892e-01 4.23703763175992e-03
1.00841071428571e+00 4.37354657367171e-01 4.22216835064287e-03
1.01373214285714e+00 4.34668369577564e-01 4.20729266737558e-03
1.01905357142857e+00 4.31998581304727e-01 4.19241162932763e-03
1.02437500000000e+00 4.29345191206617e-01 4.17752625493177e-03
1.02969642857143e+00 4.26708098588490e-01 4.16263756251738e-03
1.03501785714286e+00 4.24087203324138e-01 4.14774655158521e-03
1.04033928571429e+00 4.21482405927439e-01 4.13285418385432e-03
1.04566071428571e+00 4.18893607523326e-01 4.11796141259761e-03
1.05098214285714e+00 4.16320709844007e-01 4.10306917322156e-03
1.05630357142857e+00 4.13763615225291e-01 4.08817838357422e-03
1.06162500000000e+00 4.11222226602849e-01 4.07328993536876e-03
1.06694642857143e+00 4.08696447531496e-01 4.05840472128674e-03
1.07226785714286e+00 4.06186182112266e-01 4.04352361733799e-03
1.07758928571429e+00 4.03691335058415e-01 4.02864746500417e-03
1.08291071428571e+00 4.01211811668455e-01 4.01377709881553e-03
1.08823214285714e+00 3.98747517822547e-01 3.99891333746660e-03
1.09355357142857e+00 3.96298359978969e-01 3.98405698408482e-03
1.09887500000000e+00 3.93864245170543e-01 3.96920881813442e-03
1.10419642857143e+00 3.91445081022354e-01 3.95436962091167e-03
1.10951785714286e+00 3.89040775684156e-01 3.93954015891912e-03
1.11483928571429e+00 3.86651237891319e-01 3.92472116703466e-03
1.12016071428571e+00 3.84276376939771e-01 3.90991337445384e-03
1.12548214285714e+00 3.81916102682536e-01 3.89511749630863e-03
1.13080357142857e+00 3.79570325526347e-01 3.88033423390194e-03
1.13612500000000e+00 3.77238956428236e-01 3.86556426706337e-03
1.14144642857143e+00 3.74921906911827e-01 3.85080827814763e-03
1.14676785714286e+00 3.72619089004615e-01 3.83606693635780e-03
1.15208928571429e+00 3.70330415294312e-01 3.82134088187494e-03
1.15741071428571e+00 3.68055798905523e-01 3.80663075027789e-03
1.16273214285714e+00 3.65795153496439e-01 3.79193716463413e-03
1.16805357142857e+00 3.63548393255586e-01 3.77726073570583e-03
1.17337500000000e+00 3.61315432898557e-01 3.76260205472958e-03
1.17869642857143e+00 3.59096187683029e-01 3.74796171602045e-03
1.18401785714286e+00 3.56890573350482e-01 3.73334030218303e-03
1.18933928571429e+00 3.54698506178360e-01 3.71873836914084e-03
1.19466071428571e+00 3.52519902958339e-01 3.70415646913753e-03
1.19998214285714e+00 3.50354680993154e-01 3.68959514326972e-03
1.20530357142857e+00 3.48202758093493e-01 3.67505492166901e-03
1.21062500000000e+00 3.46064052574862e-01 3.66053631668051e-03
1.21594642857143e+00 3.43938483271429e-01 3.64603984416562e-03
1.22126785714286e+00 3.41825969481833e-01 3.63156600954545e-03
1.22658928571429e+00 3.39726431017503e-01 3.61711529367187e-03
1.23191071428571e+00 3.37639788182394e-01 3.60268817450556e-03
1.23723214285714e+00 3.35565961769950e-01 3.58828512006417e-03
1.24255357142857e+00 3.33504873060126e-01 3.57390658858301e-03
1.24787500000000e+00 3.31456443816383e-01 3.55955302206940e-03
1.25319642857143e+00 3.29420596298474e-01 3.54522486638837e-03
1.25851785714286e+00 3.27397253211988e-01 3.53092255808707e-03
1.26383928571429e+00 3.25386337753167e-01 3.51664651105608e-03
1.26916071428571e+00 3.23387773589992e-01 3.50239713696943e-03
1.27448214285714e+00 3.21401484859269e-01 3.48817483862357e-03
1.27980357142857e+00 3.19427396163780e-01 3.47398001007976e-03
1.28512500000000e+00 3.17465432569404e-01 3.45981303057091e-03
1.29044642857143e+00 3.15515519616926e-01 3.44567428345078e-03
1.29576785714286e+00 3.13577583275029e-01 3.43156414375046e-03
1.30108928571429e+00 3.11651549981894e-01 3.41748296557906e-03
1.30641071428571e+00 3.09737346627529e-01 3.40343110140809e-03
1.31173214285714e+00 3.07834900550977e-01 3.38940889577756e-03
1.31705357142857e+00 3.05944139537588e-01 3.37541668542099e-03
1.32237500000000e+00 3.04064991816263e-01 3.36145479350507e-03
1.32769642857143e+00 3.02197386070363e-01 3.34752354751460e-03
1.33301785714286e+00 3.00341251393889e-01 3.33362326749504e-03
1.33833928571429e+00 2.98496517330115e-01 3.31975425414978e-03
1.34366071428571e+00 2.96663113855071e-01 3.30591680704100e-03
1.34898214285714e+00 2.94840971374871e-01 3.29211121863968e-03
1.35430357142857e+00 2.93030020723093e-01 3.27833777443815e-03
1.35962500000000e+00 2.91230193158145e-01 3.26459674750132e-03
1.36494642857143e+00 2.89441420373357e-01 3.25088841535324e-03
1.37026785714286e+00 2.87663634456082e-01 3.23721304886664e-03
1.37558928571429e+00 2.85896767923623e-01 3.22357090101309e-03
1.38091071428571e+00 2.84140753707768e-01 3.20996222404825e-03
1.38623214285714e+00 2.82395525152237e-01 3.19638726388633e-03
1.39155357142857e+00 2.80661016010171e-01 3.18284626020038e-03
1.39687500000000e+00 2.78937160441607e-01 3.16933944126812e-03
1.40219642857143e+00 2.77223893022823e-01 3.15586703992267e-03
1.40751785714286e+00 2.75521148708140e-01 3.14242928304823e-03
1.41283928571429e+00 2.73828862863353e-01 3.12902638094484e-03
1.41816071428571e+00 2.72146971251245e-01 3.11565854356172e-03
1.42348214285714e+00 2.70475410029144e-01 3.10232597517626e-03
1.42880357142857e+00 2.68814115746517e-01 3.08902887448402e-03
1.43412500000000e+00 2.67163025342550e-01 3.07576742972110e-03
1.43944642857143e+00 2.65522076154806e-01 3.06254183373729e-03
1.44476785714286e+00 2.63891205883531e-01 3.04935227406231e-03
1.45008928571429e+00 2.62270352622772e-01 3.03619892284752e-03
1.45541071428571e+00 2.60659454846810e-01 3.02308195220570e-03
1.46073214285714e+00 2.59058451407816e-01 3.01000152917734e-03
1.46605357142857e+00 2.57467281533547e-01 2.99695781581149e-03
1.47137500000000e+00 2.55885884825031e-01 2.98395096454863e-03
1.47669642857143e+00 2.54314201264588e-01 2.97098113246982e-03
1.48201785714286e+00 2.52752171182450e-01 2.95804847189914e-03
1.48733928571429e+00 2.51199735285758e-01 2.94515312088792e-03
1.49266071428571e+00 2.49656834645836e-01 2.93229521771650e-03
1.49798214285714e+00 2.48123410695948e-01 2.91947489613071e-03
1.50330357142857e+00 2.46599405229089e-01 2.90669228541412e-03
1.50862500000000e+00 2.45084760395768e-01 2.89394750601668e-03
1.51394642857143e+00 2.43579418711450e-01 2.88124068302899e-03
1.51926785714286e+00 2.42083323025317e-01 2.86857193729001e-03
1.52458928571429e+00 2.40596416547302e-01 2.85594137638302e-03
1.52991071428571e+00 2.39118642836150e-01 2.84334910834798e-03
1.53523214285714e+00 2.37649945797267e-01 2.83079523717292e-03
1.54055357142857e+00 2.36190269680605e-01 2.81827986285872e-03
1.54587500000000e+00 2.34739559078541e-01 2.80580307727940e-03
1.55119642857143e+00 2.33297758932779e-01 2.79336497692872e-03
1.55651785714286e+00 2.31864814505104e-01 2.78096565450291e-03
1.56183928571429e+00 2.30440671402596e-01 2.76860519037741e-03
1.56716071428571e+00 2.29025275566424e-01 2.75628366557852e-03
1.57248214285714e+00 2.27618573269786e-01 2.74400115751450e-03
1.57780357142857e+00 2.26220511115883e-01 2.73175774003405e-03
1.58312500000000e+00 2.24831036035885e-01 2.71955347950497e-03
1.58844642857143e+00 2.23450095295342e-01 2.70738844687501e-03
1.59376785714286e+00 2.22077636466784e-01 2.69526270970273e-03
1.59908928571429e+00 2.20713607453253e-01 2.68317632408778e-03
1.60441071428571e+00 2.19357956477779e-01 2.67112934694563e-03
1.60973214285714e+00 2.18010632081406e-01 2.65912183196424e-03
1.61505357142857e+00 2.16671583121249e-01 2.64715382965641e-03
1.62037500000000e+00 2.15340758768553e-01 2.63522538364478e-03
1.62569642857143e+00 2.14018108514639e-01 2.62333654207789e-03
1.63101785714286e+00 2.12703582145225e-01 2.61148735008312e-03
1.63633928571429e+00 2.11397129762402e-01 2.59967784212424e-03
1.64166071428571e+00 2.10098701774741e-01 2.58790805361925e-03
1.64698214285714e+00 2.08808248895406e-01 2.57617801711040e-03
1.65230357142857e+00 2.07525722140288e-01 2.56448776231188e-03
1.65762500000000e+00 2.06251072826148e-01 2.55283731258891e-03
1.66294642857143e+00 2.04984252576144e-01 2.54122669576598e-03
1.66826785714286e+00 2.03725213295747e-01 2.52965593697804e-03
1.67358928571429e+00 2.02473907193274e-01 2.51812505143107e-03
1.67891071428571e+00 2.01230286770583e-01 2.50663405540185e-03
