Energy (eV)          EEDF (eV^-(3/2))     First Anisotropy
3.25000000000000e-02 1.80034791995212e-01 1.58069905925783e-04
9.75000000000000e-02 1.76602872109633e-01 2.59402567609185e-04
1.62500000000000e-01 1.73236373323919e-01 3.38186830925263e-04
2.27500000000000e-01 1.69934048545910e-01 3.95512920499382e-04
2.92500000000000e-01 1.66694674456205e-01 4.41276701353546e-04
3.57500000000000e-01 1.63517051054977e-01 4.79291334510962e-04
4.22500000000000e-01 1.60400001217440e-01 5.11565765122509e-04
4.87500000000000e-01 1.57342370257794e-01 5.39334184474740e-04
5.52500000000000e-01 1.54343025501481e-01 5.63428851960066e-04
6.17500000000000e-01 1.51400855865591e-01 5.84447516854176e-04
6.82500000000000e-01 1.48514771447276e-01 6.02839565951372e-04
7.47500000000000e-01 1.45683703120001e-01 6.18954766998941e-04
8.12500000000000e-01 1.42906602137492e-01 6.33072862031480e-04
8.77500000000000e-01 1.40182439745243e-01 6.45422542534679e-04
9.42500000000000e-01 1.37510206799419e-01 6.56194159520719e-04
1.00750000000000e+00 1.34888913393025e-01 6.65548547541115e-04
1.07250000000000e+00 1.32317588489204e-01 6.73623337043817e-04
1.13750000000000e+00 1.29795279561528e-01 6.80537586378823e-04
1.20250000000000e+00 1.27321052241137e-01 6.86395256063091e-04
1.26750000000000e+00 1.24893989970613e-01 6.91287864873115e-04
1.33250000000000e+00 1.22513193664447e-01 6.95296554790244e-04
1.39750000000000e+00 1.20177781375980e-01 6.98493720416966e-04
1.46250000000000e+00 1.17886887970697e-01 7.00944311910451e-04
1.52750000000000e+00 1.15639664805738e-01 7.02706889356502e-04
1.59250000000000e+00 1.13435279415531e-01 7.03834485252432e-04
1.65750000000000e+00 1.11272915203411e-01 7.04375316966427e-04
1.72250000000000e+00 1.09151771139113e-01 7.04373380552144e-04
1.78750000000000e+00 1.07071061462044e-01 7.03868949744791e-04
1.85250000000000e+00 1.05030015390203e-01 7.02898998447070e-04
1.91750000000000e+00 1.03027876834645e-01 7.01497560928637e-04
1.98250000000000e+00 1.01063904119403e-01 6.99696040901077e-04
2.04750000000000e+00 9.91373697067312e-02 6.97523478310124e-04
2.11250000000000e+00 9.72475599276028e-02 6.95006780909818e-04
2.17750000000000e+00 9.53937747173313e-02 6.92170926308931e-04
2.24250000000000e+00 9.35753273562396e-02 6.89039139107701e-04
2.30750000000000e+00 9.17915442152697e-02 6.85633046899088e-04
2.37250000000000e+00 9.00417645064428e-02 6.81972818239694e-04
2.43750000000000e+00 8.83253400380751e-02 6.78077285160412e-04
2.50250000000000e+00 8.66416349746608e-02 6.73964052356908e-04
2.56750000000000e+00 8.49900256013321e-02 6.69649594851724e-04
2.63250000000000e+00 8.33699000928090e-02 6.65149345635796e-04
2.69750000000000e+00 8.17806582867532e-02 6.60477774564536e-04
2.76250000000000e+00 8.02217114614435e-02 6.55648459591964e-04
2.82750000000000e+00 7.86924821176881e-02 6.50674151267601e-04
2.89250000000000e+00 7.71924037648953e-02 6.45566831288609e-04
2.95750000000000e+00 7.57209207112207e-02 6.40337765788949e-04
3.02250000000000e+00 7.42774878577166e-02 6.34997553954508e-04
3.08750000000000e+00 7.28615704964042e-02 6.29556172474897e-04
3.15250000000000e+00 7.14726441121952e-02 6.24023016275877e-04
3.21750000000000e+00 7.01101941885897e-02 6.18406935920117e-04
3.28250000000000e+00 6.87737160170774e-02 6.12716272015701e-04
3.34750000000000e+00 6.74627145101728e-02 6.06958886930377e-04
3.41250000000000e+00 6.61767040180141e-02 6.01142194074181e-04
3.47750000000000e+00 6.49152081484576e-02 5.95273184982284e-04
3.54250000000000e+00 6.36777595906028e-02 5.89358454403473e-04
3.60750000000000e+00 6.24638999416802e-02 5.83404223576579e-04
3.67250000000000e+00 6.12731795372404e-02 5.77416361857285e-04
3.73750000000000e+00 6.01051572845791e-02 5.71400406840169e-04
3.80250000000000e+00 5.89594004993379e-02 5.65361583105449e-04
3.86750000000000e+00 5.78354847452200e-02 5.59304819706642e-04
3.93250000000000e+00 5.67329936767614e-02 5.53234766503498e-04
3.99750000000000e+00 5.56515188850986e-02 5.47155809434018e-04
4.06250000000000e+00 5.45906597466775e-02 5.41072084810325e-04
4.12750000000000e+00 5.35500232748452e-02 5.34987492714975e-04
4.19250000000000e+00 5.25292239742714e-02 5.28905709566912e-04
4.25750000000000e+00 5.15278836981447e-02 5.22830199920015e-04
4.32250000000000e+00 5.05456315080915e-02 5.16764227551318e-04
4.38750000000000e+00 4.95821035367646e-02 5.10710865890936e-04
4.45250000000000e+00 4.86369428530514e-02 5.04673007841064e-04
4.51750000000000e+00 4.77097993298521e-02 4.98653375027342e-04
4.58250000000000e+00 4.68003295143776e-02 4.92654526522174e-04
4.64750000000000e+00 4.59081965009202e-02 4.86678867076244e-04
4.71250000000000e+00 4.50330698060498e-02 4.80728654891486e-04
4.77750000000000e+00 4.41746252461891e-02 4.74806008966081e-04
4.84250000000000e+00 4.33325448175219e-02 4.68912916039547e-04
4.90750000000000e+00 4.25065165781918e-02 4.63051237163768e-04
4.97250000000000e+00 4.16962345327453e-02 4.57222713923883e-04
5.03750000000000e+00 4.09013985187789e-02 4.51428974331050e-04
5.10250000000000e+00 4.01217140957458e-02 4.45671538407417e-04
5.16750000000000e+00 3.93568924358830e-02 4.39951823482185e-04
5.23250000000000e+00 3.86066502172175e-02 4.34271149216214e-04
5.29750000000000e+00 3.78707095186120e-02 4.28630742371362e-04
5.36250000000000e+00 3.71487977168109e-02 4.23031741339664e-04
5.42750000000000e+00 3.64406473854498e-02 4.17475200446233e-04
5.49250000000000e+00 3.57459961959890e-02 4.11962094038986e-04
5.55750000000000e+00 3.50645868205366e-02 4.06493320377268e-04
5.62250000000000e+00 3.43961668365227e-02 4.01069705330708e-04
5.68750000000000e+00 3.37404886331925e-02 3.95692005898841e-04
5.75250000000000e+00 3.30973093198801e-02 3.90360913561356e-04
5.81750000000000e+00 3.24663906360319e-02 3.85077057468133e-04
5.88250000000000e+00 3.18474988629450e-02 3.79841007477763e-04
5.94750000000000e+00 3.12404047371878e-02 3.74653277052595e-04
6.01250000000000e+00 3.06448833656716e-02 3.69514326017846e-04
6.07750000000000e+00 3.00607141423403e-02 3.64424563191910e-04
6.14250000000000e+00 2.94876806664489e-02 3.59384348894490e-04
6.20750000000000e+00 2.89255706623998e-02 3.54393997338845e-04
6.27250000000000e+00 2.83741759011067e-02 3.49453778914047e-04
6.33750000000000e+00 2.78332921228580e-02 3.44563922362716e-04
6.40250000000000e+00 2.73027189616504e-02 3.39724616859517e-04
6.46750000000000e+00 2.67822598709649e-02 3.34936013995288e-04
6.53250000000000e+00 2.62717220509579e-02 3.30198229671446e-04
6.59750000000000e+00 2.57709163770399e-02 3.25511345909021e-04
6.66250000000000e+00 2.52796573298158e-02 3.20875412576445e-04
6.72750000000000e+00 2.47977629263611e-02 3.16290449040019e-04
6.79250000000000e+00 2.43250546528072e-02 3.11756445740668e-04
6.85750000000000e+00 2.38613573982130e-02 3.07273365700525e-04
6.92250000000000e+00 2.34064993896960e-02 3.02841145962614e-04
6.98750000000000e+00 2.29603121288007e-02 2.98459698966724e-04
7.05250000000000e+00 2.25226303290798e-02 2.94128913864454e-04
7.11750000000000e+00 2.20932918548647e-02 2.89848657776238e-04
7.18250000000000e+00 2.16721376612042e-02 2.85618776992935e-04
7.24750000000000e+00 2.12590117349474e-02 2.81439098124562e-04
7.31250000000000e+00 2.08537610369497e-02 2.77309429198544e-04
7.37750000000000e+00 2.04562354453810e-02 2.73229560709710e-04
7.44250000000000e+00 2.00662877001141e-02 2.69199266624229e-04
7.50750000000000e+00 1.96837733481734e-02 2.65218305339498e-04
7.57250000000000e+00 1.93085506902235e-02 2.61286420601964e-04
7.63750000000000e+00 1.89404807280778e-02 2.57403342384696e-04
7.70250000000000e+00 1.85794271132079e-02 2.53568787726454e-04
7.76750000000000e+00 1.82252560962340e-02 2.49782461533970e-04
7.83250000000000e+00 1.78778364773792e-02 2.46044057349027e-04
7.89750000000000e+00 1.75370395578669e-02 2.42353258081814e-04
7.96250000000000e+00 1.72027390922457e-02 2.38709736712033e-04
8.02750000000000e+00 1.68748112416230e-02 2.35113156959171e-04
8.09250000000000e+00 1.65531345277895e-02 2.31563173923174e-04
8.15750000000000e+00 1.62375897882187e-02 2.28059434696848e-04
8.22250000000000e+00 1.59280601319243e-02 2.24601578951147e-04
8.28750000000000e+00 1.56244308961589e-02 2.21189239494497e-04
8.35250000000000e+00 1.53265896039375e-02 2.17822042807244e-04
8.41750000000000e+00 1.50344259223723e-02 2.14499609552294e-04
8.48250000000000e+00 1.47478316218000e-02 2.11221555062897e-04
8.54750000000000e+00 1.44667005356893e-02 2.07987489808554e-04
8.61250000000000e+00 1.41909285213122e-02 2.04797019839958e-04
8.67750000000000e+00 1.39204134211656e-02 2.01649747213816e-04
8.74250000000000e+00 1.36550550251274e-02 1.98545270398404e-04
8.80750000000000e+00 1.33947550333346e-02 1.95483184660647e-04
8.87250000000000e+00 1.31394170197691e-02 1.92463082435472e-04
8.93750000000000e+00 1.28889463965373e-02 1.89484553678168e-04
9.00250000000000e+00 1.26432503788308e-02 1.86547186200458e-04
9.06750000000000e+00 1.24022379505552e-02 1.83650565990953e-04
9.13250000000000e+00 1.21658198306134e-02 1.80794277520597e-04
9.19750000000000e+00 1.19339084398329e-02 1.77977904033757e-04
9.26250000000000e+00 1.17064178685223e-02 1.75201027825507e-04
9.32750000000000e+00 1.14832638446467e-02 1.72463230505690e-04
9.39250000000000e+00 1.12643637026103e-02 1.69764093250307e-04
9.45750000000000e+00 1.10496363526329e-02 1.67103197040708e-04
9.52250000000000e+00 1.08390022507116e-02 1.64480122891109e-04
9.58750000000000e+00 1.06323833691538e-02 1.61894452064929e-04
9.65250000000000e+00 1.04297031676727e-02 1.59345766280353e-04
9.71750000000000e+00 1.02308865650335e-02 1.56833647905605e-04
9.78250000000000e+00 1.00358599112404e-02 1.54357680144308e-04
9.84750000000000e+00 9.84455096025324e-03 1.51917447211361e-04
9.91250000000000e+00 9.65688884322462e-03 1.49512534499721e-04
9.97750000000000e+00 9.47280404224728e-03 1.47142528738439e-04
1.00425000000000e+01 9.29222836460159e-03 1.44807018142331e-04
1.01075000000000e+01 9.11509491749416e-03 1.42505592553594e-04
1.01725000000000e+01 8.94133808327796e-03 1.40237843575717e-04
1.02375000000000e+01 8.77089349514478e-03 1.38003364700009e-04
1.03025000000000e+01 8.60369801328107e-03 1.35801751425022e-04
1.03675000000000e+01 8.43968970147834e-03 1.33632601369176e-04
1.04325000000000e+01 8.27880780418932e-03 1.31495514376853e-04
1.04975000000000e+01 8.12099272402165e-03 1.29390092618245e-04
1.05625000000000e+01 7.96618599966044e-03 1.27315940683195e-04
1.06275000000000e+01 7.81433028421179e-03 1.25272665669294e-04
1.06925000000000e+01 7.66536932395910e-03 1.23259877264456e-04
1.07575000000000e+01 7.51924793752430e-03 1.21277187824209e-04
1.08225000000000e+01 7.37591199542639e-03 1.19324212443929e-04
1.08875000000000e+01 7.23530840002962e-03 1.17400569026209e-04
1.09525000000000e+01 7.09738506587386e-03 1.15505878343573e-04
1.10175000000000e+01 6.96209090038002e-03 1.13639764096749e-04
1.10825000000000e+01 6.82937578492317e-03 1.11801852968655e-04
1.11475000000000e+01 6.69919055626652e-03 1.09991774674296e-04
1.12125000000000e+01 6.57148698834932e-03 1.08209162006756e-04
1.12775000000000e+01 6.44621777442188e-03 1.06453650879438e-04
1.13425000000000e+01 6.32333650952116e-03 1.04724880364701e-04
1.14075000000000e+01 6.20279767328048e-03 1.03022492729072e-04
1.14725000000000e+01 6.08455661306679e-03 1.01346133465168e-04
1.15375000000000e+01 5.96856952743955e-03 9.96954513204679e-05
1.16025000000000e+01 5.85479344992479e-03 9.80700983230926e-05
1.16675000000000e+01 5.74318623309853e-03 9.64697298046822e-05
1.17325000000000e+01 5.63370653297362e-03 9.48940044205396e-05
1.17975000000000e+01 5.52631379368422e-03 9.33425841671467e-05
1.18625000000000e+01 5.42096823246214e-03 9.18151343971577e-05
1.19275000000000e+01 5.31763082489972e-03 9.03113238320055e-05
1.19925000000000e+01 5.21626329049349e-03 8.88308245722105e-05
1.20575000000000e+01 5.11682807846352e-03 8.73733121055056e-05
1.21225000000000e+01 5.01928835384298e-03 8.59384653128756e-05
1.21875000000000e+01 4.92360798383298e-03 8.45259664726051e-05
1.22525000000000e+01 4.82975152441745e-03 8.31355012624309e-05
1.23175000000000e+01 4.73768420723318e-03 8.17667587598849e-05
1.23825000000000e+01 4.64737192669016e-03 8.04194314409164e-05
1.24475000000000e+01 4.55878122733747e-03 7.90932151768708e-05
1.25125000000000e+01 4.47187929146995e-03 7.77878092299130e-05
1.25775000000000e+01 4.38663392697116e-03 7.65029162469634e-05
1.26425000000000e+01 4.30301355538808e-03 7.52382422522198e-05
1.27075000000000e+01 4.22098720023310e-03 7.39934966383432e-05
1.27725000000000e+01 4.14052447550908e-03 7.27683921563654e-05
1.28375000000000e+01 4.06159557445306e-03 7.15626449043958e-05
1.29025000000000e+01 3.98417125849459e-03 7.03759743151730e-05
1.29675000000000e+01 3.90822284642457e-03 6.92081031425341e-05
1.30325000000000e+01 3.83372220377049e-03 6.80587574468641e-05
1.30975000000000e+01 3.76064173237430e-03 6.69276665795600e-05
1.31625000000000e+01 3.68895436016881e-03 6.58145631665830e-05
1.32275000000000e+01 3.61863353114916e-03 6.47191830911467e-05
1.32925000000000e+01 3.54965319553528e-03 6.36412654755787e-05
1.33575000000000e+01 3.48198780012202e-03 6.25805526624124e-05
1.34225000000000e+01 3.41561227881314e-03 6.15367901947600e-05
1.34875000000000e+01 3.35050204333578e-03 6.05097267959947e-05
1.35525000000000e+01 3.28663297413194e-03 5.94991143487970e-05
1.36175000000000e+01 3.22398141142362e-03 5.85047078736031e-05
1.36825000000000e+01 3.16252414644816e-03 5.75262655064854e-05
1.37475000000000e+01 3.10223841286084e-03 5.65635484765151e-05
1.38125000000000e+01 3.04310187830122e-03 5.56163210826343e-05
1.38775000000000e+01 2.98509263612030e-03 5.46843506700691e-05
1.39425000000000e+01 2.92818919726538e-03 5.37674076063298e-05
1.40075000000000e+01 2.87237048231965e-03 5.28652652568130e-05
1.40725000000000e+01 2.81761581369343e-03 5.19776999600424e-05
1.41375000000000e+01 2.76390490796437e-03 5.11044910025868e-05
1.42025000000000e+01 2.71121786836363e-03 5.02454205936685e-05
1.42675000000000e+01 2.65953517740524e-03 4.94002738394951e-05
1.43325000000000e+01 2.60883768965602e-03 4.85688387173383e-05
1.43975000000000e+01 2.55910662464335e-03 4.77509060493885e-05
1.44625000000000e+01 2.51032355989804e-03 4.69462694764070e-05
1.45275000000000e+01 2.46247042412991e-03 4.61547254311907e-05
1.45925000000000e+01 2.41552949053341e-03 4.53760731118792e-05
1.46575000000000e+01 2.36948337022089e-03 4.46101144551248e-05
1.47225000000000e+01 2.32431500578101e-03 4.38566541091404e-05
1.47875000000000e+01 2.28000766495995e-03 4.31154994066443e-05
1.48525000000000e+01 2.23654493446311e-03 4.23864603377256e-05
1.49175000000000e+01 2.19391071387494e-03 4.16693495226404e-05
1.49825000000000e+01 2.15208920969462e-03 4.09639821845573e-05
1.50475000000000e+01 2.11106492948557e-03 4.02701761222724e-05
1.51125000000000e+01 2.07082267613632e-03 3.95877516829003e-05
1.51775000000000e+01 2.03134754223091e-03 3.89165317345631e-05
1.52425000000000e+01 1.99262490452656e-03 3.82563416390878e-05
1.53075000000000e+01 1.95464041853658e-03 3.76070092247227e-05
1.53725000000000e+01 1.91738001321659e-03 3.69683647588914e-05
1.54375000000000e+01 1.88082988575203e-03 3.63402409209880e-05
1.55025000000000e+01 1.84497649644500e-03 3.57224727752304e-05
1.55675000000000e+01 1.80980656369856e-03 3.51148977435829e-05
1.56325000000000e+01 1.77530705909676e-03 3.45173555787539e-05
1.56975000000000e+01 1.74146520257826e-03 3.39296883372825e-05
1.57625000000000e+01 1.70826845770213e-03 3.33517403527196e-05
1.58275000000000e+01 1.67570452700383e-03 3.27833582089131e-05
1.58925000000000e+01 1.64376134743966e-03 3.22243907134103e-05
1.59575000000000e+01 1.61242708591815e-03 3.16746888709766e-05
1.60225000000000e+01 1.58169013491659e-03 3.11341058572445e-05
1.60875000000000e+01 1.55153910818107e-03 3.06024969924975e-05
1.61525000000000e+01 1.52196283650859e-03 3.00797197155958e-05
1.62175000000000e+01 1.49295036360950e-03 2.95656335580510e-05
1.62825000000000e+01 1.46449094204880e-03 2.90601001182519e-05
1.63475000000000e+01 1.43657402926489e-03 2.85629830358519e-05
1.64125000000000e+01 1.40918928366413e-03 2.80741479663207e-05
1.64775000000000e+01 1.38232656078991e-03 2.75934625556647e-05
1.65425000000000e+01 1.35597590956467e-03 2.71207964153219e-05
1.66075000000000e+01 1.33012756860365e-03 2.66560210972345e-05
1.66725000000000e+01 1.30477196259886e-03 2.61990100691038e-05
1.67375000000000e+01 1.27989969877195e-03 2.57496386898324e-05
1.68025000000000e+01 1.25550156339476e-03 2.53077841851534e-05
1.68675000000000e+01 1.23156851837619e-03 2.48733256234544e-05
1.69325000000000e+01 1.20809169791405e-03 2.44461438917962e-05
1.69975000000000e+01 1.18506240521084e-03 2.40261216721285e-05
1.70625000000000e+01 1.16247210925212e-03 2.36131434177093e-05
1.71275000000000e+01 1.14031244164617e-03 2.32070953297252e-05
1.71925000000000e+01 1.11857519352410e-03 2.28078653341178e-05
1.72575000000000e+01 1.09725231249886e-03 2.24153430586181e-05
1.73225000000000e+01 1.07633589968232e-03 2.20294198099871e-05
1.73875000000000e+01 1.05581820675922e-03 2.16499885514710e-05
1.74525000000000e+01 1.03569163311683e-03 2.12769438804645e-05
1.75175000000000e+01 1.01594872302939e-03 2.09101820063881e-05
1.75825000000000e+01 9.96582162896176e-04 2.05496007287812e-05
1.76475000000000e+01 9.77584778532264e-04 2.01950994156090e-05
1.77125000000000e+01 9.58949532510885e-04 1.98465789817848e-05
1.77775000000000e+01 9.40669521556484e-04 1.95039418679093e-05
1.78425000000000e+01 9.22737973987447e-04 1.91670920192271e-05
1.79075000000000e+01 9.05148247207595e-04 1.88359348647995e-05
1.79725000000000e+01 8.87893825245483e-04 1.85103772968956e-05
1.80375000000000e+01 8.70968316340614e-04 1.81903276506011e-05
1.81025000000000e+01 8.54365450575660e-04 1.78756956836441e-05
1.81675000000000e+01 8.38079077553825e-04 1.75663925564391e-05
1.82325000000000e+01 8.22103164120482e-04 1.72623308123482e-05
1.82975000000000e+01 8.06431792128233e-04 1.69634243581597e-05
1.83625000000000e+01 7.91059156244586e-04 1.66695884447824e-05
1.84275000000000e+01 7.75979561801416e-04 1.63807396481575e-05
1.84925000000000e+01 7.61187422685418e-04 1.60967958503855e-05
1.85575000000000e+01 7.46677259268779e-04 1.58176762210691e-05
1.86225000000000e+01 7.32443696379293e-04 1.55433011988693e-05
1.86875000000000e+01 7.18481461309176e-04 1.52735924732755e-05
1.87525000000000e+01 7.04785381861828e-04 1.50084729665884e-05
1.88175000000000e+01 6.91350384435839e-04 1.47478668161164e-05
1.88825000000000e+01 6.78171492145515e-04 1.44916993565805e-05
1.89475000000000e+01 6.65243822977229e-04 1.42398971027308e-05
1.90125000000000e+01 6.52562587980919e-04 1.39923877321720e-05
1.90775000000000e+01 6.40123089496062e-04 1.37491000683955e-05
1.91425000000000e+01 6.27920719411460e-04 1.35099640640180e-05
1.92075000000000e+01 6.15950957458208e-04 1.32749107842276e-05
1.92725000000000e+01 6.04209369535193e-04 1.30438723904318e-05
1.93375000000000e+01 5.92691606066519e-04 1.28167821241100e-05
1.94025000000000e+01 5.81393400390241e-04 1.25935742908654e-05
1.94675000000000e+01 5.70310567177817e-04 1.23741842446793e-05
1.95325000000000e+01 5.59439000883682e-04 1.21585483723629e-05
1.95975000000000e+01 5.48774674224388e-04 1.19466040782058e-05
1.96625000000000e+01 5.38313636686725e-04 1.17382897688221e-05
1.97275000000000e+01 5.28052013064289e-04 1.15335448381891e-05
1.97925000000000e+01 5.17986002021941e-04 1.13323096528796e-05
1.98575000000000e+01 5.08111874687633e-04 1.11345255374854e-05
1.99225000000000e+01 4.98425973271078e-04 1.09401347602299e-05
1.99875000000000e+01 4.88924709708753e-04 1.07490805187698e-05
2.00525000000000e+01 4.79604564334729e-04 1.05613069261818e-05
2.01175000000000e+01 4.70462084576837e-04 1.03767589971360e-05
2.01825000000000e+01 4.61493883677696e-04 1.01953826342510e-05
2.02475000000000e+01 4.52696639440109e-04 1.00171246146318e-05
2.03125000000000e+01 4.44067092996389e-04 9.84193257658583e-06
2.03775000000000e+01 4.35602047601134e-04 9.66975500651873e-06
2.04425000000000e+01 4.27298367447019e-04 9.50054122600640e-06
2.05075000000000e+01 4.19152976503162e-04 9.33424137904158e-06
