Energy (eV)          EEDF (eV^-(3/2))     First Anisotropy
1.98214285714286e-03 2.18966271533464e+00 1.07835744167397e-03
5.94642857142857e-03 2.17617143188927e+00 1.78117692494510e-03
9.91071428571429e-03 2.16276327297760e+00 2.35268639951392e-03
1.38750000000000e-02 2.14943772649656e+00 2.78767786072099e-03
1.78392857142857e-02 2.13619428332248e+00 3.15113833607120e-03
2.18035714285714e-02 2.12303243768847e+00 3.46761288738188e-03
2.57678571428571e-02 2.10995168683531e+00 3.74979101721462e-03
2.97321428571429e-02 2.09695153110533e+00 4.00532811789013e-03
3.36964285714286e-02 2.08403147392009e+00 4.23929651599861e-03
3.76607142857143e-02 2.07119102176317e+00 4.45527780940580e-03
4.16250000000000e-02 2.05842968415915e+00 4.65592076519707e-03
4.55892857142857e-02 2.04574697362711e+00 4.84325465886225e-03
4.95535714285714e-02 2.03314240574815e+00 5.01887812846912e-03
5.35178571428571e-02 2.02061549905697e+00 5.18407938131157e-03
5.74821428571429e-02 2.00816577505496e+00 5.33991610661058e-03
6.14464285714286e-02 1.99579275819156e+00 5.48727055039101e-03
6.54107142857143e-02 1.98349597584672e+00 5.62688861564345e-03
6.93750000000000e-02 1.97127495831241e+00 5.75940833737569e-03
7.33392857142857e-02 1.95912923875849e+00 5.88538106851215e-03
7.73035714285714e-02 1.94705835326468e+00 6.00528755805448e-03
8.12678571428571e-02 1.93506184075167e+00 6.11955035235655e-03
8.52321428571429e-02 1.92313924298107e+00 6.22854349326958e-03
8.91964285714286e-02 1.91129010453774e+00 6.33260021631852e-03
9.31607142857143e-02 1.89951397281273e+00 6.43201912720344e-03
9.71250000000000e-02 1.88781039798576e+00 6.52706921339605e-03
1.01089285714286e-01 1.87617893299690e+00 6.61799394907182e-03
1.05053571428571e-01 1.86461913351950e+00 6.70501466048287e-03
1.09017857142857e-01 1.85313055811537e+00 6.78833340088256e-03
1.12982142857143e-01 1.84171276784346e+00 6.86813529967918e-03
1.16946428571429e-01 1.83036532657249e+00 6.94459051422424e-03
1.20910714285714e-01 1.81908780095080e+00 7.01785602008759e-03
1.24875000000000e-01 1.80787976011205e+00 7.08807702676687e-03
1.28839285714286e-01 1.79674077593731e+00 7.15538820356790e-03
1.32803571428571e-01 1.78567042294539e+00 7.21991479198034e-03
1.36767857142857e-01 1.77466827835595e+00 7.28177357089223e-03
1.40732142857143e-01 1.76373392183381e+00 7.34107365335799e-03
1.44696428571429e-01 1.75286693571340e+00 7.39791716944981e-03
1.48660714285714e-01 1.74206690497402e+00 7.45239997254670e-03
1.52625000000000e-01 1.73133341700910e+00 7.50461216301547e-03
1.56589285714286e-01 1.72066606182604e+00 7.55463856023216e-03
1.60553571428571e-01 1.71006443195831e+00 7.60255916801157e-03
1.64517857142857e-01 1.69952812251275e+00 7.64844958861901e-03
1.68482142857143e-01 1.68905673096448e+00 7.69238135304404e-03
1.72446428571429e-01 1.67864985733188e+00 7.73442220439138e-03
1.76410714285714e-01 1.66830710415522e+00 7.77463644561626e-03
1.80375000000000e-01 1.65802807630873e+00 7.81308516450192e-03
1.84339285714286e-01 1.64781238115882e+00 7.84982644459125e-03
1.88303571428571e-01 1.63765962849105e+00 7.88491559677706e-03
1.92267857142857e-01 1.62756943054650e+00 7.91840536854872e-03
1.96232142857143e-01 1.61754140185224e+00 7.95034609866955e-03
2.00196428571429e-01 1.60757515936194e+00 7.98078584710631e-03
2.04160714285714e-01 1.59767032243672e+00 8.00977059637980e-03
2.08125000000000e-01 1.58782651268815e+00 8.03734435653241e-03
2.12089285714286e-01 1.57804335410677e+00 8.06354926844658e-03
2.16053571428571e-01 1.56832047299982e+00 8.08842573491121e-03
2.20017857142857e-01 1.55865749801982e+00 8.11201254019717e-03
2.23982142857143e-01 1.54905406002122e+00 8.13434692807288e-03
2.27946428571429e-01 1.53950979217596e+00 8.15546466404830e-03
2.31910714285714e-01 1.53002432995597e+00 8.17540016715804e-03
2.35875000000000e-01 1.52059731099942e+00 8.19418656032484e-03
2.39839285714286e-01 1.51122837521714e+00 8.21185572361182e-03
2.43803571428571e-01 1.50191716473859e+00 8.22843837622944e-03
2.47767857142857e-01 1.49266332393452e+00 8.24396415176956e-03
2.51732142857143e-01 1.48346649929383e+00 8.25846163904180e-03
2.55696428571429e-01 1.47432633952005e+00 8.27195841143127e-03
2.59660714285714e-01 1.46524249551519e+00 8.28448112146829e-03
2.63625000000000e-01 1.45621462026408e+00 8.29605552407574e-03
2.67589285714286e-01 1.44724236892381e+00 8.30670650439760e-03
2.71553571428571e-01 1.43832539877614e+00 8.31645813338689e-03
2.75517857142857e-01 1.42946336924569e+00 8.32533371894217e-03
2.79482142857143e-01 1.42065594179273e+00 8.33335582726866e-03
2.83446428571429e-01 1.41190277999478e+00 8.34054629512916e-03
2.87410714285714e-01 1.40320354953159e+00 8.34692630250145e-03
2.91375000000000e-01 1.39455791808391e+00 8.35251638150057e-03
2.95339285714286e-01 1.38596555540956e+00 8.35733643044374e-03
2.99303571428571e-01 1.37742613330109e+00 8.36140575403385e-03
3.03267857142857e-01 1.36893932560041e+00 8.36474310035699e-03
3.07232142857143e-01 1.36050480810445e+00 8.36736667144856e-03
3.11196428571429e-01 1.35212225863499e+00 8.36929412621776e-03
3.15160714285714e-01 1.34379135702448e+00 8.37054263913025e-03
3.19125000000000e-01 1.33551178502670e+00 8.37112890124874e-03
3.23089285714286e-01 1.32728322638202e+00 8.37106912648376e-03
3.27053571428571e-01 1.31910536677941e+00 8.37037908218372e-03
3.31017857142857e-01 1.31097789386816e+00 8.36907411728841e-03
3.34982142857143e-01 1.30290049717434e+00 8.36716916666236e-03
3.38946428571429e-01 1.29487286816085e+00 8.36467874879154e-03
3.42910714285714e-01 1.28689470021412e+00 8.36161701493174e-03
3.46875000000000e-01 1.27896568856462e+00 8.35799774571489e-03
3.50839285714286e-01 1.27108553034324e+00 8.35383435282070e-03
3.54803571428571e-01 1.26325392454698e+00 8.34913990324211e-03
3.58767857142857e-01 1.25547057204839e+00 8.34392714159801e-03
3.62732142857143e-01 1.24773517552089e+00 8.33820849076567e-03
3.66696428571429e-01 1.24004743949096e+00 8.33199604662350e-03
3.70660714285714e-01 1.23240707032552e+00 8.32530162032110e-03
3.74625000000000e-01 1.22481377616074e+00 8.31813673238085e-03
3.78589285714286e-01 1.21726726695109e+00 8.31051261163608e-03
3.82553571428571e-01 1.20976725443811e+00 8.30244021512397e-03
3.86517857142857e-01 1.20231345215807e+00 8.29393024634821e-03
3.90482142857143e-01 1.19490557537477e+00 8.28499315368307e-03
3.94446428571429e-01 1.18754334112515e+00 8.27563912347544e-03
3.98410714285714e-01 1.18022646820731e+00 8.26587811711170e-03
4.02375000000000e-01 1.17295467711639e+00 8.25571986374495e-03
4.06339285714286e-01 1.16572769008748e+00 8.24517385758927e-03
4.10303571428571e-01 1.15854523106710e+00 8.23424937465524e-03
4.14267857142857e-01 1.15140702571927e+00 8.22295548809487e-03
4.18232142857143e-01 1.14431280136484e+00 8.21130106526154e-03
4.22196428571429e-01 1.13726228702152e+00 8.19929475994618e-03
4.26160714285714e-01 1.13025521339248e+00 8.18694504536031e-03
4.30125000000000e-01 1.12329131280832e+00 8.17426020616385e-03
4.34089285714286e-01 1.11637031926479e+00 8.16124833478051e-03
4.38053571428571e-01 1.10949196839661e+00 8.14791734577219e-03
4.42017857142857e-01 1.10265599748228e+00 8.13427498900161e-03
4.45982142857143e-01 1.09586214538901e+00 8.12032884589529e-03
4.49946428571429e-01 1.08911015260798e+00 8.10608632129039e-03
4.53910714285714e-01 1.08239976124356e+00 8.09155467310614e-03
4.57875000000000e-01 1.07573071496051e+00 8.07674100408171e-03
4.61839285714286e-01 1.06910275901732e+00 8.06165225753690e-03
4.65803571428571e-01 1.06251564024200e+00 8.04629522992039e-03
4.69767857142857e-01 1.05596910703592e+00 8.03067658228434e-03
4.73732142857143e-01 1.04946290932363e+00 8.01480283610353e-03
4.77696428571429e-01 1.04299679858399e+00 7.99868036502342e-03
4.81660714285714e-01 1.03657052784000e+00 7.98231542177673e-03
4.85625000000000e-01 1.03018385161052e+00 7.96571412988723e-03
4.89589285714286e-01 1.02383652593989e+00 7.94888247914231e-03
4.93553571428571e-01 1.01752830837553e+00 7.93182633669028e-03
4.97517857142857e-01 1.01125895797086e+00 7.91455145717814e-03
5.01482142857143e-01 1.00502823523944e+00 7.89706347834807e-03
5.05446428571429e-01 9.98835902182627e-01 7.87936791286734e-03
5.09410714285714e-01 9.92681722279811e-01 7.86147017290892e-03
5.13375000000000e-01 9.86565460444326e-01 7.84337556197857e-03
5.17339285714286e-01 9.80486883049673e-01 7.82508927026948e-03
5.21303571428571e-01 9.74445757908804e-01 7.80661638458093e-03
5.25267857142857e-01 9.68441854276280e-01 7.78796189737197e-03
5.29232142857143e-01 9.62474942806240e-01 7.76913070227883e-03
5.33196428571429e-01 9.56544795576988e-01 7.75012758613857e-03
5.37160714285714e-01 9.50651186081711e-01 7.73095725155436e-03
5.41125000000000e-01 9.44793889187983e-01 7.71162430894098e-03
5.45089285714286e-01 9.38972681161137e-01 7.69213327187499e-03
5.49053571428571e-01 9.33187339645012e-01 7.67248856603684e-03
5.53017857142857e-01 9.27437643663482e-01 7.65269453736411e-03
5.56982142857143e-01 9.21723373581817e-01 7.63275544758545e-03
5.60946428571429e-01 9.16044311128610e-01 7.61267546650604e-03
5.64910714285714e-01 9.10400239386931e-01 7.59245869280833e-03
5.68875000000000e-01 9.04790942757054e-01 7.57210914637577e-03
5.72839285714286e-01 8.99216206977320e-01 7.55163076371025e-03
5.76803571428571e-01 8.93675819106210e-01 7.53102740604821e-03
5.80767857142857e-01 8.88169567523348e-01 7.51030286675671e-03
5.84732142857143e-01 8.82697241893889e-01 7.48946086694590e-03
5.88696428571429e-01 8.77258633188120e-01 7.46850504805302e-03
5.92660714285714e-01 8.71853533673024e-01 7.44743899108351e-03
5.96625000000000e-01 8.66481736877885e-01 7.42626620924564e-03
6.00589285714286e-01 8.61143037612963e-01 7.40499014348107e-03
6.04553571428571e-01 8.55837231952763e-01 7.38361416987318e-03
6.08517857142857e-01 8.50564117236595e-01 7.36214160639500e-03
6.12482142857143e-01 8.45323492035676e-01 7.34057570864047e-03
6.16446428571429e-01 8.40115156170693e-01 7.31891966272807e-03
6.20410714285714e-01 8.34938910703741e-01 7.29717660314859e-03
6.24375000000000e-01 8.29794557906539e-01 7.27534960572387e-03
6.28339285714286e-01 8.24681901277156e-01 7.25344168328294e-03
6.32303571428571e-01 8.19600745524382e-01 7.23145579245629e-03
6.36267857142857e-01 8.14550896567903e-01 7.20939483986201e-03
6.40232142857143e-01 8.09532161507865e-01 7.18726167797889e-03
6.44196428571429e-01 8.04544348640622e-01 7.16505909837662e-03
6.48160714285714e-01 7.99587267451047e-01 7.14278984831301e-03
6.52125000000000e-01 7.94660728583082e-01 7.12045662402185e-03
6.56089285714286e-01 7.89764543854765e-01 7.09806206654966e-03
6.60053571428571e-01 7.84898526243587e-01 7.07560876801157e-03
6.64017857142857e-01 7.80062489886362e-01 7.05309927728615e-03
6.67982142857143e-01 7.75256250051001e-01 7.03053609604550e-03
6.71946428571429e-01 7.70479623150663e-01 7.00792167231068e-03
6.75910714285714e-01 7.65732426736415e-01 6.98525841591711e-03
6.79875000000000e-01 7.61014479469900e-01 6.96254869212970e-03
6.83839285714286e-01 7.56325601136852e-01 6.93979481764963e-03
6.87803571428572e-01 7.51665612633367e-01 6.91699906639392e-03
6.91767857142857e-01 7.47034335965506e-01 6.89416367475497e-03
6.95732142857143e-01 7.42431594223081e-01 6.87129083779570e-03
6.99696428571429e-01 7.37857211592390e-01 6.84838270312567e-03
7.03660714285714e-01 7.33311013349200e-01 6.82544138533501e-03
7.07625000000000e-01 7.28792825833349e-01 6.80246895992983e-03
7.11589285714286e-01 7.24302476460912e-01 6.77946745951427e-03
7.15553571428571e-01 7.19839793711312e-01 6.75643887914430e-03
7.19517857142857e-01 7.15404607126702e-01 6.73338518119960e-03
7.23482142857143e-01 7.10996747287583e-01 6.71030829174679e-03
7.27446428571429e-01 7.06616045824273e-01 6.68721009472580e-03
7.31410714285714e-01 7.02262335410202e-01 6.66409244544278e-03
7.35375000000000e-01 6.97935449738276e-01 6.64095716481610e-03
7.39339285714286e-01 6.93635223531840e-01 6.61780603573220e-03
7.43303571428572e-01 6.89361492532565e-01 6.59464080801820e-03
7.47267857142857e-01 6.85114093499640e-01 6.57146320296548e-03
7.51232142857143e-01 6.80892864187069e-01 6.54827490985874e-03
7.55196428571429e-01 6.76697643354007e-01 6.52507758046448e-03
7.59160714285714e-01 6.72528270758354e-01 6.50187284166010e-03
7.63125000000000e-01 6.68384587134728e-01 6.47866228997621e-03
7.67089285714286e-01 6.64266434204348e-01 6.45544748812723e-03
7.71053571428571e-01 6.60173654663647e-01 6.43222996963779e-03
7.75017857142857e-01 6.56106092183307e-01 6.40901124305190e-03
7.78982142857143e-01 6.52063591387077e-01 6.38579278862762e-03
7.82946428571429e-01 6.48045997861113e-01 6.36257605311095e-03
7.86910714285714e-01 6.44053158147849e-01 6.33936246157182e-03
7.90875000000000e-01 6.40084919725441e-01 6.31615341223326e-03
7.94839285714286e-01 6.36141131016693e-01 6.29295027316769e-03
7.98803571428572e-01 6.32221641378333e-01 6.26975438661103e-03
8.02767857142857e-01 6.28326301099916e-01 6.24656707288838e-03
8.06732142857143e-01 6.24454961384053e-01 6.22338962726630e-03
8.10696428571429e-01 6.20607474354843e-01 6.20022331500133e-03
8.14660714285714e-01 6.16783693052011e-01 6.17706938244581e-03
8.18625000000000e-01 6.12983471411710e-01 6.15392905214720e-03
8.22589285714286e-01 6.09206664274580e-01 6.13080351970677e-03
8.26553571428571e-01 6.05453127375643e-01 6.10769395781013e-03
8.30517857142857e-01 6.01722717343103e-01 6.08460151989106e-03
8.34482142857143e-01 5.98015291679862e-01 6.06152733714004e-03
8.38446428571429e-01 5.94330708771141e-01 6.03847251381373e-03
8.42410714285714e-01 5.90668827878878e-01 6.01543813766277e-03
8.46375000000000e-01 5.87029509123770e-01 5.99242527529023e-03
8.50339285714286e-01 5.83412613492561e-01 5.96943496916748e-03
8.54303571428571e-01 5.79818002828507e-01 5.94646824140318e-03
8.58267857142857e-01 5.76245539830096e-01 5.92352609716907e-03
8.62232142857143e-01 5.72695088033747e-01 5.90060952185794e-03
8.66196428571429e-01 5.69166511820708e-01 5.87771947664105e-03
8.70160714285714e-01 5.65659676411691e-01 5.85485690826769e-03
8.74125000000000e-01 5.62174447850068e-01 5.83202274467095e-03
8.78089285714286e-01 5.58710693008458e-01 5.80921789213287e-03
8.82053571428571e-01 5.55268279579725e-01 5.78644323881199e-03
8.86017857142857e-01 5.51847076075638e-01 5.76369965795369e-03
8.89982142857143e-01 5.48446951810659e-01 5.74098800518960e-03
8.93946428571429e-01 5.45067776908184e-01 5.71830911433028e-03
8.97910714285714e-01 5.41709422295421e-01 5.69566380658289e-03
9.01875000000000e-01 5.38371759687632e-01 5.67305288638798e-03
9.05839285714286e-01 5.35054661594101e-01 5.65047713872984e-03
9.09803571428571e-01 5.31758001309628e-01 5.62793733244381e-03
9.13767857142857e-01 5.28481652913135e-01 5.60543422322411e-03
9.17732142857143e-01 5.25225491252473e-01 5.58296855106065e-03
9.21696428571429e-01 5.21989391950062e-01 5.56054103625391e-03
9.25660714285714e-01 5.18773231397998e-01 5.53815238809125e-03
9.29625000000000e-01 5.15576886743274e-01 5.51580330090449e-03
9.33589285714286e-01 5.12400235893182e-01 5.49349445151688e-03
9.37553571428571e-01 5.09243157507269e-01 5.47122650234648e-03
9.41517857142857e-01 5.06105530995905e-01 5.44900010422845e-03
9.45482142857143e-01 5.02987236506031e-01 5.42681589398194e-03
9.49446428571429e-01 4.99888154926264e-01 5.40467449063661e-03
9.53410714285714e-01 4.96808167882213e-01 5.38257650360459e-03
9.57375000000000e-01 4.93747157722609e-01 5.36052252894473e-03
9.61339285714286e-01 4.90705007524195e-01 5.33851314694077e-03
9.65303571428571e-01 4.87681601084123e-01 5.31654892501723e-03
9.69267857142857e-01 4.84676822918485e-01 5.29463042038967e-03
9.73232142857143e-01 4.81690558248937e-01 5.27275817775542e-03
9.77196428571429e-01 4.78722693007317e-01 5.25093272571852e-03
9.81160714285714e-01 4.75773113831169e-01 5.22915458449096e-03
9.85125000000000e-01 4.72841708050709e-01 5.20742426235734e-03
9.89089285714286e-01 4.69928363693258e-01 5.18574225337422e-03
9.93053571428571e-01 4.67032969476038e-01 5.16410904011050e-03
9.97017857142857e-01 4.64155414804700e-01 5.14252509614081e-03
1.00098214285714e+00 4.61295589760736e-01 5.12099088850538e-03
1.00494642857143e+00 4.58453385094801e-01 5.09950685453708e-03
1.00891071428571e+00 4.55628692268668e-01 5.07807344044128e-03
1.01287500000000e+00 4.52821403358809e-01 5.05669107525367e-03
1.01683928571429e+00 4.50031411160107e-01 5.03536017679526e-03
1.02080357142857e+00 4.47258609075101e-01 5.01408115327081e-03
1.02476785714286e+00 4.44502891215413e-01 4.99285440201435e-03
1.02873214285714e+00 4.41764152293350e-01 4.97168032200729e-03
1.03269642857143e+00 4.39042287695851e-01 4.95055926877921e-03
1.03666071428571e+00 4.36337193479540e-01 4.92949162149479e-03
1.04062500000000e+00 4.33648766291107e-01 4.90847773910886e-03
1.04458928571429e+00 4.30976903463863e-01 4.88751797051650e-03
1.04855357142857e+00 4.28321502914397e-01 4.86661265604927e-03
1.05251785714286e+00 4.25682463237027e-01 4.84576212628646e-03
1.05648214285714e+00 4.23059683602638e-01 4.82496671387160e-03
1.06044642857143e+00 4.20453063827520e-01 4.80422671089044e-03
1.06441071428571e+00 4.17862504368661e-01 4.78354243225652e-03
1.06837500000000e+00 4.15287906249405e-01 4.76291417426918e-03
1.07233928571429e+00 4.12729171149391e-01 4.74234222420281e-03
1.07630357142857e+00 4.10186201308072e-01 4.72182686170739e-03
1.08026785714286e+00 4.07658899612725e-01 4.70136835768354e-03
1.08423214285714e+00 4.05147169503969e-01 4.68096698543969e-03
1.08819642857143e+00 4.02650915039909e-01 4.66062298039729e-03
1.09216071428571e+00 4.00170040891644e-01 4.64033660000344e-03
1.09612500000000e+00 3.97704452273801e-01 4.62010808454621e-03
1.10008928571429e+00 3.95254055028381e-01 4.59993766621586e-03
1.10405357142857e+00 3.92818755534612e-01 4.57982557041816e-03
1.10801785714286e+00 3.90398460791018e-01 4.55977201470922e-03
1.11198214285714e+00 3.87993078327119e-01 4.53977721933506e-03
1.11594642857143e+00 3.85602516263233e-01 4.51984136912505e-03
1.11991071428571e+00 3.83226683306196e-01 4.49996467013974e-03
1.12387500000000e+00 3.80865488684406e-01 4.48014731260893e-03
1.12783928571429e+00 3.78518842226039e-01 4.46038947949810e-03
1.13180357142857e+00 3.76186654274772e-01 4.44069134774035e-03
1.13576785714286e+00 3.73868835766349e-01 4.42105308722804e-03
1.13973214285714e+00 3.71565298146020e-01 4.40147487077255e-03
1.14369642857143e+00 3.69275953424319e-01 4.38195683805544e-03
1.14766071428571e+00 3.67000714172992e-01 4.36249914920761e-03
1.15162500000000e+00 3.64739493464217e-01 4.34310194974391e-03
1.15558928571429e+00 3.62492204943615e-01 4.32376537866480e-03
1.15955357142857e+00 3.60258762751407e-01 4.30448956961313e-03
1.16351785714286e+00 3.58039081593902e-01 4.28527464991878e-03
1.16748214285714e+00 3.55833076666241e-01 4.26612075001418e-03
1.17144642857143e+00 3.53640663704462e-01 4.24702796932258e-03
1.17541071428571e+00 3.51461758981620e-01 4.22799642694906e-03
1.17937500000000e+00 3.49296279250885e-01 4.20902622849551e-03
1.18333928571429e+00 3.47144141813730e-01 4.19011747372565e-03
1.18730357142857e+00 3.45005264446136e-01 4.17127025765102e-03
1.19126785714286e+00 3.42879565465367e-01 4.15248466962599e-03
1.19523214285714e+00 3.40766963657643e-01 4.13376080225165e-03
1.19919642857143e+00 3.38667378326769e-01 4.11509871908841e-03
1.20316071428571e+00 3.36580729290432e-01 4.09649850262865e-03
1.20712500000000e+00 3.34506936826901e-01 4.07796022288253e-03
1.21108928571429e+00 3.32445921738750e-01 4.05948394463144e-03
1.21505357142857e+00 3.30397605283741e-01 4.04106972844884e-03
1.21901785714286e+00 3.28361909237239e-01 4.02271762984258e-03
1.22298214285714e+00 3.26338755824464e-01 4.00442770767843e-03
1.22694642857143e+00 3.24328067765924e-01 3.98619999361044e-03
1.23091071428571e+00 3.22329768273892e-01 3.96803453749271e-03
1.23487500000000e+00 3.20343781002449e-01 3.94993137763578e-03
1.23883928571429e+00 3.18370030107063e-01 3.93189054767132e-03
1.24280357142857e+00 3.16408440179827e-01 3.91391207751249e-03
1.24676785714286e+00 3.14458936307822e-01 3.89599599254203e-03
1.25073214285714e+00 3.12521444009623e-01 3.87814232158131e-03
