################################
# DATA CONSIDERED FOR THE TESTS#
################################

# elastic momentum transfer constant rate coefficient = 1.000000e-12 (m3s-1)
#                                     gas temperature = 300.000000 (K)
#                           mass of the heavy species = 40.000000 (uam)
#               decades of decay ensured for the eedf = 15 
#                 number of cells for the energy grid = 9500 

E/N(Td)              Te_th(eV)            Te_sim(eV)           RelError(Te)         RelError(EEDF)
0.00000000000000e+00 2.58519910116516e-02 2.58515737389728e-02 1.61408333558858e-05 1.74478842503030e-05 
1.00000000000000e+00 3.01268347033801e-02 3.01263489073055e-02 1.61250287110601e-05 1.74134966491065e-05 
2.00000000000000e+00 4.29513657785653e-02 4.29506751271683e-02 1.60798471602902e-05 1.73153692894062e-05 
3.00000000000000e+00 6.43255842372075e-02 6.43245473899291e-02 1.61187386119772e-05 1.73998226109267e-05 
4.00000000000000e+00 9.42494900793065e-02 9.42479656909707e-02 1.61739690526322e-05 1.75200828249813e-05 
5.00000000000000e+00 1.32723083304862e-01 1.32720944354967e-01 1.61158846074503e-05 1.73936051739701e-05 
6.00000000000000e+00 1.79746363913875e-01 1.79743461899687e-01 1.61450508640133e-05 1.74570589511297e-05 
7.00000000000000e+00 2.35319331906345e-01 2.35315532645430e-01 1.61451287650724e-05 1.74572096120822e-05 
8.00000000000000e+00 2.99441987282271e-01 2.99437185197621e-01 1.60367779200348e-05 1.72220884235356e-05 
9.00000000000000e+00 3.72114330041654e-01 3.72108290737655e-01 1.62297001530467e-05 1.76418652006088e-05 
1.00000000000000e+01 4.53336360184494e-01 4.53329013937434e-01 1.62048485527062e-05 1.75875177209880e-05 
1.10000000000000e+01 5.43108077710791e-01 5.43099283165775e-01 1.61929924759729e-05 1.75615997250446e-05 
1.20000000000000e+01 6.41429482620545e-01 6.41419098433357e-01 1.61891329748423e-05 1.75531960111195e-05 
1.30000000000000e+01 7.48300574913756e-01 7.48288531361654e-01 1.60945380846498e-05 1.73472411489567e-05 
1.40000000000000e+01 8.63721354590423e-01 8.63707438714943e-01 1.61115334317081e-05 1.73841632641777e-05 
1.50000000000000e+01 9.87691821650547e-01 9.87675892104251e-01 1.61280532523374e-05 1.74200808683421e-05 
1.60000000000000e+01 1.12021197609413e+00 1.12019389153508e+00 1.61438722626636e-05 1.74544852880625e-05 
1.70000000000000e+01 1.26128181792117e+00 1.26126143700301e+00 1.61588931732478e-05 1.74872379551035e-05 
1.80000000000000e+01 1.41090134713166e+00 1.41087860012591e+00 1.61223219457228e-05 1.74076021174103e-05 
1.90000000000000e+01 1.56907056372561e+00 1.56904523766943e+00 1.61408012929882e-05 1.74478078028286e-05 
2.00000000000000e+01 1.73578946770302e+00 1.73576142125943e+00 1.61577449996492e-05 1.74847278550685e-05 
2.10000000000000e+01 1.91105805906389e+00 1.91102722250855e+00 1.61358547909279e-05 1.74370409871579e-05 
2.20000000000000e+01 2.09487633780821e+00 2.09484249815708e+00 1.61535316042048e-05 1.74755416342849e-05 
2.30000000000000e+01 2.28724430393599e+00 2.28720739149992e+00 1.61383880180833e-05 1.74425549707552e-05 
2.40000000000000e+01 2.48816195744723e+00 2.48812183085325e+00 1.61270024468895e-05 1.74177799925394e-05 
2.50000000000000e+01 2.69762929834192e+00 2.69758574464524e+00 1.61451748410533e-05 1.74573372224700e-05 
2.60000000000000e+01 2.91564632662007e+00 2.91559906108944e+00 1.62109958936110e-05 1.76009476056723e-05 
2.70000000000000e+01 3.14221304228167e+00 3.14216199513213e+00 1.62456042471624e-05 1.76767045548661e-05 
2.80000000000000e+01 3.37732944532674e+00 3.37727469044939e+00 1.62124774128711e-05 1.76041933423231e-05 
2.90000000000000e+01 3.62099553575526e+00 3.62093714662169e+00 1.61251603302124e-05 1.74137931439071e-05 
3.00000000000000e+01 3.87321131356724e+00 3.87314864735940e+00 1.61793929538106e-05 1.75319252751665e-05 
3.10000000000000e+01 4.13397677876267e+00 4.13390990898135e+00 1.61756547987496e-05 1.75237722606495e-05 
3.20000000000000e+01 4.40329193134156e+00 4.40322093157135e+00 1.61242477942838e-05 1.74117938272575e-05 
3.30000000000000e+01 4.68115677130391e+00 4.68108099873690e+00 1.61867185209002e-05 1.75479090273271e-05 
3.40000000000000e+01 4.96757129864971e+00 4.96749082682000e+00 1.61994312463066e-05 1.75756850429085e-05 
3.50000000000000e+01 5.26253551337897e+00 5.26245041604769e+00 1.61704051340782e-05 1.75123194221337e-05 
3.60000000000000e+01 5.56604941549169e+00 5.56595976584890e+00 1.61065121957743e-05 1.73732373894181e-05 
3.70000000000000e+01 5.87811300498787e+00 5.87801816055555e+00 1.61351835591279e-05 1.74355930326789e-05 
3.80000000000000e+01 6.19872628186750e+00 6.19862631612512e+00 1.61268199036848e-05 1.74173938579033e-05 
3.90000000000000e+01 6.52788924613059e+00 6.52778423227737e+00 1.60869538772952e-05 1.73307811901179e-05 
4.00000000000000e+01 6.86560189777713e+00 6.86549119372489e+00 1.61244496683228e-05 1.74122297053252e-05 
4.10000000000000e+01 7.21186423680714e+00 7.21174791570563e+00 1.61291307889188e-05 1.74224075514888e-05 
4.20000000000000e+01 7.56667626322060e+00 7.56655439858020e+00 1.61054386573783e-05 1.73709290364887e-05 
4.30000000000000e+01 7.93003797701751e+00 7.92990992635923e+00 1.61475466643450e-05 1.74624870792355e-05 
4.40000000000000e+01 8.30194937819788e+00 8.30181521489093e+00 1.61604583262408e-05 1.74906382114208e-05 
4.50000000000000e+01 8.68241046676172e+00 8.68227026431461e+00 1.61478713365053e-05 1.74632007072820e-05 
4.60000000000000e+01 9.07142124270900e+00 9.07127507457491e+00 1.61130356732259e-05 1.73874327818002e-05 
4.70000000000000e+01 9.46898170603975e+00 9.46882892971757e+00 1.61343982824497e-05 1.74338590857851e-05 
4.80000000000000e+01 9.87509185675395e+00 9.87493254557205e+00 1.61326278488325e-05 1.74300365681177e-05 
4.90000000000000e+01 1.02897516948516e+01 1.02895859223601e+01 1.61104462398157e-05 1.73817980533690e-05 
5.00000000000000e+01 1.07129612203327e+01 1.07127883439334e+01 1.61371254650719e-05 1.74398089191486e-05 
