Energy (eV)          EEDF (eV^-(3/2))     First Anisotropy
2.36170212765957e-03 2.18834986847259e+00 1.17568570314304e-03
7.08510638297872e-03 2.17229425705412e+00 1.94079397273202e-03
1.18085106382979e-02 2.15635644339634e+00 2.56048615817867e-03
1.65319148936170e-02 2.14053556315825e+00 3.03030952887250e-03
2.12553191489362e-02 2.12483075852905e+00 3.42135303656383e-03
2.59787234042553e-02 2.10924117778354e+00 3.76051256874412e-03
3.07021276595745e-02 2.09376597560447e+00 4.06171564921880e-03
3.54255319148936e-02 2.07840431275914e+00 4.33337792822578e-03
4.01489361702128e-02 2.06315535626819e+00 4.58108423311548e-03
4.48723404255319e-02 2.04801827918395e+00 4.80878420651105e-03
4.95957446808511e-02 2.03299226066435e+00 5.01940333727121e-03
5.43191489361702e-02 2.01807648592072e+00 5.21518638788349e-03
5.90425531914894e-02 2.00327014608074e+00 5.39790448089158e-03
6.37659574468085e-02 1.98857243826174e+00 5.56898699662861e-03
6.84893617021277e-02 1.97398256542241e+00 5.72960932391696e-03
7.32127659574468e-02 1.95949973641394e+00 5.88075336266062e-03
7.79361702127660e-02 1.94512316585136e+00 6.02325050723478e-03
8.26595744680851e-02 1.93085207414938e+00 6.15781296490163e-03
8.73829787234043e-02 1.91668568740793e+00 6.28505708229293e-03
9.21063829787234e-02 1.90262323742197e+00 6.40552104093949e-03
9.68297872340426e-02 1.88866396163775e+00 6.51967852933913e-03
1.01553191489362e-01 1.87480710306618e+00 6.62794944274277e-03
1.06276595744681e-01 1.86105191024803e+00 6.73070835330718e-03
1.11000000000000e-01 1.84739763735536e+00 6.82829135292858e-03
1.15723404255319e-01 1.83384354394874e+00 6.92100159529027e-03
1.20446808510638e-01 1.82038889502188e+00 7.00911382147716e-03
1.25170212765957e-01 1.80703296085919e+00 7.09287808108347e-03
1.29893617021277e-01 1.79377501731160e+00 7.17252288605267e-03
1.34617021276596e-01 1.78061434543276e+00 7.24825786250860e-03
1.39340425531915e-01 1.76755023155172e+00 7.32027594191701e-03
1.44063829787234e-01 1.75458196714757e+00 7.38875522889749e-03
1.48787234042553e-01 1.74170884907608e+00 7.45386064310306e-03
1.53510638297872e-01 1.72893017925970e+00 7.51574533504605e-03
1.58234042553191e-01 1.71624526474318e+00 7.57455186448398e-03
1.62957446808511e-01 1.70365341758146e+00 7.63041322765226e-03
1.67680851063830e-01 1.69115395502921e+00 7.68345379383504e-03
1.72404255319149e-01 1.67874619927176e+00 7.73379012881980e-03
1.77127659574468e-01 1.66642947746802e+00 7.78153167727527e-03
1.81851063829787e-01 1.65420312164912e+00 7.82678136836113e-03
1.86574468085106e-01 1.64206646887905e+00 7.86963618939777e-03
1.91297872340426e-01 1.63001886101773e+00 7.91018769814695e-03
1.96021276595745e-01 1.61805964475429e+00 7.94852244084247e-03
2.00744680851064e-01 1.60618817151447e+00 7.98472232882874e-03
2.05468085106383e-01 1.59440379759840e+00 8.01886501071802e-03
2.10191489361702e-01 1.58270588396939e+00 8.05102420901075e-03
2.14914893617021e-01 1.57109379627982e+00 8.08126998760751e-03
2.19638297872340e-01 1.55956690478591e+00 8.10966899604970e-03
2.24361702127660e-01 1.54812458446678e+00 8.13628472271675e-03
2.29085106382979e-01 1.53676621483465e+00 8.16117773437569e-03
2.33808510638298e-01 1.52549117990803e+00 8.18440582113901e-03
2.38531914893617e-01 1.51429886831965e+00 8.20602420039076e-03
2.43255319148936e-01 1.50318867313944e+00 8.22608569643872e-03
2.47978723404255e-01 1.49215999189011e+00 8.24464087261004e-03
2.52702127659575e-01 1.48121222647321e+00 8.26173815444888e-03
2.57425531914894e-01 1.47034478326342e+00 8.27742397164618e-03
2.62148936170213e-01 1.45955707294755e+00 8.29174288984398e-03
2.66872340425532e-01 1.44884851053595e+00 8.30473770185390e-03
2.71595744680851e-01 1.43821851529353e+00 8.31644951374100e-03
2.76319148936170e-01 1.42766651082259e+00 8.32691785134132e-03
2.81042553191489e-01 1.41719192491540e+00 8.33618075992852e-03
2.85765957446809e-01 1.40679418956237e+00 8.34427486823968e-03
2.90489361702128e-01 1.39647274088730e+00 8.35123544964140e-03
2.95212765957447e-01 1.38622701922053e+00 8.35709650428453e-03
2.99936170212766e-01 1.37605646896328e+00 8.36189083649268e-03
3.04659574468085e-01 1.36596053859312e+00 8.36565010020941e-03
3.09382978723404e-01 1.35593868060305e+00 8.36840484299849e-03
3.14106382978723e-01 1.34599035156624e+00 8.37018457095149e-03
3.18829787234043e-01 1.33611501201081e+00 8.37101781019704e-03
3.23553191489362e-01 1.32631212642288e+00 8.37093213936685e-03
3.28276595744681e-01 1.31658116318921e+00 8.36995422150734e-03
3.33000000000000e-01 1.30692159465469e+00 8.36810985646101e-03
3.37723404255319e-01 1.29733289700616e+00 8.36542403077602e-03
3.42446808510638e-01 1.28781455027367e+00 8.36192094093026e-03
3.47170212765957e-01 1.27836603827616e+00 8.35762401656373e-03
3.51893617021277e-01 1.26898684867265e+00 8.35255596355386e-03
3.56617021276596e-01 1.25967647285425e+00 8.34673880526595e-03
3.61340425531915e-01 1.25043440594371e+00 8.34019389908346e-03
3.66063829787234e-01 1.24126014674400e+00 8.33294195330976e-03
3.70787234042553e-01 1.23215319778400e+00 8.32500306318997e-03
3.75510638297872e-01 1.22311306521776e+00 8.31639674556184e-03
3.80234042553191e-01 1.21413925882263e+00 8.30714195047452e-03
3.84957446808511e-01 1.20523129195053e+00 8.29725707340625e-03
3.89680851063830e-01 1.19638868156876e+00 8.28675998583931e-03
3.94404255319149e-01 1.18761094816576e+00 8.27566806479063e-03
3.99127659574468e-01 1.17889761574814e+00 8.26399820078327e-03
4.03851063829787e-01 1.17024821179432e+00 8.25176680656000e-03
4.08574468085106e-01 1.16166226729108e+00 8.23898984337749e-03
4.13297872340426e-01 1.15313931664518e+00 8.22568284649708e-03
4.18021276595745e-01 1.14467889767947e+00 8.21186093042326e-03
4.22744680851064e-01 1.13628055158870e+00 8.19753879496892e-03
4.27468085106383e-01 1.12794382297232e+00 8.18273074813444e-03
4.32191489361702e-01 1.11966825975142e+00 8.16745072836185e-03
4.36914893617021e-01 1.11145341316406e+00 8.15171230770907e-03
4.41638297872340e-01 1.10329883772307e+00 8.13552869589815e-03
4.46361702127660e-01 1.09520409124557e+00 8.11891276042837e-03
4.51085106382979e-01 1.08716873477472e+00 8.10187705025822e-03
4.55808510638298e-01 1.07919233255755e+00 8.08443378115867e-03
4.60531914893617e-01 1.07127445207210e+00 8.06659485852316e-03
4.65255319148936e-01 1.06341466395262e+00 8.04837189539493e-03
4.69978723404255e-01 1.05561254198348e+00 8.02977621307989e-03
4.74702127659574e-01 1.04786766306054e+00 8.01081884266633e-03
4.79425531914894e-01 1.04017960721558e+00 7.99151054149211e-03
4.84148936170213e-01 1.03254795754562e+00 7.97186180928203e-03
4.88872340425532e-01 1.02497230020641e+00 7.95188288779206e-03
4.93595744680851e-01 1.01745222437544e+00 7.93158376134788e-03
4.98319148936170e-01 1.00998732227389e+00 7.91097417165996e-03
5.03042553191489e-01 1.00257718909983e+00 7.89006363237339e-03
5.07765957446809e-01 9.95221423021278e-01 7.86886142797024e-03
5.12489361702128e-01 9.87919625140809e-01 7.84737661355398e-03
5.17212765957447e-01 9.80671399515270e-01 7.82561802826231e-03
5.21936170212766e-01 9.73476353092522e-01 7.80359430846996e-03
5.26659574468085e-01 9.66334095704186e-01 7.78131388612914e-03
5.31382978723404e-01 9.59244240031727e-01 7.75878498796722e-03
5.36106382978723e-01 9.52206401624162e-01 7.73601564770402e-03
5.40829787234043e-01 9.45220198838103e-01 7.71301371809918e-03
5.45553191489362e-01 9.38285252830219e-01 7.68978686886788e-03
5.50276595744681e-01 9.31401187524735e-01 7.66634258542653e-03
5.55000000000000e-01 9.24567629629311e-01 7.64268818007722e-03
5.59723404255319e-01 9.17784208578155e-01 7.61883080305814e-03
5.64446808510638e-01 9.11050556524266e-01 7.59477744013920e-03
5.69170212765957e-01 9.04366308308252e-01 7.57053491102250e-03
5.73893617021277e-01 8.97731101472568e-01 7.54610987962908e-03
5.78617021276596e-01 8.91144576207479e-01 7.52150886427792e-03
5.83340425531915e-01 8.84606375343134e-01 7.49673823504798e-03
5.88063829787234e-01 8.78116144319626e-01 7.47180421191430e-03
5.92787234042553e-01 8.71673531199752e-01 7.44671287424837e-03
5.97510638297872e-01 8.65278186617630e-01 7.42147017023322e-03
6.02234042553191e-01 8.58929763770637e-01 7.39608191405609e-03
6.06957446808511e-01 8.52627918390664e-01 7.37055378384684e-03
6.11680851063830e-01 8.46372308755515e-01 7.34489133048425e-03
6.16404255319149e-01 8.40162595640015e-01 7.31909998633371e-03
6.21127659574468e-01 8.33998442307856e-01 7.29318506232543e-03
6.25851063829787e-01 8.27879514483958e-01 7.26715174574584e-03
6.30574468085106e-01 8.21805480364668e-01 7.24100510842666e-03
6.35297872340426e-01 8.15776010571173e-01 7.21475011488306e-03
6.40021276595745e-01 8.09790778141289e-01 7.18839161931453e-03
6.44744680851064e-01 8.03849458502888e-01 7.16193436329280e-03
6.49468085106383e-01 7.97951729482984e-01 7.13538298340024e-03
6.54191489361702e-01 7.92097271263327e-01 7.10874201882807e-03
6.58914893617021e-01 7.86285766372152e-01 7.08201590833618e-03
6.63638297872340e-01 7.80516899658623e-01 7.05520898786937e-03
6.68361702127660e-01 7.74790358300904e-01 7.02832549770198e-03
6.73085106382979e-01 7.69105831763802e-01 7.00136959190020e-03
6.77808510638298e-01 7.63463011782515e-01 6.97434532584513e-03
6.82531914893617e-01 7.57861592370046e-01 6.94725666557714e-03
6.87255319148936e-01 7.52301269776257e-01 6.92010749459962e-03
6.91978723404255e-01 7.46781742479566e-01 6.89290161079823e-03
6.96702127659575e-01 7.41302711163088e-01 6.86564272397181e-03
7.01425531914894e-01 7.35863878721197e-01 6.83833446224502e-03
7.06148936170213e-01 7.30464950220418e-01 6.81098037846206e-03
7.10872340425532e-01 7.25105632891147e-01 6.78358394712564e-03
7.15595744680851e-01 7.19785636104680e-01 6.75614856191981e-03
7.20319148936170e-01 7.14504671378989e-01 6.72867754174209e-03
7.25042553191489e-01 7.09262452341347e-01 6.70117413672464e-03
7.29765957446808e-01 7.04058694720094e-01 6.67364152520336e-03
7.34489361702128e-01 6.98893116322506e-01 6.64608281124899e-03
7.39212765957447e-01 6.93765437039859e-01 6.61850103035199e-03
7.43936170212766e-01 6.88675378811691e-01 6.59089915510053e-03
7.48659574468085e-01 6.83622665617625e-01 6.56328009219280e-03
7.53382978723404e-01 6.78607023456038e-01 6.53564667998656e-03
7.58106382978723e-01 6.73628180348483e-01 6.50800169386570e-03
7.62829787234043e-01 6.68685866305488e-01 6.48034785160327e-03
7.67553191489362e-01 6.63779813318456e-01 6.45268781042479e-03
7.72276595744681e-01 6.58909755339101e-01 6.42502416458533e-03
7.77000000000000e-01 6.54075428283272e-01 6.39735945044336e-03
7.81723404255319e-01 6.49276569998221e-01 6.36969615153318e-03
7.86446808510638e-01 6.44512920254582e-01 6.34203669568576e-03
7.91170212765957e-01 6.39784220726535e-01 6.31438345264168e-03
7.95893617021277e-01 6.35090214995100e-01 6.28673873885136e-03
8.00617021276596e-01 6.30430648516786e-01 6.25910482228251e-03
8.05340425531915e-01 6.25805268615653e-01 6.23148391960207e-03
8.10063829787234e-01 6.21213824464188e-01 6.20387819382817e-03
8.14787234042553e-01 6.16656067086102e-01 6.17628975888179e-03
8.19510638297872e-01 6.12131749326292e-01 6.14872068414486e-03
8.24234042553192e-01 6.07640625843000e-01 6.12117299170647e-03
8.28957446808511e-01 6.03182453089362e-01 6.09364865406076e-03
8.33680851063830e-01 5.98756989315762e-01 6.06614959842669e-03
8.38404255319149e-01 5.94363994541026e-01 6.03867771107436e-03
8.43127659574468e-01 5.90003230544698e-01 6.01123483463863e-03
8.47851063829787e-01 5.85674460849226e-01 5.98382276586583e-03
8.52574468085106e-01 5.81377450721909e-01 5.95644325971617e-03
8.57297872340426e-01 5.77111967147277e-01 5.92909803347545e-03
8.62021276595745e-01 5.72877778819470e-01 5.90178876413839e-03
8.66744680851064e-01 5.68674656125046e-01 5.87451708620571e-03
8.71468085106383e-01 5.64502371144556e-01 5.84728459558411e-03
8.76191489361702e-01 5.60360697626045e-01 5.82009285349817e-03
8.80914893617021e-01 5.56249410977546e-01 5.79294338394274e-03
8.85638297872340e-01 5.52168288250481e-01 5.76583767153343e-03
8.90361702127660e-01 5.48117108140901e-01 5.73877716521676e-03
8.95085106382979e-01 5.44095650964046e-01 5.71176328343738e-03
8.99808510638298e-01 5.40103698642713e-01 5.68479740588084e-03
9.04531914893617e-01 5.36141034708263e-01 5.65788087859885e-03
9.09255319148936e-01 5.32207444275945e-01 5.63101501761166e-03
9.13978723404255e-01 5.28302714037580e-01 5.60420110647334e-03
9.18702127659574e-01 5.24426632245963e-01 5.57744039420475e-03
9.23425531914894e-01 5.20578988715598e-01 5.55073409871281e-03
9.28148936170213e-01 5.16759574798983e-01 5.52408341022559e-03
9.32872340425532e-01 5.12968183379430e-01 5.49748948892655e-03
9.37595744680851e-01 5.09204608855997e-01 5.47095346294359e-03
9.42319148936170e-01 5.05468647143956e-01 5.44447643161037e-03
9.47042553191489e-01 5.01760095652014e-01 5.41805946874068e-03
9.51765957446809e-01 4.98078753275262e-01 5.39170362033457e-03
9.56489361702128e-01 4.94424420380611e-01 5.36540990262257e-03
9.61212765957447e-01 4.90796898807027e-01 5.33917930517684e-03
9.65936170212766e-01 4.87195991843639e-01 5.31301279403730e-03
9.70659574468085e-01 4.83621504222815e-01 5.28691130948589e-03
9.75382978723404e-01 4.80073242106095e-01 5.26087576414618e-03
9.80106382978723e-01 4.76551013084200e-01 5.23490704595354e-03
9.84829787234043e-01 4.73054626155997e-01 5.20900602114126e-03
9.89553191489362e-01 4.69583891721698e-01 5.18317353208257e-03
9.94276595744681e-01 4.66138621569270e-01 5.15741039544427e-03
9.99000000000000e-01 4.62718628874246e-01 5.13171740271007e-03
1.00372340425532e+00 4.59323728185958e-01 5.10609533692338e-03
1.00844680851064e+00 4.55953735382133e-01 5.08054493937865e-03
1.01317021276596e+00 4.52608467749307e-01 5.05506692975908e-03
1.01789361702128e+00 4.49287743882016e-01 5.02966203884738e-03
1.02261702127660e+00 4.45991383675027e-01 5.00433094222290e-03
1.02734042553191e+00 4.42719208406515e-01 4.97907430606488e-03
1.03206382978723e+00 4.39471040604594e-01 4.95389277728184e-03
1.03678723404255e+00 4.36246704160112e-01 4.92878698241436e-03
1.04151063829787e+00 4.33046024196015e-01 4.90375752946324e-03
1.04623404255319e+00 4.29868827177633e-01 4.87880499626230e-03
1.05095744680851e+00 4.26714940813568e-01 4.85392997453943e-03
1.05568085106383e+00 4.23584194048235e-01 4.82913300565679e-03
1.06040425531915e+00 4.20476417138110e-01 4.80441462341313e-03
1.06512765957447e+00 4.17391441528625e-01 4.77977534478613e-03
1.06985106382979e+00 4.14329099957692e-01 4.75521566888751e-03
1.07457446808511e+00 4.11289226335180e-01 4.73073607864794e-03
1.07929787234043e+00 4.08271655844163e-01 4.70633702992442e-03
1.08402127659574e+00 4.05276224849402e-01 4.68201899268491e-03
1.08874468085106e+00 4.02302770890195e-01 4.65778239088669e-03
1.09346808510638e+00 3.99351132750340e-01 4.63362764249518e-03
1.09819148936170e+00 3.96421150344468e-01 4.60955515079809e-03
1.10291489361702e+00 3.93512664813165e-01 4.58556530341252e-03
1.10763829787234e+00 3.90625518411661e-01 4.56165847384103e-03
1.11236170212766e+00 3.87759554602877e-01 4.53783501126329e-03
1.11708510638298e+00 3.84914617972835e-01 4.51409527905238e-03
1.12180851063830e+00 3.82090554223812e-01 4.49043959850048e-03
1.12653191489362e+00 3.79287210238585e-01 4.46686828625223e-03
1.13125531914894e+00 3.76504433975402e-01 4.44338164615551e-03
1.13597872340426e+00 3.73742074555440e-01 4.41997996831928e-03
1.14070212765957e+00 3.70999982159931e-01 4.39666353055235e-03
1.14542553191489e+00 3.68278008115729e-01 4.37343258878973e-03
1.15014893617021e+00 3.65576004817074e-01 4.35028741313579e-03
1.15487234042553e+00 3.62893825719022e-01 4.32722823517007e-03
1.15959574468085e+00 3.60231325396505e-01 4.30425528297358e-03
1.16431914893617e+00 3.57588359447188e-01 4.28136877348450e-03
1.16904255319149e+00 3.54964784571961e-01 4.25856891160409e-03
1.17376595744681e+00 3.52360458479771e-01 4.23585589152975e-03
1.17848936170213e+00 3.49775239966382e-01 4.21322988777275e-03
1.18321276595745e+00 3.47208988841958e-01 4.19069108890291e-03
1.18793617021277e+00 3.44661565924753e-01 4.16823964818789e-03
1.19265957446809e+00 3.42132833095459e-01 4.14587571638056e-03
1.19738297872340e+00 3.39622653207279e-01 4.12359943454741e-03
1.20210638297872e+00 3.37130890160065e-01 4.10141093322066e-03
1.20682978723404e+00 3.34657408812213e-01 4.07931033363418e-03
1.21155319148936e+00 3.32202075053214e-01 4.05729773929523e-03
1.21627659574468e+00 3.29764755736565e-01 4.03537326758948e-03
1.22100000000000e+00 3.27345318673726e-01 4.01353700352480e-03
1.22572340425532e+00 3.24943632684156e-01 3.99178903043694e-03
1.23044680851064e+00 3.22559567512007e-01 3.97012942326010e-03
1.23517021276596e+00 3.20192993894469e-01 3.94855824049308e-03
1.23989361702128e+00 3.17843783498284e-01 3.92707555431881e-03
1.24461702127660e+00 3.15511808913891e-01 3.90568140649709e-03
1.24934042553191e+00 3.13196943702539e-01 3.88437583762851e-03
1.25406382978723e+00 3.10899062317493e-01 3.86315888073779e-03
1.25878723404255e+00 3.08618040168415e-01 3.84203056049916e-03
1.26351063829787e+00 3.06353753544151e-01 3.82099089431886e-03
1.26823404255319e+00 3.04106079675759e-01 3.80003988479628e-03
1.27295744680851e+00 3.01874896677618e-01 3.77917754794938e-03
1.27768085106383e+00 2.99660083541835e-01 3.75840387185576e-03
1.28240425531915e+00 2.97461520181668e-01 3.73771884408188e-03
1.28712765957447e+00 2.95279087358444e-01 3.71712244565520e-03
1.29185106382979e+00 2.93112666740981e-01 3.69661465033110e-03
1.29657446808511e+00 2.90962140833951e-01 3.67619542559920e-03
1.30129787234043e+00 2.88827393036069e-01 3.65586472560655e-03
1.30602127659574e+00 2.86708307585414e-01 3.63562251761652e-03
1.31074468085106e+00 2.84604769554087e-01 3.61546874321662e-03
1.31546808510638e+00 2.82516664888265e-01 3.59540334403564e-03
1.32019148936170e+00 2.80443880340371e-01 3.57542625607996e-03
1.32491489361702e+00 2.78386303523948e-01 3.55553740904080e-03
1.32963829787234e+00 2.76343822847169e-01 3.53573672722912e-03
1.33436170212766e+00 2.74316327566571e-01 3.51602412293166e-03
1.33908510638298e+00 2.72303707736269e-01 3.49639952122312e-03
1.34380851063830e+00 2.70305854202856e-01 3.47686282356890e-03
1.34853191489362e+00 2.68322658642363e-01 3.45741393194552e-03
1.35325531914894e+00 2.66354013497269e-01 3.43805274351820e-03
1.35797872340426e+00 2.64399812027213e-01 3.41877914998580e-03
1.36270212765957e+00 2.62459948247228e-01 3.39959303845144e-03
1.36742553191489e+00 2.60534316977406e-01 3.38049428518066e-03
1.37214893617021e+00 2.58622813795695e-01 3.36148277887933e-03
1.37687234042553e+00 2.56725335033023e-01 3.34255838653392e-03
1.38159574468085e+00 2.54841777807436e-01 3.32372097603854e-03
1.38631914893617e+00 2.52972039965561e-01 3.30497041119437e-03
1.39104255319149e+00 2.51116020129496e-01 3.28630655109006e-03
1.39576595744681e+00 2.49273617639406e-01 3.26772925091319e-03
1.40048936170213e+00 2.47444732599453e-01 3.24923835608408e-03
1.40521276595745e+00 2.45629265833890e-01 3.23083372410128e-03
1.40993617021277e+00 2.43827118882410e-01 3.21251519247328e-03
1.41465957446809e+00 2.42038194031690e-01 3.19428259995072e-03
1.41938297872340e+00 2.40262394260964e-01 3.17613578182749e-03
1.42410638297872e+00 2.38499623285401e-01 3.15807456935439e-03
1.42882978723404e+00 2.36749785502731e-01 3.14009879049542e-03
1.43355319148936e+00 2.35012786035731e-01 3.12220826441455e-03
1.43827659574468e+00 2.33288530691379e-01 3.10440282198275e-03
1.44300000000000e+00 2.31576925956413e-01 3.08668227566434e-03
1.44772340425532e+00 2.29877879026487e-01 3.06904643944633e-03
1.45244680851064e+00 2.28191297755546e-01 3.05149512442193e-03
1.45717021276596e+00 2.26517090695977e-01 3.03402813352695e-03
1.46189361702128e+00 2.24855167059833e-01 3.01664528111756e-03
1.46661702127660e+00 2.23205436714539e-01 2.99934636420937e-03
1.47134042553191e+00 2.21567810210427e-01 2.98213118150467e-03
1.47606382978723e+00 2.19942198732706e-01 2.96499952917482e-03
1.48078723404255e+00 2.18328514139400e-01 2.94795120032744e-03
1.48551063829787e+00 2.16726668914230e-01 2.93098598567450e-03
1.49023404255319e+00 2.15136576203794e-01 2.91410366858491e-03
