Energy (eV)          EEDF (eV^-(3/2))     First Anisotropy
3.04081632653061e-03 1.40071792476369e+00 7.39945214411961e-04
9.12244897959184e-03 1.39088979410721e+00 1.22168032686890e-03
1.52040816326531e-02 1.38113062248146e+00 1.61228092368218e-03
2.12857142857143e-02 1.37143992600480e+00 1.90873401053717e-03
2.73673469387755e-02 1.36181722428593e+00 2.15574033462573e-03
3.34489795918367e-02 1.35226204019142e+00 2.37020407130781e-03
3.95306122448980e-02 1.34277390001720e+00 2.56087481339058e-03
4.56122448979592e-02 1.33335233332240e+00 2.73303716112768e-03
5.16938775510204e-02 1.32399687301653e+00 2.89019659148136e-03
5.77755102040816e-02 1.31470705524523e+00 3.03483114908773e-03
6.38571428571429e-02 1.30548241944436e+00 3.16877553789974e-03
6.99387755102041e-02 1.29632250825023e+00 3.29343694900135e-03
7.60204081632653e-02 1.28722686753595e+00 3.40992519331000e-03
8.21020408163265e-02 1.27819504633613e+00 3.51913556834677e-03
8.81836734693878e-02 1.26922659687218e+00 3.62180397864309e-03
9.42653061224490e-02 1.26032107448671e+00 3.71854493602426e-03
1.00346938775510e-01 1.25147803766125e+00 3.80987854933757e-03
1.06428571428571e-01 1.24269704796556e+00 3.89625019448169e-03
1.12510204081633e-01 1.23397767001463e+00 3.97804513799461e-03
1.18591836734694e-01 1.22531947158578e+00 4.05559967360294e-03
1.24673469387755e-01 1.21672202334064e+00 4.12920968625340e-03
1.30755102040816e-01 1.20818489902707e+00 4.19913733773225e-03
1.36836734693878e-01 1.19970767544659e+00 4.26561644099039e-03
1.42918367346939e-01 1.19128993224445e+00 4.32885671426924e-03
1.49000000000000e-01 1.18293125207768e+00 4.38904722959383e-03
1.55081632653061e-01 1.17463122058596e+00 4.44635930033847e-03
1.61163265306122e-01 1.16638942620797e+00 4.50094881146514e-03
1.67244897959184e-01 1.15820546032392e+00 4.55295815845821e-03
1.73326530612245e-01 1.15007891722864e+00 4.60251793282713e-03
1.79408163265306e-01 1.14200939396875e+00 4.64974829366282e-03
1.85489795918367e-01 1.13399649046546e+00 4.69476013208295e-03
1.91571428571429e-01 1.12603980948906e+00 4.73765612149355e-03
1.97653061224490e-01 1.11813895651306e+00 4.77853157110129e-03
2.03734693877551e-01 1.11029353982115e+00 4.81747516221468e-03
2.09816326530612e-01 1.10250317048281e+00 4.85456963847376e-03
2.15897959183673e-01 1.09476746222151e+00 4.88989236097061e-03
2.21979591836735e-01 1.08708603150863e+00 4.92351579337692e-03
2.28061224489796e-01 1.07945849754004e+00 4.95550797624624e-03
2.34142857142857e-01 1.07188448211612e+00 4.98593289623651e-03
2.40224489795918e-01 1.06436360975547e+00 5.01485083626746e-03
2.46306122448980e-01 1.05689550754946e+00 5.04231868950152e-03
2.52387755102041e-01 1.04947980523693e+00 5.06839021409702e-03
2.58469387755102e-01 1.04211613518275e+00 5.09311630818734e-03
2.64551020408163e-01 1.03480413227495e+00 5.11654521645366e-03
2.70632653061225e-01 1.02754343399155e+00 5.13872271500776e-03
2.76714285714286e-01 1.02033368037994e+00 5.15969231829110e-03
2.82795918367347e-01 1.01317451396156e+00 5.17949542795325e-03
2.88877551020408e-01 1.00606557979186e+00 5.19817146688513e-03
2.94959183673469e-01 9.99006525440448e-01 5.21575803913187e-03
3.01040816326531e-01 9.91997000902355e-01 5.23229103906463e-03
3.07122448979592e-01 9.85036658652079e-01 5.24780475012261e-03
3.13204081632653e-01 9.78125153624415e-01 5.26233197140872e-03
3.19285714285714e-01 9.71262143131565e-01 5.27590409886240e-03
3.25367346938776e-01 9.64447286912052e-01 5.28855119897485e-03
3.31448979591837e-01 9.57680247112067e-01 5.30030211117965e-03
3.37530612244898e-01 9.50960688207860e-01 5.31118450886327e-03
3.43612244897959e-01 9.44288277050150e-01 5.32122495498506e-03
3.49693877551020e-01 9.37662682845939e-01 5.33044898649179e-03
3.55775510204082e-01 9.31083577085644e-01 5.33888116056280e-03
3.61857142857143e-01 9.24550633583519e-01 5.34654509690900e-03
3.67938775510204e-01 9.18063528459914e-01 5.35346354857439e-03
3.74020408163265e-01 9.11621940072688e-01 5.35965843388889e-03
3.80102040816327e-01 9.05225549070479e-01 5.36515088207173e-03
3.86183673469388e-01 8.98874038309665e-01 5.36996127696614e-03
3.92265306122449e-01 8.92567092888422e-01 5.37410928071432e-03
3.98346938775510e-01 8.86304400129785e-01 5.37761388812595e-03
4.04428571428571e-01 8.80085649519841e-01 5.38049344940242e-03
4.10510204081633e-01 8.73910532738857e-01 5.38276569100572e-03
4.16591836734694e-01 8.67778743644836e-01 5.38444776299549e-03
4.22673469387755e-01 8.61689978214915e-01 5.38555625645221e-03
4.28755102040816e-01 8.55643934573883e-01 5.38610721945021e-03
4.34836734693878e-01 8.49640312978176e-01 5.38611619874771e-03
4.40918367346939e-01 8.43678815760244e-01 5.38559825309333e-03
4.47000000000000e-01 8.37759147354691e-01 5.38456796538470e-03
4.53081632653061e-01 8.31881014282707e-01 5.38303947976182e-03
4.59163265306123e-01 8.26044125099152e-01 5.38102651168562e-03
4.65244897959184e-01 8.20248190416571e-01 5.37854235710472e-03
4.71326530612245e-01 8.14492922890005e-01 5.37559992576238e-03
4.77408163265306e-01 8.08778037166606e-01 5.37221174871566e-03
4.83489795918367e-01 8.03103249907740e-01 5.36838998514473e-03
4.89571428571429e-01 7.97468279774129e-01 5.36414645250287e-03
4.95653061224490e-01 7.91872847377834e-01 5.35949263199598e-03
5.01734693877551e-01 7.86316675302607e-01 5.35443967352046e-03
5.07816326530612e-01 7.80799488089358e-01 5.34899842314870e-03
5.13897959183674e-01 7.75321012190339e-01 5.34317942697959e-03
5.19979591836735e-01 7.69880975987897e-01 5.33699293457972e-03
5.26061224489796e-01 7.64479109780259e-01 5.33044892420033e-03
5.32142857142857e-01 7.59115145737764e-01 5.32355710300752e-03
5.38224489795918e-01 7.53788817929775e-01 5.31632691858772e-03
5.44306122448980e-01 7.48499862272208e-01 5.30876757063246e-03
5.50387755102041e-01 7.43248016543629e-01 5.30088801010149e-03
5.56469387755102e-01 7.38033020371619e-01 5.29269696121686e-03
5.62551020408163e-01 7.32854615192318e-01 5.28420292244473e-03
5.68632653061225e-01 7.27712544265273e-01 5.27541416725350e-03
5.74714285714286e-01 7.22606552660123e-01 5.26633876457095e-03
5.80795918367347e-01 7.17536387217826e-01 5.25698457903495e-03
5.86877551020408e-01 7.12501796564345e-01 5.24735927105564e-03
5.92959183673469e-01 7.07502531097650e-01 5.23747031592205e-03
5.99040816326531e-01 7.02538342950523e-01 5.22732500346001e-03
6.05122448979592e-01 6.97608986003172e-01 5.21693043753069e-03
6.11204081632653e-01 6.92714215870546e-01 5.20629355394263e-03
6.17285714285714e-01 6.87853789866615e-01 5.19542111962517e-03
6.23367346938776e-01 6.83027467016019e-01 5.18431973167590e-03
6.29448979591837e-01 6.78235008041653e-01 5.17299583420737e-03
6.35530612244898e-01 6.73476175330360e-01 5.16145571712262e-03
6.41612244897959e-01 6.68750732943679e-01 5.14970551480267e-03
6.47693877551020e-01 6.64058446605704e-01 5.13775122199649e-03
6.53775510204082e-01 6.59399083670098e-01 5.12559869227493e-03
6.59857142857143e-01 6.54772413130021e-01 5.11325363642831e-03
6.65938775510204e-01 6.50178205606241e-01 5.10072163749328e-03
6.72020408163265e-01 6.45616233315413e-01 5.08800814719711e-03
6.78102040816327e-01 6.41086270085723e-01 5.07511849113748e-03
6.84183673469388e-01 6.36588091319256e-01 5.06205787426160e-03
6.90265306122449e-01 6.32121474000530e-01 5.04883137708510e-03
6.96346938775510e-01 6.27686196685043e-01 5.03544396938288e-03
7.02428571428572e-01 6.23282039469621e-01 5.02190050810574e-03
7.08510204081633e-01 6.18908784000276e-01 5.00820573528221e-03
7.14591836734694e-01 6.14566213461018e-01 4.99436429104048e-03
7.20673469387755e-01 6.10254112545273e-01 4.98038071139046e-03
7.26755102040816e-01 6.05972267463112e-01 4.96625942599270e-03
7.32836734693878e-01 6.01720465930321e-01 4.95200477056751e-03
7.38918367346939e-01 5.97498497140836e-01 4.93762098457239e-03
7.45000000000000e-01 5.93306151773391e-01 4.92311220886785e-03
7.51081632653061e-01 5.89143221980833e-01 4.90848249756076e-03
7.57163265306123e-01 5.85009501363526e-01 4.89373581560218e-03
7.63244897959184e-01 5.80904784975465e-01 4.87887603637728e-03
7.69326530612245e-01 5.76828869313822e-01 4.86390695302546e-03
7.75408163265306e-01 5.72781552293277e-01 4.84883227597641e-03
7.81489795918367e-01 5.68762633251635e-01 4.83365563048707e-03
7.87571428571429e-01 5.64771912939596e-01 4.81838056747658e-03
7.93653061224490e-01 5.60809193495966e-01 4.80301056101665e-03
7.99734693877551e-01 5.56874278452822e-01 4.78754900583356e-03
8.05816326530612e-01 5.52966972725488e-01 4.77199922769081e-03
8.11897959183674e-01 5.49087082588600e-01 4.75636448084937e-03
8.17979591836735e-01 5.45234415680834e-01 4.74064794554992e-03
8.24061224489796e-01 5.41408780995099e-01 4.72485273797138e-03
8.30142857142857e-01 5.37609988855405e-01 4.70898190636220e-03
8.36224489795918e-01 5.33837850925568e-01 4.69303843377332e-03
8.42306122448980e-01 5.30092180182072e-01 4.67702524104858e-03
8.48387755102041e-01 5.26372790918062e-01 4.66094518293305e-03
8.54469387755102e-01 5.22679498733893e-01 4.64480105733953e-03
8.60551020408163e-01 5.19012120515332e-01 4.62859560281598e-03
8.66632653061225e-01 5.15370474437189e-01 4.61233149603957e-03
8.72714285714286e-01 5.11754379954084e-01 4.59601136072680e-03
8.78795918367347e-01 5.08163657779346e-01 4.57963776511291e-03
8.84877551020408e-01 5.04598129888318e-01 4.56321321945430e-03
8.90959183673469e-01 5.01057619509326e-01 4.54674018460386e-03
8.97040816326531e-01 4.97541951103253e-01 4.53022106950838e-03
9.03122448979592e-01 4.94050950366535e-01 4.51365822872615e-03
9.09204081632653e-01 4.90584444222330e-01 4.49705397068589e-03
9.15285714285714e-01 4.87142260800735e-01 4.48041055520575e-03
9.21367346938776e-01 4.83724229441507e-01 4.46373019103340e-03
9.27448979591837e-01 4.80330180685407e-01 4.44701504380640e-03
9.33530612244898e-01 4.76959946255050e-01 4.43026723359517e-03
9.39612244897959e-01 4.73613359057356e-01 4.41348883247116e-03
9.45693877551021e-01 4.70290253175079e-01 4.39668187218331e-03
9.51775510204082e-01 4.66990463848258e-01 4.37984834172839e-03
9.57857142857143e-01 4.63713827476416e-01 4.36299018495278e-03
9.63938775510204e-01 4.60460181610269e-01 4.34610930795847e-03
9.70020408163265e-01 4.57229364933750e-01 4.32920757567141e-03
9.76102040816327e-01 4.54021217269172e-01 4.31228681361583e-03
9.82183673469388e-01 4.50835579556329e-01 4.29534880989453e-03
9.88265306122449e-01 4.47672293854275e-01 4.27839531177566e-03
9.94346938775510e-01 4.44531203333322e-01 4.26142803264946e-03
1.00042857142857e+00 4.41412152258020e-01 4.24444865167655e-03
1.00651020408163e+00 4.38314985982729e-01 4.22745880359600e-03
1.01259183673469e+00 4.35239550967815e-01 4.21046009244615e-03
1.01867346938776e+00 4.32185694735728e-01 4.19345410470493e-03
1.02475510204082e+00 4.29153265850172e-01 4.17644236914956e-03
1.03083673469388e+00 4.26142113995187e-01 4.15942638192318e-03
1.03691836734694e+00 4.23152089880366e-01 4.14240762661261e-03
1.04300000000000e+00 4.20183045262792e-01 4.12538755464766e-03
1.04908163265306e+00 4.17234832912520e-01 4.10836756819288e-03
1.05516326530612e+00 4.14307306687489e-01 4.09134903928512e-03
1.06124489795918e+00 4.11400321443377e-01 4.07433332907731e-03
1.06732653061225e+00 4.08513733054286e-01 4.05732176899841e-03
1.07340816326531e+00 4.05647398379763e-01 4.04031564429434e-03
1.07948979591837e+00 4.02801175335772e-01 4.02331621237170e-03
1.08557142857143e+00 3.99974922808932e-01 4.00632472124744e-03
1.09165306122449e+00 3.97168500676029e-01 3.98934239143685e-03
1.09773469387755e+00 3.94381769772478e-01 3.97237040011958e-03
1.10381632653061e+00 3.91614591959614e-01 3.95540989872300e-03
1.10989795918367e+00 3.88866830043057e-01 3.93846203883095e-03
1.11597959183673e+00 3.86138347767417e-01 3.92152792188625e-03
1.12206122448980e+00 3.83429009881064e-01 3.90460862503684e-03
1.12814285714286e+00 3.80738682057312e-01 3.88770521835748e-03
1.13422448979592e+00 3.78067230911958e-01 3.87081874786828e-03
1.14030612244898e+00 3.75414523974204e-01 3.85395022066380e-03
1.14638775510204e+00 3.72780429748112e-01 3.83710062133754e-03
1.15246938775510e+00 3.70164817637507e-01 3.82027092851073e-03
1.15855102040816e+00 3.67567557962549e-01 3.80346209850033e-03
1.16463265306122e+00 3.64988521931888e-01 3.78667505100587e-03
1.17071428571429e+00 3.62427581701013e-01 3.76991068487318e-03
1.17679591836735e+00 3.59884610300658e-01 3.75316989396413e-03
1.18287755102041e+00 3.57359481652464e-01 3.73645355144508e-03
1.18895918367347e+00 3.54852070542312e-01 3.71976249600897e-03
1.19504081632653e+00 3.52362252675743e-01 3.70309754701110e-03
1.20112244897959e+00 3.49889904609673e-01 3.68645952680900e-03
1.20720408163265e+00 3.47434903747502e-01 3.66984921719702e-03
1.21328571428571e+00 3.44997128392510e-01 3.65326738169103e-03
1.21936734693878e+00 3.42576457681874e-01 3.63671478036916e-03
1.22544897959184e+00 3.40172771600784e-01 3.62019215512922e-03
1.23153061224490e+00 3.37785950957782e-01 3.60370021674418e-03
1.23761224489796e+00 3.35415877435511e-01 3.58723965902155e-03
1.24369387755102e+00 3.33062433527744e-01 3.57081117306412e-03
1.24977551020408e+00 3.30725502552734e-01 3.55441543308156e-03
1.25585714285714e+00 3.28404968629570e-01 3.53805308392509e-03
1.26193877551020e+00 3.26100716726434e-01 3.52172475469321e-03
1.26802040816327e+00 3.23812632600476e-01 3.50543107243758e-03
1.27410204081633e+00 3.21540602810444e-01 3.48917264850645e-03
1.28018367346939e+00 3.19284514694009e-01 3.47295006653934e-03
1.28626530612245e+00 3.17044256413673e-01 3.45676389554375e-03
1.29234693877551e+00 3.14819716899329e-01 3.44061470923130e-03
1.29842857142857e+00 3.12610785843744e-01 3.42450304818772e-03
1.30451020408163e+00 3.10417353746845e-01 3.40842943915062e-03
1.31059183673469e+00 3.08239311860155e-01 3.39239440785083e-03
1.31667346938776e+00 3.06076552198212e-01 3.37639846618698e-03
1.32275510204082e+00 3.03928967517539e-01 3.36044210093924e-03
1.32883673469388e+00 3.01796451358789e-01 3.34452578602144e-03
1.33491836734694e+00 2.99678897993643e-01 3.32864999482808e-03
1.34100000000000e+00 2.97576202435619e-01 3.31281518788510e-03
1.34708163265306e+00 2.95488260419887e-01 3.29702180197590e-03
1.35316326530612e+00 2.93414968443402e-01 3.28127026192502e-03
1.35924489795918e+00 2.91356223714125e-01 3.26556099247603e-03
1.36532653061225e+00 2.89311924161265e-01 3.24989440639774e-03
1.37140816326531e+00 2.87281968415902e-01 3.23427089400673e-03
1.37748979591837e+00 2.85266255849203e-01 3.21869083450292e-03
1.38357142857143e+00 2.83264686523865e-01 3.20315460739827e-03
1.38965306122449e+00 2.81277161203814e-01 3.18766258106053e-03
1.39573469387755e+00 2.79303581335597e-01 3.17221510261609e-03
1.40181632653061e+00 2.77343849084786e-01 3.15681250885480e-03
1.40789795918367e+00 2.75397867289538e-01 3.14145514239453e-03
1.41397959183673e+00 2.73465539456531e-01 3.12614331995966e-03
1.42006122448980e+00 2.71546769796133e-01 3.11087734849138e-03
1.42614285714286e+00 2.69641463177404e-01 3.09565753586912e-03
1.43222448979592e+00 2.67749525136882e-01 3.08048418014207e-03
1.43830612244898e+00 2.65870861861283e-01 3.06535756002972e-03
1.44438775510204e+00 2.64005380221014e-01 3.05027794515631e-03
1.45046938775510e+00 2.62152987727108e-01 3.03524560637295e-03
1.45655102040816e+00 2.60313592539547e-01 3.02026080538148e-03
1.46263265306122e+00 2.58487103450638e-01 3.00532378557580e-03
1.46871428571429e+00 2.56673429916969e-01 2.99043478189575e-03
1.47479591836735e+00 2.54872482018171e-01 2.97559403076607e-03
1.48087755102041e+00 2.53084170464814e-01 2.96080176009563e-03
1.48695918367347e+00 2.51308406582419e-01 2.94605818044811e-03
1.49304081632653e+00 2.49545102341945e-01 2.93136349452935e-03
1.49912244897959e+00 2.47794170320287e-01 2.91671791126161e-03
1.50520408163265e+00 2.46055523696577e-01 2.90212161810525e-03
1.51128571428571e+00 2.44329076281642e-01 2.88757479508431e-03
1.51736734693878e+00 2.42614742479723e-01 2.87307762412072e-03
1.52344897959184e+00 2.40912437295634e-01 2.85863027962765e-03
1.52953061224490e+00 2.39222076319873e-01 2.84423292019795e-03
1.53561224489796e+00 2.37543575756730e-01 2.82988569751611e-03
1.54169387755102e+00 2.35876852387607e-01 2.81558876534941e-03
1.54777551020408e+00 2.34221823577809e-01 2.80134227048007e-03
1.55385714285714e+00 2.32578407262220e-01 2.78714634468889e-03
1.55993877551020e+00 2.30946521972135e-01 2.77300111334027e-03
1.56602040816327e+00 2.29326086800097e-01 2.75890670404587e-03
1.57210204081633e+00 2.27717021406345e-01 2.74486323792045e-03
1.57818367346939e+00 2.26119246005035e-01 2.73087082185012e-03
1.58426530612245e+00 2.24532681389845e-01 2.71692955676422e-03
1.59034693877551e+00 2.22957248900280e-01 2.70303954991692e-03
1.59642857142857e+00 2.21392870418285e-01 2.68920089069378e-03
1.60251020408163e+00 2.19839468393024e-01 2.67541366284702e-03
1.60859183673469e+00 2.18296965808182e-01 2.66167795264031e-03
1.61467346938776e+00 2.16765286187822e-01 2.64799384061876e-03
1.62075510204082e+00 2.15244353583529e-01 2.63436139432711e-03
1.62683673469388e+00 2.13734092598060e-01 2.62078067608574e-03
1.63291836734694e+00 2.12234428353996e-01 2.60725175083900e-03
1.63900000000000e+00 2.10745286499291e-01 2.59377467821857e-03
1.64508163265306e+00 2.09266593194902e-01 2.58034950551733e-03
1.65116326530612e+00 2.07798275137382e-01 2.56697627518448e-03
1.65724489795918e+00 2.06340259528803e-01 2.55365503239200e-03
1.66332653061225e+00 2.04892474082029e-01 2.54038581737814e-03
1.66940816326531e+00 2.03454847008798e-01 2.52716865866805e-03
1.67548979591837e+00 2.02027307041317e-01 2.51400358029937e-03
1.68157142857143e+00 2.00609783403399e-01 2.50089060911703e-03
1.68765306122449e+00 1.99202205815467e-01 2.48782976738706e-03
1.69373469387755e+00 1.97804504483084e-01 2.47482106625489e-03
1.69981632653061e+00 1.96416610117581e-01 2.46186451271003e-03
1.70589795918367e+00 1.95038453908365e-01 2.44896011994395e-03
1.71197959183673e+00 1.93669967519928e-01 2.43610788691333e-03
1.71806122448980e+00 1.92311083111806e-01 2.42330780865590e-03
1.72414285714286e+00 1.90961733311704e-01 2.41055988315368e-03
1.73022448979592e+00 1.89621851220039e-01 2.39786410437664e-03
1.73630612244898e+00 1.88291370399223e-01 2.38522045611683e-03
1.74238775510204e+00 1.86970224892746e-01 2.37262891854341e-03
1.74846938775510e+00 1.85658349199374e-01 2.36008947482232e-03
1.75455102040816e+00 1.84355678277462e-01 2.34760210440317e-03
1.76063265306122e+00 1.83062147534626e-01 2.33516677706786e-03
1.76671428571429e+00 1.81777692845998e-01 2.32278345925253e-03
1.77279591836735e+00 1.80502250529438e-01 2.31045212043286e-03
1.77887755102041e+00 1.79235757349640e-01 2.29817272664535e-03
1.78495918367347e+00 1.77978150508177e-01 2.28594523474184e-03
1.79104081632653e+00 1.76729367660956e-01 2.27376959848808e-03
1.79712244897959e+00 1.75489346894415e-01 2.26164577763585e-03
1.80320408163265e+00 1.74258026722811e-01 2.24957371999909e-03
1.80928571428571e+00 1.73035346105111e-01 2.23755337048949e-03
1.81536734693878e+00 1.71821244421889e-01 2.22558467712754e-03
1.82144897959184e+00 1.70615661479049e-01 2.21366758493742e-03
1.82753061224490e+00 1.69418537498516e-01 2.20180203053050e-03
1.83361224489796e+00 1.68229813134399e-01 2.18998794784693e-03
1.83969387755102e+00 1.67049429450791e-01 2.17822527395548e-03
1.84577551020408e+00 1.65877327925310e-01 2.16651394316050e-03
1.85185714285714e+00 1.64713450440117e-01 2.15485388177151e-03
1.85793877551020e+00 1.63557739297391e-01 2.14324501364309e-03
1.86402040816327e+00 1.62410137197991e-01 2.13168726577198e-03
1.87010204081633e+00 1.61270587244818e-01 2.12018056260734e-03
1.87618367346939e+00 1.60139032934160e-01 2.10872482100027e-03
1.88226530612245e+00 1.59015418170501e-01 2.09731995554966e-03
1.88834693877551e+00 1.57899687246006e-01 2.08596588656033e-03
1.89442857142857e+00 1.56791784838063e-01 2.07466252430446e-03
1.90051020408163e+00 1.55691656023618e-01 2.06340977694528e-03
1.90659183673469e+00 1.54599246259260e-01 2.05220755580983e-03
1.91267346938776e+00 1.53514501384272e-01 2.04105577002478e-03
1.91875510204082e+00 1.52437367612532e-01 2.02995432175280e-03
