Energy (eV)          EEDF (eV^-(3/2))     First Anisotropy
6.00000000000000e-02 4.37981140351618e-02 3.27520172540932e-05
1.80000000000000e-01 4.31969327358434e-02 5.38928908897828e-05
3.00000000000000e-01 4.26040033661022e-02 7.06431540369418e-05
4.20000000000000e-01 4.20192126584081e-02 8.30673285441756e-05
5.40000000000000e-01 4.14424488999344e-02 9.31830122630150e-05
6.60000000000000e-01 4.08736019112414e-02 1.01761032237260e-04
7.80000000000000e-01 4.03125630252324e-02 1.09204259620272e-04
9.00000000000000e-01 3.97592250663953e-02 1.15758324693397e-04
1.02000000000000e+00 3.92134823303297e-02 1.21587672932370e-04
1.14000000000000e+00 3.86752305635537e-02 1.26809608290255e-04
1.26000000000000e+00 3.81443669435885e-02 1.31511754243012e-04
1.38000000000000e+00 3.76207900593166e-02 1.35761901977137e-04
1.50000000000000e+00 3.71043998916087e-02 1.39613970343289e-04
1.62000000000000e+00 3.65950977942172e-02 1.43111815034127e-04
1.74000000000000e+00 3.60927864749318e-02 1.46291771740843e-04
1.86000000000000e+00 3.55973699769937e-02 1.49184415894920e-04
1.98000000000000e+00 3.51087536607649e-02 1.51815817276341e-04
2.10000000000000e+00 3.46268441856492e-02 1.54208457487111e-04
2.22000000000000e+00 3.41515494922615e-02 1.56381915705261e-04
2.34000000000000e+00 3.36827787848410e-02 1.58353391083890e-04
2.46000000000000e+00 3.32204425139074e-02 1.60138107414967e-04
2.58000000000000e+00 3.27644523591533e-02 1.61749631269101e-04
2.70000000000000e+00 3.23147212125730e-02 1.63200125440057e-04
2.82000000000000e+00 3.18711631618219e-02 1.64500553262509e-04
2.94000000000000e+00 3.14336934738046e-02 1.65660845102856e-04
3.06000000000000e+00 3.10022285784886e-02 1.66690035355335e-04
3.18000000000000e+00 3.05766860529394e-02 1.67596376175751e-04
3.30000000000000e+00 3.01569846055756e-02 1.68387432675676e-04
3.42000000000000e+00 2.97430440606397e-02 1.69070163198840e-04
3.54000000000000e+00 2.93347853428819e-02 1.69650987487644e-04
3.66000000000000e+00 2.89321304624544e-02 1.70135844938722e-04
3.78000000000000e+00 2.85350025000131e-02 1.70530244685735e-04
3.90000000000000e+00 2.81433255920234e-02 1.70839308895306e-04
4.02000000000000e+00 2.77570249162682e-02 1.71067810389921e-04
4.14000000000000e+00 2.73760266775544e-02 1.71220205499827e-04
4.26000000000000e+00 2.70002580936160e-02 1.71300662879422e-04
4.38000000000000e+00 2.66296473812101e-02 1.71313088891947e-04
4.50000000000000e+00 2.62641237424046e-02 1.71261150061093e-04
4.62000000000000e+00 2.59036173510531e-02 1.71148293003701e-04
4.74000000000000e+00 2.55480593394564e-02 1.70977762189631e-04
4.86000000000000e+00 2.51973817852066e-02 1.70752615819181e-04
4.98000000000000e+00 2.48515176982116e-02 1.70475740063159e-04
5.10000000000000e+00 2.45104010078982e-02 1.70149861873299e-04
5.22000000000000e+00 2.41739665505905e-02 1.69777560539850e-04
5.34000000000000e+00 2.38421500570619e-02 1.69361278147524e-04
5.46000000000000e+00 2.35148881402573e-02 1.68903329059481e-04
5.58000000000000e+00 2.31921182831844e-02 1.68405908541154e-04
5.70000000000000e+00 2.28737788269714e-02 1.67871100620553e-04
5.82000000000000e+00 2.25598089590876e-02 1.67300885268831e-04
5.94000000000000e+00 2.22501487017271e-02 1.66697144974150e-04
6.06000000000000e+00 2.19447389003507e-02 1.66061670772537e-04
6.18000000000000e+00 2.16435212123855e-02 1.65396167791527e-04
6.30000000000000e+00 2.13464380960803e-02 1.64702260355619e-04
6.42000000000000e+00 2.10534327995129e-02 1.63981496696757e-04
6.54000000000000e+00 2.07644493497486e-02 1.63235353307898e-04
6.66000000000000e+00 2.04794325421483e-02 1.62465238973453e-04
6.78000000000000e+00 2.01983279298220e-02 1.61672498506603e-04
6.90000000000000e+00 1.99210818132284e-02 1.60858416220087e-04
7.02000000000000e+00 1.96476412299162e-02 1.60024219154279e-04
7.14000000000000e+00 1.93779539444069e-02 1.59171080083792e-04
7.26000000000000e+00 1.91119684382164e-02 1.58300120321605e-04
7.38000000000000e+00 1.88496339000127e-02 1.57412412337813e-04
7.50000000000000e+00 1.85909002159103e-02 1.56508982208367e-04
7.62000000000000e+00 1.83357179598964e-02 1.55590811907610e-04
7.74000000000000e+00 1.80840383843890e-02 1.54658841457106e-04
7.86000000000000e+00 1.78358134109248e-02 1.53713970942056e-04
7.98000000000000e+00 1.75909956209746e-02 1.52757062405503e-04
8.10000000000000e+00 1.73495382468852e-02 1.51788941629656e-04
8.22000000000000e+00 1.71113951629451e-02 1.50810399812721e-04
8.34000000000000e+00 1.68765208765730e-02 1.49822195148910e-04
8.46000000000000e+00 1.66448705196277e-02 1.48825054318671e-04
8.58000000000000e+00 1.64163998398366e-02 1.47819673895480e-04
8.70000000000000e+00 1.61910651923421e-02 1.46806721675071e-04
8.82000000000000e+00 1.59688235313646e-02 1.45786837932411e-04
8.94000000000000e+00 1.57496324019789e-02 1.44760636611397e-04
9.06000000000000e+00 1.55334499320043e-02 1.43728706451687e-04
9.18000000000000e+00 1.53202348240056e-02 1.42691612056852e-04
9.30000000000000e+00 1.51099463474041e-02 1.41649894907696e-04
9.42000000000000e+00 1.49025443306970e-02 1.40604074324162e-04
9.54000000000000e+00 1.46979891537831e-02 1.39554648379126e-04
9.66000000000000e+00 1.44962417403942e-02 1.38502094767079e-04
9.78000000000000e+00 1.42972635506306e-02 1.37446871630430e-04
9.90000000000000e+00 1.41010165735985e-02 1.36389418345996e-04
1.00200000000000e+01 1.39074633201492e-02 1.35330156274074e-04
1.01400000000000e+01 1.37165668157169e-02 1.34269489472290e-04
1.02600000000000e+01 1.35282905932559e-02 1.33207805376257e-04
1.03800000000000e+01 1.33425986862742e-02 1.32145475448951e-04
1.05000000000000e+01 1.31594556219626e-02 1.31082855800582e-04
1.06200000000000e+01 1.29788264144187e-02 1.30020287780599e-04
1.07400000000000e+01 1.28006765579631e-02 1.28958098543386e-04
1.08600000000000e+01 1.26249720205480e-02 1.27896601589045e-04
1.09800000000000e+01 1.24516792372561e-02 1.26836097280637e-04
1.11000000000000e+01 1.22807651038886e-02 1.25776873339120e-04
1.12200000000000e+01 1.21121969706410e-02 1.24719205317164e-04
1.13400000000000e+01 1.19459426358666e-02 1.23663357052932e-04
1.14600000000000e+01 1.17819703399244e-02 1.22609581104850e-04
1.15800000000000e+01 1.16202487591126e-02 1.21558119168348e-04
1.17000000000000e+01 1.14607469996843e-02 1.20509202475451e-04
1.18200000000000e+01 1.13034345919461e-02 1.19463052178098e-04
1.19400000000000e+01 1.11482814844376e-02 1.18419879715973e-04
1.20600000000000e+01 1.09952580381904e-02 1.17379887169586e-04
1.21800000000000e+01 1.08443350210661e-02 1.16343267599338e-04
1.23000000000000e+01 1.06954836021726e-02 1.15310205371223e-04
1.24200000000000e+01 1.05486753463557e-02 1.14280876469790e-04
1.25400000000000e+01 1.04038822087680e-02 1.13255448798965e-04
1.26600000000000e+01 1.02610765295107e-02 1.12234082471295e-04
1.27800000000000e+01 1.01202310283503e-02 1.11216930086133e-04
1.29000000000000e+01 9.98131879950693e-03 1.10204136997267e-04
1.30200000000000e+01 9.84431330651455e-03 1.09195841570464e-04
1.31400000000000e+01 9.70918837715179e-03 1.08192175431376e-04
1.32600000000000e+01 9.57591819844222e-03 1.07193263704234e-04
1.33800000000000e+01 9.44447731172321e-03 1.06199225241732e-04
1.35000000000000e+01 9.31484060778266e-03 1.05210172846465e-04
1.36200000000000e+01 9.18698332206229e-03 1.04226213484298e-04
1.37400000000000e+01 9.06088102992690e-03 1.03247448490002e-04
1.38600000000000e+01 8.93650964199851e-03 1.02273973765475e-04
1.39800000000000e+01 8.81384539955456e-03 1.01305879970875e-04
1.41000000000000e+01 8.69286486998925e-03 1.00343252708937e-04
1.42200000000000e+01 8.57354494233722e-03 9.93861727027484e-05
1.43400000000000e+01 8.45586282285866e-03 9.84347159672752e-05
1.44600000000000e+01 8.33979603068498e-03 9.74889539748676e-05
1.45800000000000e+01 8.22532239352430e-03 9.65489538149971e-05
1.47000000000000e+01 8.11242004342586e-03 9.56147783484339e-05
1.48200000000000e+01 8.00106741260259e-03 9.46864863561068e-05
1.49400000000000e+01 7.89124322931100e-03 9.37641326828511e-05
1.50600000000000e+01 7.78292651378760e-03 9.28477683762204e-05
1.51800000000000e+01 7.67609657424117e-03 9.19374408205730e-05
1.53000000000000e+01 7.57073300289998e-03 9.10331938666004e-05
1.54200000000000e+01 7.46681567211327e-03 9.01350679564811e-05
1.55400000000000e+01 7.36432473050627e-03 8.92431002448158e-05
1.56600000000000e+01 7.26324059918800e-03 8.83573247155051e-05
1.57800000000000e+01 7.16354396801104e-03 8.74777722947222e-05
1.59000000000000e+01 7.06521579188281e-03 8.66044709601127e-05
1.60200000000000e+01 6.96823728712728e-03 8.57374458463818e-05
1.61400000000000e+01 6.87258992789676e-03 8.48767193473784e-05
1.62600000000000e+01 6.77825544263290e-03 8.40223112148100e-05
1.63800000000000e+01 6.68521581057625e-03 8.31742386537152e-05
1.65000000000000e+01 6.59345325832376e-03 8.23325164148050e-05
1.66200000000000e+01 6.50295025643351e-03 8.14971568837805e-05
1.67400000000000e+01 6.41368951607607e-03 8.06681701677419e-05
1.68600000000000e+01 6.32565398573178e-03 7.98455641787834e-05
1.69800000000000e+01 6.23882684793339e-03 7.90293447148691e-05
1.71000000000000e+01 6.15319151605345e-03 7.82195155380984e-05
1.72200000000000e+01 6.06873163113573e-03 7.74160784504424e-05
1.73400000000000e+01 5.98543105877015e-03 7.66190333670310e-05
1.74600000000000e+01 5.90327388601064e-03 7.58283783870841e-05
1.75800000000000e+01 5.82224441833530e-03 7.50441098625725e-05
1.77000000000000e+01 5.74232717664819e-03 7.42662224646646e-05
1.78200000000000e+01 5.66350689432246e-03 7.34947092480506e-05
1.79400000000000e+01 5.58576851428386e-03 7.27295617132115e-05
1.80600000000000e+01 5.50909718613445e-03 7.19707698666982e-05
1.81800000000000e+01 5.43347826331569e-03 7.12183222794915e-05
1.83000000000000e+01 5.35889730031050e-03 7.04722061434983e-05
1.84200000000000e+01 5.28534004988374e-03 6.97324073262528e-05
1.85400000000000e+01 5.21279246036054e-03 6.89989104238827e-05
1.86600000000000e+01 5.14124067294203e-03 6.82716988123868e-05
1.87800000000000e+01 5.07067101905784e-03 6.75507546972883e-05
1.89000000000000e+01 5.00107001775502e-03 6.68360591617143e-05
1.90200000000000e+01 4.93242437312278e-03 6.61275922129436e-05
1.91400000000000e+01 4.86472097175253e-03 6.54253328274911e-05
1.92600000000000e+01 4.79794688023285e-03 6.47292589947555e-05
1.93800000000000e+01 4.73208934267877e-03 6.40393477592816e-05
1.95000000000000e+01 4.66713577829509e-03 6.33555752616950e-05
1.96200000000000e+01 4.60307377897298e-03 6.26779167783299e-05
1.97400000000000e+01 4.53989110691969e-03 6.20063467596013e-05
1.98600000000000e+01 4.47757569232076e-03 6.13408388671670e-05
1.99800000000000e+01 4.41611563103432e-03 6.06813660099032e-05
2.01000000000000e+01 4.35549918231702e-03 6.00279003787467e-05
2.02200000000000e+01 4.29571476658121e-03 5.93804134804263e-05
2.03400000000000e+01 4.23675096318288e-03 5.87388761701194e-05
2.04600000000000e+01 4.17859650823995e-03 5.81032586830756e-05
2.05800000000000e+01 4.12124029248055e-03 5.74735306652296e-05
2.07000000000000e+01 4.06467135912083e-03 5.68496612028440e-05
2.08200000000000e+01 4.00887890177181e-03 5.62316188511956e-05
2.09400000000000e+01 3.95385226237509e-03 5.56193716623501e-05
2.10600000000000e+01 3.89958092916683e-03 5.50128872120559e-05
2.11800000000000e+01 3.84605453466968e-03 5.44121326257631e-05
2.13000000000000e+01 3.79326285371223e-03 5.38170746038117e-05
2.14200000000000e+01 3.74119580147577e-03 5.32276794458074e-05
2.15400000000000e+01 3.68984343156773e-03 5.26439130742183e-05
2.16600000000000e+01 3.63919593412163e-03 5.20657410572026e-05
2.17800000000000e+01 3.58924363392308e-03 5.14931286306942e-05
2.19000000000000e+01 3.53997698856157e-03 5.09260407197826e-05
2.20200000000000e+01 3.49138658660750e-03 5.03644419593846e-05
2.21400000000000e+01 3.44346314581440e-03 4.98082967142465e-05
2.22600000000000e+01 3.39619751134565e-03 4.92575690982956e-05
2.23800000000000e+01 3.34958065402570e-03 4.87122229933469e-05
2.25000000000000e+01 3.30360366861518e-03 4.81722220672023e-05
2.26200000000000e+01 3.25825777210975e-03 4.76375297911488e-05
2.27400000000000e+01 3.21353430206225e-03 4.71081094568739e-05
2.28600000000000e+01 3.16942471492795e-03 4.65839241928225e-05
2.29800000000000e+01 3.12592058443243e-03 4.60649369800053e-05
2.31000000000000e+01 3.08301359996196e-03 4.55511106672743e-05
2.32200000000000e+01 3.04069556497584e-03 4.50424079860897e-05
2.33400000000000e+01 2.99895839544069e-03 4.45387915647849e-05
2.34600000000000e+01 2.95779411828611e-03 4.40402239423438e-05
2.35800000000000e+01 2.91719486988160e-03 4.35466675817123e-05
2.37000000000000e+01 2.87715289453433e-03 4.30580848826510e-05
2.38200000000000e+01 2.83766054300762e-03 4.25744381941450e-05
2.39400000000000e+01 2.79871027105968e-03 4.20956898263854e-05
2.40600000000000e+01 2.76029463800241e-03 4.16218020623326e-05
2.41800000000000e+01 2.72240630528003e-03 4.11527371688724e-05
2.43000000000000e+01 2.68503803506718e-03 4.06884574075833e-05
2.44200000000000e+01 2.64818268888628e-03 4.02289250451175e-05
2.45400000000000e+01 2.61183322624385e-03 3.97741023632141e-05
2.46600000000000e+01 2.57598270328558e-03 3.93239516683539e-05
2.47800000000000e+01 2.54062427146983e-03 3.88784353010620e-05
2.49000000000000e+01 2.50575117625936e-03 3.84375156448750e-05
2.50200000000000e+01 2.47135675583100e-03 3.80011551349755e-05
2.51400000000000e+01 2.43743443980303e-03 3.75693162665110e-05
2.52600000000000e+01 2.40397774798006e-03 3.71419616026023e-05
2.53800000000000e+01 2.37098028911510e-03 3.67190537820470e-05
2.55000000000000e+01 2.33843575968863e-03 3.63005555267389e-05
2.56200000000000e+01 2.30633794270446e-03 3.58864296487992e-05
2.57400000000000e+01 2.27468070650207e-03 3.54766390574304e-05
2.58600000000000e+01 2.24345800358529e-03 3.50711467655093e-05
2.59800000000000e+01 2.21266386946705e-03 3.46699158959175e-05
2.61000000000000e+01 2.18229242152994e-03 3.42729096876187e-05
2.62200000000000e+01 2.15233785790253e-03 3.38800915014989e-05
2.63400000000000e+01 2.12279445635095e-03 3.34914248259622e-05
2.64600000000000e+01 2.09365657318582e-03 3.31068732822987e-05
2.65800000000000e+01 2.06491864218412e-03 3.27264006298350e-05
2.67000000000000e+01 2.03657517352589e-03 3.23499707708620e-05
2.68200000000000e+01 2.00862075274546e-03 3.19775477553527e-05
2.69400000000000e+01 1.98105003969717e-03 3.16090957854817e-05
2.70600000000000e+01 1.95385776753522e-03 3.12445792199412e-05
2.71800000000000e+01 1.92703874170755e-03 3.08839625780676e-05
2.73000000000000e+01 1.90058783896350e-03 3.05272105437868e-05
2.74200000000000e+01 1.87450000637514e-03 3.01742879693686e-05
2.75400000000000e+01 1.84877026037200e-03 2.98251598790147e-05
2.76600000000000e+01 1.82339368578904e-03 2.94797914722747e-05
2.77800000000000e+01 1.79836543492773e-03 2.91381481272944e-05
2.79000000000000e+01 1.77368072662997e-03 2.88001954039086e-05
2.80200000000000e+01 1.74933484536475e-03 2.84658990465750e-05
2.81400000000000e+01 1.72532314032735e-03 2.81352249871622e-05
2.82600000000000e+01 1.70164102455088e-03 2.78081393475894e-05
2.83800000000000e+01 1.67828397403004e-03 2.74846084423233e-05
2.85000000000000e+01 1.65524752685689e-03 2.71645987807403e-05
2.86200000000000e+01 1.63252728236849e-03 2.68480770693555e-05
2.87400000000000e+01 1.61011890030624e-03 2.65350102139248e-05
2.88600000000000e+01 1.58801809998677e-03 2.62253653214175e-05
2.89800000000000e+01 1.56622065948419e-03 2.59191097018725e-05
2.91000000000000e+01 1.54472241482356e-03 2.56162108701368e-05
2.92200000000000e+01 1.52351925918547e-03 2.53166365474873e-05
2.93400000000000e+01 1.50260714212150e-03 2.50203546631450e-05
2.94600000000000e+01 1.48198206878045e-03 2.47273333556831e-05
2.95800000000000e+01 1.46164009914521e-03 2.44375409743319e-05
2.97000000000000e+01 1.44157734728012e-03 2.41509460801822e-05
2.98200000000000e+01 1.42178998058860e-03 2.38675174472916e-05
2.99400000000000e+01 1.40227421908103e-03 2.35872240636994e-05
3.00600000000000e+01 1.38302633465265e-03 2.33100351323510e-05
3.01800000000000e+01 1.36404265037138e-03 2.30359200719305e-05
3.03000000000000e+01 1.34531953977540e-03 2.27648485176111e-05
3.04200000000000e+01 1.32685342618044e-03 2.24967903217248e-05
3.05400000000000e+01 1.30864078199644e-03 2.22317155543498e-05
3.06600000000000e+01 1.29067812805373e-03 2.19695945038221e-05
3.07800000000000e+01 1.27296203293840e-03 2.17103976771718e-05
3.09000000000000e+01 1.25548911233677e-03 2.14540958004873e-05
3.10200000000000e+01 1.23825602838890e-03 2.12006598192115e-05
3.11400000000000e+01 1.22125948905097e-03 2.09500608983698e-05
3.12600000000000e+01 1.20449624746637e-03 2.07022704227327e-05
3.13800000000000e+01 1.18796310134546e-03 2.04572599969169e-05
3.15000000000000e+01 1.17165689235385e-03 2.02150014454230e-05
3.16200000000000e+01 1.15557450550906e-03 1.99754668126167e-05
3.17400000000000e+01 1.13971286858543e-03 1.97386283626524e-05
3.18600000000000e+01 1.12406895152729e-03 1.95044585793442e-05
3.19800000000000e+01 1.10863976587008e-03 1.92729301659815e-05
3.21000000000000e+01 1.09342236416946e-03 1.90440160450942e-05
3.22200000000000e+01 1.07841383943830e-03 1.88176893581702e-05
3.23400000000000e+01 1.06361132459133e-03 1.85939234653242e-05
3.24600000000000e+01 1.04901199189743e-03 1.83726919449215e-05
3.25800000000000e+01 1.03461305243945e-03 1.81539685931585e-05
3.27000000000000e+01 1.02041175558148e-03 1.79377274235988e-05
3.28200000000000e+01 1.00640538844335e-03 1.77239426666700e-05
3.29400000000000e+01 9.92591275382386e-04 1.75125887691214e-05
3.30600000000000e+01 9.78966777482326e-04 1.73036403934417e-05
3.31800000000000e+01 9.65529292049162e-04 1.70970724172442e-05
3.33000000000000e+01 9.52276252113966e-04 1.68928599326132e-05
3.34200000000000e+01 9.39205125942516e-04 1.66909782454196e-05
3.35400000000000e+01 9.26313416551659e-04 1.64914028746023e-05
3.36600000000000e+01 9.13598661232312e-04 1.62941095514180e-05
3.37800000000000e+01 9.01058431079007e-04 1.60990742186652e-05
3.39000000000000e+01 8.88690330525899e-04 1.59062730298743e-05
3.40200000000000e+01 8.76491996889136e-04 1.57156823484739e-05
3.41400000000000e+01 8.64461099915519e-04 1.55272787469306e-05
3.42600000000000e+01 8.52595341337351e-04 1.53410390058617e-05
3.43800000000000e+01 8.40892454433396e-04 1.51569401131247e-05
3.45000000000000e+01 8.29350203595869e-04 1.49749592628852e-05
3.46200000000000e+01 8.17966383903363e-04 1.47950738546619e-05
3.47400000000000e+01 8.06738820699648e-04 1.46172614923491e-05
3.48600000000000e+01 7.95665369178240e-04 1.44414999832210e-05
3.49800000000000e+01 7.84743913972678e-04 1.42677673369166e-05
3.51000000000000e+01 7.73972368752429e-04 1.40960417644052e-05
3.52200000000000e+01 7.63348675824330e-04 1.39263016769367e-05
3.53400000000000e+01 7.52870805739510e-04 1.37585256849731e-05
3.54600000000000e+01 7.42536756905700e-04 1.35926925971049e-05
3.55800000000000e+01 7.32344555204871e-04 1.34287814189553e-05
3.57000000000000e+01 7.22292253616117e-04 1.32667713520659e-05
3.58200000000000e+01 7.12377931843711e-04 1.31066417927722e-05
3.59400000000000e+01 7.02599695950276e-04 1.29483723310658e-05
3.60600000000000e+01 6.92955677994980e-04 1.27919427494442e-05
3.61800000000000e+01 6.83444035676704e-04 1.26373330217504e-05
3.63000000000000e+01 6.74062951982110e-04 1.24845233120007e-05
3.64200000000000e+01 6.64810634838529e-04 1.23334939732033e-05
3.65400000000000e+01 6.55685316771627e-04 1.21842255461679e-05
3.66600000000000e+01 6.46685254567761e-04 1.20366987583070e-05
3.67800000000000e+01 6.37808728940971e-04 1.18908945224281e-05
3.69000000000000e+01 6.29054044204547e-04 1.17467939355186e-05
3.70200000000000e+01 6.20419527947099e-04 1.16043782775254e-05
3.71400000000000e+01 6.11903530713075e-04 1.14636290101263e-05
3.72600000000000e+01 6.03504425687666e-04 1.13245277754961e-05
3.73800000000000e+01 5.95220608386036e-04 1.11870563950680e-05
3.75000000000000e+01 5.87050496346812e-04 1.10511968682894e-05
3.76200000000000e+01 5.78992528829793e-04 1.09169313713738e-05
3.77400000000000e+01 5.71045166517793e-04 1.07842422560494e-05
3.78600000000000e+01 5.63206891222592e-04 1.06531120483028e-05
