Energy (eV)          EEDF (eV^-(3/2))     First Anisotropy
1.23456790123457e-03 6.15122933371284e-01 3.46263264517174e-08
3.70370370370370e-03 6.15122908205752e-01 1.02421851766234e-07
6.17283950617284e-03 6.15122847325960e-01 2.46227043767903e-07
8.64197530864197e-03 6.15122747824959e-01 4.26395134710037e-07
1.11111111111111e-02 6.15122612393378e-01 6.33132484580193e-07
1.35802469135802e-02 6.15122439918573e-01 8.68002306321437e-07
1.60493827160494e-02 6.15122230225993e-01 1.11511743235953e-06
1.85185185185185e-02 6.15121987895398e-01 1.36196696626891e-06
2.09876543209877e-02 6.15121715818482e-01 1.60919481030165e-06
2.34567901234568e-02 6.15121416489270e-01 1.86098800457067e-06
2.59259259259259e-02 6.15121090210871e-01 2.12224240724959e-06
2.83950617283951e-02 6.15120737283037e-01 2.39187145517095e-06
3.08641975308642e-02 6.15120358096971e-01 2.66210780548397e-06
3.33333333333333e-02 6.15119955041666e-01 2.93313781203181e-06
3.58024691358025e-02 6.15119528048208e-01 3.21404306757220e-06
3.82716049382716e-02 6.15119076675105e-01 3.50567069925183e-06
4.07407407407407e-02 6.15118600602511e-01 3.81084508646223e-06
4.32098765432099e-02 6.15118098655663e-01 4.13200511934977e-06
4.56790123456790e-02 6.15117569963915e-01 4.46752891401474e-06
4.81481481481481e-02 6.15117013856279e-01 4.81654589148696e-06
5.06172839506173e-02 6.15116429726269e-01 5.16860762296392e-06
5.30864197530864e-02 6.15115819395408e-01 5.51968019539881e-06
5.55555555555556e-02 6.15115183058426e-01 5.87977699653436e-06
5.80246913580247e-02 6.15114520110058e-01 6.25228801875504e-06
6.04938271604938e-02 6.15113829981648e-01 6.63720979334517e-06
6.29629629629630e-02 6.15113112099956e-01 7.03502513285967e-06
6.54320987654321e-02 6.15112365823328e-01 7.44625326291022e-06
6.79012345679012e-02 6.15111590501617e-01 7.87098387941200e-06
7.03703703703704e-02 6.15110785506940e-01 8.29611434692057e-06
7.28395061728395e-02 6.15109952871951e-01 8.71357785244708e-06
7.53086419753086e-02 6.15109093484273e-01 9.13561761595294e-06
7.77777777777778e-02 6.15108206816174e-01 9.56926321776304e-06
8.02469135802469e-02 6.15107292356500e-01 1.00145384296601e-05
8.27160493827161e-02 6.15106349595859e-01 1.04716667952820e-05
8.51851851851852e-02 6.15105378003125e-01 1.09408725036253e-05
8.76543209876543e-02 6.15104377048865e-01 1.14221252599917e-05
9.01234567901235e-02 6.15103346227664e-01 1.19153179059299e-05
9.25925925925926e-02 6.15102285047701e-01 1.24205135008342e-05
9.50617283950617e-02 6.15101193009223e-01 1.29378639941722e-05
9.75308641975309e-02 6.15100069609740e-01 1.34674396813733e-05
1.00000000000000e-01 6.15098914352689e-01 1.39966642106820e-05
1.02469135802469e-01 6.15097728928928e-01 1.45113895235463e-05
1.04938271604938e-01 6.15096515210303e-01 1.50220241066343e-05
1.07407407407407e-01 6.15095272990398e-01 1.55405576514214e-05
1.09876543209877e-01 6.15094002059927e-01 1.60670225747835e-05
1.12345679012346e-01 6.15092702206924e-01 1.66014507073589e-05
1.14814814814815e-01 6.15091373216915e-01 1.71438733661477e-05
1.17283950617284e-01 6.15090014873067e-01 1.76943214243211e-05
1.19753086419753e-01 6.15088626956320e-01 1.82528253903301e-05
1.22222222222222e-01 6.15087209245507e-01 1.88194154579917e-05
1.24691358024691e-01 6.15085761517454e-01 1.93941215602306e-05
1.27160493827160e-01 6.15084283547079e-01 1.99769734175140e-05
1.29629629629630e-01 6.15082775107471e-01 2.05680005715805e-05
1.32098765432099e-01 6.15081235969963e-01 2.11672324241311e-05
1.34567901234568e-01 6.15079665904199e-01 2.17746982674673e-05
1.37037037037037e-01 6.15078064678193e-01 2.23904273171261e-05
1.39506172839506e-01 6.15076432058381e-01 2.30144487310479e-05
1.41975308641975e-01 6.15074767809665e-01 2.36467916262490e-05
1.44444444444444e-01 6.15073071695460e-01 2.42874851032663e-05
1.46913580246914e-01 6.15071343477726e-01 2.49365582695252e-05
1.49382716049383e-01 6.15069582917003e-01 2.55940402474632e-05
1.51851851851852e-01 6.15067789772444e-01 2.62599601814596e-05
1.54320987654321e-01 6.15065963801837e-01 2.69343472545225e-05
1.56790123456790e-01 6.15064104761630e-01 2.76172306993858e-05
1.59259259259259e-01 6.15062212406954e-01 2.83086398067179e-05
1.61728395061728e-01 6.15060286491641e-01 2.90086039358410e-05
1.64197530864198e-01 6.15058326768241e-01 2.97171525128320e-05
1.66666666666667e-01 6.15056332988034e-01 3.04343150345206e-05
1.69135802469136e-01 6.15054304901051e-01 3.11601210668358e-05
1.71604938271605e-01 6.15052242256081e-01 3.18945997468253e-05
1.74074074074074e-01 6.15050144800748e-01 3.26377770780205e-05
1.76543209876543e-01 6.15048012281876e-01 3.33896721435162e-05
1.79012345679012e-01 6.15045844446038e-01 3.41502888451129e-05
1.81481481481481e-01 6.15043641040947e-01 3.49196043055572e-05
1.83950617283951e-01 6.15041401817439e-01 3.56975354384050e-05
1.86419753086420e-01 6.15039126534997e-01 3.64839220082766e-05
1.88888888888889e-01 6.15036814965642e-01 3.72785483343600e-05
1.91358024691358e-01 6.15034466896473e-01 3.80811697871145e-05
1.93827160493827e-01 6.15032082130054e-01 3.88915466626394e-05
1.96296296296296e-01 6.15029660482676e-01 3.97094909206180e-05
1.98765432098765e-01 6.15027201779017e-01 4.05349108633546e-05
2.01234567901235e-01 6.15024705845174e-01 4.13143504110187e-05
2.03703703703704e-01 6.15022179432114e-01 4.20461343394184e-05
2.06172839506173e-01 6.15019622486636e-01 4.27822337154006e-05
2.08641975308642e-01 6.15017034982776e-01 4.35223971954458e-05
2.11111111111111e-01 6.15014416894416e-01 4.42665993643305e-05
2.13580246913580e-01 6.15011768195268e-01 4.50148156507378e-05
2.16049382716049e-01 6.15009088858847e-01 4.57670222881890e-05
2.18518518518519e-01 6.15006378858457e-01 4.65231962846337e-05
2.20987654320988e-01 6.15003638167173e-01 4.72833154048499e-05
2.23456790123457e-01 6.15000866757821e-01 4.80473581527266e-05
2.25925925925926e-01 6.14998064602962e-01 4.88153037293755e-05
2.28395061728395e-01 6.14995231674883e-01 4.95871320174756e-05
2.30864197530864e-01 6.14992367945578e-01 5.03628235704346e-05
2.33333333333333e-01 6.14989473386736e-01 5.11423595850575e-05
2.35802469135802e-01 6.14986547969732e-01 5.19257218846159e-05
2.38271604938272e-01 6.14983591665612e-01 5.27128928929762e-05
2.40740740740741e-01 6.14980604445085e-01 5.35038556271951e-05
2.43209876543210e-01 6.14977586278514e-01 5.42985936763879e-05
2.45679012345679e-01 6.14974537135903e-01 5.50970911863871e-05
2.48148148148148e-01 6.14971456986891e-01 5.58993328483694e-05
2.50617283950617e-01 6.14968345800745e-01 5.67053038764677e-05
2.53086419753086e-01 6.14965203546349e-01 5.75149899993064e-05
2.55555555555556e-01 6.14962030192199e-01 5.83283774354193e-05
2.58024691358025e-01 6.14958825706398e-01 5.91454528826553e-05
2.60493827160494e-01 6.14955590056647e-01 5.99662035230118e-05
2.62962962962963e-01 6.14952323210240e-01 6.07906169929576e-05
2.65432098765432e-01 6.14949025134059e-01 6.16186813729458e-05
2.67901234567901e-01 6.14945695794570e-01 6.24503851708958e-05
2.70370370370370e-01 6.14942335157816e-01 6.32857172296909e-05
2.72839506172839e-01 6.14938943189424e-01 6.41246662204149e-05
2.75308641975309e-01 6.14935519854656e-01 6.49672195889467e-05
2.77777777777778e-01 6.14932065118517e-01 6.58133615308194e-05
2.80246913580247e-01 6.14928578946025e-01 6.66630698485632e-05
2.82716049382716e-01 6.14925061302644e-01 6.75163084753359e-05
2.85185185185185e-01 6.14921512155320e-01 6.83730191783217e-05
2.87654320987654e-01 6.14917931473761e-01 6.92331218544309e-05
2.90123456790123e-01 6.14914319231397e-01 7.00965234235123e-05
2.92592592592593e-01 6.14910675405683e-01 7.09631283333721e-05
2.95061728395062e-01 6.14906999977941e-01 7.18328514540458e-05
2.97530864197531e-01 6.14903292932323e-01 7.27056336613410e-05
3.00000000000000e-01 6.14899554254079e-01 7.35737761493520e-05
3.02469135802469e-01 6.14895784899445e-01 7.44539957089452e-05
3.04938271604938e-01 6.14891983340975e-01 7.54022883148518e-05
3.07407407407407e-01 6.14888144689328e-01 7.64484507444135e-05
3.09876543209877e-01 6.14884264287311e-01 7.75889251534980e-05
3.12345679012346e-01 6.14880337700661e-01 7.88202602842916e-05
3.14814814814815e-01 6.14876360709224e-01 8.01391078424961e-05
3.17283950617284e-01 6.14872329298522e-01 8.15422190381515e-05
3.19753086419753e-01 6.14868239651663e-01 8.30264412855494e-05
3.22222222222222e-01 6.14864088141603e-01 8.45887149771438e-05
3.24691358024691e-01 6.14859871323735e-01 8.62260704066652e-05
3.27160493827161e-01 6.14855585928781e-01 8.79356248344470e-05
3.29629629629630e-01 6.14851228855987e-01 8.97145796418326e-05
3.32098765432099e-01 6.14846797166596e-01 9.15602175900719e-05
3.34567901234568e-01 6.14842288077590e-01 9.34699001762019e-05
3.37037037037037e-01 6.14837698955692e-01 9.54410651063404e-05
3.39506172839506e-01 6.14833027311610e-01 9.74712238437570e-05
3.41975308641975e-01 6.14828270794517e-01 9.95579592405398e-05
3.44444444444444e-01 6.14823427186755e-01 1.01698923291548e-04
3.46913580246914e-01 6.14818494398749e-01 1.03891834923644e-04
3.49382716049383e-01 6.14813470464129e-01 1.06134477865503e-04
3.51851851851852e-01 6.14808353535050e-01 1.08424698639422e-04
3.54320987654321e-01 6.14803141877686e-01 1.10760404574652e-04
3.56790123456790e-01 6.14797833867921e-01 1.13139561900823e-04
3.59259259259259e-01 6.14792427987196e-01 1.15560193924780e-04
3.61728395061728e-01 6.14786922818526e-01 1.18020379249119e-04
3.64197530864198e-01 6.14781317042670e-01 1.20518250073487e-04
3.66666666666667e-01 6.14775609434459e-01 1.23051990531475e-04
3.69135802469136e-01 6.14769798859253e-01 1.25619835087687e-04
3.71604938271605e-01 6.14763884269551e-01 1.28220066912928e-04
3.74074074074074e-01 6.14757864701732e-01 1.30851015968641e-04
3.76543209876543e-01 6.14751739272953e-01 1.33511056953409e-04
3.79012345679012e-01 6.14745507178199e-01 1.36198606523160e-04
3.81481481481481e-01 6.14739167687547e-01 1.38912120007518e-04
3.83950617283951e-01 6.14732720143617e-01 1.41650084794532e-04
3.86419753086420e-01 6.14726163959541e-01 1.44411016630229e-04
3.88888888888889e-01 6.14719498616834e-01 1.47193461763562e-04
3.91358024691358e-01 6.14712723663239e-01 1.49996000330156e-04
3.93827160493827e-01 6.14705838710351e-01 1.52817251760133e-04
3.96296296296296e-01 6.14698843431033e-01 1.55655881399658e-04
3.98765432098765e-01 6.14691737556512e-01 1.58510605844943e-04
4.01234567901235e-01 6.14684520873409e-01 1.61321062638135e-04
4.03703703703704e-01 6.14677199455202e-01 1.64141658094754e-04
4.06172839506173e-01 6.14669768200530e-01 1.67084766754366e-04
4.08641975308642e-01 6.14662222214191e-01 1.70146276731408e-04
4.11111111111111e-01 6.14654556836219e-01 1.73321788947908e-04
4.13580246913580e-01 6.14646767633213e-01 1.76607035636095e-04
4.16049382716049e-01 6.14638850389975e-01 1.79997876651119e-04
4.18518518518519e-01 6.14630801101446e-01 1.83490295919253e-04
4.20987654320988e-01 6.14622615964919e-01 1.87080397977387e-04
4.23456790123457e-01 6.14614291372536e-01 1.90764404632803e-04
4.25925925925926e-01 6.14605823904034e-01 1.94538651738440e-04
4.28395061728395e-01 6.14597210319755e-01 1.98399586049347e-04
4.30864197530864e-01 6.14588447553891e-01 2.02343762177210e-04
4.33333333333333e-01 6.14579532707967e-01 2.06367839658654e-04
4.35802469135802e-01 6.14570463044547e-01 2.10468580081656e-04
4.38271604938272e-01 6.14561235981160e-01 2.14642844307796e-04
4.40740740740741e-01 6.14551849084432e-01 2.18887589792722e-04
4.43209876543210e-01 6.14542300064419e-01 2.23199867964618e-04
4.45679012345679e-01 6.14532586769136e-01 2.27576821695576e-04
4.48148148148148e-01 6.14522707179273e-01 2.32015682837987e-04
4.50617283950617e-01 6.14512659403088e-01 2.36513769815471e-04
4.53086419753086e-01 6.14502441671479e-01 2.41068485323814e-04
4.55555555555556e-01 6.14492052333218e-01 2.45677314087590e-04
4.58024691358025e-01 6.14481489850350e-01 2.50337820647029e-04
4.60493827160494e-01 6.14470752793746e-01 2.55047647257647e-04
4.62962962962963e-01 6.14459839838803e-01 2.59804511827945e-04
4.65432098765432e-01 6.14448749761299e-01 2.64606205899127e-04
4.67901234567901e-01 6.14437481433376e-01 2.69450592711751e-04
4.70370370370370e-01 6.14426033819660e-01 2.74335605281701e-04
4.72839506172839e-01 6.14414405973525e-01 2.79259244440020e-04
4.75308641975309e-01 6.14402597033472e-01 2.84219576727813e-04
4.77777777777778e-01 6.14390606219665e-01 2.89214732050607e-04
4.80246913580247e-01 6.14378432830605e-01 2.94242901102662e-04
4.82716049382716e-01 6.14366076239966e-01 2.99302331510497e-04
4.85185185185185e-01 6.14353535893681e-01 3.04391323855608e-04
4.87654320987654e-01 6.14340811307188e-01 3.09508230057557e-04
4.90123456790123e-01 6.14327902062720e-01 3.14651455409935e-04
4.92592592592593e-01 6.14314807806440e-01 3.19819460608886e-04
4.95061728395062e-01 6.14301528245622e-01 3.25010764210982e-04
4.97530864197531e-01 6.14288063145645e-01 3.30223945868153e-04
5.00000000000000e-01 6.14274412326971e-01 3.35420589093555e-04
5.02469135802469e-01 6.14260579046514e-01 3.40566653651854e-04
5.04938271604938e-01 6.14246566253418e-01 3.45707007209419e-04
5.07407407407407e-01 6.14232373176094e-01 3.50881681662423e-04
5.09876543209877e-01 6.14217999139148e-01 3.56088394518687e-04
5.12345679012346e-01 6.14203443559875e-01 3.61324928672375e-04
5.14814814814815e-01 6.14188705944872e-01 3.66589130852125e-04
5.17283950617284e-01 6.14173785886740e-01 3.71878910162441e-04
5.19753086419753e-01 6.14158683060888e-01 3.77192236613381e-04
5.22222222222222e-01 6.14143397222441e-01 3.82527139709870e-04
5.24691358024691e-01 6.14127928203232e-01 3.87881707072130e-04
5.27160493827160e-01 6.14112275908886e-01 3.93254083090055e-04
5.29629629629630e-01 6.14096440315994e-01 3.98642467608822e-04
5.32098765432099e-01 6.14080421469370e-01 4.04045114634575e-04
5.34567901234568e-01 6.14064219479393e-01 4.09460331117169e-04
5.37037037037037e-01 6.14047834519419e-01 4.14886475722443e-04
5.39506172839506e-01 6.14031266823283e-01 4.20321957614301e-04
5.41975308641975e-01 6.14014516682868e-01 4.25765235323316e-04
5.44444444444444e-01 6.13997584445744e-01 4.31214815620845e-04
5.46913580246914e-01 6.13980470512888e-01 4.36669252385374e-04
5.49382716049383e-01 6.13963175336459e-01 4.42127145529423e-04
5.51851851851852e-01 6.13945699417650e-01 4.47587139946105e-04
5.54320987654321e-01 6.13928043304598e-01 4.53047924471973e-04
5.56790123456790e-01 6.13910207590362e-01 4.58508230899666e-04
5.59259259259259e-01 6.13892192910950e-01 4.63966832983285e-04
5.61728395061728e-01 6.13873999943421e-01 4.69422545468326e-04
5.64197530864198e-01 6.13855629404028e-01 4.74874223149902e-04
5.66666666666667e-01 6.13837082046430e-01 4.80320759973035e-04
5.69135802469136e-01 6.13818358659949e-01 4.85761088139387e-04
5.71604938271605e-01 6.13799460067877e-01 4.91194177167620e-04
5.74074074074074e-01 6.13780387125850e-01 4.96619032888660e-04
5.76543209876543e-01 6.13761140720264e-01 5.02034696345219e-04
5.79012345679012e-01 6.13741721766763e-01 5.07440242391362e-04
5.81481481481481e-01 6.13722131208802e-01 5.12834778039442e-04
5.83950617283951e-01 6.13702370016287e-01 5.18217439666563e-04
5.86419753086420e-01 6.13682439184388e-01 5.23587391803446e-04
5.88888888888889e-01 6.13662339732291e-01 5.28943827972007e-04
5.91358024691358e-01 6.13642072701967e-01 5.34285971149837e-04
5.93827160493827e-01 6.13621639156913e-01 5.39613075904157e-04
5.96296296296296e-01 6.13601040180757e-01 5.44924432546623e-04
5.98765432098765e-01 6.13580276875685e-01 5.50219366713577e-04
6.01234567901235e-01 6.13559350361140e-01 5.55576811947901e-04
6.03703703703704e-01 6.13538255754145e-01 5.61227092536495e-04
6.06172839506173e-01 6.13516976800786e-01 5.67387852690775e-04
6.08641975308642e-01 6.13495492322128e-01 5.74115724318600e-04
6.11111111111111e-01 6.13473781996186e-01 5.81391070629665e-04
6.13580246913580e-01 6.13451826331529e-01 5.89194777318850e-04
6.16049382716049e-01 6.13429606641689e-01 5.97508238944916e-04
6.18518518518518e-01 6.13407105020317e-01 6.06313345673048e-04
6.20987654320988e-01 6.13384304317101e-01 6.15592470400770e-04
6.23456790123457e-01 6.13361188114390e-01 6.25328456244976e-04
6.25925925925926e-01 6.13337740704513e-01 6.35504604349307e-04
6.28395061728395e-01 6.13313947067783e-01 6.46104662012229e-04
6.30864197530864e-01 6.13289792851144e-01 6.57112811129883e-04
6.33333333333333e-01 6.13265264347462e-01 6.68513656943014e-04
6.35802469135802e-01 6.13240348475427e-01 6.80292217049817e-04
6.38271604938272e-01 6.13215032760055e-01 6.92433910724151e-04
6.40740740740741e-01 6.13189305313765e-01 7.04924548512516e-04
6.43209876543210e-01 6.13163154818025e-01 7.17750322081117e-04
6.45679012345679e-01 6.13136570505540e-01 7.30897794323132e-04
6.48148148148148e-01 6.13109542142967e-01 7.44353889715029e-04
6.50617283950617e-01 6.13082060014152e-01 7.58105884937785e-04
6.53086419753086e-01 6.13054114903854e-01 7.72141399736318e-04
6.55555555555556e-01 6.13025698081965e-01 7.86448387985363e-04
6.58024691358025e-01 6.12996801288188e-01 8.01015128982847e-04
6.60493827160494e-01 6.12967416717181e-01 8.15830219004211e-04
6.62962962962963e-01 6.12937537004138e-01 8.30882563028887e-04
6.65432098765432e-01 6.12907155210798e-01 8.46161366714522e-04
6.67901234567901e-01 6.12876264811874e-01 8.61656128538857e-04
6.70370370370370e-01 6.12844859681887e-01 8.77356632105994e-04
6.72839506172839e-01 6.12812934082389e-01 8.93252938669697e-04
6.75308641975309e-01 6.12780482649578e-01 9.09335379691287e-04
6.77777777777778e-01 6.12747500382285e-01 9.25594549420762e-04
6.80246913580247e-01 6.12713982630340e-01 9.42021297581531e-04
6.82716049382716e-01 6.12679925083303e-01 9.58606721569779e-04
6.85185185185185e-01 6.12645323759596e-01 9.75342158775097e-04
6.87654320987654e-01 6.12610174995979e-01 9.92219179181525e-04
6.90123456790123e-01 6.12574475437413e-01 1.00922958273459e-03
6.92592592592593e-01 6.12538222026870e-01 1.02636539620046e-03
6.95061728395062e-01 6.12501411995578e-01 1.04361886609453e-03
6.97530864197531e-01 6.12464042853541e-01 1.06098245519287e-03
7.00000000000000e-01 6.12426112380177e-01 1.07857052320967e-03
7.02469135802469e-01 6.12387610321074e-01 1.09675504230420e-03
7.04938271604938e-01 6.12348508533488e-01 1.11591598384015e-03
7.07407407407407e-01 6.12308769776614e-01 1.13616104349674e-03
7.09876543209876e-01 6.12268358267123e-01 1.15745387669856e-03
7.12345679012346e-01 6.12227239641220e-01 1.17975894084526e-03
7.14814814814815e-01 6.12185380917639e-01 1.20304147850848e-03
7.17283950617284e-01 6.12142750461539e-01 1.22726750100830e-03
7.19753086419753e-01 6.12099317949299e-01 1.25240377233607e-03
7.22222222222222e-01 6.12055054334167e-01 1.27841779345207e-03
7.24691358024691e-01 6.12009931812758e-01 1.30527778688452e-03
7.27160493827161e-01 6.11963923792365e-01 1.33295268164466e-03
7.29629629629630e-01 6.11917004859087e-01 1.36141209844403e-03
7.32098765432099e-01 6.11869150746720e-01 1.39062633520114e-03
7.34567901234568e-01 6.11820338306432e-01 1.42056635283890e-03
7.37037037037037e-01 6.11770545477170e-01 1.45120376134999e-03
7.39506172839506e-01 6.11719751256796e-01 1.48251080611169e-03
7.41975308641975e-01 6.11667935673948e-01 1.51446035449720e-03
7.44444444444444e-01 6.11615079760573e-01 1.54702588272800e-03
7.46913580246914e-01 6.11561165525158e-01 1.58018146296881e-03
7.49382716049383e-01 6.11506175926612e-01 1.61390175069423e-03
7.51851851851852e-01 6.11450094848799e-01 1.64816197228670e-03
7.54320987654321e-01 6.11392907075695e-01 1.68293791287352e-03
7.56790123456790e-01 6.11334598267173e-01 1.71820590438765e-03
7.59259259259259e-01 6.11275154935378e-01 1.75394281387289e-03
7.61728395061728e-01 6.11214564421699e-01 1.79012603198700e-03
7.64197530864198e-01 6.11152814874309e-01 1.82673346176666e-03
7.66666666666667e-01 6.11089895226268e-01 1.86374350756564e-03
7.69135802469136e-01 6.11025795174172e-01 1.90113506420115e-03
7.71604938271605e-01 6.10960505157342e-01 1.93888750631882e-03
7.74074074074074e-01 6.10894016337531e-01 1.97698067784193e-03
7.76543209876543e-01 6.10826320579152e-01 2.01539488151704e-03
7.79012345679012e-01 6.10757410430010e-01 2.05411086837856e-03
