Energy (eV)          EEDF (eV^-(3/2))     First Anisotropy
2.97826086956522e-02 5.03378615817872e-02 2.78334476942732e-05
8.93478260869565e-02 4.99611714747381e-02 4.59434177920685e-05
1.48913043478261e-01 4.95873002276679e-02 6.06041341742831e-05
2.08478260869565e-01 4.92162267488444e-02 7.17138047163260e-05
2.68043478260870e-01 4.88479300993861e-02 8.09561071852674e-05
3.27608695652174e-01 4.84823895015017e-02 8.89681838673249e-05
3.87173913043478e-01 4.81195843306184e-02 9.60800346691637e-05
4.46739130434783e-01 4.77594941159524e-02 1.02491100380041e-04
5.06304347826087e-01 4.74020985417482e-02 1.08333760899801e-04
5.65869565217391e-01 4.70473774426031e-02 1.13701654819190e-04
6.25434782608696e-01 4.66953108055085e-02 1.18664153591344e-04
6.85000000000000e-01 4.63458787664163e-02 1.23274497050621e-04
7.44565217391304e-01 4.59990616094938e-02 1.27574699517480e-04
8.04130434782609e-01 4.56548397674604e-02 1.31598675015553e-04
8.63695652173913e-01 4.53131938189175e-02 1.35374316621563e-04
9.23260869565217e-01 4.49741044874609e-02 1.38924929967588e-04
9.82826086956522e-01 4.46375526416966e-02 1.42270252177748e-04
1.04239130434783e+00 4.43035192913032e-02 1.45427193435233e-04
1.10195652173913e+00 4.39719855937503e-02 1.48410390898774e-04
1.16152173913043e+00 4.36429328403811e-02 1.51232628056032e-04
1.22108695652174e+00 4.33163424657452e-02 1.53905157534083e-04
1.28065217391304e+00 4.29921960433552e-02 1.56437955614865e-04
1.34021739130435e+00 4.26704752870923e-02 1.58839924136707e-04
1.39978260869565e+00 4.23511620426174e-02 1.61119051579740e-04
1.45934782608696e+00 4.20342382939732e-02 1.63282543420709e-04
1.51891304347826e+00 4.17196861621580e-02 1.65336931462706e-04
1.57847826086957e+00 4.14074878976850e-02 1.67288161943715e-04
1.63804347826087e+00 4.10976258860514e-02 1.69141669137890e-04
1.69760869565217e+00 4.07900826445468e-02 1.70902438228335e-04
1.75717391304348e+00 4.04848408230703e-02 1.72575058441252e-04
1.81673913043478e+00 4.01818831977777e-02 1.74163767384364e-04
1.87630434782609e+00 3.98811926755179e-02 1.75672488919113e-04
1.93586956521739e+00 3.95827522910434e-02 1.77104866725895e-04
1.99543478260870e+00 3.92865452075779e-02 1.78464293311614e-04
2.05500000000000e+00 3.89925547112875e-02 1.79753934413599e-04
2.11456521739130e+00 3.87007642149462e-02 1.80976750242988e-04
2.17413043478261e+00 3.84111572554533e-02 1.82135515001293e-04
2.23369565217391e+00 3.81237174942151e-02 1.83232834031696e-04
2.29326086956522e+00 3.78384287122629e-02 1.84271158221204e-04
2.35282608695652e+00 3.75552748133241e-02 1.85252796717917e-04
2.41239130434783e+00 3.72742398215818e-02 1.86179929066604e-04
2.47195652173913e+00 3.69953078819156e-02 1.87054616011006e-04
2.53152173913043e+00 3.67184632555399e-02 1.87878808462466e-04
2.59108695652174e+00 3.64436903226058e-02 1.88654355506395e-04
2.65065217391304e+00 3.61709735801576e-02 1.89383012370837e-04
2.71021739130435e+00 3.59002976422634e-02 1.90066447590059e-04
2.76978260869565e+00 3.56316472360833e-02 1.90706248830105e-04
2.82934782608696e+00 3.53650072040917e-02 1.91303927968664e-04
2.88891304347826e+00 3.51003625031180e-02 1.91860927230449e-04
2.94847826086957e+00 3.48376982007039e-02 1.92378623322306e-04
3.00804347826087e+00 3.45769994770711e-02 1.92858331337848e-04
3.06760869565217e+00 3.43182516233360e-02 1.93301308991212e-04
3.12717391304348e+00 3.40614400415157e-02 1.93708760470254e-04
3.18673913043478e+00 3.38065502412003e-02 1.94081839396989e-04
3.24630434782609e+00 3.35535678412542e-02 1.94421651519382e-04
3.30586956521739e+00 3.33024785681567e-02 1.94729257811453e-04
3.36543478260870e+00 3.30532682559469e-02 1.95005677308303e-04
3.42500000000000e+00 3.28059228431684e-02 1.95251889182857e-04
3.48456521739130e+00 3.25604283743453e-02 1.95468834640964e-04
3.54413043478261e+00 3.23167709984336e-02 1.95657419260375e-04
3.60369565217391e+00 3.20749369687165e-02 1.95818515137310e-04
3.66326086956522e+00 3.18349126399856e-02 1.95952962369332e-04
3.72282608695652e+00 3.15966844698263e-02 1.96061570411461e-04
3.78239130434783e+00 3.13602390171665e-02 1.96145119887896e-04
3.84195652173913e+00 3.11255629421317e-02 1.96204364258819e-04
3.90152173913043e+00 3.08926430034340e-02 1.96240030893526e-04
3.96108695652174e+00 3.06614660594944e-02 1.96252822052837e-04
4.02065217391304e+00 3.04320190670779e-02 1.96243416325229e-04
4.08021739130435e+00 3.02042890811166e-02 1.96212469950253e-04
4.13978260869565e+00 2.99782632522814e-02 1.96160617602827e-04
4.19934782608696e+00 2.97539288279652e-02 1.96088472996800e-04
4.25891304347826e+00 2.95312731515177e-02 1.95996630503478e-04
4.31847826086956e+00 2.93102836599465e-02 1.95885665653211e-04
4.37804347826087e+00 2.90909478848018e-02 1.95756135706288e-04
4.43760869565217e+00 2.88732534509365e-02 1.95608580653849e-04
4.49717391304348e+00 2.86571880762923e-02 1.95443524141575e-04
4.55673913043478e+00 2.84427395697511e-02 1.95261473930469e-04
4.61630434782609e+00 2.82298958319112e-02 1.95062922316317e-04
4.67586956521739e+00 2.80186448539129e-02 1.94848346964460e-04
4.73543478260870e+00 2.78089747172063e-02 1.94618211680333e-04
4.79500000000000e+00 2.76008735915370e-02 1.94372966748780e-04
4.85456521739130e+00 2.73943297356283e-02 1.94113049241262e-04
4.91413043478261e+00 2.71893314960663e-02 1.93838883722567e-04
4.97369565217391e+00 2.69858673070528e-02 1.93550882902858e-04
5.03326086956522e+00 2.67839256885135e-02 1.93249447886145e-04
5.09282608695652e+00 2.65834952466967e-02 1.92934968393288e-04
5.15239130434783e+00 2.63845646731135e-02 1.92607823368242e-04
5.21195652173913e+00 2.61871227442791e-02 1.92268381537017e-04
5.27152173913043e+00 2.59911583199318e-02 1.91917001587358e-04
5.33108695652174e+00 2.57966603435588e-02 1.91554032328051e-04
5.39065217391304e+00 2.56036178413869e-02 1.91179813215005e-04
5.45021739130435e+00 2.54120199221148e-02 1.90794674836021e-04
5.50978260869565e+00 2.52218557752333e-02 1.90398939038002e-04
5.56934782608696e+00 2.50331146714868e-02 1.89992918954179e-04
5.62891304347826e+00 2.48457859622432e-02 1.89576919799277e-04
5.68847826086956e+00 2.46598590778868e-02 1.89151238877262e-04
5.74804347826087e+00 2.44753235282337e-02 1.88716165664145e-04
5.80760869565217e+00 2.42921689015998e-02 1.88271982227327e-04
5.86717391304348e+00 2.41103848645244e-02 1.87818963611340e-04
5.92673913043478e+00 2.39299611602511e-02 1.87357377901813e-04
5.98630434782609e+00 2.37508876090907e-02 1.86887486277195e-04
6.04586956521739e+00 2.35731541075305e-02 1.86409543382291e-04
6.10543478260870e+00 2.33967506279543e-02 1.85923797671412e-04
6.16500000000000e+00 2.32216672172035e-02 1.85430491446349e-04
6.22456521739130e+00 2.30478939968931e-02 1.84929860884043e-04
6.28413043478261e+00 2.28754211625608e-02 1.84422136371740e-04
6.34369565217391e+00 2.27042389833832e-02 1.83907542814622e-04
6.40326086956522e+00 2.25343378008121e-02 1.83386299653471e-04
6.46282608695652e+00 2.23657080288489e-02 1.82858620873567e-04
6.52239130434783e+00 2.21983401532297e-02 1.82324715307521e-04
6.58195652173913e+00 2.20322247311409e-02 1.81784786912835e-04
6.64152173913044e+00 2.18673523899232e-02 1.81239034773766e-04
6.70108695652174e+00 2.17037138273105e-02 1.80687653095577e-04
6.76065217391304e+00 2.15412998106477e-02 1.80130831479738e-04
6.82021739130435e+00 2.13801011766071e-02 1.79568755175914e-04
6.87978260869565e+00 2.12201088299557e-02 1.79001605071431e-04
6.93934782608696e+00 2.10613137437613e-02 1.78429557611350e-04
6.99891304347826e+00 2.09037069588678e-02 1.77852785301555e-04
7.05847826086957e+00 2.07472795827101e-02 1.77271456624321e-04
7.11804347826087e+00 2.05920227894960e-02 1.76685736015096e-04
7.17760869565217e+00 2.04379278194780e-02 1.76095784097400e-04
7.23717391304348e+00 2.02849859786713e-02 1.75501757897463e-04
7.29673913043478e+00 2.01331886377259e-02 1.74903810819012e-04
7.35630434782609e+00 1.99825272320806e-02 1.74302092612719e-04
7.41586956521739e+00 1.98329932612644e-02 1.73696749592506e-04
7.47543478260870e+00 1.96845782886161e-02 1.73087924833009e-04
7.53500000000000e+00 1.95372739402089e-02 1.72475758138102e-04
7.59456521739130e+00 1.93910719049808e-02 1.71860386004667e-04
7.65413043478261e+00 1.92459639340630e-02 1.71241941822576e-04
7.71369565217391e+00 1.91019418405019e-02 1.70620556057071e-04
7.77326086956522e+00 1.89589974982335e-02 1.69996356212478e-04
7.83282608695652e+00 1.88171228421915e-02 1.69369466791634e-04
7.89239130434783e+00 1.86763098676623e-02 1.68740009481448e-04
7.95195652173913e+00 1.85365506300095e-02 1.68108103321930e-04
8.01152173913044e+00 1.83978372436948e-02 1.67473864666231e-04
8.07108695652174e+00 1.82601618823665e-02 1.66837407136883e-04
8.13065217391304e+00 1.81235167782399e-02 1.66198841798477e-04
8.19021739130435e+00 1.79878942218235e-02 1.65558277314785e-04
8.24978260869565e+00 1.78532865609854e-02 1.64915819906122e-04
8.30934782608696e+00 1.77196862010228e-02 1.64271573254932e-04
8.36891304347826e+00 1.75870856042247e-02 1.63625638860443e-04
8.42847826086956e+00 1.74554772889686e-02 1.62978115943413e-04
8.48804347826087e+00 1.73248538297783e-02 1.62329101399203e-04
8.54760869565217e+00 1.71952078567443e-02 1.61678689950479e-04
8.60717391304348e+00 1.70665320552569e-02 1.61026974286058e-04
8.66673913043478e+00 1.69388191651436e-02 1.60374045015695e-04
8.72630434782609e+00 1.68120619807122e-02 1.59719990621911e-04
8.78586956521739e+00 1.66862533501921e-02 1.59064897603141e-04
8.84543478260870e+00 1.65613861754723e-02 1.58408850603694e-04
8.90500000000000e+00 1.64374534112753e-02 1.57751932367587e-04
8.96456521739130e+00 1.63144480651872e-02 1.57094223689614e-04
9.02413043478261e+00 1.61923631971203e-02 1.56435803549760e-04
9.08369565217391e+00 1.60711919190540e-02 1.55776749235202e-04
9.14326086956522e+00 1.59509273942450e-02 1.55117136293517e-04
9.20282608695652e+00 1.58315628372454e-02 1.54457038483400e-04
9.26239130434783e+00 1.57130915133841e-02 1.53796527901155e-04
9.32195652173913e+00 1.55955067385136e-02 1.53135675095388e-04
9.38152173913043e+00 1.54788018782518e-02 1.52474549020007e-04
9.44108695652174e+00 1.53629703479907e-02 1.51813216984873e-04
9.50065217391304e+00 1.52480056123963e-02 1.51151744775042e-04
9.56021739130435e+00 1.51339011851595e-02 1.50490196758786e-04
9.61978260869565e+00 1.50206506282701e-02 1.49828635840623e-04
9.67934782608696e+00 1.49082475520150e-02 1.49167123374553e-04
9.73891304347826e+00 1.47966856146114e-02 1.48505719427494e-04
9.79847826086957e+00 1.46859585215042e-02 1.47844482692690e-04
9.85804347826087e+00 1.45760600253570e-02 1.47183470441238e-04
9.91760869565217e+00 1.44669839255836e-02 1.46522738629590e-04
9.97717391304348e+00 1.43587240681066e-02 1.45862341925811e-04
1.00367391304348e+01 1.42512743448959e-02 1.45202333807752e-04
1.00963043478261e+01 1.41446286935206e-02 1.44542766863635e-04
1.01558695652174e+01 1.40387810958789e-02 1.43883691726739e-04
1.02154347826087e+01 1.39337255809943e-02 1.43225157844670e-04
1.02750000000000e+01 1.38294562215197e-02 1.42567214218868e-04
1.03345652173913e+01 1.37259671344629e-02 1.41909908349551e-04
1.03941304347826e+01 1.36232524808559e-02 1.41253286620181e-04
1.04536956521739e+01 1.35213064654258e-02 1.40597394648869e-04
1.05132608695652e+01 1.34201233353097e-02 1.39942276319553e-04
1.05728260869565e+01 1.33196973826238e-02 1.39287974467646e-04
1.06323913043478e+01 1.32200229412261e-02 1.38634531573010e-04
1.06919565217391e+01 1.31210943873749e-02 1.37981988767259e-04
1.07515217391304e+01 1.30229061394131e-02 1.37330386193515e-04
1.08110869565217e+01 1.29254526574527e-02 1.36679763335339e-04
1.08706521739130e+01 1.28287284421774e-02 1.36030158104517e-04
1.09302173913043e+01 1.27327280372061e-02 1.35381607484021e-04
1.09897826086957e+01 1.26374460260912e-02 1.34734148177980e-04
1.10493478260870e+01 1.25428770329168e-02 1.34087815677241e-04
1.11089130434783e+01 1.24490157219974e-02 1.33442644889733e-04
1.11684782608696e+01 1.23558567967455e-02 1.32798669272794e-04
1.12280434782609e+01 1.22633950018818e-02 1.32155921443308e-04
1.12876086956522e+01 1.21716251206112e-02 1.31514433794620e-04
1.13471739130435e+01 1.20805419751769e-02 1.30874237607723e-04
1.14067391304348e+01 1.19901404265682e-02 1.30235363370212e-04
1.14663043478261e+01 1.19004153742315e-02 1.29597841068062e-04
1.15258695652174e+01 1.18113617550133e-02 1.28961699368053e-04
1.15854347826087e+01 1.17229745451972e-02 1.28326966190701e-04
1.16450000000000e+01 1.16352487578809e-02 1.27693669289668e-04
1.17045652173913e+01 1.15481794434797e-02 1.27061835414563e-04
1.17641304347826e+01 1.14617616894481e-02 1.26431490610156e-04
1.18236956521739e+01 1.13759906200028e-02 1.25802660490218e-04
1.18832608695652e+01 1.12908613951347e-02 1.25175369466943e-04
1.19428260869565e+01 1.12063692124884e-02 1.24549641289332e-04
1.20023913043478e+01 1.11225093049236e-02 1.23925499587702e-04
1.20619565217391e+01 1.10392769409727e-02 1.23302967084772e-04
1.21215217391304e+01 1.09566674245755e-02 1.22682065876612e-04
1.21810869565217e+01 1.08746760948137e-02 1.22062817689843e-04
1.22406521739130e+01 1.07932983249870e-02 1.21445243155113e-04
1.23002173913043e+01 1.07125295243486e-02 1.20829362313285e-04
1.23597826086957e+01 1.06323651358354e-02 1.20215195127508e-04
1.24193478260870e+01 1.05528006364851e-02 1.19602760739516e-04
1.24789130434783e+01 1.04738315371828e-02 1.18992077966561e-04
1.25384782608696e+01 1.03954533817846e-02 1.18383164609560e-04
1.25980434782609e+01 1.03176617487454e-02 1.17776037934422e-04
1.26576086956522e+01 1.02404522489774e-02 1.17170715159014e-04
1.27171739130435e+01 1.01638205262369e-02 1.16567212744957e-04
1.27767391304348e+01 1.00877622568789e-02 1.15965546648119e-04
1.28363043478261e+01 1.00122731496138e-02 1.15365732548011e-04
1.28958695652174e+01 9.93734894468678e-03 1.14767785195058e-04
1.29554347826087e+01 9.86298541538360e-03 1.14171718863632e-04
1.30150000000000e+01 9.78917836603366e-03 1.13577547810432e-04
1.30745652173913e+01 9.71592363236331e-03 1.12985285606465e-04
1.31341304347826e+01 9.64321708126121e-03 1.12394945372668e-04
1.31936956521739e+01 9.57105461054546e-03 1.11806539995786e-04
1.32532608695652e+01 9.49943214819434e-03 1.11220081512371e-04
1.33128260869565e+01 9.42834565374003e-03 1.10635581535378e-04
1.33723913043478e+01 9.35779111640592e-03 1.10053051685850e-04
1.34319565217391e+01 9.28776455542859e-03 1.09472502962611e-04
1.34915217391304e+01 9.21826201983398e-03 1.08893945964027e-04
1.35510869565217e+01 9.14927958821429e-03 1.08317391091247e-04
1.36106521739130e+01 9.08081336800647e-03 1.07742847966700e-04
1.36702173913043e+01 9.01285949678318e-03 1.07170325836005e-04
1.37297826086957e+01 8.94541414051391e-03 1.06599833974683e-04
1.37893478260870e+01 8.87847349385857e-03 1.06031381093231e-04
1.38489130434783e+01 8.81203377995396e-03 1.05464975732050e-04
1.39084782608696e+01 8.74609124972830e-03 1.04900625707145e-04
1.39680434782609e+01 8.68064218311463e-03 1.04338338492832e-04
1.40276086956522e+01 8.61568288740623e-03 1.03778121609098e-04
1.40871739130435e+01 8.55120969752974e-03 1.03219982054524e-04
1.41467391304348e+01 8.48721897583815e-03 1.02663926504770e-04
1.42063043478261e+01 8.42370711190629e-03 1.02109961494567e-04
1.42658695652174e+01 8.36067052188713e-03 1.01558092894201e-04
1.43254347826087e+01 8.29810564963711e-03 1.01008326270334e-04
1.43850000000000e+01 8.23600896517895e-03 1.00460667251243e-04
1.44445652173913e+01 8.17437696495084e-03 9.99151209912705e-05
1.45041304347826e+01 8.11320617160901e-03 9.93716923579309e-05
1.45636956521739e+01 8.05249313383172e-03 9.88303861034550e-05
1.46232608695652e+01 7.99223442571456e-03 9.82912063702049e-05
1.46828260869565e+01 7.93242664781468e-03 9.77541570310056e-05
1.47423913043478e+01 7.87306642571313e-03 9.72192420336500e-05
1.48019565217391e+01 7.81415041024221e-03 9.66864648950048e-05
1.48615217391304e+01 7.75567527729713e-03 9.61558288774231e-05
1.49210869565217e+01 7.69763772764827e-03 9.56273371505542e-05
1.49806521739130e+01 7.64003448637270e-03 9.51009923239462e-05
1.50402173913043e+01 7.58286230382382e-03 9.45767967681528e-05
1.50997826086957e+01 7.52611795428583e-03 9.40547529398106e-05
1.51593478260870e+01 7.46979823618141e-03 9.35348629036485e-05
1.52189130434783e+01 7.41389997189177e-03 9.30171286482306e-05
1.52784782608696e+01 7.35842000721581e-03 9.25015516400371e-05
1.53380434782609e+01 7.30335521228304e-03 9.19881331296141e-05
1.53976086956522e+01 7.24870248027877e-03 9.14768744615230e-05
1.54571739130435e+01 7.19445872763729e-03 9.09677766182877e-05
1.55167391304348e+01 7.14062089386779e-03 9.04608403787866e-05
1.55763043478261e+01 7.08718594138214e-03 8.99560664635731e-05
1.56358695652174e+01 7.03415085498587e-03 8.94534551133122e-05
1.56954347826087e+01 6.98151264272678e-03 8.89530063778011e-05
1.57550000000000e+01 6.92926833470061e-03 8.84547204086038e-05
1.58145652173913e+01 6.87741498322751e-03 8.79585970279431e-05
1.58741304347826e+01 6.82594966268582e-03 8.74646358782094e-05
1.59336956521739e+01 6.77486946934717e-03 8.69728365591511e-05
1.59932608695652e+01 6.72417152089736e-03 8.64831982292347e-05
1.60528260869565e+01 6.67385295722540e-03 8.59957198785771e-05
1.61123913043478e+01 6.62391093930415e-03 8.55104006053351e-05
1.61719565217391e+01 6.57434264935142e-03 8.50272392080869e-05
1.62315217391304e+01 6.52514529067127e-03 8.45462343269620e-05
1.62910869565217e+01 6.47631608749625e-03 8.40673845732335e-05
1.63506521739130e+01 6.42785228453600e-03 8.35906881522564e-05
1.64102173913043e+01 6.37975114771146e-03 8.31161431212987e-05
1.64697826086957e+01 6.33200996310514e-03 8.26437476506462e-05
1.65293478260870e+01 6.28462603710819e-03 8.21734996380860e-05
1.65889130434783e+01 6.23759669626898e-03 8.17053969626053e-05
1.66484782608696e+01 6.19091928686305e-03 8.12394371243871e-05
1.67080434782609e+01 6.14459117558555e-03 8.07756174908458e-05
1.67676086956522e+01 6.09860974855499e-03 8.03139355458166e-05
1.68271739130435e+01 6.05297241145016e-03 7.98543885214838e-05
1.68867391304348e+01 6.00767658936366e-03 7.93969735254071e-05
1.69463043478261e+01 5.96271972665692e-03 7.89416876571710e-05
1.70058695652174e+01 5.91809928655494e-03 7.84885276677611e-05
1.70654347826087e+01 5.87381275179095e-03 7.80374901920926e-05
1.71250000000000e+01 5.82985762367144e-03 7.75885719845333e-05
1.71845652173913e+01 5.78623142220112e-03 7.71417695706530e-05
1.72441304347826e+01 5.74293168594312e-03 7.66970793672848e-05
1.73036956521739e+01 5.69995597188019e-03 7.62544977927610e-05
1.73632608695652e+01 5.65730185503260e-03 7.58140209445352e-05
1.74228260869565e+01 5.61496692905859e-03 7.53756448190346e-05
1.74823913043478e+01 5.57294880537656e-03 7.49393655343071e-05
1.75419565217391e+01 5.53124511327905e-03 7.45051790004702e-05
1.76015217391304e+01 5.48985349979933e-03 7.40730810331936e-05
1.76610869565217e+01 5.44877162957850e-03 7.36430674579172e-05
1.77206521739130e+01 5.40799718450505e-03 7.32151338046956e-05
1.77802173913043e+01 5.36752786427453e-03 7.27892755160884e-05
1.78397826086957e+01 5.32736138556479e-03 7.23654881577085e-05
1.78993478260870e+01 5.28749548214018e-03 7.19437671062830e-05
1.79589130434783e+01 5.24792790472402e-03 7.15241077542997e-05
1.80184782608696e+01 5.20865642065475e-03 7.11065052184602e-05
1.80780434782609e+01 5.16967881441440e-03 7.06909545382022e-05
1.81376086956522e+01 5.13099288684497e-03 7.02774508768028e-05
1.81971739130435e+01 5.09259645524522e-03 6.98659892233483e-05
1.82567391304348e+01 5.05448735324750e-03 6.94565644950735e-05
1.83163043478261e+01 5.01666343069579e-03 6.90491716313680e-05
1.83758695652174e+01 4.97912255332104e-03 6.86438053177230e-05
1.84354347826087e+01 4.94186260323407e-03 6.82404601735246e-05
1.84950000000000e+01 4.90488147818888e-03 6.78391309422948e-05
1.85545652173913e+01 4.86817709167100e-03 6.74398122095242e-05
1.86141304347826e+01 4.83174737277985e-03 6.70424984994587e-05
1.86736956521739e+01 4.79559026611200e-03 6.66471843640384e-05
1.87332608695652e+01 4.75970373145466e-03 6.62538641214560e-05
1.87928260869565e+01 4.72408574424549e-03 6.58625320338391e-05
