Energy (eV)          EEDF (eV^-(3/2))     First Anisotropy
1.34375000000000e-03 4.95286765973021e+00 2.59502956271926e-03
4.03125000000000e-03 4.91722555548323e+00 4.28411529989675e-03
6.71875000000000e-03 4.88183994092201e+00 5.65282652084563e-03
9.40625000000000e-03 4.84670897030031e+00 6.69101072984825e-03
1.20937500000000e-02 4.81183081113883e+00 7.55551607930024e-03
1.47812500000000e-02 4.77720364414282e+00 8.30567242262945e-03
1.74687500000000e-02 4.74282566310892e+00 8.97219656431439e-03
2.01562500000000e-02 4.70869507483143e+00 9.57364544866825e-03
2.28437500000000e-02 4.67481009900885e+00 1.01223315803876e-02
2.55312500000000e-02 4.64116896815118e+00 1.06269608357447e-02
2.82187500000000e-02 4.60776992748764e+00 1.10939804433237e-02
3.09062500000000e-02 4.57461123487524e+00 1.15283365057283e-02
3.35937500000000e-02 4.54169116070788e+00 1.19339307922856e-02
3.62812500000000e-02 4.50900798782613e+00 1.23139116422221e-02
3.89687500000000e-02 4.47656001142769e+00 1.26708674856881e-02
4.16562500000000e-02 4.44434553897842e+00 1.30069602677294e-02
4.43437500000000e-02 4.41236289012412e+00 1.33240202270698e-02
4.70312500000000e-02 4.38061039660283e+00 1.36236149518702e-02
4.97187500000000e-02 4.34908640215782e+00 1.39071008031725e-02
5.24062500000000e-02 4.31778926245122e+00 1.41756619416844e-02
5.50937500000000e-02 4.28671734497823e+00 1.44303404441122e-02
5.77812500000000e-02 4.25586902898199e+00 1.46720598890354e-02
6.04687500000000e-02 4.22524270536899e+00 1.49016440732466e-02
6.31562500000000e-02 4.19483677662518e+00 1.51198320405882e-02
6.58437500000000e-02 4.16464965673264e+00 1.53272902793827e-02
6.85312500000000e-02 4.13467977108684e+00 1.55246227183172e-02
7.12187500000000e-02 4.10492555641449e+00 1.57123789908994e-02
7.39062500000000e-02 4.07538546069202e+00 1.58910613239547e-02
7.65937500000000e-02 4.04605794306464e+00 1.60611303221564e-02
7.92812500000000e-02 4.01694147376592e+00 1.62230098589903e-02
8.19687500000000e-02 3.98803453403803e+00 1.63770912385733e-02
8.46562500000000e-02 3.95933561605252e+00 1.65237367579913e-02
8.73437500000000e-02 3.93084322283164e+00 1.66632827733048e-02
9.00312500000000e-02 3.90255586817030e+00 1.67960423519483e-02
9.27187500000000e-02 3.87447207655849e+00 1.69223075783557e-02
9.54062500000000e-02 3.84659038310439e+00 1.70423515671851e-02
9.80937500000000e-02 3.81890933345787e+00 1.71564302286695e-02
1.00781250000000e-01 3.79142748373471e+00 1.72647838227869e-02
1.03468750000000e-01 3.76414340044124e+00 1.73676383326561e-02
1.06156250000000e-01 3.73705566039958e+00 1.74652066824942e-02
1.08843750000000e-01 3.71016285067339e+00 1.75576898213613e-02
1.11531250000000e-01 3.68346356849420e+00 1.76452776905507e-02
1.14218750000000e-01 3.65695642118822e+00 1.77281500897240e-02
1.16906250000000e-01 3.63064002610367e+00 1.78064774546225e-02
1.19593750000000e-01 3.60451301053872e+00 1.78804215572834e-02
1.22281250000000e-01 3.57857401166984e+00 1.79501361381304e-02
1.24968750000000e-01 3.55282167648072e+00 1.80157674779825e-02
1.27656250000000e-01 3.52725466169172e+00 1.80774549169133e-02
1.30343750000000e-01 3.50187163368977e+00 1.81353313259791e-02
1.33031250000000e-01 3.47667126845882e+00 1.81895235370136e-02
1.35718750000000e-01 3.45165225151078e+00 1.82401527350376e-02
1.38406250000000e-01 3.42681327781697e+00 1.82873348172515e-02
1.41093750000000e-01 3.40215305174001e+00 1.83311807220796e-02
1.43781250000000e-01 3.37767028696627e+00 1.83717967313190e-02
1.46468750000000e-01 3.35336370643875e+00 1.84092847480834e-02
1.49156250000000e-01 3.32923204229049e+00 1.84437425529115e-02
1.51843750000000e-01 3.30527403577843e+00 1.84752640401443e-02
1.54531250000000e-01 3.28148843721773e+00 1.85039394364344e-02
1.57218750000000e-01 3.25787400591661e+00 1.85298555030419e-02
1.59906250000000e-01 3.23442951011165e+00 1.85530957233966e-02
1.62593750000000e-01 3.21115372690346e+00 1.85737404772451e-02
1.65281250000000e-01 3.18804544219301e+00 1.85918672025614e-02
1.67968750000000e-01 3.16510345061819e+00 1.86075505462809e-02
1.70656250000000e-01 3.14232655549101e+00 1.86208625048072e-02
1.73343750000000e-01 3.11971356873515e+00 1.86318725551492e-02
1.76031250000000e-01 3.09726331082398e+00 1.86406477774560e-02
1.78718750000000e-01 3.07497461071905e+00 1.86472529696483e-02
1.81406250000000e-01 3.05284630580901e+00 1.86517507547804e-02
1.84093750000000e-01 3.03087724184895e+00 1.86542016816931e-02
1.86781250000000e-01 3.00906627290022e+00 1.86546643194842e-02
1.89468750000000e-01 2.98741226127061e+00 1.86531953462686e-02
1.92156250000000e-01 2.96591407745505e+00 1.86498496326465e-02
1.94843750000000e-01 2.94457060007669e+00 1.86446803202784e-02
1.97531250000000e-01 2.92338071582837e+00 1.86377388959236e-02
2.00218750000000e-01 2.90234331941459e+00 1.86290752612636e-02
2.02906250000000e-01 2.88145731349384e+00 1.86187377988074e-02
2.05593750000000e-01 2.86072160862134e+00 1.86067734341566e-02
2.08281250000000e-01 2.84013512319227e+00 1.85932276948829e-02
2.10968750000000e-01 2.81969678338527e+00 1.85781447662387e-02
2.13656250000000e-01 2.79940552310653e+00 1.85615675439177e-02
2.16343750000000e-01 2.77926028393406e+00 1.85435376840620e-02
2.19031250000000e-01 2.75926001506260e+00 1.85240956506939e-02
2.21718750000000e-01 2.73940367324872e+00 1.85032807607391e-02
2.24406250000000e-01 2.71969022275646e+00 1.84811312267862e-02
2.27093750000000e-01 2.70011863530326e+00 1.84576841977376e-02
2.29781250000000e-01 2.68068789000635e+00 1.84329757974738e-02
2.32468750000000e-01 2.66139697332952e+00 1.84070411616506e-02
2.35156250000000e-01 2.64224487903018e+00 1.83799144727514e-02
2.37843750000000e-01 2.62323060810697e+00 1.83516289934900e-02
2.40531250000000e-01 2.60435316874755e+00 1.83222170986592e-02
2.43218750000000e-01 2.58561157627695e+00 1.82917103055273e-02
2.45906250000000e-01 2.56700485310617e+00 1.82601393028578e-02
2.48593750000000e-01 2.54853202868117e+00 1.82275339786254e-02
2.51281250000000e-01 2.53019213943228e+00 1.81939234465135e-02
2.53968750000000e-01 2.51198422872394e+00 1.81593360712561e-02
2.56656250000000e-01 2.49390734680475e+00 1.81237994928798e-02
2.59343750000000e-01 2.47596055075799e+00 1.80873406499178e-02
2.62031250000000e-01 2.45814290445240e+00 1.80499858016431e-02
2.64718750000000e-01 2.44045347849336e+00 1.80117605493765e-02
2.67406250000000e-01 2.42289135017442e+00 1.79726898569168e-02
2.70093750000000e-01 2.40545560342915e+00 1.79327980701356e-02
2.72781250000000e-01 2.38814532878339e+00 1.78921089357871e-02
2.75468750000000e-01 2.37095962330775e+00 1.78506456195632e-02
2.78156250000000e-01 2.35389759057060e+00 1.78084307234423e-02
2.80843750000000e-01 2.33695834059122e+00 1.77654863023598e-02
2.83531250000000e-01 2.32014098979344e+00 1.77218338802313e-02
2.86218750000000e-01 2.30344466095953e+00 1.76774944653671e-02
2.88906250000000e-01 2.28686848318444e+00 1.76324885653053e-02
2.91593750000000e-01 2.27041159183037e+00 1.75868362010918e-02
2.94281250000000e-01 2.25407312848168e+00 1.75405569210248e-02
2.96968750000000e-01 2.23785224090012e+00 1.74936698139028e-02
2.99656250000000e-01 2.22174808298035e+00 1.74461935217889e-02
3.02343750000000e-01 2.20575981470582e+00 1.73981462523170e-02
3.05031250000000e-01 2.18988660210496e+00 1.73495457905590e-02
3.07718750000000e-01 2.17412761720768e+00 1.73004095104762e-02
3.10406250000000e-01 2.15848203800216e+00 1.72507543859719e-02
3.13093750000000e-01 2.14294904839199e+00 1.72005970015587e-02
3.15781250000000e-01 2.12752783815362e+00 1.71499535626642e-02
3.18468750000000e-01 2.11221760289405e+00 1.70988399055851e-02
3.21156250000000e-01 2.09701754400890e+00 1.70472715071078e-02
3.23843750000000e-01 2.08192686864078e+00 1.69952634938097e-02
3.26531250000000e-01 2.06694478963786e+00 1.69428306510510e-02
3.29218750000000e-01 2.05207052551290e+00 1.68899874316763e-02
3.31906250000000e-01 2.03730330040241e+00 1.68367479644315e-02
3.34593750000000e-01 2.02264234402624e+00 1.67831260621085e-02
3.37281250000000e-01 2.00808689164734e+00 1.67291352294381e-02
3.39968750000000e-01 1.99363618403194e+00 1.66747886707282e-02
3.42656250000000e-01 1.97928946740988e+00 1.66200992972600e-02
3.45343750000000e-01 1.96504599343534e+00 1.65650797344629e-02
3.48031250000000e-01 1.95090501914779e+00 1.65097423288645e-02
3.50718750000000e-01 1.93686580693322e+00 1.64540991548264e-02
3.53406250000000e-01 1.92292762448569e+00 1.63981620210800e-02
3.56093750000000e-01 1.90908974476913e+00 1.63419424770635e-02
3.58781250000000e-01 1.89535144597938e+00 1.62854518190710e-02
3.61468750000000e-01 1.88171201150659e+00 1.62287010962232e-02
3.64156250000000e-01 1.86817072989782e+00 1.61717011162592e-02
3.66843750000000e-01 1.85472689481991e+00 1.61144624511574e-02
3.69531250000000e-01 1.84137980502267e+00 1.60569954426032e-02
3.72218750000000e-01 1.82812876430228e+00 1.59993102072936e-02
3.74906250000000e-01 1.81497308146498e+00 1.59414166420901e-02
3.77593750000000e-01 1.80191207029103e+00 1.58833244290317e-02
3.80281250000000e-01 1.78894504949887e+00 1.58250430402034e-02
3.82968750000000e-01 1.77607134270965e+00 1.57665817424699e-02
3.85656250000000e-01 1.76329027841191e+00 1.57079496020814e-02
3.88343750000000e-01 1.75060118992654e+00 1.56491554891519e-02
3.91031250000000e-01 1.73800341537204e+00 1.55902080820139e-02
3.93718750000000e-01 1.72549629762998e+00 1.55311158714581e-02
3.96406250000000e-01 1.71307918431072e+00 1.54718871648577e-02
3.99093750000000e-01 1.70075142771936e+00 1.54125300901844e-02
4.01781250000000e-01 1.68851238482202e+00 1.53530525999194e-02
4.04468750000000e-01 1.67636141721223e+00 1.52934624748571e-02
4.07156250000000e-01 1.66429789107766e+00 1.52337673278136e-02
4.09843750000000e-01 1.65232117716705e+00 1.51739746072400e-02
4.12531250000000e-01 1.64043065075741e+00 1.51140916007394e-02
4.15218750000000e-01 1.62862569162140e+00 1.50541254384950e-02
4.17906250000000e-01 1.61690568399501e+00 1.49940830966123e-02
4.20593750000000e-01 1.60527001654541e+00 1.49339714003758e-02
4.23281250000000e-01 1.59371808233910e+00 1.48737970274259e-02
4.25968750000000e-01 1.58224927881019e+00 1.48135665108548e-02
4.28656250000000e-01 1.57086300772905e+00 1.47532862422256e-02
4.31343750000000e-01 1.55955867517105e+00 1.46929624745178e-02
4.34031250000000e-01 1.54833569148557e+00 1.46326013250016e-02
4.36718750000000e-01 1.53719347126531e+00 1.45722087780406e-02
4.39406250000000e-01 1.52613143331567e+00 1.45117906878291e-02
4.42093750000000e-01 1.51514900062451e+00 1.44513527810598e-02
4.44781250000000e-01 1.50424560033198e+00 1.43909006595317e-02
4.47468750000000e-01 1.49342066370072e+00 1.43304398026950e-02
4.50156250000000e-01 1.48267362608610e+00 1.42699755701341e-02
4.52843750000000e-01 1.47200392690687e+00 1.42095132039934e-02
4.55531250000000e-01 1.46141100961582e+00 1.41490578313474e-02
4.58218750000000e-01 1.45089432167082e+00 1.40886144665155e-02
4.60906250000000e-01 1.44045331450598e+00 1.40281880133218e-02
4.63593750000000e-01 1.43008744350301e+00 1.39677832673044e-02
4.66281250000000e-01 1.41979616796285e+00 1.39074049178747e-02
4.68968750000000e-01 1.40957895107744e+00 1.38470575504252e-02
4.71656250000000e-01 1.39943525990174e+00 1.37867456483916e-02
4.74343750000000e-01 1.38936456532590e+00 1.37264735952688e-02
4.77031250000000e-01 1.37936634204769e+00 1.36662456765804e-02
4.79718750000000e-01 1.36944006854510e+00 1.36060660818064e-02
4.82406250000000e-01 1.35958522704910e+00 1.35459389062656e-02
4.85093750000000e-01 1.34980130351669e+00 1.34858681529572e-02
4.87781250000000e-01 1.34008778760404e+00 1.34258577343643e-02
4.90468750000000e-01 1.33044417263987e+00 1.33659114742147e-02
4.93156250000000e-01 1.32086995559906e+00 1.33060331092061e-02
4.95843750000000e-01 1.31136463707637e+00 1.32462262906920e-02
4.98531250000000e-01 1.30192772126043e+00 1.31864945863334e-02
5.01218750000000e-01 1.29255871590783e+00 1.31268414817119e-02
5.03906250000000e-01 1.28325713231749e+00 1.30672703819119e-02
5.06593750000000e-01 1.27402248530513e+00 1.30077846130684e-02
5.09281250000000e-01 1.26485429317800e+00 1.29483874238798e-02
5.11968750000000e-01 1.25575207770971e+00 1.28890819870912e-02
5.14656250000000e-01 1.24671536411535e+00 1.28298714009463e-02
5.17343750000000e-01 1.23774368102663e+00 1.27707586906073e-02
5.20031250000000e-01 1.22883656046739e+00 1.27117468095464e-02
5.22718750000000e-01 1.21999353782912e+00 1.26528386409111e-02
5.25406250000000e-01 1.21121415184678e+00 1.25940369988581e-02
5.28093750000000e-01 1.20249794457468e+00 1.25353446298587e-02
5.30781250000000e-01 1.19384446136265e+00 1.24767642139803e-02
5.33468750000000e-01 1.18525325083228e+00 1.24182983661434e-02
5.36156250000000e-01 1.17672386485340e+00 1.23599496373484e-02
5.38843750000000e-01 1.16825585852070e+00 1.23017205158799e-02
5.41531250000000e-01 1.15984879013054e+00 1.22436134284869e-02
5.44218750000000e-01 1.15150222115786e+00 1.21856307415404e-02
5.46906250000000e-01 1.14321571623337e+00 1.21277747621665e-02
5.49593750000000e-01 1.13498884312078e+00 1.20700477393563e-02
5.52281250000000e-01 1.12682117269431e+00 1.20124518650551e-02
5.54968750000000e-01 1.11871227891627e+00 1.19549892752308e-02
5.57656250000000e-01 1.11066173881482e+00 1.18976620509188e-02
5.60343750000000e-01 1.10266913246198e+00 1.18404722192475e-02
5.63031250000000e-01 1.09473404295165e+00 1.17834217544464e-02
5.65718750000000e-01 1.08685605637790e+00 1.17265125788293e-02
5.68406250000000e-01 1.07903476181336e+00 1.16697465637633e-02
5.71093750000000e-01 1.07126975128783e+00 1.16131255306169e-02
5.73781250000000e-01 1.06356061976693e+00 1.15566512516890e-02
5.76468750000000e-01 1.05590696513105e+00 1.15003254511217e-02
5.79156250000000e-01 1.04830838815430e+00 1.14441498057952e-02
5.81843750000000e-01 1.04076449248375e+00 1.13881259462052e-02
5.84531250000000e-01 1.03327488461870e+00 1.13322554573241e-02
5.87218750000000e-01 1.02583917389020e+00 1.12765398794446e-02
5.89906250000000e-01 1.01845697244066e+00 1.12209807090083e-02
5.92593750000000e-01 1.01112789520360e+00 1.11655793994210e-02
5.95281250000000e-01 1.00385155988358e+00 1.11103373618479e-02
5.97968750000000e-01 9.96627586936245e-01 1.10552559659968e-02
6.00656250000000e-01 9.89455599548561e-01 1.10003365408865e-02
6.03343750000000e-01 9.82335223619122e-01 1.09455803756005e-02
6.06031250000000e-01 9.75266087738656e-01 1.08909887200263e-02
6.08718750000000e-01 9.68247823170645e-01 1.08365627855825e-02
6.11406250000000e-01 9.61280063832095e-01 1.07823037459316e-02
6.14093750000000e-01 9.54362446274438e-01 1.07282127376770e-02
6.16781250000000e-01 9.47494609664575e-01 1.06742908610511e-02
6.19468750000000e-01 9.40676195766057e-01 1.06205391805895e-02
6.22156250000000e-01 9.33906848920394e-01 1.05669587257940e-02
6.24843750000000e-01 9.27186216028504e-01 1.05135504917791e-02
6.27531250000000e-01 9.20513946532300e-01 1.04603154399117e-02
6.30218750000000e-01 9.13889692396398e-01 1.04072544984378e-02
6.32906250000000e-01 9.07313108089967e-01 1.03543685630954e-02
6.35593750000000e-01 9.00783850568705e-01 1.03016584977192e-02
6.38281250000000e-01 8.94301579256943e-01 1.02491251348341e-02
6.40968750000000e-01 8.87865956029882e-01 1.01967692762361e-02
6.43656250000000e-01 8.81476645195957e-01 1.01445916935654e-02
6.46343750000000e-01 8.75133313479324e-01 1.00925931288666e-02
6.49031250000000e-01 8.68835630002479e-01 1.00407742951400e-02
6.51718750000000e-01 8.62583266268996e-01 9.98913587688434e-03
6.54406250000000e-01 8.56375896146394e-01 9.93767853062832e-03
6.57093750000000e-01 8.50213195849125e-01 9.88640288545292e-03
6.59781250000000e-01 8.44094843921684e-01 9.83530954350469e-03
6.62468750000000e-01 8.38020521221842e-01 9.78439908049991e-03
6.65156250000000e-01 8.31989910904000e-01 9.73367204621944e-03
6.67843750000000e-01 8.26002698402661e-01 9.68312896499574e-03
6.70531250000000e-01 8.20058571416022e-01 9.63277033619107e-03
6.73218750000000e-01 8.14157219889682e-01 9.58259663466557e-03
6.75906250000000e-01 8.08298336000474e-01 9.53260831124022e-03
6.78593750000000e-01 8.02481614140404e-01 9.48280579315082e-03
6.81281250000000e-01 7.96706750900710e-01 9.43318948449141e-03
6.83968750000000e-01 7.90973445056038e-01 9.38375976665202e-03
6.86656250000000e-01 7.85281397548730e-01 9.33451699874933e-03
6.89343750000000e-01 7.79630311473222e-01 9.28546151804934e-03
6.92031250000000e-01 7.74019892060559e-01 9.23659364038200e-03
6.94718750000000e-01 7.68449846663019e-01 9.18791366054974e-03
6.97406250000000e-01 7.62919884738848e-01 9.13942185272753e-03
7.00093750000000e-01 7.57429717837105e-01 9.09111847085735e-03
7.02781250000000e-01 7.51979059582615e-01 9.04300374903624e-03
7.05468750000000e-01 7.46567625661034e-01 8.99507790189592e-03
7.08156250000000e-01 7.41195133804015e-01 8.94734112497649e-03
7.10843750000000e-01 7.35861303774487e-01 8.89979359509475e-03
7.13531250000000e-01 7.30565857352037e-01 8.85243547070506e-03
7.16218750000000e-01 7.25308518318396e-01 8.80526689225418e-03
7.18906250000000e-01 7.20089012443035e-01 8.75828798253102e-03
7.21593750000000e-01 7.14907067468855e-01 8.71149884700912e-03
7.24281250000000e-01 7.09762413097992e-01 8.66489957418410e-03
7.26968750000000e-01 7.04654780977711e-01 8.61849023590466e-03
7.29656250000000e-01 6.99583904686417e-01 8.57227088769906e-03
7.32343750000000e-01 6.94549519719748e-01 8.52624156909512e-03
7.35031250000000e-01 6.89551363476786e-01 8.48040230393473e-03
7.37718750000000e-01 6.84589175246356e-01 8.43475310068388e-03
7.40406250000000e-01 6.79662696193426e-01 8.38929395273601e-03
7.43093750000000e-01 6.74771669345609e-01 8.34402483871225e-03
7.45781250000000e-01 6.69915839579757e-01 8.29894572275461e-03
7.48468750000000e-01 6.65094953608652e-01 8.25405655481505e-03
7.51156250000000e-01 6.60308759967796e-01 8.20935727094015e-03
7.53843750000000e-01 6.55557009002297e-01 8.16484779355003e-03
7.56531250000000e-01 6.50839452853839e-01 8.12052803171358e-03
7.59218750000000e-01 6.46155845447761e-01 8.07639788141784e-03
7.61906250000000e-01 6.41505942480217e-01 8.03245722583409e-03
7.64593750000000e-01 6.36889501405434e-01 7.98870593557820e-03
7.67281250000000e-01 6.32306281423062e-01 7.94514386896775e-03
7.69968750000000e-01 6.27756043465610e-01 7.90177087227457e-03
7.72656250000000e-01 6.23238550185979e-01 7.85858677997163e-03
7.75343750000000e-01 6.18753565945079e-01 7.81559141497839e-03
7.78031250000000e-01 6.14300856799543e-01 7.77278458890067e-03
7.80718750000000e-01 6.09880190489517e-01 7.73016610226568e-03
7.83406250000000e-01 6.05491336426549e-01 7.68773574475368e-03
7.86093750000000e-01 6.01134065681561e-01 7.64549329542649e-03
7.88781250000000e-01 5.96808150972908e-01 7.60343852295201e-03
7.91468750000000e-01 5.92513366654519e-01 7.56157118582371e-03
7.94156250000000e-01 5.88249488704134e-01 7.51989103257837e-03
7.96843750000000e-01 5.84016294711613e-01 7.47839780200868e-03
7.99531250000000e-01 5.79813563867334e-01 7.43709122337292e-03
8.02218750000000e-01 5.75641076950681e-01 7.39597101660077e-03
8.04906250000000e-01 5.71498616318604e-01 7.35503689249580e-03
8.07593750000000e-01 5.67385965894268e-01 7.31428855293541e-03
8.10281250000000e-01 5.63302911155783e-01 7.27372569106669e-03
8.12968750000000e-01 5.59249239125012e-01 7.23334799149835e-03
8.15656250000000e-01 5.55224738356467e-01 7.19315513048985e-03
8.18343750000000e-01 5.51229198926270e-01 7.15314677613960e-03
8.21031250000000e-01 5.47262412421215e-01 7.11332258856619e-03
8.23718750000000e-01 5.43324171927886e-01 7.07368222008900e-03
8.26406250000000e-01 5.39414272021872e-01 7.03422531540612e-03
8.29093750000000e-01 5.35532508757047e-01 6.99495151176716e-03
8.31781250000000e-01 5.31678679654935e-01 6.95586043914493e-03
8.34468750000000e-01 5.27852583694145e-01 6.91695172040468e-03
8.37156250000000e-01 5.24054021299890e-01 6.87822497146896e-03
8.39843750000000e-01 5.20282794333571e-01 6.83967980148022e-03
8.42531250000000e-01 5.16538706082449e-01 6.80131581296154e-03
8.45218750000000e-01 5.12821561249378e-01 6.76313260197352e-03
8.47906250000000e-01 5.09131165942619e-01 6.72512975826909e-03
