Energy (eV)          EEDF (eV^-(3/2))     First Anisotropy
2.45312500000000e-03 3.67660510179987e+00 2.36956278892635e-03
7.35937500000000e-03 3.63702905986151e+00 3.90488976725891e-03
1.22656250000000e-02 3.59787902589850e+00 5.13392671129764e-03
1.71718750000000e-02 3.55915041423763e+00 6.05497163022258e-03
2.20781250000000e-02 3.52083868856720e+00 6.81272564475032e-03
2.69843750000000e-02 3.48293936140569e+00 7.46221819168058e-03
3.18906250000000e-02 3.44544799357613e+00 8.03208515138200e-03
3.67968750000000e-02 3.40836019368614e+00 8.53971237344911e-03
4.17031250000000e-02 3.37167161761356e+00 8.99669178931527e-03
4.66093750000000e-02 3.33537796799761e+00 9.41125936805412e-03
5.15156250000000e-02 3.29947499373556e+00 9.78954343679899e-03
5.64218750000000e-02 3.26395848948478e+00 1.01362675627838e-02
6.13281250000000e-02 3.22882429517015e+00 1.04551752145790e-02
6.62343750000000e-02 3.19406829549682e+00 1.07493007212390e-02
7.11406250000000e-02 3.15968641946816e+00 1.10211498710238e-02
7.60468750000000e-02 3.12567463990891e+00 1.12728246651017e-02
8.09531250000000e-02 3.09202897299352e+00 1.15061121082911e-02
8.58593750000000e-02 3.05874547777948e+00 1.17225490275578e-02
9.07656250000000e-02 3.02582025574571e+00 1.19234704345954e-02
9.56718750000000e-02 2.99324945033596e+00 1.21100463021312e-02
1.00578125000000e-01 2.96102924650706e+00 1.22833100002313e-02
1.05484375000000e-01 2.92915587028208e+00 1.24441806113544e-02
1.10390625000000e-01 2.89762558830825e+00 1.25934806743596e-02
1.15296875000000e-01 2.86643470741971e+00 1.27319504619824e-02
1.20203125000000e-01 2.83557957420490e+00 1.28602595926420e-02
1.25109375000000e-01 2.80505657457863e+00 1.29790165665171e-02
1.30015625000000e-01 2.77486213335878e+00 1.30887766666996e-02
1.34921875000000e-01 2.74499271384753e+00 1.31900485591330e-02
1.39828125000000e-01 2.71544481741709e+00 1.32832998469692e-02
1.44734375000000e-01 2.68621498309991e+00 1.33689617773350e-02
1.49640625000000e-01 2.65729978718331e+00 1.34474332553964e-02
1.54546875000000e-01 2.62869584280844e+00 1.35190842880233e-02
1.59453125000000e-01 2.60039979957356e+00 1.35842589544643e-02
1.64359375000000e-01 2.57240834314167e+00 1.36432779822422e-02
1.69265625000000e-01 2.54471819485219e+00 1.36964409915307e-02
1.74171875000000e-01 2.51732611133705e+00 1.37440284595464e-02
1.79078125000000e-01 2.49022888414071e+00 1.37863034472090e-02
1.83984375000000e-01 2.46342333934436e+00 1.38235131229248e-02
1.88890625000000e-01 2.43690633719420e+00 1.38558901124183e-02
1.93796875000000e-01 2.41067477173362e+00 1.38836536987459e-02
1.98703125000000e-01 2.38472557043944e+00 1.39070108927240e-02
2.03609375000000e-01 2.35905569386203e+00 1.39261573908290e-02
2.08515625000000e-01 2.33366213526923e+00 1.39412784349993e-02
2.13421875000000e-01 2.30854192029426e+00 1.39525495866229e-02
2.18328125000000e-01 2.28369210658726e+00 1.39601374251910e-02
2.23234375000000e-01 2.25910978347068e+00 1.39642001805928e-02
2.28140625000000e-01 2.23479207159835e+00 1.39648883067956e-02
2.33046875000000e-01 2.21073612261821e+00 1.39623450035816e-02
2.37953125000000e-01 2.18693911883870e+00 1.39567066921200e-02
2.42859375000000e-01 2.16339827289870e+00 1.39481034494128e-02
2.47765625000000e-01 2.14011082744104e+00 1.39366594059938e-02
2.52671875000000e-01 2.11707405478955e+00 1.39224931107192e-02
2.57578125000000e-01 2.09428525662957e+00 1.39057178660160e-02
2.62484375000000e-01 2.07174176369186e+00 1.38864420365431e-02
2.67390625000000e-01 2.04944093543997e+00 1.38647693338813e-02
2.72296875000000e-01 2.02738015976097e+00 1.38407990795584e-02
2.77203125000000e-01 2.00555685265944e+00 1.38146264484561e-02
2.82109375000000e-01 1.98396845795486e+00 1.37863426944125e-02
2.87015625000000e-01 1.96261244698216e+00 1.37560353596446e-02
2.91921875000000e-01 1.94148631829556e+00 1.37237884694321e-02
2.96828125000000e-01 1.92058759737557e+00 1.36896827133547e-02
3.01734375000000e-01 1.89991383633913e+00 1.36537956142426e-02
3.06640625000000e-01 1.87946261365293e+00 1.36162016858773e-02
3.11546875000000e-01 1.85923153384971e+00 1.35769725803771e-02
3.16453125000000e-01 1.83921822724774e+00 1.35361772261152e-02
3.21359375000000e-01 1.81942034967322e+00 1.34938819569272e-02
3.26265625000000e-01 1.79983558218573e+00 1.34501506332954e-02
3.31171875000000e-01 1.78046163080656e+00 1.34050447561366e-02
3.36078125000000e-01 1.76129622625009e+00 1.33586235737572e-02
3.40984375000000e-01 1.74233712365793e+00 1.33109441824917e-02
3.45890625000000e-01 1.72358210233600e+00 1.32620616214908e-02
3.50796875000000e-01 1.70502896549441e+00 1.32120289620863e-02
3.55703125000000e-01 1.68667553999015e+00 1.31608973921216e-02
3.60609375000000e-01 1.66851967607256e+00 1.31087162956065e-02
3.65515625000000e-01 1.65055924713152e+00 1.30555333280190e-02
3.70421875000000e-01 1.63279214944833e+00 1.30013944875545e-02
3.75328125000000e-01 1.61521630194937e+00 1.29463441825968e-02
3.80234375000000e-01 1.59782964596228e+00 1.28904252956619e-02
3.85140625000000e-01 1.58063014497482e+00 1.28336792440469e-02
3.90046875000000e-01 1.56361578439639e+00 1.27761460373986e-02
3.94953125000000e-01 1.54678457132203e+00 1.27178643323958e-02
3.99859375000000e-01 1.53013453429896e+00 1.26588714847293e-02
4.04765625000000e-01 1.51366372309570e+00 1.25992035985484e-02
4.09671875000000e-01 1.49737020847363e+00 1.25388955735276e-02
4.14578125000000e-01 1.48125208196101e+00 1.24779811496973e-02
4.19484375000000e-01 1.46530745562945e+00 1.24164929501728e-02
4.24390625000000e-01 1.44953446187275e+00 1.23544625219057e-02
4.29296875000000e-01 1.43393125318819e+00 1.22919203745737e-02
4.34203125000000e-01 1.41849600196007e+00 1.22288960177120e-02
4.39109375000000e-01 1.40322690024571e+00 1.21654179961895e-02
4.44015625000000e-01 1.38812215956363e+00 1.21015139241217e-02
4.48921875000000e-01 1.37318001068408e+00 1.20372105173070e-02
4.53828125000000e-01 1.35839870342182e+00 1.19725336242654e-02
4.58734375000000e-01 1.34377650643111e+00 1.19075082559553e-02
4.63640625000000e-01 1.32931170700290e+00 1.18421586142437e-02
4.68546875000000e-01 1.31500261086427e+00 1.17765081191873e-02
4.73453125000000e-01 1.30084754197991e+00 1.17105794351924e-02
4.78359375000000e-01 1.28684484235586e+00 1.16443944961111e-02
4.83265625000000e-01 1.27299287184528e+00 1.15779745293240e-02
4.88171875000000e-01 1.25929000795634e+00 1.15113400788629e-02
4.93078125000000e-01 1.24573464566220e+00 1.14445110276237e-02
4.97984375000000e-01 1.23232519721297e+00 1.13775066187089e-02
5.02890625000000e-01 1.21906009194978e+00 1.13103454759463e-02
5.07796875000000e-01 1.20593777612078e+00 1.12430456236219e-02
5.12703125000000e-01 1.19295671269915e+00 1.11756245054642e-02
5.17609375000000e-01 1.18011538120307e+00 1.11080990029149e-02
5.22515625000000e-01 1.16741227751764e+00 1.10404854527219e-02
5.27421875000000e-01 1.15484591371867e+00 1.09727996638820e-02
5.32328125000000e-01 1.14241481789844e+00 1.09050569339646e-02
5.37234375000000e-01 1.13011753399325e+00 1.08372720648450e-02
5.42140625000000e-01 1.11795262161290e+00 1.07694593778740e-02
5.47046875000000e-01 1.10591865587196e+00 1.07016327285072e-02
5.51953125000000e-01 1.09401422722290e+00 1.06338055204172e-02
5.56859375000000e-01 1.08223794129094e+00 1.05659907191140e-02
5.61765625000000e-01 1.07058841871077e+00 1.04982008650920e-02
5.66671875000000e-01 1.05906429496497e+00 1.04304480865254e-02
5.71578125000000e-01 1.04766422022418e+00 1.03627441115291e-02
5.76484375000000e-01 1.03638685918897e+00 1.02951002800062e-02
5.81390625000000e-01 1.02523089093350e+00 1.02275275550965e-02
5.86296875000000e-01 1.01419500875073e+00 1.01600365342432e-02
5.91203125000000e-01 1.00327791999939e+00 1.00926374598932e-02
5.96109375000000e-01 9.92478345952601e-01 1.00253402298469e-02
6.01015625000000e-01 9.81795021648049e-01 9.95815440726931e-03
6.05921875000000e-01 9.71226695739846e-01 9.89108923037784e-03
6.10828125000000e-01 9.60772130351954e-01 9.82415362181841e-03
6.15734375000000e-01 9.50430100933192e-01 9.75735619774174e-03
6.20640625000000e-01 9.40199396113801e-01 9.69070527659241e-03
6.25546875000000e-01 9.30078817563558e-01 9.62420888762022e-03
6.30453125000000e-01 9.20067179851412e-01 9.55787477912615e-03
6.35359375000000e-01 9.10163310306638e-01 9.49171042645120e-03
6.40265625000000e-01 9.00366048881474e-01 9.42572303971839e-03
6.45171875000000e-01 8.90674248015252e-01 9.35991957133672e-03
6.50078125000000e-01 8.81086772499977e-01 9.29430672327725e-03
6.54984375000000e-01 8.71602499347363e-01 9.22889095412697e-03
6.59890625000000e-01 8.62220317657293e-01 9.16367848593019e-03
6.64796875000000e-01 8.52939128487704e-01 9.09867531082573e-03
6.69703125000000e-01 8.43757844725859e-01 9.03388719748446e-03
6.74609375000000e-01 8.34675390961021e-01 8.96931969735766e-03
6.79515625000000e-01 8.25690703358483e-01 8.90497815074005e-03
6.84421875000000e-01 8.16802729534967e-01 8.84086769265429e-03
6.89328125000000e-01 8.08010428435349e-01 8.77699325856648e-03
6.94234375000000e-01 7.99312770210725e-01 8.71335958993221e-03
6.99140625000000e-01 7.90708736097784e-01 8.64997123958371e-03
7.04046875000000e-01 7.82197318299477e-01 8.58683257696340e-03
7.08953125000000e-01 7.73777519866974e-01 8.52394779320573e-03
7.13859375000000e-01 7.65448354582892e-01 8.46132090607546e-03
7.18765625000000e-01 7.57208846845777e-01 8.39895576476605e-03
7.23671875000000e-01 7.49058031555832e-01 8.33685605456206e-03
7.28578125000000e-01 7.40994954001873e-01 8.27502530137069e-03
7.33484375000000e-01 7.33018669749503e-01 8.21346687612681e-03
7.38390625000000e-01 7.25128244530493e-01 8.15218399907512e-03
7.43296875000000e-01 7.17322754133346e-01 8.09117974393437e-03
7.48203125000000e-01 7.09601284295043e-01 8.03045704194511e-03
7.53109375000000e-01 7.01962930593962e-01 7.97001868580678e-03
7.58015625000000e-01 6.94406798343931e-01 7.90986733350695e-03
7.62921875000000e-01 6.86932002489445e-01 7.85000551204658e-03
7.67828125000000e-01 6.79537667501989e-01 7.79043562106393e-03
7.72734375000000e-01 6.72222927277491e-01 7.73115993635817e-03
7.77640625000000e-01 6.64986925034876e-01 7.67218061332026e-03
7.82546875000000e-01 6.57828813215705e-01 7.61349969027150e-03
7.87453125000000e-01 6.50747753384907e-01 7.55511909171077e-03
7.92359375000000e-01 6.43742916132568e-01 7.49704063147601e-03
7.97265625000000e-01 6.36813480976780e-01 7.43926601582241e-03
8.02171875000000e-01 6.29958636267543e-01 7.38179684641694e-03
8.07078125000000e-01 6.23177579091691e-01 7.32463462325500e-03
8.11984375000000e-01 6.16469515178849e-01 7.26778074749972e-03
8.16890625000000e-01 6.09833658808397e-01 7.21123652424615e-03
8.21796875000000e-01 6.03269232717440e-01 7.15500316521356e-03
8.26703125000000e-01 5.96775468009766e-01 7.09908179136689e-03
8.31609375000000e-01 5.90351604065784e-01 7.04347343546934e-03
8.36515625000000e-01 5.83996888453431e-01 6.98817904456913e-03
8.41421875000000e-01 5.77710576840045e-01 6.93319948242229e-03
8.46328125000000e-01 5.71491932905171e-01 6.87853553185091e-03
8.51234375000000e-01 5.65340228254325e-01 6.82418789704159e-03
8.56140625000000e-01 5.59254742333669e-01 6.77015720578514e-03
8.61046875000000e-01 5.53234762345618e-01 6.71644401165734e-03
8.65953125000000e-01 5.47279583165345e-01 6.66304879614454e-03
8.70859375000000e-01 5.41388507258190e-01 6.60997197071475e-03
8.75765625000000e-01 5.35560844597959e-01 6.55721387883493e-03
8.80671875000000e-01 5.29795912586099e-01 6.50477479793811e-03
8.85578125000000e-01 5.24093035971748e-01 6.45265494133964e-03
8.90484375000000e-01 5.18451546772638e-01 6.40085446010494e-03
8.95390625000000e-01 5.12870784196854e-01 6.34937344486964e-03
9.00296875000000e-01 5.07350094565439e-01 6.29821192761313e-03
9.05203125000000e-01 5.01888831235824e-01 6.24736988338864e-03
9.10109375000000e-01 4.96486354526090e-01 6.19684723200810e-03
9.15015625000000e-01 4.91142031640037e-01 6.14664383968512e-03
9.19921875000000e-01 4.85855236593068e-01 6.09675952063720e-03
9.24828125000000e-01 4.80625350138864e-01 6.04719403864603e-03
9.29734375000000e-01 4.75451759696854e-01 5.99794710858010e-03
9.34640625000000e-01 4.70333859280462e-01 5.94901839787841e-03
9.39546875000000e-01 4.65271049426126e-01 5.90040752799681e-03
9.44453125000000e-01 4.60262737123083e-01 5.85211407581869e-03
9.49359375000000e-01 4.55308335743911e-01 5.80413757502942e-03
9.54265625000000e-01 4.50407264975814e-01 5.75647751745745e-03
9.59171875000000e-01 4.45558950752652e-01 5.70913335438130e-03
9.64078125000000e-01 4.40762825187699e-01 5.66210449780383e-03
9.68984375000000e-01 4.36018326507125e-01 5.61539032169522e-03
9.73890625000000e-01 4.31324898984198e-01 5.56899016320424e-03
9.78796875000000e-01 4.26681992874188e-01 5.52290332383991e-03
9.83703125000000e-01 4.22089064349977e-01 5.47712907062345e-03
9.88609375000000e-01 4.17545575438360e-01 5.43166663721166e-03
9.93515625000000e-01 4.13050993957031e-01 5.38651522499223e-03
9.98421875000000e-01 4.08604793452248e-01 5.34167400415126e-03
1.00332812500000e+00 4.04206453137170e-01 5.29714211471534e-03
1.00823437500000e+00 3.99855457830857e-01 5.25291866756733e-03
1.01314062500000e+00 3.95551297897925e-01 5.20900274543583e-03
1.01804687500000e+00 3.91293469188852e-01 5.16539340386080e-03
1.02295312500000e+00 3.87081472980929e-01 5.12208967213579e-03
1.02785937500000e+00 3.82914815919842e-01 5.07909055422547e-03
1.03276562500000e+00 3.78793009961886e-01 5.03639502966092e-03
1.03767187500000e+00 3.74715572316800e-01 4.99400205441332e-03
1.04257812500000e+00 3.70682025391215e-01 4.95191056174390e-03
1.04748437500000e+00 3.66691896732719e-01 4.91011946303454e-03
1.05239062500000e+00 3.62744718974511e-01 4.86862764859716e-03
1.05729687500000e+00 3.58840029780664e-01 4.82743398846207e-03
1.06220312500000e+00 3.54977371791967e-01 4.78653733314798e-03
1.06710937500000e+00 3.51156292572358e-01 4.74593651441206e-03
1.07201562500000e+00 3.47376344555926e-01 4.70563034598063e-03
1.07692187500000e+00 3.43637084994490e-01 4.66561762426261e-03
1.08182812500000e+00 3.39938075905739e-01 4.62589712904466e-03
1.08673437500000e+00 3.36278884021930e-01 4.58646762416853e-03
1.09164062500000e+00 3.32659080739138e-01 4.54732785819193e-03
1.09654687500000e+00 3.29078242067056e-01 4.50847656503253e-03
1.10145312500000e+00 3.25535948579333e-01 4.46991246459593e-03
1.10635937500000e+00 3.22031785364442e-01 4.43163426338681e-03
1.11126562500000e+00 3.18565341977086e-01 4.39364065510618e-03
1.11617187500000e+00 3.15136212390117e-01 4.35593032123280e-03
1.12107812500000e+00 3.11743994946985e-01 4.31850193158947e-03
1.12598437500000e+00 3.08388292314683e-01 4.28135414489548e-03
1.13089062500000e+00 3.05068711437216e-01 4.24448560930468e-03
1.13579687500000e+00 3.01784863489554e-01 4.20789496293031e-03
1.14070312500000e+00 2.98536363832094e-01 4.17158083435580e-03
1.14560937500000e+00 2.95322831965604e-01 4.13554184313320e-03
1.15051562500000e+00 2.92143891486657e-01 4.09977660026830e-03
1.15542187500000e+00 2.88999170043540e-01 4.06428370869312e-03
1.16032812500000e+00 2.85888299292644e-01 4.02906176372682e-03
1.16523437500000e+00 2.82810914855316e-01 3.99410935352463e-03
1.17014062500000e+00 2.79766656275179e-01 3.95942505951494e-03
1.17504687500000e+00 2.76755166975914e-01 3.92500745682487e-03
1.17995312500000e+00 2.73776094219494e-01 3.89085511469517e-03
1.18485937500000e+00 2.70829089064865e-01 3.85696659688404e-03
1.18976562500000e+00 2.67913806327075e-01 3.82334046206059e-03
1.19467187500000e+00 2.65029904536843e-01 3.78997526418800e-03
1.19957812500000e+00 2.62177045900563e-01 3.75686955289588e-03
1.20448437500000e+00 2.59354896260737e-01 3.72402187384398e-03
1.20939062500000e+00 2.56563125056835e-01 3.69143076907556e-03
1.21429687500000e+00 2.53801405286576e-01 3.65909477736119e-03
1.21920312500000e+00 2.51069413467625e-01 3.62701243453397e-03
1.22410937500000e+00 2.48366829599708e-01 3.59518227381562e-03
1.22901562500000e+00 2.45693337127124e-01 3.56360282613311e-03
1.23392187500000e+00 2.43048622901669e-01 3.53227262042775e-03
1.23882812500000e+00 2.40432377145958e-01 3.50119018395548e-03
1.24373437500000e+00 2.37844293417139e-01 3.47035404257878e-03
1.24864062500000e+00 2.35284068571000e-01 3.43976272105103e-03
1.25354687500000e+00 2.32751402726462e-01 3.40941474329273e-03
1.25845312500000e+00 2.30245999230449e-01 3.37930863266028e-03
1.26335937500000e+00 2.27767564623149e-01 3.34944291220720e-03
1.26826562500000e+00 2.25315808603635e-01 3.31981610493852e-03
1.27317187500000e+00 2.22890443995861e-01 3.29042673405751e-03
1.27807812500000e+00 2.20491186715031e-01 3.26127332320560e-03
1.28298437500000e+00 2.18117755734316e-01 3.23235439669576e-03
1.28789062500000e+00 2.15769873051945e-01 3.20366847973935e-03
1.29279687500000e+00 2.13447263658635e-01 3.17521409866585e-03
1.29770312500000e+00 2.11149655505386e-01 3.14698978113709e-03
1.30260937500000e+00 2.08876779471609e-01 3.11899405635476e-03
1.30751562500000e+00 2.06628369333609e-01 3.09122545526201e-03
1.31242187500000e+00 2.04404161733399e-01 3.06368251073954e-03
1.31732812500000e+00 2.02203896147854e-01 3.03636375779532e-03
1.32223437500000e+00 2.00027314858196e-01 3.00926773374917e-03
1.32714062500000e+00 1.97874162919805e-01 2.98239297841156e-03
1.33204687500000e+00 1.95744188132361e-01 2.95573803425733e-03
1.33695312500000e+00 1.93637141010298e-01 2.92930144659391e-03
1.34185937500000e+00 1.91552774753588e-01 2.90308176372427e-03
1.34676562500000e+00 1.89490845218828e-01 2.87707753710555e-03
1.35167187500000e+00 1.87451110890647e-01 2.85128732150234e-03
1.35657812500000e+00 1.85433332853413e-01 2.82570967513468e-03
1.36148437500000e+00 1.83437274763254e-01 2.80034315982253e-03
1.36639062500000e+00 1.81462702820369e-01 2.77518634112498e-03
1.37129687500000e+00 1.79509385741648e-01 2.75023778847492e-03
1.37620312500000e+00 1.77577094733578e-01 2.72549607530974e-03
1.38110937500000e+00 1.75665603465446e-01 2.70095977919764e-03
1.38601562500000e+00 1.73774688042828e-01 2.67662748195969e-03
1.39092187500000e+00 1.71904126981365e-01 2.65249776978808e-03
1.39582812500000e+00 1.70053701180821e-01 2.62856923336014e-03
1.40073437500000e+00 1.68223193899415e-01 2.60484046794860e-03
1.40564062500000e+00 1.66412390728440e-01 2.58131007352824e-03
1.41054687500000e+00 1.64621079567147e-01 2.55797665487868e-03
1.41545312500000e+00 1.62849050597897e-01 2.53483882168362e-03
1.42035937500000e+00 1.61096096261593e-01 2.51189518862651e-03
1.42526562500000e+00 1.59362011233362e-01 2.48914437548298e-03
1.43017187500000e+00 1.57646592398509e-01 2.46658500720958e-03
1.43507812500000e+00 1.55949638828722e-01 2.44421571402964e-03
1.43998437500000e+00 1.54270951758541e-01 2.42203513151578e-03
1.44489062500000e+00 1.52610334562076e-01 2.40004190066903e-03
1.44979687500000e+00 1.50967592729973e-01 2.37823466799547e-03
1.45470312500000e+00 1.49342533846634e-01 2.35661208557941e-03
1.45960937500000e+00 1.47734967567679e-01 2.33517281115385e-03
1.46451562500000e+00 1.46144705597648e-01 2.31391550816805e-03
1.46942187500000e+00 1.44571561667949e-01 2.29283884585239e-03
1.47432812500000e+00 1.43015351515040e-01 2.27194149928073e-03
1.47923437500000e+00 1.41475892858843e-01 2.25122214942969e-03
1.48414062500000e+00 1.39953005381398e-01 2.23067948323551e-03
1.48904687500000e+00 1.38446510705738e-01 2.21031219364887e-03
1.49395312500000e+00 1.36956232374997e-01 2.19011897968670e-03
1.49885937500000e+00 1.35481995831743e-01 2.17009854648146e-03
1.50376562500000e+00 1.34023628397531e-01 2.15024960532885e-03
1.50867187500000e+00 1.32580959252675e-01 2.13057087373258e-03
1.51357812500000e+00 1.31153819416243e-01 2.11106107544710e-03
1.51848437500000e+00 1.29742041726263e-01 2.09171894051840e-03
1.52339062500000e+00 1.28345460820142e-01 2.07254320532227e-03
1.52829687500000e+00 1.26963913115298e-01 2.05353261260090e-03
1.53320312500000e+00 1.25597236789998e-01 2.03468591149721e-03
1.53810937500000e+00 1.24245271764409e-01 2.01600185758724e-03
1.54301562500000e+00 1.22907859681839e-01 1.99747921291078e-03
1.54792187500000e+00 1.21584843890195e-01 1.97911674600007e-03
