Energy (eV)          EEDF (eV^-(3/2))     First Anisotropy
6.52941176470588e-03 2.17393698132220e+00 1.92949415612352e-03
1.95882352941176e-02 2.13012392525757e+00 3.16467587555676e-03
3.26470588235294e-02 2.08719386789485e+00 4.12124332666360e-03
4.57058823529412e-02 2.04512901372104e+00 4.81447392461087e-03
5.87647058823529e-02 2.00391192555509e+00 5.36556870414830e-03
7.18235294117647e-02 1.96352551768967e+00 5.82131282784901e-03
8.48823529411765e-02 1.92395304872358e+00 6.20639529481790e-03
9.79411764705882e-02 1.88517811476023e+00 6.53600696788008e-03
1.11000000000000e-01 1.84718464250872e+00 6.82040619430476e-03
1.24058823529412e-01 1.80995688233463e+00 7.06697043258870e-03
1.37117647058824e-01 1.77347940254388e+00 7.28125269967571e-03
1.50176470588235e-01 1.73773708188038e+00 7.46757969570316e-03
1.63235294117647e-01 1.70271510433874e+00 7.62941519354450e-03
1.76294117647059e-01 1.66839895206946e+00 7.76959321713413e-03
1.89352941176471e-01 1.63477440020937e+00 7.89047432778558e-03
2.02411764705882e-01 1.60182751022278e+00 7.99405421700540e-03
2.15470588235294e-01 1.56954462481284e+00 8.08204143574760e-03
2.28529411764706e-01 1.53791236163292e+00 8.15591449281561e-03
2.41588235294118e-01 1.50691760818767e+00 8.21696466833670e-03
2.54647058823529e-01 1.47654751637330e+00 8.26632884878713e-03
2.67705882352941e-01 1.44678949677329e+00 8.30501500346986e-03
2.80764705882353e-01 1.41763121392719e+00 8.33392233321808e-03
2.93823529411765e-01 1.38906058076628e+00 8.35385739571752e-03
3.06882352941176e-01 1.36106575402146e+00 8.36554715791886e-03
3.19941176470588e-01 1.33363512892461e+00 8.36964968881020e-03
3.33000000000000e-01 1.30675733476115e+00 8.36676299310100e-03
3.46058823529412e-01 1.28042122981707e+00 8.35743238617577e-03
3.59117647058824e-01 1.25461589707839e+00 8.34215669084944e-03
3.72176470588235e-01 1.22933063940722e+00 8.32139349387026e-03
3.85235294117647e-01 1.20455497538814e+00 8.29556362602451e-03
3.98294117647059e-01 1.18027863471904e+00 8.26505501447604e-03
4.11352941176471e-01 1.15649155420306e+00 8.23022600615156e-03
4.24411764705882e-01 1.13318387334163e+00 8.19140825921078e-03
4.37470588235294e-01 1.11034593046969e+00 8.14890926361073e-03
4.50529411764706e-01 1.08796825853981e+00 8.10301456062672e-03
4.63588235294118e-01 1.06604158135213e+00 8.05398967591681e-03
4.76647058823529e-01 1.04455680970241e+00 8.00208187150544e-03
4.89705882352941e-01 1.02350503747763e+00 7.94752166411234e-03
5.02764705882353e-01 1.00287753814279e+00 7.89052419626885e-03
5.15823529411765e-01 9.82665760953697e-01 7.83129046291111e-03
5.28882352941176e-01 9.62861327573983e-01 7.77000840954642e-03
5.41941176470588e-01 9.43456028448184e-01 7.70685392461220e-03
5.55000000000000e-01 9.24441819545289e-01 7.64199173297181e-03
5.68058823529412e-01 9.05810818884368e-01 7.57557620826551e-03
5.81117647058824e-01 8.87555303400768e-01 7.50775210798895e-03
5.94176470588235e-01 8.69667705617173e-01 7.43865524551449e-03
6.07235294117647e-01 8.52140610628501e-01 7.36841310087530e-03
6.20294117647059e-01 8.34966752911710e-01 7.29714538196233e-03
6.33352941176471e-01 8.18139013425483e-01 7.22496453657735e-03
6.46411764705882e-01 8.01650416552476e-01 7.15197622507023e-03
6.59470588235294e-01 7.85494127309919e-01 7.07827975308212e-03
6.72529411764706e-01 7.69663448418381e-01 7.00396847493392e-03
6.85588235294118e-01 7.54151817597751e-01 6.92913015283030e-03
6.98647058823529e-01 7.38952804844089e-01 6.85384731320920e-03
7.11705882352941e-01 7.24060109699274e-01 6.77819755408438e-03
7.24764705882353e-01 7.09467558724620e-01 6.70225384044405e-03
7.37823529411765e-01 6.95169102859881e-01 6.62608477818819e-03
7.50882352941176e-01 6.81158814994412e-01 6.54975486721702e-03
7.63941176470588e-01 6.67430887434627e-01 6.47332473895396e-03
7.77000000000000e-01 6.53979629569173e-01 6.39685137622752e-03
7.90058823529412e-01 6.40799465440177e-01 6.32038832023368e-03
8.03117647058824e-01 6.27884931499001e-01 6.24398586246177e-03
8.16176470588235e-01 6.15230674276836e-01 6.16769122583581e-03
8.29235294117647e-01 6.02831448227708e-01 6.09154873295260e-03
8.42294117647059e-01 5.90682113494184e-01 6.01559996526938e-03
8.55352941176471e-01 5.78777633834400e-01 5.93988391114935e-03
8.68411764705882e-01 5.67113074478856e-01 5.86443710627538e-03
8.81470588235294e-01 5.55683600138319e-01 5.78929376438733e-03
8.94529411764706e-01 5.44484472947884e-01 5.71448590295727e-03
9.07588235294118e-01 5.33511050541138e-01 5.64004345337966e-03
9.20647058823529e-01 5.22758784124306e-01 5.56599437965175e-03
9.33705882352941e-01 5.12223216556063e-01 5.49236477616051e-03
9.46764705882353e-01 5.01899980545494e-01 5.41917896635534e-03
9.59823529411765e-01 4.91784796797756e-01 5.34645959553162e-03
9.72882352941177e-01 4.81873472282612e-01 5.27422771743872e-03
9.85941176470588e-01 4.72161898455344e-01 5.20250287719463e-03
9.99000000000000e-01 4.62646049593180e-01 5.13130318648285e-03
1.01205882352941e+00 4.53321981105822e-01 5.06064541235358e-03
1.02511764705882e+00 4.44185827823882e-01 4.99054501418395e-03
1.03817647058824e+00 4.35233802631504e-01 4.92101623140950e-03
1.05123529411765e+00 4.26462194648649e-01 4.85207217624599e-03
1.06429411764706e+00 4.17867367706803e-01 4.78372482904663e-03
1.07735294117647e+00 4.09445759077394e-01 4.71598512788455e-03
1.09041176470588e+00 4.01193877753857e-01 4.64886305293085e-03
1.10347058823529e+00 3.93108303017211e-01 4.58236761589796e-03
1.11652941176471e+00 3.85185683231401e-01 4.51650693892627e-03
1.12958823529412e+00 3.77422734235602e-01 4.45128832885723e-03
1.14264705882353e+00 3.69816237994395e-01 4.38671826420269e-03
1.15570588235294e+00 3.62363041457086e-01 4.32280246482013e-03
1.16876470588235e+00 3.55060055052887e-01 4.25954595755099e-03
1.18182352941176e+00 3.47904251420358e-01 4.19695306144306e-03
1.19488235294118e+00 3.40892664328089e-01 4.13502744943379e-03
1.20794117647059e+00 3.34022387265648e-01 4.07377220656573e-03
1.22100000000000e+00 3.27290572247685e-01 4.01318981401430e-03
1.23405882352941e+00 3.20694428793112e-01 3.95328221087891e-03
1.24711764705882e+00 3.14231222555840e-01 3.89405081766679e-03
1.26017647058824e+00 3.07898274398120e-01 3.83549655486530e-03
1.27323529411765e+00 3.01692959125537e-01 3.77761989913459e-03
1.28629411764706e+00 2.95612704406355e-01 3.72042086592082e-03
1.29935294117647e+00 2.89654989842935e-01 3.66389905482297e-03
1.31241176470588e+00 2.83817345786320e-01 3.60805369245830e-03
1.32547058823529e+00 2.78097352319422e-01 3.55288361487418e-03
1.33852941176471e+00 2.72492638379378e-01 3.49838730810993e-03
1.35158823529412e+00 2.67000880646460e-01 3.44456294648515e-03
1.36464705882353e+00 2.61619802587344e-01 3.39140837503049e-03
1.37770588235294e+00 2.56347173625832e-01 3.33892114580041e-03
1.39076470588235e+00 2.51180808101326e-01 3.28709855215469e-03
1.40382352941176e+00 2.46118564368463e-01 3.23593761137359e-03
1.41688235294118e+00 2.41158344013868e-01 3.18543509719437e-03
1.42994117647059e+00 2.36298090879622e-01 3.13558757057240e-03
1.44300000000000e+00 2.31535790215955e-01 3.08639136260023e-03
1.45605882352941e+00 2.26869467941657e-01 3.03784260828517e-03
1.46911764705882e+00 2.22297189698622e-01 2.98993725576200e-03
1.48217647058824e+00 2.17817060173853e-01 2.94267107260860e-03
1.49523529411765e+00 2.13427222221306e-01 2.89603967695416e-03
1.50829411764706e+00 2.09125856096357e-01 2.85003852090949e-03
1.52135294117647e+00 2.04911178784451e-01 2.80466291513430e-03
1.53441176470588e+00 2.00781443177340e-01 2.75990805206995e-03
1.54747058823529e+00 1.96734937352826e-01 2.71576898989008e-03
1.56052941176471e+00 1.92769983941086e-01 2.67224067464187e-03
1.57358823529412e+00 1.88884939351815e-01 2.62931796115790e-03
1.58664705882353e+00 1.85078193096579e-01 2.58699559756589e-03
1.59970588235294e+00 1.81348167190783e-01 2.54526824525236e-03
1.61276470588235e+00 1.77693315428557e-01 2.50413049771526e-03
1.62582352941176e+00 1.74112122745090e-01 2.46357686565585e-03
1.63888235294118e+00 1.70603104652408e-01 2.42360179498051e-03
1.65194117647059e+00 1.67164806558944e-01 2.38419968382171e-03
1.66500000000000e+00 1.63795803169505e-01 2.34536486822158e-03
1.67805882352941e+00 1.60494697953031e-01 2.30709164139790e-03
1.69111764705882e+00 1.57260122485774e-01 2.26937425697544e-03
1.70417647058824e+00 1.54090735960008e-01 2.23220693042496e-03
1.71723529411765e+00 1.50985224571491e-01 2.19558385695514e-03
1.73029411764706e+00 1.47942300977398e-01 2.15949919807968e-03
1.74335294117647e+00 1.44960703813805e-01 2.12394709540064e-03
1.75641176470588e+00 1.42039197120709e-01 2.08892168363647e-03
1.76947058823529e+00 1.39176569832035e-01 2.05441707779002e-03
1.78252941176471e+00 1.36371635320581e-01 2.02042738562295e-03
1.79558823529412e+00 1.33623230858229e-01 1.98694671942878e-03
1.80864705882353e+00 1.30930217136142e-01 1.95396918379264e-03
1.82170588235294e+00 1.28291477835639e-01 1.92148888688041e-03
1.83476470588235e+00 1.25705919121445e-01 1.88949995108973e-03
1.84782352941176e+00 1.23172469190227e-01 1.85799650138785e-03
1.86088235294118e+00 1.20690077866008e-01 1.82697267552450e-03
1.87394117647059e+00 1.18257716124381e-01 1.79642263367760e-03
1.88700000000000e+00 1.15874375667717e-01 1.76634054735163e-03
1.90005882352941e+00 1.13539068543755e-01 1.73672061062862e-03
1.91311764705882e+00 1.11250826687445e-01 1.70755704082911e-03
1.92617647058824e+00 1.09008701567083e-01 1.67884407803354e-03
1.93923529411765e+00 1.06811763755701e-01 1.65057599559456e-03
1.95229411764706e+00 1.04659102547319e-01 1.62274708986614e-03
1.96535294117647e+00 1.02549825611472e-01 1.59535168807660e-03
1.97841176470588e+00 1.00483058590681e-01 1.56838415575850e-03
1.99147058823529e+00 9.84579447394335e-02 1.54183888699517e-03
2.00452941176471e+00 9.64736445985419e-02 1.51571031155956e-03
2.01758823529412e+00 9.45293356170959e-02 1.48999290163965e-03
2.03064705882353e+00 9.26242118128158e-02 1.46468116258312e-03
2.04370588235294e+00 9.07574834651301e-02 1.43976963936798e-03
2.05676470588235e+00 8.89283767601156e-02 1.41525292269509e-03
2.06982352941176e+00 8.71361334709279e-02 1.39112564021070e-03
2.08288235294118e+00 8.53800106685673e-02 1.36738246236713e-03
2.09594117647059e+00 8.36592803883800e-02 1.34401810794624e-03
2.10900000000000e+00 8.19732293293834e-02 1.32102733573817e-03
2.12205882352941e+00 8.03211585817174e-02 1.29840495119487e-03
2.13511764705882e+00 7.87023833061580e-02 1.27614580602984e-03
2.14817647058824e+00 7.71162324802587e-02 1.25424479708152e-03
2.16123529411765e+00 7.55620485977640e-02 1.23269687256051e-03
2.17429411764706e+00 7.40391873970024e-02 1.21149702440553e-03
2.18735294117647e+00 7.25470176141575e-02 1.19064029281058e-03
2.20041176470588e+00 7.10849207008867e-02 1.17012177048629e-03
2.21347058823529e+00 6.96522905687973e-02 1.14993659542255e-03
2.22652941176471e+00 6.82485333569758e-02 1.13007995499463e-03
2.23958823529412e+00 6.68730671666969e-02 1.11054708982020e-03
2.25264705882353e+00 6.55253218210295e-02 1.09133328690991e-03
2.26570588235294e+00 6.42047386458117e-02 1.07243388338897e-03
2.27876470588235e+00 6.29107702204137e-02 1.05384426999039e-03
2.29182352941176e+00 6.16428801515627e-02 1.03555988457464e-03
2.30488235294118e+00 6.04005428670073e-02 1.01757621549927e-03
2.31794117647059e+00 5.91832433813509e-02 9.99888804784340e-04
2.33100000000000e+00 5.79904770832537e-02 9.82493241982329e-04
2.34405882352941e+00 5.68217495410627e-02 9.65385168133923e-04
2.35711764705882e+00 5.56765762781657e-02 9.48560274995072e-04
2.37017647058824e+00 5.45544825913842e-02 9.32014303782673e-04
2.38323529411765e+00 5.34550033398372e-02 9.15743048904792e-04
2.39629411764706e+00 5.23776827527209e-02 8.99742352352255e-04
2.40935294117647e+00 5.13220742534257e-02 8.84008106296881e-04
2.42241176470588e+00 5.02877402611396e-02 8.68536255527574e-04
2.43547058823529e+00 4.92742520100116e-02 8.53322792149077e-04
2.44852941176471e+00 4.82811893834804e-02 8.38363757935754e-04
2.46158823529412e+00 4.73081407278409e-02 8.23655246533102e-04
2.47464705882353e+00 4.63547026821177e-02 8.09193398448124e-04
2.48770588235294e+00 4.54204800220173e-02 7.94974403179499e-04
2.50076470588235e+00 4.45050854847377e-02 7.80994501207927e-04
2.51382352941176e+00 4.36081396089069e-02 7.67249979262906e-04
2.52688235294118e+00 4.27292705876130e-02 7.53737172247947e-04
2.53994117647059e+00 4.18681141037706e-02 7.40452465040488e-04
2.55300000000000e+00 4.10243131795307e-02 7.27392288020163e-04
2.56605882352941e+00 4.01975180378643e-02 7.14553119420246e-04
2.57911764705882e+00 3.93873859448547e-02 7.01931484492683e-04
2.59217647058824e+00 3.85935810800418e-02 6.89523954355964e-04
2.60523529411765e+00 3.78157743879389e-02 6.77327148221537e-04
2.61829411764706e+00 3.70536434420074e-02 6.65337729312871e-04
2.63135294117647e+00 3.63068723194451e-02 6.53552406341531e-04
2.64441176470588e+00 3.55751514616368e-02 6.41967934883302e-04
2.65747058823529e+00 3.48581775461847e-02 6.30581113524463e-04
2.67052941176471e+00 3.41556533689923e-02 6.19388785195344e-04
2.68358823529412e+00 3.34672877131061e-02 6.08387838409933e-04
2.69664705882353e+00 3.27927952283263e-02 5.97575203627331e-04
2.70970588235294e+00 3.21318963201620e-02 5.86947854454962e-04
2.72276470588235e+00 3.14843170265614e-02 5.76502808765211e-04
2.73582352941176e+00 3.08497889046473e-02 5.66237125260521e-04
2.74888235294118e+00 3.02280489261507e-02 5.56147904556965e-04
2.76194117647059e+00 2.96188393615512e-02 5.46232290190194e-04
2.77500000000000e+00 2.90219076735149e-02 5.36487465372844e-04
2.78805882352941e+00 2.84370064184326e-02 5.26910654385067e-04
2.80111764705882e+00 2.78638931355730e-02 5.17499121809058e-04
2.81417647058824e+00 2.73023302546585e-02 5.08250171553241e-04
2.82723529411765e+00 2.67520849913474e-02 4.99161148174486e-04
2.84029411764706e+00 2.62129292509803e-02 4.90229433923743e-04
2.85335294117647e+00 2.56846395395323e-02 4.81452449568083e-04
2.86641176470588e+00 2.51669968653702e-02 4.72827655150776e-04
2.87947058823529e+00 2.46597866486992e-02 4.64352547203142e-04
2.89252941176471e+00 2.41627986377177e-02 4.56024659483675e-04
2.90558823529412e+00 2.36758268162686e-02 4.47841563658841e-04
2.91864705882353e+00 2.31986693186506e-02 4.39800866672132e-04
2.93170588235294e+00 2.27311283506711e-02 4.31900211407369e-04
2.94476470588235e+00 2.22730101028407e-02 4.24137277298308e-04
2.95782352941176e+00 2.18241246702257e-02 4.16509777846180e-04
2.97088235294118e+00 2.13842859781191e-02 4.09015461213494e-04
2.98394117647059e+00 2.09533117004410e-02 4.01652110769671e-04
2.99700000000000e+00 2.05310231843364e-02 3.94417542748681e-04
3.01005882352941e+00 2.01172453801939e-02 3.87309607062847e-04
3.02311764705882e+00 1.97118067636630e-02 3.80326186652658e-04
3.03617647058824e+00 1.93145392698477e-02 3.73465196696483e-04
3.04923529411765e+00 1.89252782196827e-02 3.66724585388027e-04
3.06229411764706e+00 1.85438622518261e-02 3.60102331804682e-04
3.07535294117647e+00 1.81701332593809e-02 3.53596446350134e-04
3.08841176470588e+00 1.78039363206834e-02 3.47204971158325e-04
3.10147058823529e+00 1.74451196352300e-02 3.40925978082582e-04
3.11452941176471e+00 1.70935344641026e-02 3.34757569090394e-04
3.12758823529412e+00 1.67490350649033e-02 3.28697876621784e-04
3.14064705882353e+00 1.64114786314761e-02 3.22745061692538e-04
3.15370588235294e+00 1.60807252378206e-02 3.16897314245268e-04
3.16676470588235e+00 1.57566377769242e-02 3.11152853467040e-04
3.17982352941176e+00 1.54390819040531e-02 3.05509926000261e-04
3.19288235294118e+00 1.51279259839512e-02 2.99966806253795e-04
3.20594117647059e+00 1.48230410333362e-02 2.94521796684056e-04
3.21900000000000e+00 1.45243006675472e-02 2.89173226107424e-04
3.23205882352941e+00 1.42315810508387e-02 2.83919450168479e-04
3.24511764705882e+00 1.39447608414779e-02 2.78758850811244e-04
3.25817647058824e+00 1.36637211449331e-02 2.73689835656748e-04
3.27123529411765e+00 1.33883454619830e-02 2.68710838452900e-04
3.28429411764706e+00 1.31185196405256e-02 2.63820317539968e-04
3.29735294117647e+00 1.28541318306407e-02 2.59016756075487e-04
3.31041176470588e+00 1.25950724358039e-02 2.54298662235058e-04
3.32347058823529e+00 1.23412340675504e-02 2.49664567765144e-04
3.33652941176471e+00 1.20925115031720e-02 2.45113028180840e-04
3.34958823529412e+00 1.18488016398493e-02 2.40642622940900e-04
3.36264705882353e+00 1.16100034520016e-02 2.36251954083002e-04
3.37570588235294e+00 1.13760179514640e-02 2.31939646396790e-04
3.38876470588235e+00 1.11467481443643e-02 2.27704347575987e-04
3.40182352941176e+00 1.09220989909975e-02 2.23544726931446e-04
3.41488235294118e+00 1.07019773683398e-02 2.19459475541639e-04
3.42794117647059e+00 1.04862920295045e-02 2.15447306384360e-04
3.44100000000000e+00 1.02749535659927e-02 2.11506953123115e-04
3.45405882352941e+00 1.00678743724067e-02 2.07637170369527e-04
3.46711764705882e+00 9.86496860777391e-03 2.03836733265086e-04
3.48017647058824e+00 9.66615216227101e-03 2.00104437000058e-04
3.49323529411765e+00 9.47134262063397e-03 1.96439097067479e-04
3.50629411764706e+00 9.28045922806100e-03 1.92839548160312e-04
3.51935294117647e+00 9.09342285831496e-03 1.89304644273864e-04
3.53241176470588e+00 8.91015597931970e-03 1.85833258793152e-04
3.54547058823529e+00 8.73058262108314e-03 1.82424283453017e-04
3.55852941176471e+00 8.55462834567215e-03 1.79076628425533e-04
3.57158823529412e+00 8.38222021486466e-03 1.75789222393242e-04
3.58464705882353e+00 8.21328675997298e-03 1.72561011568678e-04
3.59770588235294e+00 8.04775795358157e-03 1.69390959768188e-04
3.61076470588235e+00 7.88556517913222e-03 1.66278048472685e-04
3.62382352941176e+00 7.72664120253420e-03 1.63221275903226e-04
3.63688235294118e+00 7.57092014556234e-03 1.60219657082474e-04
3.64994117647059e+00 7.41833745725930e-03 1.57272223884450e-04
3.66300000000000e+00 7.26882988722677e-03 1.54378024162948e-04
3.67605882352941e+00 7.12233546058662e-03 1.51536121892628e-04
3.68911764705882e+00 6.97879345072113e-03 1.48745596844396e-04
3.70217647058824e+00 6.83814435563420e-03 1.46005544218527e-04
3.71523529411765e+00 6.70032987213998e-03 1.43315074782719e-04
3.72829411764706e+00 6.56529287173837e-03 1.40673314080433e-04
3.74135294117647e+00 6.43297737798296e-03 1.38079402466557e-04
3.75441176470588e+00 6.30332854221074e-03 1.35532495133682e-04
3.76747058823529e+00 6.17629262084677e-03 1.33031761365763e-04
3.78052941176471e+00 6.05181695410225e-03 1.30576384565824e-04
3.79358823529412e+00 5.92984994315303e-03 1.28165562274842e-04
3.80664705882353e+00 5.81034102878883e-03 1.25798505468133e-04
3.81970588235294e+00 5.69324067136330e-03 1.23474438575931e-04
3.83276470588235e+00 5.57850032933509e-03 1.21192599495831e-04
3.84582352941176e+00 5.46607243918137e-03 1.18952238929475e-04
3.85888235294118e+00 5.35591039652693e-03 1.16752620396699e-04
3.87194117647059e+00 5.24796853596608e-03 1.14593020242389e-04
3.88500000000000e+00 5.14220211216569e-03 1.12472727011163e-04
3.89805882352941e+00 5.03856728210415e-03 1.10391041518126e-04
3.91111764705882e+00 4.93702108585043e-03 1.08347276600357e-04
3.92417647058824e+00 4.83752142977933e-03 1.06340756839925e-04
3.93723529411765e+00 4.74002706835794e-03 1.04370818634345e-04
3.95029411764706e+00 4.64449758707719e-03 1.02436809628824e-04
3.96335294117647e+00 4.55089338639938e-03 1.00538088717410e-04
3.97641176470588e+00 4.45917566463123e-03 9.86740260383303e-05
3.98947058823529e+00 4.36930640186657e-03 9.68440024387812e-05
4.00252941176471e+00 4.28124834487819e-03 9.50474094721801e-05
4.01558823529412e+00 4.19496499101244e-03 9.32836493899269e-05
4.02864705882353e+00 4.11042057308325e-03 9.15521346369011e-05
4.04170588235294e+00 4.02758004515275e-03 8.98522878452587e-05
4.05476470588235e+00 3.94640906738659e-03 8.81835418231828e-05
4.06782352941176e+00 3.86687399184264e-03 8.65453390793221e-05
4.08088235294118e+00 3.78894184908838e-03 8.49371318135243e-05
4.09394117647059e+00 3.71258033395955e-03 8.33583819030582e-05
4.10700000000000e+00 3.63775779219043e-03 8.18085604543279e-05
4.12005882352941e+00 3.56444320781898e-03 8.02871478338348e-05
