Energy (eV)          EEDF (eV^-(3/2))     First Anisotropy
4.02173913043478e-02 3.20585636899255e-02 1.77300455941238e-05
1.20652173913043e-01 3.18187626326076e-02 2.92662333863972e-05
2.01086956521739e-01 3.15807553098423e-02 3.86053201414125e-05
2.81521739130435e-01 3.13445283036623e-02 4.56824141309716e-05
3.61956521739130e-01 3.11100682980933e-02 5.15700169281723e-05
4.42391304347826e-01 3.08773620750680e-02 5.66739859472194e-05
5.22826086956522e-01 3.06463965161623e-02 6.12045288284480e-05
6.03260869565217e-01 3.04171586015421e-02 6.52886875977965e-05
6.83695652173913e-01 3.01896354078355e-02 6.90107866868888e-05
7.64130434782609e-01 2.99638141091034e-02 7.24304725027095e-05
8.44565217391304e-01 2.97396819747100e-02 7.55919335234274e-05
9.25000000000000e-01 2.95172263695584e-02 7.85290823550107e-05
1.00543478260870e+00 2.92964347533039e-02 8.12686811519893e-05
1.08586956521739e+00 2.90772946797126e-02 8.38323325514731e-05
1.16630434782609e+00 2.88597937929085e-02 8.62378034788235e-05
1.24673913043478e+00 2.86439198336407e-02 8.84999387407887e-05
1.32717391304348e+00 2.84296606322336e-02 9.06313103491563e-05
1.40760869565217e+00 2.82170041100784e-02 9.26426898953325e-05
1.48804347826087e+00 2.80059382775114e-02 9.45434004294236e-05
1.56847826086957e+00 2.77964512375282e-02 9.63415840911908e-05
1.64891304347826e+00 2.75885311805448e-02 9.80444087240469e-05
1.72934782608696e+00 2.73821663853423e-02 9.96582291049389e-05
1.80978260869565e+00 2.71773452172540e-02 1.01188714948289e-04
1.89021739130435e+00 2.69740561309868e-02 1.02640954191422e-04
1.97065217391304e+00 2.67722876663773e-02 1.04019537003802e-04
2.05108695652174e+00 2.65720284480195e-02 1.05328623488816e-04
2.13152173913043e+00 2.63732671876377e-02 1.06572000769271e-04
2.21195652173913e+00 2.61759926803391e-02 1.07753130485978e-04
2.29239130434783e+00 2.59801938050396e-02 1.08875188181522e-04
2.37282608695652e+00 2.57858595230301e-02 1.09941096639017e-04
2.45326086956522e+00 2.55929788798694e-02 1.10953554678657e-04
2.53369565217391e+00 2.54015410021814e-02 1.11915061836591e-04
2.61413043478261e+00 2.52115350979233e-02 1.12827939149508e-04
2.69456521739130e+00 2.50229504550832e-02 1.13694347167752e-04
2.77500000000000e+00 2.48357764432168e-02 1.14516302003327e-04
2.85543478260870e+00 2.46500025106548e-02 1.15295689366522e-04
2.93586956521739e+00 2.44656181846573e-02 1.16034276457942e-04
3.01630434782609e+00 2.42826130702187e-02 1.16733722465985e-04
3.09673913043478e+00 2.41009768513315e-02 1.17395588201445e-04
3.17717391304348e+00 2.39206992885143e-02 1.18021344661114e-04
3.25760869565217e+00 2.37417702188810e-02 1.18612380265067e-04
3.33804347826087e+00 2.35641795550360e-02 1.19170007341776e-04
3.41847826086956e+00 2.33879172861237e-02 1.19695468265379e-04
3.49891304347826e+00 2.32129734756129e-02 1.20189940982504e-04
3.57934782608696e+00 2.30393382613029e-02 1.20654543635040e-04
3.65978260869565e+00 2.28670018542949e-02 1.21090338755481e-04
3.74021739130435e+00 2.26959545398691e-02 1.21498337370640e-04
3.82065217391304e+00 2.25261866754813e-02 1.21879502815521e-04
3.90108695652174e+00 2.23576886902856e-02 1.22234753490677e-04
3.98152173913043e+00 2.21904510859098e-02 1.22564966068181e-04
4.06195652173913e+00 2.20244644345802e-02 1.22870978352385e-04
4.14239130434783e+00 2.18597193790426e-02 1.23153591581932e-04
4.22282608695652e+00 2.16962066316509e-02 1.23413572558977e-04
4.30326086956522e+00 2.15339169750206e-02 1.23651655880614e-04
4.38369565217391e+00 2.13728412603120e-02 1.23868546001942e-04
4.46413043478261e+00 2.12129704071192e-02 1.24064918843263e-04
4.54456521739130e+00 2.10542954026114e-02 1.24241423291231e-04
4.62500000000000e+00 2.08968073020846e-02 1.24398682844874e-04
4.70543478260870e+00 2.07404972273800e-02 1.24537297148669e-04
4.78586956521739e+00 2.05853563667488e-02 1.24657843139257e-04
4.86630434782609e+00 2.04313759740405e-02 1.24760876126553e-04
4.94673913043478e+00 2.02785473691680e-02 1.24846931041269e-04
5.02717391304348e+00 2.01268619366453e-02 1.24916523604390e-04
5.10760869565217e+00 1.99763111254319e-02 1.24970151159827e-04
5.18804347826087e+00 1.98268864481636e-02 1.25008293466807e-04
5.26847826086957e+00 1.96785794815452e-02 1.25031413668114e-04
5.34891304347826e+00 1.95313818649916e-02 1.25039959203046e-04
5.42934782608696e+00 1.93852853004570e-02 1.25034362420599e-04
5.50978260869565e+00 1.92402815517042e-02 1.25015041168591e-04
5.59021739130435e+00 1.90963624446351e-02 1.24982399561122e-04
5.67065217391304e+00 1.89535198660242e-02 1.24936828759865e-04
5.75108695652174e+00 1.88117457630882e-02 1.24878707215003e-04
5.83152173913043e+00 1.86710321437797e-02 1.24808401377696e-04
5.91195652173913e+00 1.85313710755790e-02 1.24726266322181e-04
5.99239130434783e+00 1.83927546853014e-02 1.24632646112459e-04
6.07282608695652e+00 1.82551751584296e-02 1.24527874161247e-04
6.15326086956522e+00 1.81186247393581e-02 1.24412273765051e-04
6.23369565217391e+00 1.79830957302612e-02 1.24286158615410e-04
6.31413043478261e+00 1.78485804908938e-02 1.24149833075140e-04
6.39456521739130e+00 1.77150714379527e-02 1.24003592451910e-04
6.47500000000000e+00 1.75825610452809e-02 1.23847723442820e-04
6.55543478260870e+00 1.74510418428033e-02 1.23682504560932e-04
6.63586956521739e+00 1.73205064163219e-02 1.23508206343938e-04
6.71630434782609e+00 1.71909474069060e-02 1.23325091563693e-04
6.79673913043478e+00 1.70623575110594e-02 1.23133415600737e-04
6.87717391304348e+00 1.69347294797195e-02 1.22933426804933e-04
6.95760869565217e+00 1.68080561180476e-02 1.22725366653130e-04
7.03804347826087e+00 1.66823302848455e-02 1.22509469909969e-04
7.11847826086956e+00 1.65575448926920e-02 1.22285964947334e-04
7.19891304347826e+00 1.64336929069976e-02 1.22055074053003e-04
7.27934782608696e+00 1.63107673457928e-02 1.21817013549323e-04
7.35978260869565e+00 1.61887612791691e-02 1.21571993916583e-04
7.44021739130435e+00 1.60676678293882e-02 1.21320220068525e-04
7.52065217391304e+00 1.59474801699884e-02 1.21061891658736e-04
7.60108695652174e+00 1.58281915254146e-02 1.20797203011630e-04
7.68152173913043e+00 1.57097951711106e-02 1.20526343413753e-04
7.76195652173913e+00 1.55922844326600e-02 1.20249497355508e-04
7.84239130434783e+00 1.54756526855714e-02 1.19966844601078e-04
7.92282608695652e+00 1.53598933547600e-02 1.19678560264617e-04
8.00326086956522e+00 1.52449999146180e-02 1.19384815028586e-04
8.08369565217391e+00 1.51309658882006e-02 1.19085775356370e-04
8.16413043478261e+00 1.50177848470110e-02 1.18781603542842e-04
8.24456521739130e+00 1.49054504105028e-02 1.18472457771605e-04
8.32500000000000e+00 1.47939562461313e-02 1.18158492308120e-04
8.40543478260870e+00 1.46832960685808e-02 1.17839857688222e-04
8.48586956521739e+00 1.45734636395503e-02 1.17516700753486e-04
8.56630434782609e+00 1.44644527672755e-02 1.17189164693474e-04
8.64673913043478e+00 1.43562573065633e-02 1.16857389217827e-04
8.72717391304348e+00 1.42488711580574e-02 1.16521510724647e-04
8.80760869565217e+00 1.41422882680257e-02 1.16181662323860e-04
8.88804347826087e+00 1.40365026278998e-02 1.15837973867526e-04
8.96847826086957e+00 1.39315082742959e-02 1.15490572104250e-04
9.04891304347826e+00 1.38272992883153e-02 1.15139580830537e-04
9.12934782608696e+00 1.37238697953337e-02 1.14785120904647e-04
9.20978260869565e+00 1.36212139645585e-02 1.14427310267398e-04
9.29021739130435e+00 1.35193260090362e-02 1.14066264081504e-04
9.37065217391304e+00 1.34182001849868e-02 1.13702094898108e-04
9.45108695652174e+00 1.33178307914886e-02 1.13334912544237e-04
9.53152173913043e+00 1.32182121704774e-02 1.12964824284502e-04
9.61195652173913e+00 1.31193387061039e-02 1.12591934948842e-04
9.69239130434783e+00 1.30212048245254e-02 1.12216346933845e-04
9.77282608695652e+00 1.29238049934933e-02 1.11838160210808e-04
9.85326086956522e+00 1.28271337223411e-02 1.11457472444068e-04
9.93369565217391e+00 1.27311855613720e-02 1.11074379107546e-04
1.00141304347826e+01 1.26359551016530e-02 1.10688973400281e-04
1.00945652173913e+01 1.25414369748965e-02 1.10301346546327e-04
1.01750000000000e+01 1.24476258524132e-02 1.09911587631847e-04
1.02554347826087e+01 1.23545164457489e-02 1.09519783547330e-04
1.03358695652174e+01 1.22621035060074e-02 1.09126019312384e-04
1.04163043478261e+01 1.21703818235557e-02 1.08730377757976e-04
1.04967391304348e+01 1.20793462285957e-02 1.08332940345059e-04
1.05771739130435e+01 1.19889915882552e-02 1.07933786693799e-04
1.06576086956522e+01 1.18993128089345e-02 1.07532994105241e-04
1.07380434782609e+01 1.18103048351332e-02 1.07130638391056e-04
1.08184782608696e+01 1.17219626491669e-02 1.06726793651024e-04
1.08989130434783e+01 1.16342812708847e-02 1.06321532075242e-04
1.09793478260870e+01 1.15472557581793e-02 1.05914924704410e-04
1.10597826086957e+01 1.14608812043165e-02 1.05507040985352e-04
1.11402173913043e+01 1.13751527400673e-02 1.05097948319539e-04
1.12206521739130e+01 1.12900655326233e-02 1.04687712834414e-04
1.13010869565217e+01 1.12056147853276e-02 1.04276398945851e-04
1.13815217391304e+01 1.11217957381371e-02 1.03864070074224e-04
1.14619565217391e+01 1.10386036651355e-02 1.03450788221304e-04
1.15423913043478e+01 1.09560338765008e-02 1.03036613540649e-04
1.16228260869565e+01 1.08740817174912e-02 1.02621605064340e-04
1.17032608695652e+01 1.07927425681816e-02 1.02205820499747e-04
1.17836956521739e+01 1.07120118432057e-02 1.01789316047889e-04
1.18641304347826e+01 1.06318849921698e-02 1.01372147070730e-04
1.19445652173913e+01 1.05523574973613e-02 1.00954367692118e-04
1.20250000000000e+01 1.04734248755427e-02 1.00536030392666e-04
1.21054347826087e+01 1.03950826770110e-02 1.00117186687411e-04
1.21858695652174e+01 1.03173264853475e-02 9.96978869331029e-05
1.22663043478261e+01 1.02401519171690e-02 9.92781801555644e-05
1.23467391304348e+01 1.01635546224997e-02 9.88581146724627e-05
1.24271739130435e+01 1.00875302826559e-02 9.84377377170211e-05
1.25076086956522e+01 1.00120746118846e-02 9.80170950560819e-05
1.25880434782609e+01 9.93718335649031e-03 9.75962316229093e-05
1.26684782608696e+01 9.86285229459569e-03 9.71751913346171e-05
1.27489130434783e+01 9.78907723590375e-03 9.67540169283421e-05
1.28293478260870e+01 9.71585402203106e-03 9.63327505432265e-05
1.29097826086957e+01 9.64317852455265e-03 9.59114333656244e-05
1.29902173913043e+01 9.57104664650130e-03 9.54901052690692e-05
1.30706521739130e+01 9.49945432155455e-03 9.50688054058966e-05
1.31510869565217e+01 9.42839751380727e-03 9.46475718582783e-05
1.32315217391304e+01 9.35787221807467e-03 9.42264421888263e-05
1.33119565217391e+01 9.28787445806180e-03 9.38054531030489e-05
1.33923913043478e+01 9.21840028775457e-03 9.33846401068551e-05
1.34728260869565e+01 9.14944579065522e-03 9.29640380663524e-05
1.35532608695652e+01 9.08100707956129e-03 9.25436810425954e-05
1.36336956521739e+01 9.01308029634754e-03 9.21236021428275e-05
1.37141304347826e+01 8.94566161223810e-03 9.17038340360555e-05
1.37945652173913e+01 8.87874722611026e-03 9.12844086347693e-05
1.38750000000000e+01 8.81233336577016e-03 9.08653567720387e-05
1.39554347826087e+01 8.74641628723991e-03 9.04467087258979e-05
1.40358695652174e+01 8.68099227454689e-03 9.00284940630732e-05
1.41163043478261e+01 8.61605763951461e-03 8.96107414981299e-05
1.41967391304348e+01 8.55160872200733e-03 8.91934793767019e-05
1.42771739130435e+01 8.48764188835636e-03 8.87767353753657e-05
1.43576086956522e+01 8.42415353253139e-03 8.83605361971612e-05
1.44380434782609e+01 8.36114007547501e-03 8.79449080632132e-05
1.45184782608696e+01 8.29859796490181e-03 8.75298765650177e-05
1.45989130434783e+01 8.23652367509789e-03 8.71154665311176e-05
1.46793478260870e+01 8.17491370714081e-03 8.67017024804055e-05
1.47597826086957e+01 8.11376458743791e-03 8.62886083390568e-05
1.48402173913043e+01 8.05307286880298e-03 8.58762071533789e-05
1.49206521739130e+01 7.99283512983447e-03 8.54645215511079e-05
1.50010869565217e+01 7.93304797472380e-03 8.50535734629921e-05
1.50815217391304e+01 7.87370803345543e-03 8.46433845528622e-05
1.51619565217391e+01 7.81481196043307e-03 8.42339759481760e-05
1.52423913043478e+01 7.75635643548243e-03 8.38253679667083e-05
1.53228260869565e+01 7.69833816326425e-03 8.34175805542223e-05
1.54032608695652e+01 7.64075387308847e-03 8.30106331511014e-05
1.54836956521739e+01 7.58360031873042e-03 8.26045445716928e-05
1.55641304347826e+01 7.52687427861083e-03 8.21993334082760e-05
1.56445652173913e+01 7.47057255451729e-03 8.17950177768501e-05
1.57250000000000e+01 7.41469197252781e-03 8.13916150592679e-05
1.58054347826087e+01 7.35922938246134e-03 8.09891423144477e-05
1.58858695652174e+01 7.30418165770046e-03 8.05876161523134e-05
1.59663043478261e+01 7.24954569501537e-03 8.01870526196766e-05
1.60467391304348e+01 7.19531841472564e-03 7.97874675799452e-05
1.61271739130435e+01 7.14149675950938e-03 7.93888764732127e-05
1.62076086956522e+01 7.08807769525455e-03 7.89912940729159e-05
1.62880434782609e+01 7.03505821054416e-03 7.85947348724326e-05
1.63684782608696e+01 6.98243531648711e-03 7.81992129659376e-05
1.64489130434783e+01 6.93020604654958e-03 7.78047419404585e-05
1.65293478260870e+01 6.87836745670045e-03 7.74113352329962e-05
1.66097826086956e+01 6.82691662430113e-03 7.70190059040656e-05
1.66902173913043e+01 6.77585064889095e-03 7.66277664080044e-05
1.67706521739130e+01 6.72516665170451e-03 7.62376289566380e-05
1.68510869565217e+01 6.67486177551024e-03 7.58486052964724e-05
1.69315217391304e+01 6.62493318474270e-03 7.54607070481985e-05
1.70119565217391e+01 6.57537806445588e-03 7.50739454909569e-05
1.70923913043478e+01 6.52619362105685e-03 7.46883313435254e-05
1.71728260869565e+01 6.47737708184894e-03 7.43038751100389e-05
1.72532608695652e+01 6.42892569487529e-03 7.39205869724229e-05
1.73336956521739e+01 6.38083672876419e-03 7.35384766927629e-05
1.74141304347826e+01 6.33310747284798e-03 7.31575539329188e-05
1.74945652173913e+01 6.28573523618574e-03 7.27778280508127e-05
1.75750000000000e+01 6.23871734824116e-03 7.23993078937908e-05
1.76554347826087e+01 6.19205115845364e-03 7.20220021241351e-05
1.77358695652174e+01 6.14573403608897e-03 7.16459191173888e-05
1.78163043478261e+01 6.09976337009126e-03 7.12710668699968e-05
1.78967391304348e+01 6.05413656918964e-03 7.08974533003580e-05
1.79771739130435e+01 6.00885106098517e-03 7.05250860563863e-05
1.80576086956522e+01 5.96390429257758e-03 7.01539723203396e-05
1.81380434782609e+01 5.91929373016229e-03 6.97841191154700e-05
1.82184782608696e+01 5.87501685888795e-03 6.94155332098851e-05
1.82989130434783e+01 5.83107118271459e-03 6.90482210291704e-05
1.83793478260870e+01 5.78745422450945e-03 6.86821889400610e-05
1.84597826086957e+01 5.74416352519316e-03 6.83174430686632e-05
1.85402173913043e+01 5.70119664431966e-03 6.79539891160438e-05
1.86206521739130e+01 5.65855115969739e-03 6.75918326472245e-05
1.87010869565217e+01 5.61622466725321e-03 6.72309789122497e-05
1.87815217391304e+01 5.57421478111953e-03 6.68714331162668e-05
1.88619565217391e+01 5.53251913282722e-03 6.65132002462044e-05
1.89423913043478e+01 5.49113537184871e-03 6.61562848949605e-05
1.90228260869565e+01 5.45006116523855e-03 6.58006915365360e-05
1.91032608695652e+01 5.40929419750177e-03 6.54464244391758e-05
1.91836956521739e+01 5.36883217046371e-03 6.50934875863104e-05
1.92641304347826e+01 5.32867280334794e-03 6.47418849312560e-05
1.93445652173913e+01 5.28881383202085e-03 6.43916202333908e-05
1.94250000000000e+01 5.24925300949466e-03 6.40426968919749e-05
1.95054347826087e+01 5.20998810558915e-03 6.36951182056426e-05
1.95858695652174e+01 5.17101690680602e-03 6.33488872902529e-05
1.96663043478261e+01 5.13233721620428e-03 6.30040070040676e-05
1.97467391304348e+01 5.09394685346995e-03 6.26604801880244e-05
1.98271739130435e+01 5.05584365420851e-03 6.23183095108667e-05
1.99076086956522e+01 5.01802547041107e-03 6.19774973120427e-05
1.99880434782609e+01 4.98049017013588e-03 6.16380458465198e-05
2.00684782608696e+01 4.94323563738843e-03 6.12999572070705e-05
2.01489130434783e+01 4.90625977200205e-03 6.09632332534668e-05
2.02293478260870e+01 4.86956048970035e-03 6.06278758392213e-05
2.03097826086957e+01 4.83313572143396e-03 6.02938866651431e-05
2.03902173913043e+01 4.79698341381292e-03 5.99612671307852e-05
2.04706521739130e+01 4.76110152880662e-03 5.96300185655019e-05
2.05510869565217e+01 4.72548804362928e-03 5.93001420842605e-05
2.06315217391304e+01 4.69014095079636e-03 5.89716388037699e-05
2.07119565217391e+01 4.65505825749647e-03 5.86445097027391e-05
2.07923913043478e+01 4.62023798599702e-03 5.83187554801411e-05
2.08728260869565e+01 4.58567817335899e-03 5.79943767754478e-05
2.09532608695652e+01 4.55137687132626e-03 5.76713740983400e-05
2.10336956521739e+01 4.51733214621593e-03 5.73497477645927e-05
2.11141304347826e+01 4.48354207896865e-03 5.70294981001646e-05
2.11945652173913e+01 4.45000476455933e-03 5.67106253090158e-05
2.12750000000000e+01 4.41671831237371e-03 5.63931293390222e-05
2.13554347826087e+01 4.38368084593940e-03 5.60770100899552e-05
2.14358695652174e+01 4.35089050282021e-03 5.57622673469594e-05
2.15163043478261e+01 4.31834543451120e-03 5.54489007198449e-05
2.15967391304348e+01 4.28604380648343e-03 5.51369098358672e-05
2.16771739130435e+01 4.25398379763084e-03 5.48262942146594e-05
2.17576086956522e+01 4.22216360061996e-03 5.45170531413614e-05
2.18380434782609e+01 4.19058142163623e-03 5.42091858630971e-05
2.19184782608696e+01 4.15923548028305e-03 5.39026915259919e-05
2.19989130434783e+01 4.12812400948138e-03 5.35975691176913e-05
2.20793478260870e+01 4.09724525550945e-03 5.32938176495030e-05
2.21597826086957e+01 4.06659747748334e-03 5.29914360380384e-05
2.22402173913043e+01 4.03617894768188e-03 5.26904229851548e-05
2.23206521739130e+01 4.00598795130731e-03 5.23907771636033e-05
2.24010869565217e+01 3.97602278638880e-03 5.20924971004578e-05
2.24815217391304e+01 3.94628176381816e-03 5.17955813508788e-05
2.25619565217391e+01 3.91676320685709e-03 5.15000283851066e-05
2.26423913043478e+01 3.88746545144250e-03 5.12058364738448e-05
2.27228260869565e+01 3.85838684595864e-03 5.09130038653612e-05
2.28032608695652e+01 3.82952575114390e-03 5.06215287284624e-05
2.28836956521739e+01 3.80088053999861e-03 5.03314091004126e-05
2.29641304347826e+01 3.77244959781647e-03 5.00426430511976e-05
2.30445652173913e+01 3.74423132172151e-03 4.97552285765394e-05
2.31250000000000e+01 3.71622412095197e-03 4.94691634893847e-05
2.32054347826087e+01 3.68842641664505e-03 4.91844455873401e-05
2.32858695652174e+01 3.66083664174801e-03 4.89010725986653e-05
2.33663043478261e+01 3.63345324092984e-03 4.86190421329239e-05
2.34467391304348e+01 3.60627467060902e-03 4.83383518363109e-05
2.35271739130435e+01 3.57929939851807e-03 4.80589992903549e-05
2.36076086956522e+01 3.55252590396763e-03 4.77809819091650e-05
2.36880434782609e+01 3.52595267764317e-03 4.75042970977599e-05
2.37684782608696e+01 3.49957822152000e-03 4.72289422009153e-05
2.38489130434783e+01 3.47340104877883e-03 4.69549144564110e-05
2.39293478260870e+01 3.44741968383007e-03 4.66822111419251e-05
2.40097826086957e+01 3.42163266190427e-03 4.64108294791051e-05
2.40902173913043e+01 3.39603852929782e-03 4.61407665362628e-05
2.41706521739130e+01 3.37063584318086e-03 4.58720193781192e-05
2.42510869565217e+01 3.34542317151613e-03 4.56045849713013e-05
2.43315217391304e+01 3.32039909308052e-03 4.53384603245856e-05
2.44119565217391e+01 3.29556219707599e-03 4.50736423972560e-05
2.44923913043478e+01 3.27091108336081e-03 4.48101280061483e-05
2.45728260869565e+01 3.24644436226643e-03 4.45479139686117e-05
2.46532608695652e+01 3.22216065451909e-03 4.42869970561493e-05
2.47336956521739e+01 3.19805859116219e-03 4.40273739520210e-05
2.48141304347826e+01 3.17413681357505e-03 4.37690413839340e-05
2.48945652173913e+01 3.15039397310663e-03 4.35119960372264e-05
2.49750000000000e+01 3.12682873129090e-03 4.32562344668118e-05
2.50554347826087e+01 3.10343975967362e-03 4.30017532324437e-05
2.51358695652174e+01 3.08022573973751e-03 4.27485488547946e-05
2.52163043478261e+01 3.05718536282797e-03 4.24966177752610e-05
2.52967391304348e+01 3.03431733016926e-03 4.22459564815397e-05
2.53771739130435e+01 3.01162035251967e-03 4.19965614253748e-05
