Energy (eV)          EEDF (eV^-(3/2))     First Anisotropy
3.40625000000000e-03 7.94426538290201e-01 3.69643609068576e-04
1.02187500000000e-02 7.90147197853596e-01 6.10796053132251e-04
1.70312500000000e-02 7.85890908954596e-01 8.07405276816302e-04
2.38437500000000e-02 7.81657547422682e-01 9.57433251872563e-04
3.06562500000000e-02 7.77446989755169e-01 1.08310801304401e-03
3.74687500000000e-02 7.73259113114478e-01 1.19281553758241e-03
4.42812500000000e-02 7.69093795324674e-01 1.29088669083119e-03
5.10937500000000e-02 7.64950914867930e-01 1.37993152956028e-03
5.79062500000000e-02 7.60830350880989e-01 1.46167766911211e-03
6.47187500000000e-02 7.56731983151646e-01 1.53734375157109e-03
7.15312500000000e-02 7.52655692115242e-01 1.60783010972998e-03
7.83437500000000e-02 7.48601358851174e-01 1.67382581162303e-03
8.51562500000000e-02 7.44568865079429e-01 1.73587314858717e-03
9.19687500000000e-02 7.40558093157132e-01 1.79440866543833e-03
9.87812500000000e-02 7.36568926075117e-01 1.84979043015970e-03
1.05593750000000e-01 7.32601247454510e-01 1.90231681772688e-03
1.12406250000000e-01 7.28654941543334e-01 1.95223984101199e-03
1.19218750000000e-01 7.24729893213136e-01 1.99977485467825e-03
1.26031250000000e-01 7.20825987955625e-01 2.04510777462400e-03
1.32843750000000e-01 7.16943111879330e-01 2.08840055192369e-03
1.39656250000000e-01 7.13081151706282e-01 2.12979539301889e-03
1.46468750000000e-01 7.09239994768707e-01 2.16941806168168e-03
1.53281250000000e-01 7.05419529005737e-01 2.20738049676817e-03
1.60093750000000e-01 7.01619642960144e-01 2.24378291221151e-03
1.66906250000000e-01 6.97840225775088e-01 2.27871549973761e-03
1.73718750000000e-01 6.94081167190879e-01 2.31225982289896e-03
1.80531250000000e-01 6.90342357541765e-01 2.34448996851415e-03
1.87343750000000e-01 6.86623687752732e-01 2.37547350545540e-03
1.94156250000000e-01 6.82925049336318e-01 2.40527228897678e-03
2.00968750000000e-01 6.79246334389454e-01 2.43394314011127e-03
2.07781250000000e-01 6.75587435590311e-01 2.46153842319672e-03
2.14593750000000e-01 6.71948246195170e-01 2.48810653970803e-03
2.21406250000000e-01 6.68328660035311e-01 2.51369235284635e-03
2.28218750000000e-01 6.64728571513912e-01 2.53833755446894e-03
2.35031250000000e-01 6.61147875602970e-01 2.56208098371058e-03
2.41843750000000e-01 6.57586467840237e-01 2.58495890490260e-03
2.48656250000000e-01 6.54044244326173e-01 2.60700525101421e-03
2.55468750000000e-01 6.50521101720912e-01 2.62825183773841e-03
2.62281250000000e-01 6.47016937241251e-01 2.64872855247175e-03
2.69093750000000e-01 6.43531648657649e-01 2.66846352172163e-03
2.75906250000000e-01 6.40065134291245e-01 2.68748325990001e-03
2.82718750000000e-01 6.36617293010893e-01 2.70581280199414e-03
2.89531250000000e-01 6.33188024230209e-01 2.72347582221706e-03
2.96343750000000e-01 6.29777227904638e-01 2.74049474042292e-03
3.03156250000000e-01 6.26384804528538e-01 2.75689081780927e-03
3.09968750000000e-01 6.23010655132272e-01 2.77268424320883e-03
3.16781250000000e-01 6.19654681279323e-01 2.78789421108602e-03
3.23593750000000e-01 6.16316785063424e-01 2.80253899220534e-03
3.30406250000000e-01 6.12996869105699e-01 2.81663599780268e-03
3.37218750000000e-01 6.09694836551823e-01 2.83020183798331e-03
3.44031250000000e-01 6.06410591069197e-01 2.84325237497651e-03
3.50843750000000e-01 6.03144036844136e-01 2.85580277179395e-03
3.57656250000000e-01 5.99895078579078e-01 2.86786753677679e-03
3.64468750000000e-01 5.96663621489797e-01 2.87946056445040e-03
3.71281250000000e-01 5.93449571302645e-01 2.89059517305942e-03
3.78093750000000e-01 5.90252834251794e-01 2.90128413911159e-03
3.84906250000000e-01 5.87073317076509e-01 2.91153972921990e-03
3.91718750000000e-01 5.83910927018421e-01 2.92137372950115e-03
3.98531250000000e-01 5.80765571818822e-01 2.93079747275814e-03
4.05343750000000e-01 5.77637159715976e-01 2.93982186365009e-03
4.12156250000000e-01 5.74525599442440e-01 2.94845740203307e-03
4.18968750000000e-01 5.71430800222400e-01 2.95671420463273e-03
4.25781250000000e-01 5.68352671769027e-01 2.96460202519417e-03
4.32593750000000e-01 5.65291124281839e-01 2.97213027324045e-03
4.39406250000000e-01 5.62246068444082e-01 2.97930803155797e-03
4.46218750000000e-01 5.59217415420126e-01 2.98614407251279e-03
4.53031250000000e-01 5.56205076852872e-01 2.99264687329454e-03
4.59843750000000e-01 5.53208964861175e-01 2.99882463017540e-03
4.66656250000000e-01 5.50228992037278e-01 3.00468527185928e-03
4.73468750000000e-01 5.47265071444265e-01 3.01023647199528e-03
4.80281250000000e-01 5.44317116613523e-01 3.01548566091888e-03
4.87093750000000e-01 5.41385041542221e-01 3.02044003667768e-03
4.93906250000000e-01 5.38468760690798e-01 3.02510657539879e-03
5.00718750000000e-01 5.35568188980469e-01 3.02949204104242e-03
5.07531250000000e-01 5.32683241790747e-01 3.03360299458843e-03
5.14343750000000e-01 5.29813834956965e-01 3.03744580269631e-03
5.21156250000000e-01 5.26959884767830e-01 3.04102664587588e-03
5.27968750000000e-01 5.24121307962976e-01 3.04435152620245e-03
5.34781250000000e-01 5.21298021730535e-01 3.04742627460695e-03
5.41593750000000e-01 5.18489943704724e-01 3.05025655777156e-03
5.48406250000000e-01 5.15696991963438e-01 3.05284788465643e-03
5.55218750000000e-01 5.12919085025862e-01 3.05520561268115e-03
5.62031250000000e-01 5.10156141850097e-01 3.05733495358495e-03
5.68843750000000e-01 5.07408081830789e-01 3.05924097898577e-03
5.75656250000000e-01 5.04674824796784e-01 3.06092862565636e-03
5.82468750000000e-01 5.01956291008784e-01 3.06240270053655e-03
5.89281250000000e-01 4.99252401157024e-01 3.06366788549738e-03
5.96093750000000e-01 4.96563076358958e-01 3.06472874187289e-03
6.02906250000000e-01 4.93888238156956e-01 3.06558971477262e-03
6.09718750000000e-01 4.91227808516017e-01 3.06625513718913e-03
6.16531250000000e-01 4.88581709821489e-01 3.06672923391155e-03
6.23343750000000e-01 4.85949864876809e-01 3.06701612525732e-03
6.30156250000000e-01 4.83332196901250e-01 3.06711983063262e-03
6.36968750000000e-01 4.80728629527677e-01 3.06704427193076e-03
6.43781250000000e-01 4.78139086800326e-01 3.06679327677788e-03
6.50593750000000e-01 4.75563493172580e-01 3.06637058163483e-03
6.57406250000000e-01 4.73001773504773e-01 3.06577983476315e-03
6.64218750000000e-01 4.70453853061992e-01 3.06502459906135e-03
6.71031250000000e-01 4.67919657511899e-01 3.06410835478044e-03
6.77843750000000e-01 4.65399112922563e-01 3.06303450212454e-03
6.84656250000000e-01 4.62892145760302e-01 3.06180636374148e-03
6.91468750000000e-01 4.60398682887538e-01 3.06042718711010e-03
6.98281250000000e-01 4.57918651560664e-01 3.05890014682995e-03
7.05093750000000e-01 4.55451979427921e-01 3.05722834681818e-03
7.11906250000000e-01 4.52998594527287e-01 3.05541482241787e-03
7.18718750000000e-01 4.50558425284378e-01 3.05346254242215e-03
7.25531250000000e-01 4.48131400510362e-01 3.05137441101885e-03
7.32343750000000e-01 4.45717449399878e-01 3.04915326966020e-03
7.39156250000000e-01 4.43316501528973e-01 3.04680189885954e-03
7.45968750000000e-01 4.40928486853048e-01 3.04432301991934e-03
7.52781250000000e-01 4.38553335704811e-01 3.04171929659463e-03
7.59593750000000e-01 4.36190978792250e-01 3.03899333669466e-03
7.66406250000000e-01 4.33841347196608e-01 3.03614769362380e-03
7.73218750000000e-01 4.31504372370370e-01 3.03318486786643e-03
7.80031250000000e-01 4.29179986135271e-01 3.03010730841882e-03
7.86843750000000e-01 4.26868120680297e-01 3.02691741416875e-03
7.93656250000000e-01 4.24568708559716e-01 3.02361753522598e-03
8.00468750000000e-01 4.22281682691104e-01 3.02020997420627e-03
8.07281250000000e-01 4.20006976353390e-01 3.01669698746983e-03
8.14093750000000e-01 4.17744523184912e-01 3.01308078631733e-03
8.20906250000000e-01 4.15494257181475e-01 3.00936353814503e-03
8.27718750000000e-01 4.13256112694432e-01 3.00554736756029e-03
8.34531250000000e-01 4.11030024428765e-01 3.00163435745991e-03
8.41343750000000e-01 4.08815927441180e-01 2.99762655007189e-03
8.48156250000000e-01 4.06613757138214e-01 2.99352594796351e-03
8.54968750000000e-01 4.04423449274351e-01 2.98933451501602e-03
8.61781250000000e-01 4.02244939950144e-01 2.98505417736711e-03
8.68593750000000e-01 4.00078165610355e-01 2.98068682432392e-03
8.75406250000000e-01 3.97923063042100e-01 2.97623430924674e-03
8.82218750000000e-01 3.95779569373002e-01 2.97169845040380e-03
8.89031250000000e-01 3.93647622069361e-01 2.96708103180055e-03
8.95843750000000e-01 3.91527158934326e-01 2.96238380398294e-03
9.02656250000000e-01 3.89418118106083e-01 2.95760848481527e-03
9.09468750000000e-01 3.87320438056049e-01 2.95275676023370e-03
9.16281250000000e-01 3.85234057587075e-01 2.94783028497834e-03
9.23093750000000e-01 3.83158915831667e-01 2.94283068330339e-03
9.29906250000000e-01 3.81094952250203e-01 2.93775954966443e-03
9.36718750000000e-01 3.79042106629172e-01 2.93261844938672e-03
9.43531250000000e-01 3.77000319079415e-01 2.92740891931388e-03
9.50343750000000e-01 3.74969530034376e-01 2.92213246843682e-03
9.57156250000000e-01 3.72949680248368e-01 2.91679057850497e-03
9.63968750000000e-01 3.70940710794845e-01 2.91138470462040e-03
9.70781250000000e-01 3.68942563064676e-01 2.90591627581425e-03
9.77593750000000e-01 3.66955178764446e-01 2.90038669560753e-03
9.84406250000000e-01 3.64978499914743e-01 2.89479734255617e-03
9.91218750000000e-01 3.63012468848479e-01 2.88914957078067e-03
9.98031250000000e-01 3.61057028209197e-01 2.88344471048081e-03
1.00484375000000e+00 3.59112120949405e-01 2.87768406843718e-03
1.01165625000000e+00 3.57177690328906e-01 2.87186892849839e-03
1.01846875000000e+00 3.55253679913149e-01 2.86600055205505e-03
1.02528125000000e+00 3.53340033571578e-01 2.86008017850192e-03
1.03209375000000e+00 3.51436695475994e-01 2.85410902568702e-03
1.03890625000000e+00 3.49543610098930e-01 2.84808829034907e-03
1.04571875000000e+00 3.47660722212029e-01 2.84201914854343e-03
1.05253125000000e+00 3.45787976884432e-01 2.83590275605712e-03
1.05934375000000e+00 3.43925319481176e-01 2.82974024881333e-03
1.06615625000000e+00 3.42072695661600e-01 2.82353274326453e-03
1.07296875000000e+00 3.40230051377763e-01 2.81728133677691e-03
1.07978125000000e+00 3.38397332872860e-01 2.81098710800456e-03
1.08659375000000e+00 3.36574486679660e-01 2.80465111725404e-03
1.09340625000000e+00 3.34761459618946e-01 2.79827440684004e-03
1.10021875000000e+00 3.32958198797959e-01 2.79185800143212e-03
1.10703125000000e+00 3.31164651608858e-01 2.78540290839348e-03
1.11384375000000e+00 3.29380765727186e-01 2.77891011811086e-03
1.12065625000000e+00 3.27606489110341e-01 2.77238060431626e-03
1.12746875000000e+00 3.25841769996061e-01 2.76581532440126e-03
1.13428125000000e+00 3.24086556900910e-01 2.75921521972434e-03
1.14109375000000e+00 3.22340798618779e-01 2.75258121591010e-03
1.14790625000000e+00 3.20604444219391e-01 2.74591422314130e-03
1.15471875000000e+00 3.18877443046815e-01 2.73921513644465e-03
1.16153125000000e+00 3.17159744717988e-01 2.73248483596971e-03
1.16834375000000e+00 3.15451299121248e-01 2.72572418726127e-03
1.17515625000000e+00 3.13752056414867e-01 2.71893404152562e-03
1.18196875000000e+00 3.12061967025601e-01 2.71211523589024e-03
1.18878125000000e+00 3.10380981647242e-01 2.70526859365820e-03
1.19559375000000e+00 3.08709051239181e-01 2.69839492455642e-03
1.20240625000000e+00 3.07046127024973e-01 2.69149502497827e-03
1.20921875000000e+00 3.05392160490921e-01 2.68456967822118e-03
1.21603125000000e+00 3.03747103384656e-01 2.67761965471898e-03
1.22284375000000e+00 3.02110907713728e-01 2.67064571226828e-03
1.22965625000000e+00 3.00483525744211e-01 2.66364859625059e-03
1.23646875000000e+00 2.98864909999305e-01 2.65662903984970e-03
1.24328125000000e+00 2.97255013257957e-01 2.64958776426431e-03
1.25009375000000e+00 2.95653788553475e-01 2.64252547891527e-03
1.25690625000000e+00 2.94061189172167e-01 2.63544288164903e-03
1.26371875000000e+00 2.92477168651970e-01 2.62834065893715e-03
1.27053125000000e+00 2.90901680781103e-01 2.62121948607099e-03
1.27734375000000e+00 2.89334679596710e-01 2.61408002735249e-03
1.28415625000000e+00 2.87776119383525e-01 2.60692293628056e-03
1.29096875000000e+00 2.86225954672536e-01 2.59974885573411e-03
1.29778125000000e+00 2.84684140239661e-01 2.59255841815123e-03
1.30459375000000e+00 2.83150631104425e-01 2.58535224570453e-03
1.31140625000000e+00 2.81625382528648e-01 2.57813095047281e-03
1.31821875000000e+00 2.80108350015146e-01 2.57089513460925e-03
1.32503125000000e+00 2.78599489306423e-01 2.56364539050627e-03
1.33184375000000e+00 2.77098756383387e-01 2.55638230095714e-03
1.33865625000000e+00 2.75606107464066e-01 2.54910643931418e-03
1.34546875000000e+00 2.74121499002326e-01 2.54181836964401e-03
1.35228125000000e+00 2.72644887686602e-01 2.53451864687941e-03
1.35909375000000e+00 2.71176230438640e-01 2.52720781696859e-03
1.36590625000000e+00 2.69715484412231e-01 2.51988641702094e-03
1.37271875000000e+00 2.68262606991969e-01 2.51255497545037e-03
1.37953125000000e+00 2.66817555792004e-01 2.50521401211597e-03
1.38634375000000e+00 2.65380288654804e-01 2.49786403845973e-03
1.39315625000000e+00 2.63950763649929e-01 2.49050555764127e-03
1.39996875000000e+00 2.62528939072806e-01 2.48313906467050e-03
1.40678125000000e+00 2.61114773443512e-01 2.47576504653790e-03
1.41359375000000e+00 2.59708225505563e-01 2.46838398234151e-03
1.42040625000000e+00 2.58309254224713e-01 2.46099634341211e-03
1.42721875000000e+00 2.56917818787753e-01 2.45360259343610e-03
1.43403125000000e+00 2.55533878601326e-01 2.44620318857597e-03
1.44084375000000e+00 2.54157393290737e-01 2.43879857758829e-03
1.44765625000000e+00 2.52788322698779e-01 2.43138920193986e-03
1.45446875000000e+00 2.51426626884557e-01 2.42397549592155e-03
1.46128125000000e+00 2.50072266122329e-01 2.41655788675971e-03
1.46809375000000e+00 2.48725200900343e-01 2.40913679472627e-03
1.47490625000000e+00 2.47385391919684e-01 2.40171263324623e-03
1.48171875000000e+00 2.46052800093130e-01 2.39428580900353e-03
1.48853125000000e+00 2.44727386544010e-01 2.38685672204498e-03
1.49534375000000e+00 2.43409112605069e-01 2.37942576588202e-03
1.50215625000000e+00 2.42097939817342e-01 2.37199332759086e-03
1.50896875000000e+00 2.40793829929032e-01 2.36455978791101e-03
1.51578125000000e+00 2.39496744894390e-01 2.35712552134203e-03
1.52259375000000e+00 2.38206646872612e-01 2.34969089623808e-03
1.52940625000000e+00 2.36923498226728e-01 2.34225627490130e-03
1.53621875000000e+00 2.35647261522509e-01 2.33482201367349e-03
1.54303125000000e+00 2.34377899527373e-01 2.32738846302612e-03
1.54984375000000e+00 2.33115375209299e-01 2.31995596764876e-03
1.55665625000000e+00 2.31859651735745e-01 2.31252486653596e-03
1.56346875000000e+00 2.30610692472577e-01 2.30509549307251e-03
1.57028125000000e+00 2.29368460982997e-01 2.29766817511781e-03
1.57709375000000e+00 2.28132921026481e-01 2.29024323508799e-03
1.58390625000000e+00 2.26904036557723e-01 2.28282099003705e-03
1.59071875000000e+00 2.25681771725582e-01 2.27540175173701e-03
1.59753125000000e+00 2.24466090872037e-01 2.26798582675574e-03
1.60434375000000e+00 2.23256958531144e-01 2.26057351653425e-03
1.61115625000000e+00 2.22054339428006e-01 2.25316511746255e-03
1.61796875000000e+00 2.20858198477741e-01 2.24576092095423e-03
1.62478125000000e+00 2.19668500784458e-01 2.23836121351949e-03
1.63159375000000e+00 2.18485211640240e-01 2.23096627683742e-03
1.63840625000000e+00 2.17308296524132e-01 2.22357638782646e-03
1.64521875000000e+00 2.16137721101133e-01 2.21619181871441e-03
1.65203125000000e+00 2.14973451221193e-01 2.20881283710718e-03
1.65884375000000e+00 2.13815452918219e-01 2.20143970605569e-03
1.66565625000000e+00 2.12663692409086e-01 2.19407268412265e-03
1.67246875000000e+00 2.11518136092644e-01 2.18671202544777e-03
1.67928125000000e+00 2.10378750548746e-01 2.17935797981150e-03
1.68609375000000e+00 2.09245502537268e-01 2.17201079269863e-03
1.69290625000000e+00 2.08118358997140e-01 2.16467070536055e-03
1.69971875000000e+00 2.06997287045384e-01 2.15733795487617e-03
1.70653125000000e+00 2.05882253976152e-01 2.15001277421201e-03
1.71334375000000e+00 2.04773227259772e-01 2.14269539228163e-03
1.72015625000000e+00 2.03670174541801e-01 2.13538603400388e-03
1.72696875000000e+00 2.02573063642079e-01 2.12808492036008e-03
1.73378125000000e+00 2.01481862553791e-01 2.12079226845076e-03
1.74059375000000e+00 2.00396539442534e-01 2.11350829155108e-03
1.74740625000000e+00 1.99317062645386e-01 2.10623319916556e-03
1.75421875000000e+00 1.98243400669984e-01 2.09896719708192e-03
1.76103125000000e+00 1.97175522193608e-01 2.09171048742412e-03
1.76784375000000e+00 1.96113396062260e-01 2.08446326870448e-03
1.77465625000000e+00 1.95056991289762e-01 2.07722573587522e-03
1.78146875000000e+00 1.94006277056849e-01 2.06999808037903e-03
1.78828125000000e+00 1.92961222710269e-01 2.06278049019882e-03
1.79509375000000e+00 1.91921797761892e-01 2.05557314990665e-03
1.80190625000000e+00 1.90887971887816e-01 2.04837624071237e-03
1.80871875000000e+00 1.89859714927487e-01 2.04118994051103e-03
1.81553125000000e+00 1.88836996882817e-01 2.03401442392968e-03
1.82234375000000e+00 1.87819787917307e-01 2.02684986237360e-03
1.82915625000000e+00 1.86808058355180e-01 2.01969642407165e-03
1.83596875000000e+00 1.85801778680512e-01 2.01255427412105e-03
1.84278125000000e+00 1.84800919536376e-01 2.00542357453165e-03
1.84959375000000e+00 1.83805451723977e-01 1.99830448426928e-03
1.85640625000000e+00 1.82815346201809e-01 1.99119715929828e-03
1.86321875000000e+00 1.81830574084803e-01 1.98410175262403e-03
1.87003125000000e+00 1.80851106643485e-01 1.97701841433439e-03
1.87684375000000e+00 1.79876915303140e-01 1.96994729164040e-03
1.88365625000000e+00 1.78907971642972e-01 1.96288852891688e-03
1.89046875000000e+00 1.77944247395285e-01 1.95584226774192e-03
1.89728125000000e+00 1.76985714444648e-01 1.94880864693594e-03
1.90409375000000e+00 1.76032344827083e-01 1.94178780260065e-03
1.91090625000000e+00 1.75084110729243e-01 1.93477986815671e-03
1.91771875000000e+00 1.74140984487606e-01 1.92778497438131e-03
1.92453125000000e+00 1.73202938587662e-01 1.92080324944501e-03
1.93134375000000e+00 1.72269945663117e-01 1.91383481894813e-03
1.93815625000000e+00 1.71341978495088e-01 1.90687980595660e-03
1.94496875000000e+00 1.70419010011314e-01 1.89993833103719e-03
1.95178125000000e+00 1.69501013285362e-01 1.89301051229256e-03
1.95859375000000e+00 1.68587961535848e-01 1.88609646539523e-03
1.96540625000000e+00 1.67679828125646e-01 1.87919630362161e-03
1.97221875000000e+00 1.66776586561122e-01 1.87231013788563e-03
1.97903125000000e+00 1.65878210491349e-01 1.86543807677107e-03
1.98584375000000e+00 1.64984673707351e-01 1.85858022656415e-03
1.99265625000000e+00 1.64095950141327e-01 1.85173669128568e-03
1.99946875000000e+00 1.63212013865899e-01 1.84490757272215e-03
2.00628125000000e+00 1.62332839093349e-01 1.83809297045735e-03
2.01309375000000e+00 1.61458400174873e-01 1.83129298190256e-03
2.01990625000000e+00 1.60588671599827e-01 1.82450770232648e-03
2.02671875000000e+00 1.59723627994987e-01 1.81773722488560e-03
2.03353125000000e+00 1.58863244123806e-01 1.81098164065333e-03
2.04034375000000e+00 1.58007494885678e-01 1.80424103864869e-03
2.04715625000000e+00 1.57156355315209e-01 1.79751550586492e-03
2.05396875000000e+00 1.56309800581484e-01 1.79080512729790e-03
2.06078125000000e+00 1.55467805987346e-01 1.78410998597355e-03
2.06759375000000e+00 1.54630346968674e-01 1.77743016297516e-03
2.07440625000000e+00 1.53797399093665e-01 1.77076573747050e-03
2.08121875000000e+00 1.52968938062127e-01 1.76411678673861e-03
2.08803125000000e+00 1.52144939704761e-01 1.75748338619582e-03
2.09484375000000e+00 1.51325379982463e-01 1.75086560942169e-03
2.10165625000000e+00 1.50510234985623e-01 1.74426352818435e-03
2.10846875000000e+00 1.49699480933421e-01 1.73767721246590e-03
2.11528125000000e+00 1.48893094173139e-01 1.73110673048705e-03
2.12209375000000e+00 1.48091051179469e-01 1.72455214873169e-03
2.12890625000000e+00 1.47293328553827e-01 1.71801353197131e-03
2.13571875000000e+00 1.46499903023671e-01 1.71149094328843e-03
2.14253125000000e+00 1.45710751441820e-01 1.70498444410016e-03
2.14934375000000e+00 1.44925850785780e-01 1.69849409418160e-03
