Energy (eV)          EEDF (eV^-(3/2))     First Anisotropy
1.47058823529412e-03 6.15302528240741e-01 3.83055342387200e-08
4.41176470588235e-03 6.15302497933028e-01 1.18699111313006e-07
7.35294117647059e-03 6.15302419660622e-01 2.95813065147151e-07
1.02941176470588e-02 6.15302288105002e-01 5.24712922745994e-07
1.32352941176471e-02 6.15302104778305e-01 7.90678063198292e-07
1.61764705882353e-02 6.15301869211121e-01 1.07755510612742e-06
1.91176470588235e-02 6.15301587855783e-01 1.36678022963354e-06
2.20588235294118e-02 6.15301265461660e-01 1.65866719876815e-06
2.50000000000000e-02 6.15300905060114e-01 1.95949342558576e-06
2.79411764705882e-02 6.15300506975800e-01 2.27323713050078e-06
3.08823529411765e-02 6.15300071844293e-01 2.59070856582515e-06
3.38235294117647e-02 6.15299602799560e-01 2.91156172980404e-06
3.67647058823529e-02 6.15299099886740e-01 3.24589136782214e-06
3.97058823529412e-02 6.15298562417318e-01 3.59725206403689e-06
4.26470588235294e-02 6.15297989250923e-01 3.96930066345478e-06
4.55882352941176e-02 6.15297378650691e-01 4.36259755308517e-06
4.85294117647059e-02 6.15296729466618e-01 4.77510566852963e-06
5.14705882352941e-02 6.15296040679305e-01 5.19036107121581e-06
5.44117647058824e-02 6.15295315774015e-01 5.60749811750279e-06
5.73529411764706e-02 6.15294553683297e-01 6.04247639528462e-06
6.02941176470588e-02 6.15293753420322e-01 6.49520152107713e-06
6.32352941176471e-02 6.15292914009332e-01 6.96623571868739e-06
6.61764705882353e-02 6.15292034381692e-01 7.45630568712532e-06
6.91176470588235e-02 6.15291113443636e-01 7.96097012533166e-06
7.20588235294118e-02 6.15290151266099e-01 8.46051225034570e-06
7.50000000000000e-02 6.15289151444666e-01 8.95802139292203e-06
7.79411764705882e-02 6.15288113079052e-01 9.47210935267329e-06
8.08823529411765e-02 6.15287035301107e-01 1.00028486327715e-05
8.38235294117647e-02 6.15285917240365e-01 1.05506294498546e-05
8.67647058823529e-02 6.15284757986000e-01 1.11157048284468e-05
8.97058823529412e-02 6.15283556654646e-01 1.16979589520966e-05
9.26470588235294e-02 6.15282312399517e-01 1.22973732256241e-05
9.55882352941176e-02 6.15281024376311e-01 1.29141185805297e-05
9.85294117647059e-02 6.15279691734896e-01 1.35483251008847e-05
1.01470588235294e-01 6.15278313634737e-01 1.41686761864108e-05
1.04411764705882e-01 6.15276895651995e-01 1.47716370743419e-05
1.07352941176471e-01 6.15275437444088e-01 1.53857736413336e-05
1.10294117647059e-01 6.15273938662167e-01 1.60111425873287e-05
1.13235294117647e-01 6.15272398951621e-01 1.66477992915381e-05
1.16176470588235e-01 6.15270817952518e-01 1.72957980341932e-05
1.19117647058824e-01 6.15269195299983e-01 1.79551921802501e-05
1.22058823529412e-01 6.15267530624529e-01 1.86260343381031e-05
1.25000000000000e-01 6.15265823552342e-01 1.93083764998506e-05
1.27941176470588e-01 6.15264073705529e-01 2.00022701500070e-05
1.30882352941176e-01 6.15262280702334e-01 2.07077663716027e-05
1.33823529411765e-01 6.15260444157329e-01 2.14249159387510e-05
1.36764705882353e-01 6.15258563681579e-01 2.21537693891814e-05
1.39705882352941e-01 6.15256638882785e-01 2.28943770887603e-05
1.42647058823529e-01 6.15254669365411e-01 2.36467892825305e-05
1.45588235294118e-01 6.15252654730797e-01 2.44110561481594e-05
1.48529411764706e-01 6.15250594577258e-01 2.51872278404500e-05
1.51470588235294e-01 6.15248488500163e-01 2.59753545238287e-05
1.54411764705882e-01 6.15246336092017e-01 2.67754864075797e-05
1.57352941176471e-01 6.15244136942523e-01 2.75876737647699e-05
1.60294117647059e-01 6.15241890638644e-01 2.84119669528854e-05
1.63235294117647e-01 6.15239596764650e-01 2.92484164465399e-05
1.66176470588235e-01 6.15237254902163e-01 3.00970728404305e-05
1.69117647058824e-01 6.15234864630199e-01 3.09579868427064e-05
1.72058823529412e-01 6.15232425525206e-01 3.18312076748189e-05
1.75000000000000e-01 6.15229937161340e-01 3.27167784102099e-05
1.77941176470588e-01 6.15227399111211e-01 3.36147301286891e-05
1.80882352941176e-01 6.15224810947020e-01 3.45250582416099e-05
1.83823529411765e-01 6.15222172244825e-01 3.54476812794765e-05
1.86764705882353e-01 6.15219482591714e-01 3.63823907979519e-05
1.89705882352941e-01 6.15216741597153e-01 3.73288385232378e-05
1.92647058823529e-01 6.15213948901416e-01 3.82866013017556e-05
1.95588235294118e-01 6.15211104176636e-01 3.92552923013416e-05
1.98529411764706e-01 6.15208207118601e-01 4.02346742397977e-05
2.01470588235294e-01 6.15205257431645e-01 4.11609054770534e-05
2.04411764705882e-01 6.15202264632879e-01 4.20312544240274e-05
2.07352941176471e-01 6.15199228680527e-01 4.29073694981510e-05
2.10294117647059e-01 6.15196149532424e-01 4.37892078900733e-05
2.13235294117647e-01 6.15193027145972e-01 4.46767284595054e-05
2.16176470588235e-01 6.15189861478089e-01 4.55698916817352e-05
2.19117647058824e-01 6.15186652485176e-01 4.64686595744181e-05
2.22058823529412e-01 6.15183400123070e-01 4.73729956311376e-05
2.25000000000000e-01 6.15180104347017e-01 4.82828647693435e-05
2.27941176470588e-01 6.15176765111640e-01 4.91982332762236e-05
2.30882352941176e-01 6.15173382370905e-01 5.01190687597845e-05
2.33823529411765e-01 6.15169956078099e-01 5.10453401078172e-05
2.36764705882353e-01 6.15166486185805e-01 5.19770174327423e-05
2.39705882352941e-01 6.15162972645876e-01 5.29140720391615e-05
2.42647058823529e-01 6.15159415409416e-01 5.38564763790686e-05
2.45588235294118e-01 6.15155814426763e-01 5.48042040110217e-05
2.48529411764706e-01 6.15152169647464e-01 5.57572295752348e-05
2.51470588235294e-01 6.15148481020267e-01 5.67155287418812e-05
2.54411764705882e-01 6.15144748493099e-01 5.76790781878954e-05
2.57352941176471e-01 6.15140972013056e-01 5.86478555630109e-05
2.60294117647059e-01 6.15137151526387e-01 5.96218394480631e-05
2.63235294117647e-01 6.15133286978487e-01 6.06010093476892e-05
2.66176470588235e-01 6.15129378313881e-01 6.15853456455326e-05
2.69117647058824e-01 6.15125425476215e-01 6.25748295623961e-05
2.72058823529412e-01 6.15121428408252e-01 6.35694426219538e-05
2.75000000000000e-01 6.15117387051924e-01 6.45691651194109e-05
2.77941176470588e-01 6.15113301348521e-01 6.55739741877167e-05
2.80882352941176e-01 6.15109171238982e-01 6.65838360930122e-05
2.83823529411765e-01 6.15104996665034e-01 6.75986927518727e-05
2.86764705882353e-01 6.15100777571140e-01 6.86184449806004e-05
2.89705882352941e-01 6.15096513907642e-01 6.96429486074820e-05
2.92647058823529e-01 6.15092205633061e-01 7.06720370184574e-05
2.95588235294118e-01 6.15087852714320e-01 7.17055581274514e-05
2.98529411764706e-01 6.15083455124443e-01 7.27434116572756e-05
3.01470588235294e-01 6.15079012838305e-01 7.37731454828565e-05
3.04411764705882e-01 6.15074527868138e-01 7.48640588530623e-05
3.07352941176471e-01 6.15069991838010e-01 7.60950765222248e-05
3.10294117647059e-01 6.15065396842897e-01 7.74601543431308e-05
3.13235294117647e-01 6.15060735426492e-01 7.89534633352830e-05
3.16176470588235e-01 6.15056000560138e-01 8.05693810115936e-05
3.19117647058824e-01 6.15051185622836e-01 8.23024831423781e-05
3.22058823529412e-01 6.15046284382266e-01 8.41475359300110e-05
3.25000000000000e-01 6.15041290976743e-01 8.60994885031167e-05
3.27941176470588e-01 6.15036199898084e-01 8.81534657810932e-05
3.30882352941176e-01 6.15031005975314e-01 9.03047616509747e-05
3.33823529411765e-01 6.15025704359178e-01 9.25488324386522e-05
3.36764705882353e-01 6.15020290507404e-01 9.48812906750186e-05
3.39705882352941e-01 6.15014760170686e-01 9.72978991228483e-05
3.42647058823529e-01 6.15009109379344e-01 9.97945650778341e-05
3.45588235294118e-01 6.15003334430626e-01 1.02367334894652e-04
3.48529411764706e-01 6.14997431876618e-01 1.05012388751385e-04
3.51470588235294e-01 6.14991398512726e-01 1.07726035629363e-04
3.54411764705882e-01 6.14985231366708e-01 1.10504708505124e-04
3.57352941176471e-01 6.14978927688225e-01 1.13344959762772e-04
3.60294117647059e-01 6.14972484938875e-01 1.16243456758797e-04
3.63235294117647e-01 6.14965900782705e-01 1.19196977578834e-04
3.66176470588235e-01 6.14959173077150e-01 1.22202406976135e-04
3.69117647058824e-01 6.14952299864407e-01 1.25256732466896e-04
3.72058823529412e-01 6.14945279363200e-01 1.28357040320583e-04
3.75000000000000e-01 6.14938109960953e-01 1.31500511221803e-04
3.77941176470588e-01 6.14930790206378e-01 1.34684415806528e-04
3.80882352941176e-01 6.14923318802464e-01 1.37906107383298e-04
3.83823529411765e-01 6.14915694600171e-01 1.41163012019787e-04
3.86764705882353e-01 6.14907916592782e-01 1.44452617930320e-04
3.89705882352941e-01 6.14899983911002e-01 1.47772470742009e-04
3.92647058823529e-01 6.14891895818041e-01 1.51120181800018e-04
3.95588235294118e-01 6.14883651703984e-01 1.54493445151948e-04
3.98529411764706e-01 6.14875251079214e-01 1.57890053370295e-04
4.01470588235294e-01 6.14866693567331e-01 1.61244710014860e-04
4.04411764705882e-01 6.14857986948441e-01 1.64634538068746e-04
4.07352941176471e-01 6.14849122625020e-01 1.68197175366397e-04
4.10294117647059e-01 6.14840092485422e-01 1.71925036525020e-04
4.13235294117647e-01 6.14830888882647e-01 1.75810804847266e-04
4.16176470588235e-01 6.14821504613998e-01 1.79847423347328e-04
4.19117647058824e-01 6.14811932901601e-01 1.84028086139482e-04
4.22058823529412e-01 6.14802167373731e-01 1.88346230146034e-04
4.25000000000000e-01 6.14792202046914e-01 1.92795527112390e-04
4.27941176470588e-01 6.14782031308780e-01 1.97369875915637e-04
4.30882352941176e-01 6.14771649901612e-01 2.02063395163430e-04
4.33823529411765e-01 6.14761052906579e-01 2.06870416055419e-04
4.36764705882353e-01 6.14750235728617e-01 2.11785475490807e-04
4.39705882352941e-01 6.14739194081924e-01 2.16803309416297e-04
4.42647058823529e-01 6.14727923976051e-01 2.21918846425135e-04
4.45588235294118e-01 6.14716421702557e-01 2.27127201574046e-04
4.48529411764706e-01 6.14704683822206e-01 2.32423670399780e-04
4.51470588235294e-01 6.14692707152685e-01 2.37803723175912e-04
4.54411764705882e-01 6.14680488756812e-01 2.43262999338206e-04
4.57352941176471e-01 6.14668025931229e-01 2.48797302123156e-04
4.60294117647059e-01 6.14655316195536e-01 2.54402593389956e-04
4.63235294117647e-01 6.14642357281875e-01 2.60074988607175e-04
4.66176470588235e-01 6.14629147124920e-01 2.65810752015462e-04
4.69117647058824e-01 6.14615683852272e-01 2.71606291952649e-04
4.72058823529412e-01 6.14601965775240e-01 2.77458156216242e-04
4.75000000000000e-01 6.14587991379991e-01 2.83363027235470e-04
4.77941176470588e-01 6.14573759319102e-01 2.89317717227721e-04
4.80882352941176e-01 6.14559268403462e-01 2.95319161871842e-04
4.83823529411765e-01 6.14544517594711e-01 3.01364412295309e-04
4.86764705882353e-01 6.14529505998186e-01 3.07450626559059e-04
4.89705882352941e-01 6.14514232856420e-01 3.13575065555005e-04
4.92647058823529e-01 6.14498697542687e-01 3.19735097612410e-04
4.95588235294118e-01 6.14482899554211e-01 3.25928206785652e-04
4.98529411764706e-01 6.14466838505062e-01 3.32151999125112e-04
5.01470588235294e-01 6.14450514118947e-01 3.38334033535965e-04
5.04411764705882e-01 6.14433934042393e-01 3.44484549596982e-04
5.07352941176471e-01 6.14417096999044e-01 3.50683124688902e-04
5.10294117647059e-01 6.14400001905148e-01 3.56925918598001e-04
5.13235294117647e-01 6.14382647861200e-01 3.63209222362088e-04
5.16176470588235e-01 6.14365034143881e-01 3.69529454613325e-04
5.19117647058824e-01 6.14347160198292e-01 3.75883158034523e-04
5.22058823529412e-01 6.14329025630462e-01 3.82266995903382e-04
5.25000000000000e-01 6.14310630200130e-01 3.88677748769407e-04
5.27941176470588e-01 6.14291973813773e-01 3.95112311224923e-04
5.30882352941176e-01 6.14273056517897e-01 4.01567688762186e-04
5.33823529411765e-01 6.14253878492556e-01 4.08040994724730e-04
5.36764705882353e-01 6.14234440045107e-01 4.14529447350463e-04
5.39705882352941e-01 6.14214741604182e-01 4.21030366900288e-04
5.42647058823529e-01 6.14194783713882e-01 4.27541172845668e-04
5.45588235294118e-01 6.14174567028171e-01 4.34059381164876e-04
5.48529411764706e-01 6.14154092305473e-01 4.40582601703511e-04
5.51470588235294e-01 6.14133360403454e-01 4.47108535605056e-04
5.54411764705882e-01 6.14112372274004e-01 4.53634972819629e-04
5.57352941176471e-01 6.14091128958378e-01 4.60159789676368e-04
5.60294117647059e-01 6.14069631582525e-01 4.66680946526123e-04
5.63235294117647e-01 6.14047881352581e-01 4.73196485443093e-04
5.66176470588235e-01 6.14025879550510e-01 4.79704528011047e-04
5.69117647058824e-01 6.14003627529919e-01 4.86203273138866e-04
5.72058823529412e-01 6.13981126712005e-01 4.92690994841431e-04
5.75000000000000e-01 6.13958378581672e-01 4.99166039902869e-04
5.77941176470588e-01 6.13935384683789e-01 5.05626825358212e-04
5.80882352941177e-01 6.13912146619631e-01 5.12071834989224e-04
5.83823529411765e-01 6.13888666043550e-01 5.18499614590335e-04
5.86764705882353e-01 6.13864944659933e-01 5.24908767904151e-04
5.89705882352941e-01 6.13840984220317e-01 5.31297954575162e-04
5.92647058823529e-01 6.13816786520596e-01 5.37665892953073e-04
5.95588235294118e-01 6.13792353397921e-01 5.44011367491754e-04
5.98529411764706e-01 6.13767686727241e-01 5.50333232902450e-04
6.01470588235294e-01 6.13742788417923e-01 5.56850294744346e-04
6.04411764705882e-01 6.13717640649461e-01 5.63989446835557e-04
6.07352941176471e-01 6.13692207138640e-01 5.71941243066840e-04
6.10294117647059e-01 6.13666453342243e-01 5.80672283525976e-04
6.13235294117647e-01 6.13640346393352e-01 5.90150225163385e-04
6.16176470588235e-01 6.13613855039912e-01 6.00343749032880e-04
6.19117647058824e-01 6.13586949585488e-01 6.11222528610425e-04
6.22058823529412e-01 6.13559601832114e-01 6.22757199158514e-04
6.25000000000000e-01 6.13531785025175e-01 6.34919328068220e-04
6.27941176470588e-01 6.13503473800237e-01 6.47681386141549e-04
6.30882352941176e-01 6.13474644131752e-01 6.61016719763715e-04
6.33823529411765e-01 6.13445273283592e-01 6.74899523898072e-04
6.36764705882353e-01 6.13415339761313e-01 6.89304815961031e-04
6.39705882352941e-01 6.13384823266120e-01 7.04208410458037e-04
6.42647058823529e-01 6.13353704650457e-01 7.19586894378425e-04
6.45588235294118e-01 6.13321965875159e-01 7.35417603378018e-04
6.48529411764706e-01 6.13289589968128e-01 7.51678598670848e-04
6.51470588235294e-01 6.13256560984463e-01 7.68348644608234e-04
6.54411764705882e-01 6.13222863968007e-01 7.85407186939100e-04
6.57352941176471e-01 6.13188484914243e-01 8.02834331735688e-04
6.60294117647059e-01 6.13153410734516e-01 8.20610824965373e-04
6.63235294117647e-01 6.13117629221509e-01 8.38718032672963e-04
6.66176470588235e-01 6.13081129015950e-01 8.57137921730270e-04
6.69117647058823e-01 6.13043899574492e-01 8.75853041187123e-04
6.72058823529412e-01 6.13005931138738e-01 8.94846504106951e-04
6.75000000000000e-01 6.12967214705367e-01 9.14101969795370e-04
6.77941176470588e-01 6.12927741997337e-01 9.33603626350572e-04
6.80882352941176e-01 6.12887505436138e-01 9.53336173062124e-04
6.83823529411765e-01 6.12846498115098e-01 9.73284802255643e-04
6.86764705882353e-01 6.12804713773775e-01 9.93435181325031e-04
6.89705882352941e-01 6.12762146773354e-01 1.01377343827282e-03
6.92647058823529e-01 6.12718792072763e-01 1.03428615372981e-03
6.95588235294118e-01 6.12674645205192e-01 1.05496034980081e-03
6.98529411764706e-01 6.12629702255660e-01 1.07578347939303e-03
7.01470588235294e-01 6.12583959838900e-01 1.09704816351607e-03
7.04411764705882e-01 6.12537390384362e-01 1.11947355463383e-03
7.07352941176471e-01 6.12489930307405e-01 1.14344861081581e-03
7.10294117647059e-01 6.12441518968344e-01 1.16891172184449e-03
7.13235294117647e-01 6.12392098581348e-01 1.19580289420354e-03
7.16176470588235e-01 6.12341614125992e-01 1.22406371079278e-03
7.19117647058824e-01 6.12290013261408e-01 1.25363729170708e-03
7.22058823529412e-01 6.12237246242930e-01 1.28446825606921e-03
7.25000000000000e-01 6.12183265841175e-01 1.31650268480814e-03
7.27941176470588e-01 6.12128027263479e-01 1.34968808432936e-03
7.30882352941176e-01 6.12071488077628e-01 1.38397335103320e-03
7.33823529411765e-01 6.12013608137812e-01 1.41930873667596e-03
7.36764705882353e-01 6.11954349512746e-01 1.45564581451150e-03
7.39705882352941e-01 6.11893676415885e-01 1.49293744623547e-03
7.42647058823529e-01 6.11831555137691e-01 1.53113774966919e-03
7.45588235294118e-01 6.11767953979882e-01 1.57020206717526e-03
7.48529411764706e-01 6.11702843191609e-01 1.61008693482634e-03
7.51470588235294e-01 6.11636194907508e-01 1.65075005224754e-03
7.54411764705882e-01 6.11567983087586e-01 1.69215025317658e-03
7.57352941176471e-01 6.11498183458862e-01 1.73424747666579e-03
7.60294117647059e-01 6.11426773458747e-01 1.77700273896205e-03
7.63235294117647e-01 6.11353732180086e-01 1.82037810601429e-03
7.66176470588235e-01 6.11279040317844e-01 1.86433666661625e-03
7.69117647058824e-01 6.11202680117355e-01 1.90884250612842e-03
7.72058823529412e-01 6.11124635324132e-01 1.95386068073641e-03
7.75000000000000e-01 6.11044891135164e-01 1.99935719217635e-03
7.77941176470588e-01 6.10963434151689e-01 2.04529896266231e-03
7.80882352941176e-01 6.10880252333419e-01 2.09165380958026e-03
7.83823529411765e-01 6.10795334954214e-01 2.13839041956552e-03
7.86764705882353e-01 6.10708672559246e-01 2.18547832457551e-03
7.89705882352941e-01 6.10620256923387e-01 2.23288787919050e-03
7.92647058823529e-01 6.10530081010959e-01 2.28059024469600e-03
7.95588235294118e-01 6.10438138936080e-01 2.32855737823519e-03
7.98529411764706e-01 6.10344425923889e-01 2.37676201603176e-03
8.01470588235294e-01 6.10248938272935e-01 2.42499098196983e-03
8.04411764705882e-01 6.10151688156181e-01 2.47285521709258e-03
8.07352941176471e-01 6.10052702671136e-01 2.52016675295971e-03
8.10294117647059e-01 6.09952008665184e-01 2.56692830883260e-03
8.13235294117647e-01 6.09849632735992e-01 2.61314265198942e-03
8.16176470588235e-01 6.09745601231820e-01 2.65881259955814e-03
8.19117647058824e-01 6.09639940251738e-01 2.70394102009851e-03
8.22058823529412e-01 6.09532675645783e-01 2.74853083498898e-03
8.25000000000000e-01 6.09423833015036e-01 2.79258501965427e-03
8.27941176470588e-01 6.09313437711642e-01 2.83610660461012e-03
8.30882352941176e-01 6.09201514838781e-01 2.87909867637263e-03
8.33823529411765e-01 6.09088089250584e-01 2.92156437825440e-03
8.36764705882353e-01 6.08973185552013e-01 2.96350691107035e-03
8.39705882352941e-01 6.08856828098699e-01 3.00492953369186e-03
8.42647058823529e-01 6.08739040996748e-01 3.04583556351893e-03
8.45588235294118e-01 6.08619848102518e-01 3.08622837687775e-03
8.48529411764706e-01 6.08499273022371e-01 3.12611140927960e-03
8.51470588235294e-01 6.08377339112402e-01 3.16548815563427e-03
8.54411764705882e-01 6.08254069478158e-01 3.20436217039123e-03
8.57352941176471e-01 6.08129486974329e-01 3.24273706756760e-03
8.60294117647059e-01 6.08003614204438e-01 3.28061652072621e-03
8.63235294117647e-01 6.07876473520525e-01 3.31800426291486e-03
8.66176470588235e-01 6.07748087022809e-01 3.35490408652840e-03
8.69117647058824e-01 6.07618476559366e-01 3.39131984308895e-03
8.72058823529412e-01 6.07487663725789e-01 3.42725544291769e-03
8.75000000000000e-01 6.07355669864869e-01 3.46271485468210e-03
8.77941176470588e-01 6.07222516066276e-01 3.49770210452989e-03
8.80882352941176e-01 6.07088223166286e-01 3.53222127469411e-03
8.83823529411765e-01 6.06952811747563e-01 3.56627650078314e-03
8.86764705882353e-01 6.06816302139094e-01 3.59987197209194e-03
8.89705882352941e-01 6.06678714415905e-01 3.63301193251386e-03
8.92647058823529e-01 6.06540068398885e-01 3.66570068087988e-03
8.95588235294118e-01 6.06400383654460e-01 3.69794258338694e-03
8.98529411764706e-01 6.06259679493298e-01 3.72974206602749e-03
9.01470588235294e-01 6.06117974970657e-01 3.76126723218742e-03
9.04411764705882e-01 6.05975276514271e-01 3.79284524518652e-03
9.07352941176471e-01 6.05831578356652e-01 3.82463271070771e-03
9.10294117647059e-01 6.05686875099631e-01 3.85662035108615e-03
9.13235294117647e-01 6.05541161706877e-01 3.88879903251601e-03
9.16176470588235e-01 6.05394433496469e-01 3.92115976518341e-03
9.19117647058823e-01 6.05246686133533e-01 3.95369370336999e-03
9.22058823529412e-01 6.05097915622923e-01 3.98639214552114e-03
9.25000000000000e-01 6.04948118301974e-01 4.01924653429839e-03
9.27941176470588e-01 6.04797290833296e-01 4.05224845656272e-03
