Energy (eV)          EEDF (eV^-(3/2))     First Anisotropy
3.42857142857143e-02 8.53939004380365e-02 6.02833855689571e-05
1.02857142857143e-01 8.43483234122672e-02 9.92693050824897e-05
1.71428571428571e-01 8.33155486058365e-02 1.30318384097954e-04
2.40000000000000e-01 8.22954192620908e-02 1.53468042039185e-04
3.08571428571429e-01 8.12877805533343e-02 1.72415599926883e-04
3.77142857142857e-01 8.02924795380404e-02 1.88570355347154e-04
4.45714285714286e-01 7.93093651541995e-02 2.02667260996804e-04
5.14285714285714e-01 7.83382881843947e-02 2.15153470615469e-04
5.82857142857143e-01 7.73791012406227e-02 2.26327732997267e-04
6.51428571428571e-01 7.64316587412788e-02 2.36402732116227e-04
7.20000000000000e-01 7.54958168838080e-02 2.45537033686825e-04
7.88571428571429e-01 7.45714336293940e-02 2.53853088287595e-04
8.57142857142857e-01 7.36583686757745e-02 2.61448117381104e-04
9.25714285714286e-01 7.27564834408694e-02 2.68401064879374e-04
9.94285714285714e-01 7.18656410373770e-02 2.74777234548730e-04
1.06285714285714e+00 7.09857062541778e-02 2.80631495590728e-04
1.13142857142857e+00 7.01165455367630e-02 2.86010566577076e-04
1.20000000000000e+00 6.92580269658506e-02 2.90954683504638e-04
1.26857142857143e+00 6.84100202442221e-02 2.95498847508454e-04
1.33714285714286e+00 6.75723966559457e-02 2.99673772004940e-04
1.40571428571429e+00 6.67450290683430e-02 3.03506615415373e-04
1.47428571428571e+00 6.59277919053521e-02 3.07021559473858e-04
1.54285714285714e+00 6.51205611284191e-02 3.10240267392685e-04
1.61142857142857e+00 6.43232142177889e-02 3.13182253370843e-04
1.68000000000000e+00 6.35356301538463e-02 3.15865182954202e-04
1.74857142857143e+00 6.27576894032637e-02 3.18305121668671e-04
1.81714285714286e+00 6.19892738870725e-02 3.20516739164994e-04
1.88571428571429e+00 6.12302669767925e-02 3.22513479747488e-04
1.95428571428571e+00 6.04805534719553e-02 3.24307708247651e-04
2.02285714285714e+00 5.97400195825927e-02 3.25910832064220e-04
2.09142857142857e+00 5.90085529120259e-02 3.27333405764577e-04
2.16000000000000e+00 5.82860424397746e-02 3.28585220554752e-04
2.22857142857143e+00 5.75723785079372e-02 3.29675382959319e-04
2.29714285714286e+00 5.68674527947006e-02 3.30612381407582e-04
2.36571428571429e+00 5.61711583079111e-02 3.31404144204700e-04
2.43428571428571e+00 5.54833893654410e-02 3.32058092144624e-04
2.50285714285714e+00 5.48040415791329e-02 3.32581183398405e-04
2.57142857142857e+00 5.41330118389910e-02 3.32979953518364e-04
2.64000000000000e+00 5.34701982975124e-02 3.33260550614326e-04
2.70857142857143e+00 5.28155003566589e-02 3.33428767846547e-04
2.77714285714286e+00 5.21688186451930e-02 3.33490071000501e-04
2.84571428571429e+00 5.15300550111030e-02 3.33449623115014e-04
2.91428571428571e+00 5.08991125041649e-02 3.33312308136459e-04
2.98285714285714e+00 5.02758953612169e-02 3.33082751049073e-04
3.05142857142857e+00 4.96603089916475e-02 3.32765336359782e-04
3.12000000000000e+00 4.90522599630265e-02 3.32364224592449e-04
3.18857142857143e+00 4.84516559888128e-02 3.31883368276483e-04
3.25714285714286e+00 4.78584059086041e-02 3.31326525274111e-04
3.32571428571429e+00 4.72724196801252e-02 3.30697270886707e-04
3.39428571428571e+00 4.66936083635919e-02 3.29999010220146e-04
3.46285714285714e+00 4.61218841082056e-02 3.29234988504079e-04
3.53142857142857e+00 4.55571601388339e-02 3.28408300818891e-04
3.60000000000000e+00 4.49993507428326e-02 3.27521900827447e-04
3.66857142857143e+00 4.44483712585396e-02 3.26578609686603e-04
3.73714285714286e+00 4.39041380578565e-02 3.25581123216500e-04
3.80571428571429e+00 4.33665685381855e-02 3.24532018489187e-04
3.87428571428571e+00 4.28355811083275e-02 3.23433761042428e-04
3.94285714285714e+00 4.23110951760940e-02 3.22288710700670e-04
4.01142857142857e+00 4.17930311360853e-02 3.21099127200825e-04
4.08000000000000e+00 4.12813103576027e-02 3.19867175239921e-04
4.14857142857143e+00 4.07758551739318e-02 3.18594929925290e-04
4.21714285714286e+00 4.02765888668559e-02 3.17284380942110e-04
4.28571428571429e+00 3.97834356587573e-02 3.15937436414201e-04
4.35428571428571e+00 3.92963206998515e-02 3.14555927476069e-04
4.42285714285714e+00 3.88151700568230e-02 3.13141611798660e-04
4.49142857142857e+00 3.83399107016115e-02 3.11696177083696e-04
4.56000000000000e+00 3.78704705003237e-02 3.10221244181151e-04
4.62857142857143e+00 3.74067782032858e-02 3.08718370668242e-04
4.69714285714286e+00 3.69487634311917e-02 3.07189053415919e-04
4.76571428571429e+00 3.64963566674957e-02 3.05634730979386e-04
4.83428571428571e+00 3.60494892468237e-02 3.04056786687150e-04
4.90285714285714e+00 3.56080933445488e-02 3.02456550895892e-04
4.97142857142857e+00 3.51721019665026e-02 3.00835303284270e-04
5.04000000000000e+00 3.47414489388038e-02 2.99194274878873e-04
5.10857142857143e+00 3.43160688986456e-02 2.97534650538445e-04
5.17714285714286e+00 3.38958972818537e-02 2.95857570604885e-04
5.24571428571429e+00 3.34808703156381e-02 2.94164132446374e-04
5.31428571428571e+00 3.30709250080527e-02 2.92455392651540e-04
5.38285714285714e+00 3.26659991384333e-02 2.90732368533840e-04
5.45142857142857e+00 3.22660312479574e-02 2.88996039704484e-04
5.52000000000000e+00 3.18709606303145e-02 2.87247349442557e-04
5.58857142857143e+00 3.14807273231878e-02 2.85487206496410e-04
5.65714285714286e+00 3.10952720970416e-02 2.83716486181644e-04
5.72571428571429e+00 3.07145364482678e-02 2.81936031409094e-04
5.79428571428571e+00 3.03384625895861e-02 2.80146654306196e-04
5.86285714285714e+00 2.99669934412710e-02 2.78349137254729e-04
5.93142857142857e+00 2.96000726224926e-02 2.76544234007677e-04
6.00000000000000e+00 2.92376444427566e-02 2.74732670645546e-04
6.06857142857143e+00 2.88796538940400e-02 2.72915146928825e-04
6.13714285714286e+00 2.85260466406592e-02 2.71092337046733e-04
6.20571428571429e+00 2.81767690128258e-02 2.69264890318427e-04
6.27428571428571e+00 2.78317679978932e-02 2.67433432429405e-04
6.34285714285714e+00 2.74909912323087e-02 2.65598566166461e-04
6.41142857142857e+00 2.71543869936691e-02 2.63760872233459e-04
6.48000000000000e+00 2.68219041928683e-02 2.61920909935825e-04
6.54857142857143e+00 2.64934923668432e-02 2.60079218224558e-04
6.61714285714286e+00 2.61691016693996e-02 2.58236316216423e-04
6.68571428571429e+00 2.58486828651781e-02 2.56392703680504e-04
6.75428571428571e+00 2.55321873216650e-02 2.54548862005057e-04
6.82285714285714e+00 2.52195670018099e-02 2.52705254729121e-04
6.89142857142857e+00 2.49107744567370e-02 2.50862328152188e-04
6.96000000000000e+00 2.46057628185424e-02 2.49020511834065e-04
7.02857142857143e+00 2.43044857936068e-02 2.47180219419050e-04
7.09714285714286e+00 2.40068976542761e-02 2.45341849002024e-04
7.16571428571429e+00 2.37129532332280e-02 2.43505783469980e-04
7.23428571428571e+00 2.34226079161765e-02 2.41672391273591e-04
7.30285714285714e+00 2.31358176350994e-02 2.39842026818155e-04
7.37142857142857e+00 2.28525388615513e-02 2.38015030927873e-04
7.44000000000000e+00 2.25727286000561e-02 2.36191731216770e-04
7.50857142857143e+00 2.22963443819477e-02 2.34372442751244e-04
7.57714285714286e+00 2.20233442578136e-02 2.32557468309737e-04
7.64571428571429e+00 2.17536867922505e-02 2.30747098623937e-04
7.71428571428571e+00 2.14873310571967e-02 2.28941613004740e-04
7.78285714285714e+00 2.12242366257197e-02 2.27141279633473e-04
7.85142857142857e+00 2.09643635658818e-02 2.25346355920973e-04
7.92000000000000e+00 2.07076724346783e-02 2.23557088786319e-04
7.98857142857143e+00 2.04541242723670e-02 2.21773715197355e-04
8.05714285714286e+00 2.02036805955976e-02 2.19996462355401e-04
8.12571428571429e+00 1.99563033925381e-02 2.18225547865763e-04
8.19428571428571e+00 1.97119551167796e-02 2.16461180252403e-04
8.26285714285714e+00 1.94705986816370e-02 2.14703559177020e-04
8.33142857142857e+00 1.92321974545213e-02 2.12952875720332e-04
8.40000000000000e+00 1.89967152513788e-02 2.11209312593536e-04
8.46857142857143e+00 1.87641163314723e-02 2.09473044584698e-04
8.53714285714286e+00 1.85343653911290e-02 2.07744238689793e-04
8.60571428571429e+00 1.83074275592181e-02 2.06023054232597e-04
8.67428571428571e+00 1.80832683915769e-02 2.04309643292563e-04
8.74285714285714e+00 1.78618538657818e-02 2.02604150870788e-04
8.81142857142857e+00 1.76431503759862e-02 2.00906715112673e-04
8.88000000000000e+00 1.74271247278188e-02 1.99217467469474e-04
8.94857142857143e+00 1.72137441335827e-02 1.97536533070679e-04
9.01714285714286e+00 1.70029762065604e-02 1.95864030816120e-04
9.08571428571429e+00 1.67947889568244e-02 1.94200073459194e-04
9.15428571428571e+00 1.65891507861368e-02 1.92544767965842e-04
9.22285714285714e+00 1.63860304831536e-02 1.90898215640850e-04
9.29142857142857e+00 1.61853972186878e-02 1.89260512305603e-04
9.36000000000000e+00 1.59872205410302e-02 1.87631748422088e-04
9.42857142857143e+00 1.57914703715335e-02 1.86012009406160e-04
9.49714285714286e+00 1.55981169994219e-02 1.84401375691129e-04
9.56571428571429e+00 1.54071310779134e-02 1.82799922784114e-04
9.63428571428572e+00 1.52184836195529e-02 1.81207721569585e-04
9.70285714285714e+00 1.50321459918121e-02 1.79624838405638e-04
9.77142857142857e+00 1.48480899127441e-02 1.78051335266889e-04
9.84000000000000e+00 1.46662874466912e-02 1.76487269839904e-04
9.90857142857143e+00 1.44867110002243e-02 1.74932695788555e-04
9.97714285714286e+00 1.43093333174096e-02 1.73387662922893e-04
1.00457142857143e+01 1.41341274757009e-02 1.71852216728889e-04
1.01142857142857e+01 1.39610668837613e-02 1.70326399138564e-04
1.01828571428571e+01 1.37901252747748e-02 1.68810249260360e-04
1.02514285714286e+01 1.36212767019124e-02 1.67303801627386e-04
1.03200000000000e+01 1.34544955393459e-02 1.65807087392854e-04
1.03885714285714e+01 1.32897564733421e-02 1.64320135266296e-04
1.04571428571429e+01 1.31270345001143e-02 1.62842970738654e-04
1.05257142857143e+01 1.29663049205164e-02 1.61375615472473e-04
1.05942857142857e+01 1.28075433408808e-02 1.59918088166378e-04
1.06628571428571e+01 1.26507256646705e-02 1.58470405785201e-04
1.07314285714286e+01 1.24958280889640e-02 1.57032581391682e-04
1.08000000000000e+01 1.23428271051805e-02 1.55604625365931e-04
1.08685714285714e+01 1.21916994911180e-02 1.54186546235780e-04
1.09371428571429e+01 1.20424223089118e-02 1.52778349973675e-04
1.10057142857143e+01 1.18949729002274e-02 1.51380039440717e-04
1.10742857142857e+01 1.17493288868451e-02 1.49991615153681e-04
1.11428571428571e+01 1.16054681631891e-02 1.48613076380875e-04
1.12114285714286e+01 1.14633688930952e-02 1.47244419189002e-04
1.12800000000000e+01 1.13230095103051e-02 1.45885637529604e-04
1.13485714285714e+01 1.11843687113365e-02 1.44536723977071e-04
1.14171428571429e+01 1.10474254535510e-02 1.43197669090951e-04
1.14857142857143e+01 1.09121589507954e-02 1.41868460909586e-04
1.15542857142857e+01 1.07785486737825e-02 1.40549085632073e-04
1.16228571428571e+01 1.06465743433958e-02 1.39239528596119e-04
1.16914285714286e+01 1.05162159277175e-02 1.37939772517783e-04
1.17600000000000e+01 1.03874536423378e-02 1.36649798460975e-04
1.18285714285714e+01 1.02602679439611e-02 1.35369586494613e-04
1.18971428571429e+01 1.01346395285831e-02 1.34099115114402e-04
1.19657142857143e+01 1.00105493275361e-02 1.32838360781950e-04
1.20342857142857e+01 9.88797850770707e-03 1.31587298532177e-04
1.21028571428571e+01 9.76690846552859e-03 1.30345902847139e-04
1.21714285714286e+01 9.64732082424689e-03 1.29114146068778e-04
1.22400000000000e+01 9.52919743408454e-03 1.27891999265308e-04
1.23085714285714e+01 9.41252036649785e-03 1.26679432817307e-04
1.23771428571429e+01 9.29727191246360e-03 1.25476415893471e-04
1.24457142857143e+01 9.18343457888641e-03 1.24282916031327e-04
1.25142857142857e+01 9.07099108868916e-03 1.23098899679059e-04
1.25828571428571e+01 8.95992437541204e-03 1.21924332977391e-04
1.26514285714286e+01 8.85021758070253e-03 1.20759180327605e-04
1.27200000000000e+01 8.74185405436127e-03 1.19603405166756e-04
1.27885714285714e+01 8.63481734917881e-03 1.18456970491132e-04
1.28571428571429e+01 8.52909121932841e-03 1.17319838380935e-04
1.29257142857143e+01 8.42465961710105e-03 1.16191969618946e-04
1.29942857142857e+01 8.32150669289461e-03 1.15073324174528e-04
1.30628571428571e+01 8.21961679035442e-03 1.13963861904020e-04
1.31314285714286e+01 8.11897444406711e-03 1.12863541258205e-04
1.32000000000000e+01 8.01956437951501e-03 1.11772319976747e-04
1.32685714285714e+01 7.92137150842860e-03 1.10690155556265e-04
1.33371428571429e+01 7.82438092728188e-03 1.09617004819353e-04
1.34057142857143e+01 7.72857791432352e-03 1.08552823567850e-04
1.34742857142857e+01 7.63394792948692e-03 1.07497567015674e-04
1.35428571428571e+01 7.54047661001350e-03 1.06451190416903e-04
1.36114285714286e+01 7.44814976833406e-03 1.05413647898540e-04
1.36800000000000e+01 7.35695339195223e-03 1.04384893083195e-04
1.37485714285714e+01 7.26687363925685e-03 1.03364879508143e-04
1.38171428571429e+01 7.17789683811593e-03 1.02353560234475e-04
1.38857142857143e+01 7.09000948317551e-03 1.01350887531834e-04
1.39542857142857e+01 7.00319823570904e-03 1.00356813265968e-04
1.40228571428571e+01 6.91744991967143e-03 9.93712894624562e-05
1.40914285714286e+01 6.83275151975302e-03 9.83942672521219e-05
1.41600000000000e+01 6.74909018120878e-03 9.74256974299128e-05
1.42285714285714e+01 6.66645320608152e-03 9.64655308304369e-05
1.42971428571429e+01 6.58482805189011e-03 9.55137179734566e-05
1.43657142857143e+01 6.50420232917073e-03 9.45702087772483e-05
1.44342857142857e+01 6.42456380128025e-03 9.36349529059353e-05
1.45028571428571e+01 6.34590038083562e-03 9.27079002758846e-05
1.45714285714286e+01 6.26820012792651e-03 9.17890001024759e-05
1.46400000000000e+01 6.19145124990392e-03 9.08782014021408e-05
1.47085714285714e+01 6.11564209797095e-03 8.99754533291932e-05
1.47771428571429e+01 6.04076116596067e-03 8.90807048542278e-05
1.48457142857143e+01 5.96679708809692e-03 8.81939045035012e-05
1.49142857142857e+01 5.89373863876392e-03 8.73150006704833e-05
1.49828571428571e+01 5.82157472929066e-03 8.64439420711271e-05
1.50514285714286e+01 5.75029440630943e-03 8.55806768818675e-05
1.51200000000000e+01 5.67988685151488e-03 8.47251531909386e-05
1.51885714285714e+01 5.61034137858424e-03 8.38773193007551e-05
1.52571428571429e+01 5.54164743203994e-03 8.30371234360827e-05
1.53257142857143e+01 5.47379458520967e-03 8.22045135070764e-05
1.53942857142857e+01 5.40677253997195e-03 8.13794373889686e-05
1.54628571428571e+01 5.34057112384983e-03 8.05618433316328e-05
1.55314285714286e+01 5.27518028850362e-03 7.97516791797806e-05
1.56000000000000e+01 5.21059010946938e-03 7.89488927789749e-05
1.56685714285714e+01 5.14679078337463e-03 7.81534322472770e-05
1.57371428571429e+01 5.08377262688111e-03 7.73652457103785e-05
1.58057142857143e+01 5.02152607482554e-03 7.65842810861243e-05
1.58742857142857e+01 4.96004167994914e-03 7.58104863357775e-05
1.59428571428571e+01 4.89931011026911e-03 7.50438098327215e-05
1.60114285714286e+01 4.83932214769458e-03 7.42841996567331e-05
1.60800000000000e+01 4.78006868775189e-03 7.35316039594722e-05
1.61485714285714e+01 4.72154073706563e-03 7.27859712086813e-05
1.62171428571429e+01 4.66372941237691e-03 7.20472499477421e-05
1.62857142857143e+01 4.60662593884819e-03 7.13153885997059e-05
1.63542857142857e+01 4.55022164978316e-03 7.05903356931849e-05
1.64228571428571e+01 4.49450798424790e-03 6.98720401944718e-05
1.64914285714286e+01 4.43947648580001e-03 6.91604508685948e-05
1.65600000000000e+01 4.38511880220656e-03 6.84555166085233e-05
1.66285714285714e+01 4.33142668316379e-03 6.77571866548606e-05
1.66971428571429e+01 4.27839197938610e-03 6.70654103775084e-05
1.67657142857143e+01 4.22600664106014e-03 6.63801370974039e-05
1.68342857142857e+01 4.17426271756009e-03 6.57013162897373e-05
1.69028571428571e+01 4.12315235529347e-03 6.50288978832777e-05
1.69714285714286e+01 4.07266779653436e-03 6.43628316816927e-05
1.70400000000000e+01 4.02280137913853e-03 6.37030676602406e-05
1.71085714285714e+01 3.97354553447804e-03 6.30495561635108e-05
1.71771428571429e+01 3.92489278659655e-03 6.24022477071266e-05
1.72457142857143e+01 3.87683575079902e-03 6.17610928155785e-05
1.73142857142857e+01 3.82936713336654e-03 6.11260422051341e-05
1.73828571428571e+01 3.78247972960446e-03 6.04970470537569e-05
1.74514285714286e+01 3.73616642277116e-03 5.98740584768217e-05
1.75200000000000e+01 3.69042018379424e-03 5.92570277946397e-05
1.75885714285714e+01 3.64523406939852e-03 5.86459067105446e-05
1.76571428571429e+01 3.60060122132355e-03 5.80406471307489e-05
1.77257142857143e+01 3.55651486503659e-03 5.74412010167988e-05
1.77942857142857e+01 3.51296830945023e-03 5.68475205502949e-05
1.78628571428571e+01 3.46995494515289e-03 5.62595583764045e-05
1.79314285714286e+01 3.42746824342539e-03 5.56772671287087e-05
1.80000000000000e+01 3.38550175596098e-03 5.51005996705406e-05
1.80685714285714e+01 3.34404911316796e-03 5.45295092554599e-05
1.81371428571429e+01 3.30310402344499e-03 5.39639493635553e-05
1.82057142857143e+01 3.26266027200650e-03 5.34038735671754e-05
1.82742857142857e+01 3.22271172060550e-03 5.28492356793585e-05
1.83428571428571e+01 3.18325230592858e-03 5.22999899736140e-05
1.84114285714286e+01 3.14427603869322e-03 5.17560907531565e-05
1.84800000000000e+01 3.10577700337383e-03 5.12174925687309e-05
1.85485714285714e+01 3.06774935666191e-03 5.06841503632677e-05
1.86171428571429e+01 3.03018732679547e-03 5.01560193231082e-05
1.86857142857143e+01 2.99308521248657e-03 4.96330547558042e-05
1.87542857142857e+01 2.95643738265137e-03 4.91152122239121e-05
1.88228571428571e+01 2.92023827495363e-03 4.86024477434509e-05
1.88914285714286e+01 2.88448239497616e-03 4.80947173932585e-05
1.89600000000000e+01 2.84916431595459e-03 4.75919775116734e-05
1.90285714285714e+01 2.81427867737986e-03 4.70941848269948e-05
1.90971428571429e+01 2.77982018437791e-03 4.66012963222368e-05
1.91657142857143e+01 2.74578360673039e-03 4.61132691238908e-05
1.92342857142857e+01 2.71216377861324e-03 4.56300606225810e-05
1.93028571428571e+01 2.67895559727455e-03 4.51516286523418e-05
1.93714285714286e+01 2.64615402227386e-03 4.46779311362577e-05
1.94400000000000e+01 2.61375407522514e-03 4.42089262641199e-05
1.95085714285714e+01 2.58175083852777e-03 4.37445726101358e-05
1.95771428571429e+01 2.55013945479308e-03 4.32848290099510e-05
1.96457142857143e+01 2.51891512594989e-03 4.28296544593772e-05
1.97142857142857e+01 2.48807311299282e-03 4.23790082232545e-05
1.97828571428571e+01 2.45760873478134e-03 4.19328499974443e-05
1.98514285714286e+01 2.42751736734174e-03 4.14911395873010e-05
1.99200000000000e+01 2.39779444361989e-03 4.10538370682072e-05
1.99885714285714e+01 2.36843545232858e-03 4.06209028918156e-05
2.00571428571429e+01 2.33943593741762e-03 4.01922977742085e-05
2.01257142857143e+01 2.31079149725664e-03 3.97679826036786e-05
2.01942857142857e+01 2.28249778439380e-03 3.93479185389805e-05
2.02628571428571e+01 2.25455050446466e-03 3.89320671557747e-05
2.03314285714286e+01 2.22694541555144e-03 3.85203901548039e-05
2.04000000000000e+01 2.19967832794641e-03 3.81128495070020e-05
2.04685714285714e+01 2.17274510310441e-03 3.77094075494278e-05
2.05371428571429e+01 2.14614165315336e-03 3.73100268835278e-05
2.06057142857143e+01 2.11986394014765e-03 3.69146702911519e-05
2.06742857142857e+01 2.09390797583756e-03 3.65233008232625e-05
2.07428571428571e+01 2.06826982067764e-03 3.61358819323541e-05
2.08114285714286e+01 2.04294558323851e-03 3.57523772075287e-05
2.08800000000000e+01 2.01793141998126e-03 3.53727505057128e-05
2.09485714285714e+01 1.99322353430522e-03 3.49969660383060e-05
2.10171428571429e+01 1.96881817609598e-03 3.46249882786148e-05
2.10857142857143e+01 1.94471164104307e-03 3.42567818853551e-05
2.11542857142857e+01 1.92090027042049e-03 3.38923117827719e-05
2.12228571428571e+01 1.89738045018503e-03 3.35315432804249e-05
2.12914285714286e+01 1.87414861043654e-03 3.31744418326192e-05
2.13600000000000e+01 1.85120122520331e-03 3.28209731570915e-05
2.14285714285714e+01 1.82853481157625e-03 3.24711033133017e-05
2.14971428571429e+01 1.80614592929158e-03 3.21247986181985e-05
2.15657142857143e+01 1.78403118010730e-03 3.17820255765288e-05
2.16342857142857e+01 1.76218720759475e-03 3.14427509532226e-05
