Energy (eV)          EEDF (eV^-(3/2))     First Anisotropy
1.95000000000000e-01 1.71428449585530e-01 3.51910665627498e-04
5.85000000000000e-01 1.52713183717254e-01 5.51237378429373e-04
9.75000000000000e-01 1.36041109497548e-01 6.52639556944597e-04
1.36500000000000e+00 1.21189166664154e-01 6.93153929310607e-04
1.75500000000000e+00 1.07958646992781e-01 7.02315615891432e-04
2.14500000000000e+00 9.61725357251696e-02 6.92744708273698e-04
2.53500000000000e+00 8.56731432399993e-02 6.71471255219875e-04
2.92500000000000e+00 7.63199952801129e-02 6.42889323803105e-04
3.31500000000000e+00 6.79879535088306e-02 6.09915487057348e-04
3.70500000000000e+00 6.05655412497567e-02 5.74550767843923e-04
4.09500000000000e+00 5.39534520096936e-02 5.38191646987772e-04
4.48500000000000e+00 4.80632208297818e-02 5.01818224551993e-04
4.87500000000000e+00 4.28160406885056e-02 4.66115481091230e-04
5.26500000000000e+00 3.81417081208972e-02 4.31555119696767e-04
5.65500000000000e+00 3.39776839470883e-02 3.98452739295997e-04
6.04500000000000e+00 3.02682565434372e-02 3.67008826581103e-04
6.43500000000000e+00 2.69637964614078e-02 3.37338730787809e-04
6.82500000000000e+00 2.40200924215394e-02 3.09494910413930e-04
7.21500000000000e+00 2.13977597985908e-02 2.83483627394603e-04
7.60500000000000e+00 1.90617136838162e-02 2.59277573788697e-04
7.99500000000000e+00 1.69806994743307e-02 2.36825471868996e-04
8.38500000000000e+00 1.51268747091897e-02 2.16059393605476e-04
8.77500000000000e+00 1.34754365574533e-02 1.96900344301557e-04
9.16500000000000e+00 1.20042899742954e-02 1.79262514537888e-04
9.55500000000000e+00 1.06937520853278e-02 1.63056504286542e-04
9.94500000000000e+00 9.52628884401518e-03 1.48191750227371e-04
1.03350000000000e+01 8.48628043884803e-03 1.34578333576556e-04
1.07250000000000e+01 7.55981231159276e-03 1.22128305569682e-04
1.11150000000000e+01 6.73448899059331e-03 1.10756637351834e-04
1.15050000000000e+01 5.99926824834983e-03 1.00381877799046e-04
1.18950000000000e+01 5.34431336452263e-03 9.09265848836634e-05
1.22850000000000e+01 4.76086151774785e-03 8.23175822788189e-05
1.26750000000000e+01 4.24110654544242e-03 7.44860820130620e-05
1.30650000000000e+01 3.77809450300991e-03 6.73677054273012e-05
1.34550000000000e+01 3.36563062510486e-03 6.09024279248515e-05
1.38450000000000e+01 2.99819644416502e-03 5.50344676438622e-05
1.42350000000000e+01 2.67087595731742e-03 4.97121339171400e-05
1.46250000000000e+01 2.37928985382508e-03 4.48876479850824e-05
1.50150000000000e+01 2.11953692308525e-03 4.05169457133280e-05
1.54050000000000e+01 1.88814185926083e-03 3.65594698977490e-05
1.57950000000000e+01 1.68200876420851e-03 3.29779580056353e-05
1.61850000000000e+01 1.49837972660688e-03 2.97382298166761e-05
1.65750000000000e+01 1.33479792310297e-03 2.68089783218996e-05
1.69650000000000e+01 1.18907474779752e-03 2.41615663583081e-05
1.73550000000000e+01 1.05926053028528e-03 2.17698307577830e-05
1.77450000000000e+01 9.43618450478870e-04 1.96098952357802e-05
1.81350000000000e+01 8.40601301215611e-04 1.76599928101173e-05
1.85250000000000e+01 7.48830787747724e-04 1.59002981999437e-05
1.89150000000000e+01 6.67079087158167e-04 1.43127703913418e-05
1.93050000000000e+01 5.94252420980438e-04 1.28810053539702e-05
1.96950000000000e+01 5.29376421235915e-04 1.15900987406226e-05
2.00850000000000e+01 4.71583094096927e-04 1.04265182886857e-05
2.04750000000000e+01 4.20099206758821e-04 9.37798556125032e-06
2.08650000000000e+01 3.74235942145791e-04 8.43336660956923e-06
2.12550000000000e+01 3.33379683037944e-04 7.58257110239449e-06
2.16450000000000e+01 2.96983802317905e-04 6.81645944718009e-06
2.20350000000000e+01 2.64561349496398e-04 6.12675741974853e-06
2.24250000000000e+01 2.35678535667855e-04 5.50597781997813e-06
2.28150000000000e+01 2.09948929729437e-04 4.94734867911277e-06
2.32050000000000e+01 1.87028288213130e-04 4.44474755760275e-06
2.35950000000000e+01 1.66609949557791e-04 3.99264148949545e-06
2.39850000000000e+01 1.48420731199854e-04 3.58603214913979e-06
2.43750000000000e+01 1.32217274588743e-04 3.22040583742400e-06
2.47650000000000e+01 1.17782789225960e-04 2.89168790720277e-06
2.51550000000000e+01 1.04924152165423e-04 2.59620127041762e-06
2.55450000000000e+01 9.34693241685132e-05 2.33062865223313e-06
2.59350000000000e+01 8.32650479438197e-05 2.09197827996737e-06
2.63250000000000e+01 7.41747976757290e-05 1.87755271643706e-06
2.67150000000000e+01 6.60769524080206e-05 1.68492056838569e-06
2.71050000000000e+01 5.88631688436744e-05 1.51189082078925e-06
2.74950000000000e+01 5.24369317901282e-05 1.35648956695646e-06
2.78850000000000e+01 4.67122628559954e-05 1.21693892240941e-06
2.82750000000000e+01 4.16125701225409e-05 1.09163792752617e-06
2.86650000000000e+01 3.70696233993541e-05 9.79145259846856e-07
2.90550000000000e+01 3.30226413538822e-05 8.78163591806126e-07
2.94450000000000e+01 2.94174783012802e-05 7.87525443484620e-07
2.98350000000000e+01 2.62058997744151e-05 7.06180392806067e-07
3.02250000000000e+01 2.33449371816756e-05 6.33183517488370e-07
3.06150000000000e+01 2.07963129183776e-05 5.67684954032368e-07
3.10050000000000e+01 1.85259282401735e-05 5.08920469150331e-07
3.13950000000000e+01 1.65034070465811e-05 4.56202948347835e-07
3.17850000000000e+01 1.47016894707885e-05 4.08914714927949e-07
3.21750000000000e+01 1.30966698382604e-05 3.66500600535322e-07
3.25650000000000e+01 1.16668741502946e-05 3.28461695548512e-07
3.29550000000000e+01 1.03931727774922e-05 2.94349714208621e-07
3.33450000000000e+01 9.25852451918995e-06 2.63761915386010e-07
3.37350000000000e+01 8.24774860455316e-06 2.36336525377431e-07
3.41250000000000e+01 7.34732158487175e-06 2.11748614133966e-07
3.45150000000000e+01 6.54519639962365e-06 1.89706380883835e-07
3.49050000000000e+01 5.83064119554176e-06 1.69947809269438e-07
3.52950000000000e+01 5.19409574220010e-06 1.52237655898387e-07
3.56850000000000e+01 4.62704352306393e-06 1.36364739645119e-07
3.60750000000000e+01 4.12189779067478e-06 1.22139502161916e-07
3.64650000000000e+01 3.67190006147147e-06 1.09391812892888e-07
3.68550000000000e+01 3.27102969218141e-06 9.79689944564189e-08
3.72450000000000e+01 2.91392332797987e-06 8.77340465939228e-08
3.76350000000000e+01 2.59580314469196e-06 7.85640489965607e-08
3.80250000000000e+01 2.31241292497015e-06 7.03487252363845e-08
3.84150000000000e+01 2.05996111319279e-06 6.29891517620628e-08
3.88050000000000e+01 1.83507008719960e-06 5.63965974883344e-08
3.91950000000000e+01 1.63473096815668e-06 5.04914809276494e-08
3.95850000000000e+01 1.45626336393974e-06 4.52024330958422e-08
3.99750000000000e+01 1.29727950743136e-06 4.04654555836960e-08
4.03650000000000e+01 1.15565230992859e-06 3.62231642343851e-08
4.07550000000000e+01 1.02948690223873e-06 3.24241098134449e-08
4.11450000000000e+01 9.17095282703657e-07 2.90221679126903e-08
4.15350000000000e+01 8.16973732961843e-07 2.59759911010192e-08
4.19250000000000e+01 7.27782699287182e-07 2.32485170312028e-08
4.23150000000000e+01 6.48328870331593e-07 2.08065268397629e-08
4.27050000000000e+01 5.77549211484593e-07 1.86202487433622e-08
4.30950000000000e+01 5.14496742241127e-07 1.66630022457196e-08
4.34850000000000e+01 4.58327866289181e-07 1.49108788292712e-08
4.38750000000000e+01 4.08291084802912e-07 1.33424554204924e-08
4.42650000000000e+01 3.63716941933350e-07 1.19385372913910e-08
4.46550000000000e+01 3.24009067974645e-07 1.06819273961763e-08
4.50450000000000e+01 2.88636200369889e-07 9.55721944511199e-09
4.54350000000000e+01 2.57125075803392e-07 8.55061229035533e-09
4.58250000000000e+01 2.29054098280727e-07 7.64974344412836e-09
4.62150000000000e+01 2.04047698480074e-07 6.84353977053840e-09
4.66050000000000e+01 1.81771308907065e-07 6.12208359118630e-09
4.69950000000000e+01 1.61926887624338e-07 5.47649262355899e-09
4.73850000000000e+01 1.44248930666559e-07 4.89881233207284e-09
4.77750000000000e+01 1.28500919789916e-07 4.38191941630204e-09
4.81650000000000e+01 1.14472158029539e-07 3.91943529100113e-09
4.85550000000000e+01 1.01974950726914e-07 3.50564852946574e-09
4.89450000000000e+01 9.08420943114666e-08 3.13544534688222e-09
4.93350000000000e+01 8.09246392380497e-08 2.80424729477799e-09
4.97250000000000e+01 7.20898971500469e-08 2.50795542256443e-09
5.01150000000000e+01 6.42196656053896e-08 2.24290023842569e-09
5.05050000000000e+01 5.72086466136036e-08 2.00579687031456e-09
5.08950000000000e+01 5.09630378250600e-08 1.79370488935148e-09
5.12850000000000e+01 4.53992775235642e-08 1.60399231318670e-09
5.16750000000000e+01 4.04429266311927e-08 1.43430335651231e-09
5.20650000000000e+01 3.60276727674152e-08 1.28252954046948e-09
5.24550000000000e+01 3.20944430375332e-08 1.14678381269938e-09
5.28450000000000e+01 2.85906136801898e-08 1.02537736569664e-09
5.32350000000000e+01 2.54693059996060e-08 9.16798873355448e-10
5.36250000000000e+01 2.26887591626281e-08 8.19695894525777e-10
5.40150000000000e+01 2.02117714690656e-08 7.32858218355772e-10
5.44050000000000e+01 1.80052026199223e-08 6.55202949488733e-10
5.47950000000000e+01 1.60395303242285e-08 5.85761152081019e-10
5.51850000000000e+01 1.42884553121989e-08 5.23665890355041e-10
5.55750000000000e+01 1.27285494700747e-08 4.68141520218831e-10
5.59650000000000e+01 1.13389423889520e-08 4.18494101567850e-10
5.63550000000000e+01 1.01010421338464e-08 3.74102814413340e-10
5.67450000000000e+01 8.99828649708572e-09 3.34412274113708e-10
5.71350000000000e+01 8.01592140798278e-09 2.98925651864560e-10
5.75250000000000e+01 7.14080353406918e-09 2.67198516357675e-10
5.79150000000000e+01 6.36122443283870e-09 2.38833321264866e-10
5.83050000000000e+01 5.66675390127769e-09 2.13474471043126e-10
5.86950000000000e+01 5.04810042731285e-09 1.90803904585833e-10
5.90850000000000e+01 4.49698687611798e-09 1.70537142544772e-10
5.94750000000000e+01 4.00603974805275e-09 1.52419749794274e-10
5.98650000000000e+01 3.56869052658483e-09 1.36224169569452e-10
6.02550000000000e+01 3.17908779630226e-09 1.21746890345663e-10
6.06450000000000e+01 2.83201895521880e-09 1.08805910590305e-10
6.10350000000000e+01 2.52284047393953e-09 9.72384701595688e-11
6.14250000000000e+01 2.24741576860515e-09 8.68990203754914e-11
6.18150000000000e+01 2.00205985639985e-09 7.76574077418228e-11
6.22050000000000e+01 1.78349005315357e-09 6.93972488760189e-11
6.25950000000000e+01 1.58878205340853e-09 6.20144765806021e-11
6.29850000000000e+01 1.41533080533287e-09 5.54160390785581e-11
6.33750000000000e+01 1.26081565701644e-09 4.95187363196856e-11
6.37650000000000e+01 1.12316930783113e-09 4.42481789506734e-11
6.41550000000000e+01 1.00055014944775e-09 3.95378570515418e-11
6.45450000000000e+01 8.91317626452116e-10 3.53283070932626e-11
6.49350000000000e+01 7.94010286903388e-10 3.15663667822456e-11
6.53250000000000e+01 7.07326229166938e-10 2.82045085416811e-11
6.57150000000000e+01 6.30105683414648e-10 2.52002433506248e-11
6.61050000000000e+01 5.61315494745686e-10 2.25155875310196e-11
6.64950000000000e+01 5.00035300323194e-10 2.01165858511614e-11
6.68850000000000e+01 4.45445215586983e-10 1.79728850109325e-11
6.72750000000000e+01 3.96814864792718e-10 1.60573521979282e-11
6.76650000000000e+01 3.53493609114127e-10 1.43457339620370e-11
6.80550000000000e+01 3.14901841567363e-10 1.28163511559174e-11
6.84450000000000e+01 2.80523232289898e-10 1.14498261362598e-11
6.88350000000000e+01 2.49897820421409e-10 1.02288388212279e-11
6.92250000000000e+01 2.22615860161040e-10 9.13790855792868e-12
6.96150000000000e+01 1.98312338665736e-10 8.16319907458660e-12
7.00050000000000e+01 1.76662092443117e-10 7.29234407921197e-12
7.03950000000000e+01 1.57375456899761e-10 6.51429132350814e-12
7.07850000000000e+01 1.40194390839015e-10 5.81916318069850e-12
7.11750000000000e+01 1.24889024056917e-10 5.19813199171631e-12
7.15650000000000e+01 1.11254581845571e-10 4.64330861831756e-12
7.19550000000000e+01 9.91086452560624e-11 4.14764280642034e-12
7.23450000000000e+01 8.82887104652136e-11 3.70483411037770e-12
7.27350000000000e+01 7.86500145922791e-11 3.30925226077404e-12
7.31250000000000e+01 7.00635988765854e-11 2.95586597632733e-12
7.35150000000000e+01 6.24145833028358e-11 2.64017932604111e-12
7.39050000000000e+01 5.56006295898183e-11 2.35817484218654e-12
7.42950000000000e+01 4.95305719784196e-11 2.10626266917548e-12
7.46850000000000e+01 4.41231974998833e-11 1.88123510895844e-12
7.50750000000000e+01 3.93061594051841e-11 1.68022599118165e-12
7.54650000000000e+01 3.50150092179931e-11 1.50067435680643e-12
7.58550000000000e+01 3.11923344608030e-11 1.34029199797998e-12
7.62450000000000e+01 2.77869905176156e-11 1.19703444532382e-12
7.66350000000000e+01 2.47534163560705e-11 1.06907503707394e-12
7.70250000000000e+01 2.20510249538731e-11 9.54781743204981e-13
7.74150000000000e+01 1.96436602738712e-11 8.52696452279894e-13
7.78050000000000e+01 1.74991135224981e-11 7.61516459718632e-13
7.81950000000000e+01 1.55886922194735e-11 6.80077923859235e-13
7.85850000000000e+01 1.38868363132251e-11 6.07341080938172e-13
7.89750000000000e+01 1.23707762059349e-11 5.42377032252101e-13
7.93650000000000e+01 1.10202281128339e-11 4.84355936557058e-13
7.97550000000000e+01 9.81712267987123e-12 4.32536458460553e-13
8.01450000000000e+01 8.74536322886136e-12 3.86256339388204e-13
8.05350000000000e+01 7.79061039560357e-12 3.44923971857379e-13
8.09250000000000e+01 6.94009027958793e-12 3.08010870442887e-13
8.13150000000000e+01 6.18242353847029e-12 2.75044944132158e-13
8.17050000000000e+01 5.50747314072418e-12 2.45604484881591e-13
8.20950000000000e+01 4.90620873951049e-12 2.19312796228206e-13
8.24850000000000e+01 4.37058585318565e-12 1.95833393895000e-13
8.28750000000000e+01 3.89343823597128e-12 1.74865717555652e-13
8.32650000000000e+01 3.46838199878262e-12 1.56141299385308e-13
8.36550000000000e+01 3.08973019742237e-12 1.39420340800025e-13
8.40450000000000e+01 2.75241674539149e-12 1.24488653950767e-13
8.44350000000000e+01 2.45192863332586e-12 1.11154929153314e-13
8.48250000000000e+01 2.18424554820390e-12 9.92482935612567e-14
8.52150000000000e+01 1.94578608447389e-12 8.86161300771362e-14
8.56050000000000e+01 1.73335982744501e-12 7.91221287932598e-14
8.59950000000000e+01 1.54412466785247e-12 7.06445462001675e-14
8.63850000000000e+01 1.37554877649669e-12 6.30746500343193e-14
8.67750000000000e+01 1.22537673020474e-12 5.63153299904517e-14
8.71650000000000e+01 1.09159933590393e-12 5.02798566278766e-14
8.75550000000000e+01 9.72426749075621e-13 4.48907726802982e-14
8.79450000000000e+01 8.66264526933536e-13 4.00789026592211e-14
8.83350000000000e+01 7.71692295935626e-13 3.57824681429008e-14
8.87250000000000e+01 6.87444748216139e-13 3.19462974850126e-14
8.91150000000000e+01 6.12394712683996e-13 2.85211198767428e-14
8.95050000000000e+01 5.45538074291029e-13 2.54629347679628e-14
8.98950000000000e+01 4.85980339700837e-13 2.27324486111051e-14
9.02850000000000e+01 4.32924669616638e-13 2.02945717474092e-14
9.06750000000000e+01 3.85661217649361e-13 1.81179690201866e-14
9.10650000000000e+01 3.43557633087749e-13 1.61746583833210e-14
9.14550000000000e+01 3.06050600504430e-13 1.44396523840534e-14
9.18450000000000e+01 2.72638303004021e-13 1.28906379449042e-14
9.22350000000000e+01 2.42873708276996e-13 1.15076903572887e-14
9.26250000000000e+01 2.16358587631575e-13 1.02730178351574e-14
9.30150000000000e+01 1.92738187982630e-13 9.17073336635593e-15
9.34050000000000e+01 1.71696485512674e-13 8.18665094730152e-15
9.37950000000000e+01 1.52951957502375e-13 7.30810359740902e-15
9.41850000000000e+01 1.36253815760728e-13 6.52378082742173e-15
9.45750000000000e+01 1.21378651260937e-13 5.82358348393270e-15
9.49650000000000e+01 1.08127445089655e-13 5.19849411406900e-15
9.53550000000000e+01 9.63229057182565e-14 4.64046119237035e-15
9.57450000000000e+01 8.58070969707562e-14 4.14229572883923e-15
9.61350000000000e+01 7.64393249523123e-14 3.69757893522094e-15
9.65250000000000e+01 6.80942556669472e-14 3.30057976779739e-15
9.69150000000000e+01 6.06602381395743e-14 2.94618129114304e-15
9.73050000000000e+01 5.40378106069226e-14 2.62981492000017e-15
9.76950000000000e+01 4.81383697912752e-14 2.34740169711616e-15
9.80850000000000e+01 4.28829854528690e-14 2.09529985482985e-15
9.84750000000000e+01 3.82013443605287e-14 1.87025798854162e-15
9.88650000000000e+01 3.40308095516252e-14 1.66937324197480e-15
9.92550000000000e+01 3.03155822949409e-14 1.49005396824987e-15
9.96450000000000e+01 2.70059555441120e-14 1.32998638806252e-15
1.00035000000000e+02 2.40576488933965e-14 1.18710481741341e-15
1.00425000000000e+02 2.14312161379577e-14 1.05956508303178e-15
1.00815000000000e+02 1.90915175122507e-14 9.45720784451032e-16
1.01205000000000e+02 1.70072495454432e-14 8.44102098150925e-16
1.01595000000000e+02 1.51505262436772e-14 7.53396851744351e-16
1.01985000000000e+02 1.34965059956948e-14 6.72433625271660e-16
1.02375000000000e+02 1.20230592100948e-14 6.00166662643281e-16
1.02765000000000e+02 1.07104722374484e-14 5.35662399473834e-16
1.03155000000000e+02 9.54118361596664e-15 4.78087434274173e-16
1.03545000000000e+02 8.49954911187721e-15 4.26697788476412e-16
1.03935000000000e+02 7.57163241092218e-15 3.80829317297517e-16
1.04325000000000e+02 6.74501866057991e-15 3.39889148210714e-16
1.04715000000000e+02 6.00864836834177e-15 3.03348036979340e-16
1.05105000000000e+02 5.35266943372284e-15 2.70733542983576e-16
1.05495000000000e+02 4.76830533430229e-15 2.41623936087150e-16
1.05885000000000e+02 4.24773770221823e-15 2.15642756683217e-16
1.06275000000000e+02 3.78400172007575e-15 1.92453958946326e-16
1.06665000000000e+02 3.37089293674108e-15 1.71757574807919e-16
1.07055000000000e+02 3.00288425628503e-15 1.53285842862171e-16
1.07445000000000e+02 2.67505198944771e-15 1.36799752382736e-16
1.07835000000000e+02 2.38300997824704e-15 1.22085957965540e-16
1.08225000000000e+02 2.12285091236578e-15 1.08954025076651e-16
1.08615000000000e+02 1.89109405217313e-15 9.72339710382682e-17
1.09005000000000e+02 1.68463865895280e-15 8.67740697846950e-17
1.09395000000000e+02 1.50072250926759e-15 7.74388921123715e-17
1.09785000000000e+02 1.33688493841308e-15 6.91075561771508e-17
1.10175000000000e+02 1.19093391850836e-15 6.16721656968573e-17
1.10565000000000e+02 1.06091673075266e-15 5.50364157324354e-17
1.10955000000000e+02 9.45093839463954e-16 4.91143480776616e-17
1.11345000000000e+02 8.41915618353042e-16 4.38292402131317e-17
1.11735000000000e+02 7.50001617647641e-16 3.91126134997438e-17
1.12125000000000e+02 6.68122094675530e-16 3.49033478222453e-17
1.12515000000000e+02 5.95181560799427e-16 3.11468912643236e-17
1.12905000000000e+02 5.30204124573484e-16 2.77945546207700e-17
1.13295000000000e+02 4.72320435023472e-16 2.48028816451762e-17
1.13685000000000e+02 4.20756050361210e-16 2.21330869074542e-17
1.14075000000000e+02 3.74821076515072e-16 1.97505540067536e-17
1.14465000000000e+02 3.33900936847633e-16 1.76243876632614e-17
1.14855000000000e+02 2.97448149565953e-16 1.57270139069246e-17
1.15245000000000e+02 2.64975002812235e-16 1.40338232012523e-17
1.15635000000000e+02 2.36047029432860e-16 1.25228518940009e-17
1.16025000000000e+02 2.10277194122949e-16 1.11744978808542e-17
1.16415000000000e+02 1.87320715174673e-16 9.97126680952294e-18
1.16805000000000e+02 1.66870451548038e-16 9.41127137833473e-18
