Energy (eV)          EEDF (eV^-(3/2))     First Anisotropy
1.42272727272727e-01 4.06461365506363e-02 4.53972816103228e-05
4.26818181818182e-01 3.93908665722752e-02 7.40552247923656e-05
7.11363636363636e-01 3.81743629561406e-02 9.53834591216835e-05
9.95909090909091e-01 3.69954284809079e-02 1.10207714030285e-04
1.28045454545455e+00 3.58529029023585e-02 1.21477895296223e-04
1.56500000000000e+00 3.47456618142965e-02 1.30352924811963e-04
1.84954545454545e+00 3.36726155220712e-02 1.37454074646281e-04
2.13409090909091e+00 3.26327079982364e-02 1.43169014545640e-04
2.41863636363636e+00 3.16249158166484e-02 1.47762800162612e-04
2.70318181818182e+00 3.06482471675236e-02 1.51428105906615e-04
2.98772727272727e+00 2.97017408623966e-02 1.54311276248206e-04
3.27227272727273e+00 2.87844654045818e-02 1.56527182777313e-04
3.55681818181818e+00 2.78955180606609e-02 1.58168317904387e-04
3.84136363636364e+00 2.70340239743320e-02 1.59310672599815e-04
4.12590909090909e+00 2.61991353120339e-02 1.60017707538681e-04
4.41045454545455e+00 2.53900304195087e-02 1.60343133305753e-04
4.69500000000000e+00 2.46059130214141e-02 1.60332916581886e-04
4.97954545454545e+00 2.38460114301468e-02 1.60026765449736e-04
5.26409090909091e+00 2.31095777932882e-02 1.59459253354927e-04
5.54863636363636e+00 2.23958873512690e-02 1.58660686276281e-04
5.83318181818182e+00 2.17042377299430e-02 1.57657782951086e-04
6.11772727272727e+00 2.10339482439526e-02 1.56474216631226e-04
6.40227272727273e+00 2.03843592318299e-02 1.55131052099800e-04
6.68681818181818e+00 1.97548314031105e-02 1.53647102882095e-04
6.97136363636364e+00 1.91447452096534e-02 1.52039225468895e-04
7.25590909090909e+00 1.85535002385342e-02 1.50322565059892e-04
7.54045454545455e+00 1.79805146176427e-02 1.48510761927177e-04
7.82500000000000e+00 1.74252244463203e-02 1.46616126291406e-04
8.10954545454545e+00 1.68870832373219e-02 1.44649787658606e-04
8.39409090909091e+00 1.63655613818802e-02 1.42621823094778e-04
8.67863636363636e+00 1.58601456257820e-02 1.40541368185279e-04
8.96318181818182e+00 1.53703385667997e-02 1.38416713460238e-04
9.24772727272727e+00 1.48956581627781e-02 1.36255388716820e-04
9.53227272727273e+00 1.44356372594911e-02 1.34064236988581e-04
9.81681818181818e+00 1.39898231292211e-02 1.31849479993738e-04
1.01013636363636e+01 1.35577770253839e-02 1.29616775865684e-04
1.03859090909091e+01 1.31390737503876e-02 1.27371270151291e-04
1.06704545454545e+01 1.27333012427942e-02 1.25117642566445e-04
1.09550000000000e+01 1.23400601593642e-02 1.22860147352885e-04
1.12395454545455e+01 1.19589634971252e-02 1.20602650244518e-04
1.15240909090909e+01 1.15896361979217e-02 1.18348661783034e-04
1.18086363636364e+01 1.12317147930229e-02 1.16101367078982e-04
1.20931818181818e+01 1.08848470324973e-02 1.13863653057757e-04
1.23777272727273e+01 1.05486915507212e-02 1.11638132860970e-04
1.26622727272727e+01 1.02229175189443e-02 1.09427168508181e-04
1.29468181818182e+01 9.90720432812250e-03 1.07232890265282e-04
1.32313636363636e+01 9.60124127290130e-03 1.05057216495527e-04
1.35159090909091e+01 9.30472723862683e-03 1.02901869765613e-04
1.38004545454545e+01 9.01737041445236e-03 1.00768392451712e-04
1.40850000000000e+01 8.73888799722116e-03 9.86581610554455e-05
1.43695454545455e+01 8.46900592159744e-03 9.65723991176459e-05
1.46540909090909e+01 8.20745858234689e-03 9.45121892968605e-05
1.49386363636364e+01 7.95398858051800e-03 9.24784842776190e-05
1.52231818181818e+01 7.70834646294548e-03 9.04721170096521e-05
1.55077272727273e+01 7.47029048355701e-03 8.84938099624306e-05
1.57922727272727e+01 7.23958635900549e-03 8.65441839679172e-05
1.60768181818182e+01 7.01600704284812e-03 8.46237655893506e-05
1.63613636363636e+01 6.79933250183111e-03 8.27329953214093e-05
1.66459090909091e+01 6.58934949524521e-03 8.08722338783355e-05
1.69304545454545e+01 6.38585137045145e-03 7.90417685728667e-05
1.72150000000000e+01 6.18863785438823e-03 7.72418192282473e-05
1.74995454545455e+01 5.99751486133595e-03 7.54725435185436e-05
1.77840909090909e+01 5.81229429728534e-03 7.37340420522409e-05
1.80686363636364e+01 5.63279387922215e-03 7.20263629613234e-05
1.83531818181818e+01 5.45883695155114e-03 7.03495062808032e-05
1.86377272727273e+01 5.29025231622201e-03 6.87034278985692e-05
1.89222727272727e+01 5.12687406045578e-03 6.70880434163450e-05
1.92068181818182e+01 4.96854139625661e-03 6.55032312218023e-05
1.94913636363636e+01 4.81509850201824e-03 6.39488362418767e-05
1.97759090909091e+01 4.66639436674737e-03 6.24246725893941e-05
2.00604545454545e+01 4.52228264463862e-03 6.09305263867603e-05
2.03450000000000e+01 4.38262150800681e-03 5.94661583909991e-05
2.06295454545455e+01 4.24727351060790e-03 5.80313063459609e-05
2.09140909090909e+01 4.11610544960636e-03 5.66256872528433e-05
2.11986363636364e+01 3.98898823712186e-03 5.52489993999759e-05
2.14831818181818e+01 3.86579677067140e-03 5.39009243265941e-05
2.17677272727273e+01 3.74640981245171e-03 5.25811285736592e-05
2.20522727272727e+01 3.63070986773131e-03 5.12892654356790e-05
2.23368181818182e+01 3.51858307091133e-03 5.00249762519664e-05
2.26213636363636e+01 3.40991907337283e-03 4.87878921947662e-05
2.29059090909091e+01 3.30461093340277e-03 4.75776353779253e-05
2.31904545454545e+01 3.20255501289110e-03 4.63938201248712e-05
2.34750000000000e+01 3.10365087347924e-03 4.52360541443501e-05
2.37595454545455e+01 3.00780117948794e-03 4.41039395639295e-05
2.40440909090909e+01 2.91491160042953e-03 4.29970739420949e-05
2.43286363636364e+01 2.82489071979330e-03 4.19150511534098e-05
2.46131818181818e+01 2.73764994352926e-03 4.08574622578058e-05
2.48977272727273e+01 2.65310341433982e-03 3.98238962564239e-05
2.51822727272727e+01 2.57116792576716e-03 3.88139408720072e-05
2.54668181818182e+01 2.49176284135326e-03 3.78271830475872e-05
2.57513636363636e+01 2.41481001522541e-03 3.68632097952418e-05
2.60359090909091e+01 2.34023371427412e-03 3.59216086142554e-05
2.63204545454545e+01 2.26796054482766e-03 3.50019680334033e-05
2.66050000000000e+01 2.19791937926693e-03 3.41038781085904e-05
2.68895454545455e+01 2.13004128713100e-03 3.32269308424603e-05
2.71740909090909e+01 2.06425946622124e-03 3.23707206041171e-05
2.74586363636364e+01 2.00050917787135e-03 3.15348444787543e-05
2.77431818181818e+01 1.93872768226494e-03 3.07189026192678e-05
2.80277272727273e+01 1.87885417761945e-03 2.99224985348498e-05
2.83122727272727e+01 1.82082973945848e-03 2.91452394070220e-05
2.85968181818182e+01 1.76459726328000e-03 2.83867362285871e-05
2.88813636363636e+01 1.71010140832207e-03 2.76466041862270e-05
2.91659090909091e+01 1.65728854252274e-03 2.69244627649522e-05
2.94504545454545e+01 1.60610669049940e-03 2.62199359444416e-05
2.97350000000000e+01 1.55650548166805e-03 2.55326523736076e-05
3.00195454545455e+01 1.50843610137036e-03 2.48622455010802e-05
3.03040909090909e+01 1.46185124216281e-03 2.42083537128830e-05
3.05886363636364e+01 1.41670505790165e-03 2.35706204303631e-05
3.08731818181818e+01 1.37295311800776e-03 2.29486942157884e-05
3.11577272727273e+01 1.33055236433093e-03 2.23422288420928e-05
3.14422727272727e+01 1.28946106820817e-03 2.17508833867205e-05
3.17268181818182e+01 1.24963878981589e-03 2.11743222121958e-05
3.20113636363636e+01 1.21104633834904e-03 2.06122151155598e-05
3.22959090909091e+01 1.17364573308377e-03 2.00642372958463e-05
3.25804545454545e+01 1.13740016648463e-03 1.95300693880742e-05
3.28650000000000e+01 1.10227396751455e-03 1.90093974868997e-05
3.31495454545455e+01 1.06823256697650e-03 1.85019131449635e-05
3.34340909090909e+01 1.03524246306324e-03 1.80073133799231e-05
3.37186363636364e+01 1.00327118879848e-03 1.75253006586310e-05
3.40031818181818e+01 9.72287279689410e-04 1.70555828899451e-05
3.42877272727273e+01 9.42260243140334e-04 1.65978733968937e-05
3.45722727272727e+01 9.13160528079470e-04 1.61518909082428e-05
3.48568181818182e+01 8.84959496146136e-04 1.57173594767460e-05
3.51413636363636e+01 8.57629393492218e-04 1.52940085143111e-05
3.54259090909091e+01 8.31143323231337e-04 1.48815727070689e-05
3.57104545454545e+01 8.05475219281520e-04 1.44797919780591e-05
3.59950000000000e+01 7.80599820411700e-04 1.40884114453759e-05
3.62795454545455e+01 7.56492645669714e-04 1.37071813656933e-05
3.65640909090909e+01 7.33129970012176e-04 1.33358570858737e-05
3.68486363636364e+01 7.10488801221902e-04 1.29741989813675e-05
3.71331818181818e+01 6.88546857024400e-04 1.26219724024663e-05
3.74177272727273e+01 6.67282543404592e-04 1.22789476086251e-05
3.77022727272727e+01 6.46674933119085e-04 1.19448997177687e-05
3.79868181818182e+01 6.26703745275727e-04 1.16196086077427e-05
3.82713636363636e+01 6.07349325365071e-04 1.13028588987428e-05
3.85559090909091e+01 5.88592625763540e-04 1.09944398559503e-05
3.88404545454545e+01 5.70415187191257e-04 1.06941453260587e-05
3.91250000000000e+01 5.52799120349895e-04 1.04017736721812e-05
3.94095454545455e+01 5.35727088504895e-04 1.01171277003190e-05
3.96940909090909e+01 5.19182290243009e-04 9.84001459264597e-06
3.99786363636364e+01 5.03148443110820e-04 9.57024583317902e-06
4.02631818181818e+01 4.87609767423602e-04 9.30763714000085e-06
4.05477272727273e+01 4.72550970896177e-04 9.05200839061318e-06
4.08322727272727e+01 4.57957233438907e-04 8.80318355859909e-06
4.11168181818182e+01 4.43814192686906e-04 8.56099061885452e-06
4.14013636363636e+01 4.30107929859415e-04 8.32526150896027e-06
4.16859090909091e+01 4.16824955961009e-04 8.09583203726810e-06
4.19704545454545e+01 4.03952198639583e-04 7.87254181503245e-06
4.22550000000000e+01 3.91476989193245e-04 7.65523418834269e-06
4.25395454545455e+01 3.79387050225551e-04 7.44375616522546e-06
4.28240909090909e+01 3.67670483444391e-04 7.23795834821664e-06
4.31086363636364e+01 3.56315758066167e-04 7.03769486258578e-06
4.33931818181818e+01 3.45311699358336e-04 6.84282328978694e-06
4.36777272727273e+01 3.34647477747147e-04 6.65320459699910e-06
4.39622727272727e+01 3.24312598058469e-04 6.46870307508306e-06
4.42468181818182e+01 3.14296889264163e-04 6.28918625579673e-06
4.45313636363636e+01 3.04590494468398e-04 6.11452486797862e-06
4.48159090909091e+01 2.95183861140798e-04 5.94459275800166e-06
4.51004545454545e+01 2.86067731802961e-04 5.77926682725948e-06
4.53850000000000e+01 2.77233134833465e-04 5.61842697008920e-06
4.56695454545455e+01 2.68671375719576e-04 5.46195600897578e-06
4.59540909090909e+01 2.60374028422555e-04 5.30973963401926e-06
4.62386363636364e+01 2.52332927160282e-04 5.16166633996554e-06
4.65231818181818e+01 2.44540158298692e-04 5.01762736729613e-06
4.68077272727273e+01 2.36988052633127e-04 4.87751664113725e-06
4.70922727272727e+01 2.29669177773810e-04 4.74123071637497e-06
4.73768181818182e+01 2.22576330880949e-04 4.60866870903291e-06
4.76613636363636e+01 2.15702531573518e-04 4.47973225473293e-06
4.79459090909091e+01 2.09041015015750e-04 4.35432544311884e-06
4.82304545454545e+01 2.02585225317491e-04 4.23235476433344e-06
4.85150000000000e+01 1.96328809026477e-04 4.11372905616542e-06
4.87995454545455e+01 1.90265608929295e-04 3.99835944970960e-06
4.90840909090909e+01 1.84389657940107e-04 3.88615931828738e-06
4.93686363636364e+01 1.78695173277918e-04 3.77704422504433e-06
4.96531818181818e+01 1.73176550727580e-04 3.67093187364467e-06
4.99377272727273e+01 1.67828359170539e-04 3.56774205779157e-06
5.02222727272727e+01 1.62645335195422e-04 3.46739661529505e-06
5.05068181818182e+01 1.57622377951038e-04 3.36981937301481e-06
5.07913636363636e+01 1.52754544124685e-04 3.27493611064922e-06
5.10759090909091e+01 1.48037043048130e-04 3.18267450830911e-06
5.13604545454545e+01 1.43465232021379e-04 3.09296410261867e-06
5.16450000000000e+01 1.39034611706519e-04 3.00573624351860e-06
5.19295454545455e+01 1.34740821735406e-04 2.92092405029454e-06
5.22140909090909e+01 1.30579636384054e-04 2.83846237006698e-06
5.24986363636364e+01 1.26546960447008e-04 2.75828773560048e-06
5.27831818181818e+01 1.22638825175185e-04 2.68033832544717e-06
5.30677272727273e+01 1.18851384400749e-04 2.60455392349421e-06
5.33522727272727e+01 1.15180910722347e-04 2.53087588182863e-06
5.36368181818182e+01 1.11623791858764e-04 2.45924707752701e-06
5.39213636363636e+01 1.08176527092779e-04 2.38961188257535e-06
5.42059090909091e+01 1.04835723806556e-04 2.32191612282500e-06
5.44904545454545e+01 1.01598094168480e-04 2.25610704297998e-06
5.47750000000000e+01 9.84604518727258e-05 2.19213327222866e-06
5.50595454545455e+01 9.54197090272887e-05 2.12994478950463e-06
5.53440909090909e+01 9.24728730920995e-05 2.06949289058935e-06
5.56286363636364e+01 8.96170439560356e-05 2.01073015489704e-06
5.59131818181818e+01 8.68494110614912e-05 1.95361041400383e-06
5.61977272727273e+01 8.41672506588979e-05 1.89808871990664e-06
5.64822727272727e+01 8.15679231063870e-05 1.84412131569372e-06
5.67668181818182e+01 7.90488702866803e-05 1.79166560216322e-06
5.70513636363636e+01 7.66076130887751e-05 1.74068011359980e-06
5.73359090909091e+01 7.42417489551643e-05 1.69112448612356e-06
5.76204545454545e+01 7.19489495345425e-05 1.64295943030527e-06
5.79050000000000e+01 6.97269583738202e-05 1.59614670433324e-06
5.81895454545455e+01 6.75735887133916e-05 1.55064908703301e-06
5.84740909090909e+01 6.54867213196764e-05 1.50643035225560e-06
5.87586363636364e+01 6.34643024142948e-05 1.46345524314735e-06
5.90431818181818e+01 6.15043416385769e-05 1.42168944771459e-06
5.93277272727273e+01 5.96049101085154e-05 1.38109957429543e-06
5.96122727272727e+01 5.77641385032043e-05 1.34165312878044e-06
5.98968181818182e+01 5.59802152350025e-05 1.30331848912691e-06
6.01813636363636e+01 5.42513846661630e-05 1.26606488626731e-06
6.04659090909091e+01 5.25759453723232e-05 1.22986237997713e-06
6.07504545454545e+01 5.09522484795813e-05 1.19468183776107e-06
6.10350000000000e+01 4.93786960306537e-05 1.16049491419234e-06
6.13195454545455e+01 4.78537394229616e-05 1.12727403022324e-06
6.16040909090909e+01 4.63758778742562e-05 1.09499235350709e-06
6.18886363636364e+01 4.49436569555818e-05 1.06362377870617e-06
6.21731818181818e+01 4.35556671503122e-05 1.03314290875585e-06
6.24577272727273e+01 4.22105424762293e-05 1.00352503612762e-06
6.27422727272727e+01 4.09069591322805e-05 9.74746125357719e-07
6.30268181818182e+01 3.96436342023904e-05 9.46782793766096e-07
6.33113636363636e+01 3.84193243925447e-05 9.19612296644176e-07
6.35959090909091e+01 3.72328248013499e-05 8.93212509016855e-07
6.38804545454545e+01 3.60829677419911e-05 8.67561909540418e-07
6.41650000000000e+01 3.49686215855794e-05 8.42639564762601e-07
6.44495454545455e+01 3.38886896546747e-05 8.18425113411953e-07
6.47340909090909e+01 3.28421091370419e-05 7.94898751431518e-07
6.50186363636364e+01 3.18278500463936e-05 7.72041217048545e-07
6.53031818181818e+01 3.08449142022678e-05 7.49833776547517e-07
6.55877272727273e+01 2.98923342539073e-05 7.28258210085023e-07
6.58722727272727e+01 2.89691727222334e-05 7.07296798419046e-07
6.61568181818182e+01 2.80745210816971e-05 6.86932308427123e-07
6.64413636363636e+01 2.72074988659287e-05 6.67147981750483e-07
6.67259090909091e+01 2.63672527972794e-05 6.47927521106998e-07
6.70104545454546e+01 2.55529559523044e-05 6.29255078115922e-07
6.72950000000000e+01 2.47638069429032e-05 6.11115241406519e-07
6.75795454545455e+01 2.39990291325035e-05 5.93493024780340e-07
6.78640909090909e+01 2.32578698670437e-05 5.76373855919337e-07
6.81486363636364e+01 2.25395997387786e-05 5.59743565150075e-07
6.84331818181818e+01 2.18435118640695e-05 5.43588374723423e-07
6.87177272727273e+01 2.11689211919191e-05 5.27894888152190e-07
6.90022727272727e+01 2.05151638257187e-05 5.12650080208589e-07
6.92868181818182e+01 1.98815963728967e-05 4.97841286110611e-07
6.95713636363636e+01 1.92675953115719e-05 4.83456192896899e-07
6.98559090909091e+01 1.86725563742459e-05 4.69482829213479e-07
7.01404545454545e+01 1.80958939566537e-05 4.55909556170772e-07
7.04250000000000e+01 1.75370405380307e-05 4.42725058420022e-07
7.07095454545454e+01 1.69954461258822e-05 4.29918335289592e-07
7.09940909090909e+01 1.64705777115340e-05 4.17478692320445e-07
7.12786363636364e+01 1.59619187486383e-05 4.05395732861664e-07
7.15631818181818e+01 1.54689686418607e-05 3.93659350042801e-07
7.18477272727273e+01 1.49912422570734e-05 3.82259718806157e-07
7.21322727272727e+01 1.45282694411607e-05 3.71187288414570e-07
7.24168181818182e+01 1.40795945613652e-05 3.60432774415878e-07
7.27013636363636e+01 1.36447760567741e-05 3.49987152140678e-07
7.29859090909091e+01 1.32233860019488e-05 3.39841649117097e-07
7.32704545454545e+01 1.28150096881817e-05 3.29987738243454e-07
7.35550000000000e+01 1.24192452130491e-05 3.20417131128635e-07
7.38395454545455e+01 1.20357030871123e-05 3.11121771489534e-07
7.41240909090909e+01 1.16640058484496e-05 3.02093828839694e-07
7.44086363636364e+01 1.13037876932569e-05 2.93325692234082e-07
7.46931818181818e+01 1.09546941138382e-05 2.84809964288690e-07
7.49777272727273e+01 1.06163815516530e-05 2.76539455255212e-07
7.52622727272727e+01 1.02885170573378e-05 2.68507177438129e-07
7.55468181818182e+01 9.97077796442307e-06 2.60706339247725e-07
7.58313636363636e+01 9.66285157171149e-06 2.53130340328098e-07
7.61159090909091e+01 9.36443483430612e-06 2.45772765946045e-07
7.64004545454546e+01 9.07523406699735e-06 2.38627381916743e-07
7.66850000000000e+01 8.79496465366334e-06 2.31688129656533e-07
7.69695454545455e+01 8.52335076868177e-06 2.24949121285922e-07
7.72540909090909e+01 8.26012510401467e-06 2.18404634944629e-07
7.75386363636364e+01 8.00502860754968e-06 2.12049110155521e-07
7.78231818181818e+01 7.75781022679294e-06 2.05877143388564e-07
7.81077272727273e+01 7.51822666311132e-06 1.99883483672309e-07
7.83922727272727e+01 7.28604213102240e-06 1.94063028451714e-07
7.86768181818182e+01 7.06102812709033e-06 1.88410819202002e-07
7.89613636363636e+01 6.84296320499718e-06 1.82922037796707e-07
7.92459090909091e+01 6.63163275677211e-06 1.77592002370871e-07
7.95304545454545e+01 6.42682880269257e-06 1.72416163564544e-07
7.98150000000000e+01 6.22834978553375e-06 1.67390100861917e-07
8.00995454545454e+01 6.03600037323778e-06 1.62509518972654e-07
8.03840909090909e+01 5.84959126568350e-06 1.57770244367330e-07
8.06686363636364e+01 5.66893900934789e-06 1.53168221853664e-07
8.09531818181818e+01 5.49386581583405e-06 1.48699511298077e-07
8.12377272727273e+01 5.32419938779625e-06 1.44360284386656e-07
8.15222727272727e+01 5.15977274851054e-06 1.40146821563223e-07
8.18068181818182e+01 5.00042407818745e-06 1.36055508803942e-07
8.20913636363636e+01 4.84599655468505e-06 1.32082834921360e-07
8.23759090909091e+01 4.69633819860429e-06 1.28225388523392e-07
8.26604545454545e+01 4.55130172447280e-06 1.24479855241794e-07
8.29450000000000e+01 4.41074439506695e-06 1.20843015032166e-07
8.32295454545455e+01 4.27452788163991e-06 1.17311739508346e-07
8.35140909090909e+01 4.14251812710799e-06 1.13882989388616e-07
8.37986363636364e+01 4.01458521477345e-06 1.10553811974979e-07
8.40831818181818e+01 3.89060323983564e-06 1.07321338737871e-07
8.43677272727273e+01 3.77045018609229e-06 1.04182782932664e-07
8.46522727272727e+01 3.65400780526892e-06 1.01135437343410e-07
8.49368181818182e+01 3.54116150108312e-06 9.81766719171172e-08
8.52213636363636e+01 3.43180021644290e-06 9.53039317698643e-08
8.55059090909091e+01 3.32581632376231e-06 9.25147349569469e-08
8.57904545454546e+01 3.22310551955434e-06 8.98066704340231e-08
8.60750000000000e+01 3.12356672128472e-06 8.71773960715207e-08
8.63595454545455e+01 3.02710196837114e-06 8.46246366964285e-08
8.66440909090909e+01 2.93361632531309e-06 8.21461822151246e-08
8.69286363636364e+01 2.84301778870820e-06 7.97398857624537e-08
8.72131818181818e+01 2.75521719627616e-06 7.74036619271997e-08
8.74977272727273e+01 2.67012813952644e-06 7.51354850027061e-08
8.77822727272727e+01 2.58766687831769e-06 7.29333873288675e-08
8.80668181818182e+01 2.50775225874419e-06 7.07954575608323e-08
8.83513636363636e+01 2.43030563325343e-06 6.87198391990139e-08
8.86359090909091e+01 2.35525078298044e-06 6.67047289576422e-08
8.89204545454545e+01 2.28251384308850e-06 6.47483752687047e-08
8.92050000000000e+01 2.21202322973629e-06 6.28490768253893e-08
8.94895454545454e+01 2.14370956995630e-06 6.10051811469817e-08
8.97740909090909e+01 2.07750563306566e-06 5.92150832024229e-08
