Energy (eV)          EEDF (eV^-(3/2))     First Anisotropy
9.12280701754386e-05 2.15128350894073e+02 4.03293267196870e-02
2.73684210526316e-04 2.13829409631958e+02 6.66180878977982e-02
4.56140350877193e-04 2.12538311354686e+02 8.80041296955885e-02
6.38596491228070e-04 2.11255008706847e+02 1.04288279751076e-01
8.21052631578947e-04 2.09979454618314e+02 1.17900132768772e-01
1.00350877192982e-03 2.08711602303186e+02 1.29757162860268e-01
1.18596491228070e-03 2.07451405258783e+02 1.40333612496099e-01
1.36842105263158e-03 2.06198817262349e+02 1.49915538049606e-01
1.55087719298246e-03 2.04953792370580e+02 1.58692444542181e-01
1.73333333333333e-03 2.03716284917578e+02 1.66798120755313e-01
1.91578947368421e-03 2.02486249513177e+02 1.74331493925158e-01
2.09824561403509e-03 2.01263641041274e+02 1.81368342179810e-01
2.28070175438596e-03 2.00048414658180e+02 1.87968352972685e-01
2.46315789473684e-03 1.98840525790969e+02 1.94179615468106e-01
2.64561403508772e-03 1.97639930135845e+02 2.00041607153591e-01
2.82807017543860e-03 1.96446583655905e+02 2.05587252214900e-01
3.01052631578947e-03 1.95260442581414e+02 2.10844382352254e-01
3.19298245614035e-03 1.94081463406252e+02 2.15836800344032e-01
3.37543859649123e-03 1.92909602886991e+02 2.20585072241637e-01
3.55789473684211e-03 1.91744818041305e+02 2.25107127753995e-01
3.74035087719298e-03 1.90587066146397e+02 2.29418723385031e-01
3.92280701754386e-03 1.89436304737429e+02 2.33533804922743e-01
4.10526315789474e-03 1.88292491605965e+02 2.37464794912329e-01
4.28771929824561e-03 1.87155584798424e+02 2.41222823348579e-01
4.47017543859649e-03 1.86025542614539e+02 2.44817914789315e-01
4.65263157894737e-03 1.84902323605830e+02 2.48259141599869e-01
4.83508771929825e-03 1.83785886574082e+02 2.51554750573189e-01
5.01754385964912e-03 1.82676190569834e+02 2.54712268401136e-01
5.20000000000000e-03 1.81573194890877e+02 2.57738590185434e-01
5.38245614035088e-03 1.80476859080763e+02 2.60640054227359e-01
5.56491228070175e-03 1.79387142927316e+02 2.63422505625848e-01
5.74736842105263e-03 1.78304006461164e+02 2.66091350678317e-01
5.92982456140351e-03 1.77227409954268e+02 2.68651603670635e-01
6.11228070175439e-03 1.76157313918467e+02 2.71107927327819e-01
6.29473684210526e-03 1.75093679104028e+02 2.73464667952107e-01
6.47719298245614e-03 1.74036466498207e+02 2.75725886083626e-01
6.65964912280702e-03 1.72985637323821e+02 2.77895383367321e-01
6.84210526315790e-03 1.71941153037819e+02 2.79976726189250e-01
7.02456140350877e-03 1.70902975329875e+02 2.81973266548782e-01
7.20701754385965e-03 1.69871066120980e+02 2.83888160555305e-01
7.38947368421053e-03 1.68845387562043e+02 2.85724384874772e-01
7.57192982456140e-03 1.67825902032510e+02 2.87484751399758e-01
7.75438596491228e-03 1.66812572138973e+02 2.89171920308761e-01
7.93684210526316e-03 1.65805360713629e+02 2.90788412039008e-01
8.11929824561403e-03 1.64804230813458e+02 2.92336617753247e-01
8.30175438596491e-03 1.63809145718317e+02 2.93818808757454e-01
8.48421052631579e-03 1.62820068929777e+02 2.95237145346963e-01
8.66666666666667e-03 1.61836964169786e+02 2.96593684571380e-01
8.84912280701754e-03 1.60859795379338e+02 2.97890387350323e-01
9.03157894736842e-03 1.59888526717152e+02 2.99129124951697e-01
9.21403508771930e-03 1.58923122558355e+02 3.00311684901856e-01
9.39649122807018e-03 1.57963547493177e+02 3.01439776388105e-01
9.57894736842105e-03 1.57009766325650e+02 3.02515035206585e-01
9.76140350877193e-03 1.56061744072322e+02 3.03539028302095e-01
9.94385964912281e-03 1.55119445960966e+02 3.04513258047748e-01
1.01263157894737e-02 1.54182837429574e+02 3.05439165444836e-01
1.03087719298246e-02 1.53251884123516e+02 3.06318135053580e-01
1.04912280701754e-02 1.52326551897944e+02 3.07151497419626e-01
1.06736842105263e-02 1.51406806812835e+02 3.07940530605719e-01
1.08561403508772e-02 1.50492615131916e+02 3.08686466057348e-01
1.10385964912281e-02 1.49583943325034e+02 3.09390489138558e-01
1.12210526315789e-02 1.48680758062111e+02 3.10053741998577e-01
1.14035087719298e-02 1.47783026216652e+02 3.10677326388930e-01
1.15859649122807e-02 1.46890714860985e+02 3.11262303744336e-01
1.17684210526316e-02 1.46003791265203e+02 3.11809700084763e-01
1.19508771929825e-02 1.45122222899178e+02 3.12320505914954e-01
1.21333333333333e-02 1.44245977427079e+02 3.12795678352069e-01
1.23157894736842e-02 1.43375022710402e+02 3.13236143244534e-01
1.24982456140351e-02 1.42509326803633e+02 3.13642794792181e-01
1.26807017543860e-02 1.41648857953193e+02 3.14016499697373e-01
1.28631578947368e-02 1.40793584599173e+02 3.14358096683286e-01
1.30456140350877e-02 1.39943475370312e+02 3.14668398129039e-01
1.32280701754386e-02 1.39098499086647e+02 3.14948191717211e-01
1.34105263157895e-02 1.38258624755523e+02 3.15198239778483e-01
1.35929824561404e-02 1.37423821570556e+02 3.15419282894826e-01
1.37754385964912e-02 1.36594058913129e+02 3.15612039189074e-01
1.39578947368421e-02 1.35769306347767e+02 3.15777205620050e-01
1.41403508771930e-02 1.34949533624471e+02 3.15915459300774e-01
1.43228070175439e-02 1.34134710675021e+02 3.16027456680322e-01
1.45052631578947e-02 1.33324807611967e+02 3.16113836731254e-01
1.46877192982456e-02 1.32519794729915e+02 3.16175220104591e-01
1.48701754385965e-02 1.31719642501260e+02 3.16212210182803e-01
1.50526315789474e-02 1.30924321578230e+02 3.16225394160749e-01
1.52350877192982e-02 1.30133802789472e+02 3.16215342135082e-01
1.54175438596491e-02 1.29348057139050e+02 3.16182609965496e-01
1.56000000000000e-02 1.28567055807562e+02 3.16127738354484e-01
1.57824561403509e-02 1.27790770148183e+02 3.16051253723012e-01
1.59649122807018e-02 1.27019171688471e+02 3.15953668763932e-01
1.61473684210526e-02 1.26252232126506e+02 3.15835482888160e-01
1.63298245614035e-02 1.25489923332627e+02 3.15697183075462e-01
1.65122807017544e-02 1.24732217346322e+02 3.15539242897113e-01
1.66947368421053e-02 1.23979086375271e+02 3.15362125033711e-01
1.68771929824561e-02 1.23230502796255e+02 3.15166280301489e-01
1.70596491228070e-02 1.22486439151568e+02 3.14952148353786e-01
1.72421052631579e-02 1.21746868150551e+02 3.14720158410861e-01
1.74245614035088e-02 1.21011762666687e+02 3.14470728273764e-01
1.76070175438596e-02 1.20281095736665e+02 3.14204266637637e-01
1.77894736842105e-02 1.19554840561165e+02 3.13921172113472e-01
1.79719298245614e-02 1.18832970501510e+02 3.13621833837120e-01
1.81543859649123e-02 1.18115459081022e+02 3.13306632104404e-01
1.83368421052632e-02 1.17402279982303e+02 3.12975937391842e-01
1.85192982456140e-02 1.16693407046318e+02 3.12630112495875e-01
1.87017543859649e-02 1.15988814273079e+02 3.12269511563671e-01
1.88842105263158e-02 1.15288475818500e+02 3.11894480629074e-01
1.90666666666667e-02 1.14592365995611e+02 3.11505358172178e-01
1.92491228070175e-02 1.13900459271997e+02 3.11102474156943e-01
1.94315789473684e-02 1.13212730268910e+02 3.10686152019919e-01
1.96140350877193e-02 1.12529153761851e+02 3.10256707718946e-01
1.97964912280702e-02 1.11849704677624e+02 3.09814450210225e-01
1.99789473684211e-02 1.11174358095413e+02 3.09359681946622e-01
2.01614035087719e-02 1.10503089244375e+02 3.08892697938671e-01
2.03438596491228e-02 1.09835873502768e+02 3.08413787611223e-01
2.05263157894737e-02 1.09172686398455e+02 3.07923233875785e-01
2.07087719298246e-02 1.08513503606135e+02 3.07421313559400e-01
2.08912280701754e-02 1.07858300948298e+02 3.06908297852403e-01
2.10736842105263e-02 1.07207054392951e+02 3.06384451396791e-01
2.12561403508772e-02 1.06559740052781e+02 3.05850034025715e-01
2.14385964912281e-02 1.05916334185574e+02 3.05305299863055e-01
2.16210526315789e-02 1.05276813191612e+02 3.04750497712083e-01
2.18035087719298e-02 1.04641153614520e+02 3.04185871461211e-01
2.19859649122807e-02 1.04009332139123e+02 3.03611659201793e-01
2.21684210526316e-02 1.03381325590624e+02 3.03028094862618e-01
2.23508771929825e-02 1.02757110934964e+02 3.02435407339104e-01
2.25333333333333e-02 1.02136665276363e+02 3.01833820847816e-01
2.27157894736842e-02 1.01519965858075e+02 3.01223555296618e-01
2.28982456140351e-02 1.00906990060360e+02 3.00604825433243e-01
2.30807017543860e-02 1.00297715399684e+02 2.99977842384978e-01
2.32631578947368e-02 9.96921195290198e+01 2.99342812818343e-01
2.34456140350877e-02 9.90901802355293e+01 2.98699939264505e-01
2.36280701754386e-02 9.84918754412287e+01 2.98049420458970e-01
2.38105263157895e-02 9.78971832010695e+01 2.97391450521346e-01
2.39929824561404e-02 9.73060817021597e+01 2.96726220408718e-01
2.41754385964912e-02 9.67185492640159e+01 2.96053917106203e-01
2.43578947368421e-02 9.61345643363668e+01 2.95374723927256e-01
2.45403508771930e-02 9.55541054997473e+01 2.94688820826930e-01
2.47228070175439e-02 9.49771514636759e+01 2.93996383612740e-01
2.49052631578947e-02 9.44036810658984e+01 2.93297585319108e-01
2.50877192982456e-02 9.38336732725938e+01 2.92592595428630e-01
2.52701754385965e-02 9.32671071762948e+01 2.91881580150426e-01
2.54526315789474e-02 9.27039619964140e+01 2.91164702710330e-01
2.56350877192982e-02 9.21442170775128e+01 2.90442122592377e-01
2.58175438596491e-02 9.15878518885662e+01 2.89713996840728e-01
2.60000000000000e-02 9.10348460231292e+01 2.88980479311098e-01
2.61824561403509e-02 9.04851791973634e+01 2.88241720929785e-01
2.63649122807018e-02 8.99388312505043e+01 2.87497869768926e-01
2.65473684210526e-02 8.93957821429241e+01 2.86749071095818e-01
2.67298245614035e-02 8.88560119565806e+01 2.85995467636205e-01
2.69122807017544e-02 8.83195008934001e+01 2.85237198854588e-01
2.70947368421053e-02 8.77862292745715e+01 2.84474402167652e-01
2.72771929824561e-02 8.72561775406659e+01 2.83707212233736e-01
2.74596491228070e-02 8.67293262497980e+01 2.82935761189462e-01
2.76421052631579e-02 8.62056560780224e+01 2.82160178895494e-01
2.78245614035088e-02 8.56851478177931e+01 2.81380592246031e-01
2.80070175438597e-02 8.51677823772785e+01 2.80597126321511e-01
2.81894736842105e-02 8.46535407804505e+01 2.79809903706473e-01
2.83719298245614e-02 8.41424041653361e+01 2.79019044711580e-01
2.85543859649123e-02 8.36343537843666e+01 2.78224667603555e-01
2.87368421052632e-02 8.31293710029101e+01 2.77426887942887e-01
2.89192982456140e-02 8.26274372986055e+01 2.76625819680044e-01
2.91017543859649e-02 8.21285342614248e+01 2.75821574500666e-01
2.92842105263158e-02 8.16326435920090e+01 2.75014262034469e-01
2.94666666666667e-02 8.11397471019753e+01 2.74203990070906e-01
2.96491228070175e-02 8.06498267125173e+01 2.73390863924011e-01
2.98315789473684e-02 8.01628644537577e+01 2.72574987475833e-01
3.00140350877193e-02 7.96788424647867e+01 2.71756462548021e-01
3.01964912280702e-02 7.91977429920775e+01 2.70935389098732e-01
3.03789473684211e-02 7.87195483897546e+01 2.70111865425402e-01
3.05614035087719e-02 7.82442411182582e+01 2.69285987555672e-01
3.07438596491228e-02 7.77718037437148e+01 2.68457850241365e-01
3.09263157894737e-02 7.73022189379547e+01 2.67627546355493e-01
3.11087719298246e-02 7.68354694770019e+01 2.66795167078192e-01
3.12912280701754e-02 7.63715382413073e+01 2.65960802087794e-01
3.14736842105263e-02 7.59104082144729e+01 2.65124538976687e-01
3.16561403508772e-02 7.54520624826410e+01 2.64286464198923e-01
3.18385964912281e-02 7.49964842344925e+01 2.63446662491687e-01
3.20210526315790e-02 7.45436567598058e+01 2.62605217051122e-01
3.22035087719298e-02 7.40935634496601e+01 2.61762209712718e-01
3.23859649122807e-02 7.36461877952146e+01 2.60917720391016e-01
3.25684210526316e-02 7.32015133871162e+01 2.60071827983657e-01
3.27508771929825e-02 7.27595239154799e+01 2.59224609816337e-01
3.29333333333333e-02 7.23202031685150e+01 2.58376141809329e-01
3.31157894736842e-02 7.18835350326979e+01 2.57526498648002e-01
3.32982456140351e-02 7.14495034916062e+01 2.56675753245387e-01
3.34807017543860e-02 7.10180926253424e+01 2.55823977605256e-01
3.36631578947368e-02 7.05892866105003e+01 2.54971242289507e-01
3.38456140350877e-02 7.01630697188517e+01 2.54117616576098e-01
3.40280701754386e-02 6.97394263174949e+01 2.53263168620521e-01
3.42105263157895e-02 6.93183408677379e+01 2.52407964940204e-01
3.43929824561404e-02 6.88997979245395e+01 2.51552071238928e-01
3.45754385964912e-02 6.84837821364617e+01 2.50695551895785e-01
3.47578947368421e-02 6.80702782444154e+01 2.49838470115067e-01
3.49403508771930e-02 6.76592710817850e+01 2.48980888079376e-01
3.51228070175439e-02 6.72507455733597e+01 2.48122866454951e-01
3.53052631578947e-02 6.68446867347901e+01 2.47264465179551e-01
3.54877192982456e-02 6.64410796725296e+01 2.46405742972082e-01
3.56701754385965e-02 6.60399095826342e+01 2.45546757475009e-01
3.58526315789474e-02 6.56411617508669e+01 2.44687565399699e-01
3.60350877192982e-02 6.52448215516734e+01 2.43828222051760e-01
3.62175438596491e-02 6.48508744476546e+01 2.42968782084373e-01
3.64000000000000e-02 6.44593059894975e+01 2.42109299027667e-01
3.65824561403509e-02 6.40701018148273e+01 2.41249825424198e-01
3.67649122807018e-02 6.36832476482926e+01 2.40390412850214e-01
3.69473684210526e-02 6.32987293004358e+01 2.39531111927541e-01
3.71298245614035e-02 6.29165326677722e+01 2.38671972459353e-01
3.73122807017544e-02 6.25366437318242e+01 2.37813042980764e-01
3.74947368421053e-02 6.21590485586149e+01 2.36954371468646e-01
3.76771929824561e-02 6.17837332985879e+01 2.36096004895897e-01
3.78596491228070e-02 6.14106841855253e+01 2.35237989358409e-01
3.80421052631579e-02 6.10398875366117e+01 2.34380370204177e-01
3.82245614035088e-02 6.06713297515057e+01 2.33523191602051e-01
3.84070175438596e-02 6.03049973118501e+01 2.32666497221092e-01
3.85894736842105e-02 5.99408767811833e+01 2.31810329802601e-01
3.87719298245614e-02 5.95789548039032e+01 2.30954731281228e-01
3.89543859649123e-02 5.92192181053154e+01 2.30099742907846e-01
3.91368421052632e-02 5.88616534907437e+01 2.29245404835602e-01
3.93192982456140e-02 5.85062478450531e+01 2.28391756770420e-01
3.95017543859649e-02 5.81529881325554e+01 2.27538837560047e-01
3.96842105263158e-02 5.78018613960164e+01 2.26686685309620e-01
3.98666666666667e-02 5.74528547566900e+01 2.25835337498671e-01
4.00491228070175e-02 5.71059554134647e+01 2.24984830583789e-01
4.02315789473684e-02 5.67611506424006e+01 2.24135200621678e-01
4.04140350877193e-02 5.64184277966291e+01 2.23286482874459e-01
4.05964912280702e-02 5.60777743054010e+01 2.22438711920067e-01
4.07789473684211e-02 5.57391776741090e+01 2.21591921763755e-01
4.09614035087719e-02 5.54026254834669e+01 2.20746145456574e-01
4.11438596491228e-02 5.50681053890615e+01 2.19901415692409e-01
4.13263157894737e-02 5.47356051212463e+01 2.19057764428841e-01
4.15087719298246e-02 5.44051124842294e+01 2.18215222992637e-01
4.16912280701754e-02 5.40766153560840e+01 2.17373822186075e-01
4.18736842105263e-02 5.37501016879608e+01 2.16533591920591e-01
4.20561403508772e-02 5.34255595036525e+01 2.15694561789027e-01
4.22385964912281e-02 5.31029768994834e+01 2.14856760701400e-01
4.24210526315789e-02 5.27823420434344e+01 2.14020216985768e-01
4.26035087719298e-02 5.24636431751436e+01 2.13184958489694e-01
4.27859649122807e-02 5.21468686051493e+01 2.12351012228353e-01
4.29684210526316e-02 5.18320067144671e+01 2.11518404933215e-01
4.31508771929825e-02 5.15190459544764e+01 2.10687162702092e-01
4.33333333333333e-02 5.12079748460803e+01 2.09857311095572e-01
4.35157894736842e-02 5.08987819796973e+01 2.09028875233994e-01
4.36982456140351e-02 5.05914560145335e+01 2.08201879459346e-01
4.38807017543860e-02 5.02859856781725e+01 2.07376347861475e-01
4.40631578947368e-02 4.99823597664583e+01 2.06552303941849e-01
4.42456140350877e-02 4.96805671426893e+01 2.05729770705796e-01
4.44280701754386e-02 4.93805967376017e+01 2.04908770755202e-01
4.46105263157895e-02 4.90824375486695e+01 2.04089325963609e-01
4.47929824561403e-02 4.87860786397066e+01 2.03271457981014e-01
4.49754385964912e-02 4.84915091407475e+01 2.02455187910818e-01
4.51578947368421e-02 4.81987182472729e+01 2.01640536398042e-01
4.53403508771930e-02 4.79076952201859e+01 2.00827523717943e-01
4.55228070175439e-02 4.76184293851388e+01 2.00016169463841e-01
4.57052631578947e-02 4.73309101321469e+01 1.99206493031475e-01
4.58877192982456e-02 4.70451269154670e+01 1.98398513308499e-01
4.60701754385965e-02 4.67610692528540e+01 1.97592248758959e-01
4.62526315789474e-02 4.64787267255298e+01 1.96787717508056e-01
4.64350877192982e-02 4.61980889775363e+01 1.95984937042101e-01
4.66175438596491e-02 4.59191457153602e+01 1.95183924673385e-01
4.68000000000000e-02 4.56418867078102e+01 1.94384697241716e-01
4.69824561403509e-02 4.53663017853022e+01 1.93587271195358e-01
4.71649122807018e-02 4.50923808398231e+01 1.92791662598989e-01
4.73473684210526e-02 4.48201138242261e+01 1.91997887137829e-01
4.75298245614035e-02 4.45494907521929e+01 1.91205960197545e-01
4.77122807017544e-02 4.42805016976200e+01 1.90415896579690e-01
4.78947368421053e-02 4.40131367942586e+01 1.89627710941696e-01
4.80771929824561e-02 4.37473862355910e+01 1.88841417513714e-01
4.82596491228070e-02 4.34832402741535e+01 1.88057030175081e-01
4.84421052631579e-02 4.32206892214937e+01 1.87274562530785e-01
4.86245614035088e-02 4.29597234475793e+01 1.86494027637883e-01
4.88070175438596e-02 4.27003333804488e+01 1.85715438428084e-01
4.89894736842105e-02 4.24425095060872e+01 1.84938807435395e-01
4.91719298245614e-02 4.21862423677754e+01 1.84164146869461e-01
4.93543859649123e-02 4.19315225660419e+01 1.83391468688781e-01
4.95368421052632e-02 4.16783407580947e+01 1.82620784337669e-01
4.97192982456140e-02 4.14266876574817e+01 1.81852105152137e-01
4.99017543859649e-02 4.11765540339662e+01 1.81085442097940e-01
5.00842105263158e-02 4.09279307129008e+01 1.80320805840938e-01
5.02666666666667e-02 4.06808085751762e+01 1.79558206817213e-01
5.04491228070175e-02 4.04351785566725e+01 1.78797654980119e-01
5.06315789473684e-02 4.01910316479309e+01 1.78039160190231e-01
5.08140350877193e-02 3.99483588940289e+01 1.77282731963363e-01
5.09964912280702e-02 3.97071513939773e+01 1.76528379538078e-01
5.11789473684211e-02 3.94674003006660e+01 1.75776111942838e-01
5.13614035087719e-02 3.92290968203357e+01 1.75025937752763e-01
5.15438596491228e-02 3.89922322122586e+01 1.74277865464317e-01
5.17263157894737e-02 3.87567977886143e+01 1.73531903252872e-01
5.19087719298246e-02 3.85227849139095e+01 1.72788059037526e-01
5.20912280701754e-02 3.82901850049202e+01 1.72046340545475e-01
5.22736842105263e-02 3.80589895301835e+01 1.71306755077987e-01
5.24561403508772e-02 3.78291900096870e+01 1.70569309870529e-01
5.26385964912281e-02 3.76007780147454e+01 1.69834011859528e-01
5.28210526315789e-02 3.73737451674419e+01 1.69100867744552e-01
5.30035087719298e-02 3.71480831405682e+01 1.68369884050040e-01
5.31859649122807e-02 3.69237836571336e+01 1.67641066900180e-01
5.33684210526316e-02 3.67008384900647e+01 1.66914422365065e-01
5.35508771929825e-02 3.64792394620822e+01 1.66189956236239e-01
5.37333333333333e-02 3.62589784451628e+01 1.65467674086402e-01
5.39157894736842e-02 3.60400473604773e+01 1.64747581328652e-01
5.40982456140351e-02 3.58224381779173e+01 1.64029682999836e-01
5.42807017543860e-02 3.56061429158037e+01 1.63313984093333e-01
5.44631578947368e-02 3.53911536407642e+01 1.62600489343089e-01
5.46456140350877e-02 3.51774624672155e+01 1.61889203280944e-01
5.48280701754386e-02 3.49650615572989e+01 1.61180130293449e-01
5.50105263157895e-02 3.47539431204244e+01 1.60473274413370e-01
5.51929824561403e-02 3.45440994129878e+01 1.59768639639732e-01
5.53754385964912e-02 3.43355227382486e+01 1.59066229729915e-01
5.55578947368421e-02 3.41282054458321e+01 1.58366048254717e-01
5.57403508771930e-02 3.39221399316626e+01 1.57668098652900e-01
5.59228070175439e-02 3.37173186375243e+01 1.56972384030519e-01
5.61052631578947e-02 3.35137340507864e+01 1.56278907468673e-01
5.62877192982456e-02 3.33113787042824e+01 1.55587671823455e-01
5.64701754385965e-02 3.31102451758303e+01 1.54898679778794e-01
5.66526315789474e-02 3.29103260881644e+01 1.54211933898813e-01
5.68350877192982e-02 3.27116141085117e+01 1.53527436434692e-01
5.70175438596491e-02 3.25141019483257e+01 1.52845189620690e-01
5.72000000000000e-02 3.23177823631662e+01 1.52165195481544e-01
5.73824561403509e-02 3.21226481522373e+01 1.51487455883226e-01
5.75649122807018e-02 3.19286921583182e+01 1.50811972536359e-01
