Energy (eV)          EEDF (eV^-(3/2))     First Anisotropy
2.30681818181818e-02 7.88635714427471e-02 4.45421931363799e-05
6.92045454545454e-02 7.82470036249405e-02 7.35114323142968e-05
1.15340909090909e-01 7.76352562306935e-02 9.69364833657625e-05
1.61477272727273e-01 7.70282915736218e-02 1.14667725504504e-04
2.07613636363636e-01 7.64260722605017e-02 1.29402144737684e-04
2.53750000000000e-01 7.58285611950086e-02 1.42160848612147e-04
2.99886363636364e-01 7.52357215642475e-02 1.53472955669280e-04
3.46022727272727e-01 7.46475168482417e-02 1.63658394295104e-04
3.92159090909091e-01 7.40639108087021e-02 1.72929615001846e-04
4.38295454545455e-01 7.34848674925224e-02 1.81436961328169e-04
4.84431818181818e-01 7.29103512289853e-02 1.89291864227908e-04
5.30568181818182e-01 7.23403266236330e-02 1.96579880219038e-04
5.76704545454545e-01 7.17747585599996e-02 2.03368555978580e-04
6.22840909090909e-01 7.12136121971661e-02 2.09712439224833e-04
6.68977272727273e-01 7.06568529646256e-02 2.15656412599227e-04
7.15113636363636e-01 7.01044465631275e-02 2.21237992895190e-04
7.61250000000000e-01 6.95563589623570e-02 2.26488965556740e-04
8.07386363636364e-01 6.90125563964846e-02 2.31436575284659e-04
8.53522727272727e-01 6.84730053651036e-02 2.36104413210466e-04
8.99659090909091e-01 6.79376726284077e-02 2.40513090486782e-04
9.45795454545455e-01 6.74065252071184e-02 2.44680757895776e-04
9.91931818181818e-01 6.68795303803468e-02 2.48623513547290e-04
1.03806818181818e+00 6.63566556819146e-02 2.52355725771961e-04
1.08420454545455e+00 6.58378689019068e-02 2.55890293727374e-04
1.13034090909091e+00 6.53231380756204e-02 2.59238856713111e-04
1.17647727272727e+00 6.48124314976617e-02 2.62411967667626e-04
1.22261363636364e+00 6.43057177056015e-02 2.65419238024634e-04
1.26875000000000e+00 6.38029654791481e-02 2.68269453572996e-04
1.31488636363636e+00 6.33041438501841e-02 2.70970676785279e-04
1.36102272727273e+00 6.28092220848628e-02 2.73530331032696e-04
1.40715909090909e+00 6.23181696972100e-02 2.75955272110555e-04
1.45329545454545e+00 6.18309564356658e-02 2.78251851998219e-04
1.49943181818182e+00 6.13475522820013e-02 2.80425969031137e-04
1.54556818181818e+00 6.08679274593294e-02 2.82483115414311e-04
1.59170454545455e+00 6.03920524201066e-02 2.84428418577265e-04
1.63784090909091e+00 5.99198978449864e-02 2.86266673361481e-04
1.68397727272727e+00 5.94514346497306e-02 2.88002374070800e-04
1.73011363636364e+00 5.89866339744470e-02 2.89639742727709e-04
1.77625000000000e+00 5.85254671823368e-02 2.91182750379658e-04
1.82238636363636e+00 5.80679058657500e-02 2.92635139951863e-04
1.86852272727273e+00 5.76139218339975e-02 2.94000444721853e-04
1.91465909090909e+00 5.71634871217946e-02 2.95282004707724e-04
1.96079545454545e+00 5.67165739799225e-02 2.96482983325384e-04
2.00693181818182e+00 5.62731548739249e-02 2.97606378597923e-04
2.05306818181818e+00 5.58332024891330e-02 2.98655036531349e-04
2.09920454545455e+00 5.53966897221000e-02 2.99631663210644e-04
2.14534090909091e+00 5.49635896792999e-02 3.00538832585793e-04
2.19147727272727e+00 5.45338756815613e-02 3.01378996626815e-04
2.23761363636364e+00 5.41075212561924e-02 3.02154494572939e-04
2.28375000000000e+00 5.36845001356517e-02 3.02867558379487e-04
2.32988636363636e+00 5.32647862615002e-02 3.03520320921644e-04
2.37602272727273e+00 5.28483537753662e-02 3.04114821965942e-04
2.42215909090909e+00 5.24351770246267e-02 3.04653013564510e-04
2.46829545454545e+00 5.20252305553821e-02 3.05136766624603e-04
2.51443181818182e+00 5.16184891111344e-02 3.05567873874716e-04
2.56056818181818e+00 5.12149276361347e-02 3.05948055302917e-04
2.60670454545455e+00 5.08145212688372e-02 3.06278963185419e-04
2.65284090909091e+00 5.04172453405961e-02 3.06562184121414e-04
2.69897727272727e+00 5.00230753786566e-02 3.06799243482577e-04
2.74511363636364e+00 4.96319871000486e-02 3.06991609545562e-04
2.79125000000000e+00 4.92439564102825e-02 3.07140694848285e-04
2.83738636363636e+00 4.88589594060425e-02 3.07247860147727e-04
2.88352272727273e+00 4.84769723681449e-02 3.07314416817329e-04
2.92965909090909e+00 4.80979717655423e-02 3.07341629018877e-04
2.97579545454545e+00 4.77219342497825e-02 3.07330717077115e-04
3.02193181818182e+00 4.73488366537321e-02 3.07282858055384e-04
3.06806818181818e+00 4.69786559938843e-02 3.07199188566208e-04
3.11420454545455e+00 4.66113694651424e-02 3.07080807406919e-04
3.16034090909091e+00 4.62469544395687e-02 3.06928775830719e-04
3.20647727272727e+00 4.58853884684595e-02 3.06744119966150e-04
3.25261363636364e+00 4.55266492774338e-02 3.06527833092407e-04
3.29875000000000e+00 4.51707147651921e-02 3.06280875681826e-04
3.34488636363636e+00 4.48175630053954e-02 3.06004177725172e-04
3.39102272727273e+00 4.44671722409955e-02 3.05698639827912e-04
3.43715909090909e+00 4.41195208871405e-02 3.05365134193000e-04
3.48329545454545e+00 4.37745875266660e-02 3.05004506689645e-04
3.52943181818182e+00 4.34323509088896e-02 3.04617576618206e-04
3.57556818181818e+00 4.30927899512303e-02 3.04205138421819e-04
3.62170454545455e+00 4.27558837349349e-02 3.03767963306384e-04
3.66784090909091e+00 4.24216115038982e-02 3.03306798899448e-04
3.71397727272727e+00 4.20899526661243e-02 3.02822370776013e-04
3.76011363636364e+00 4.17608867896756e-02 3.02315383905428e-04
3.80625000000000e+00 4.14343936015087e-02 3.01786522231085e-04
3.85238636363636e+00 4.11104529888001e-02 3.01236450228986e-04
3.89852272727273e+00 4.07890449942766e-02 3.00665813449145e-04
3.94465909090909e+00 4.04701498183618e-02 3.00075238988031e-04
3.99079545454545e+00 4.01537478154290e-02 2.99465336915415e-04
4.03693181818182e+00 3.98398194926731e-02 2.98836699754359e-04
4.08306818181818e+00 3.95283455112557e-02 2.98189903647754e-04
4.12920454545455e+00 3.92193066827345e-02 2.97525509469482e-04
4.17534090909091e+00 3.89126839679612e-02 2.96844062271071e-04
4.22147727272727e+00 3.86084584781147e-02 2.96146092346781e-04
4.26761363636364e+00 3.83066114713001e-02 2.95432116249407e-04
4.31375000000000e+00 3.80071243514645e-02 2.94702636214070e-04
4.35988636363636e+00 3.77099786693344e-02 2.93958141298156e-04
4.40602272727273e+00 3.74151561185034e-02 2.93199107658646e-04
4.45215909090909e+00 3.71226385370390e-02 2.92425998781803e-04
4.49829545454545e+00 3.68324079043164e-02 2.91639266546938e-04
4.54443181818182e+00 3.65444463399706e-02 2.90839350620808e-04
4.59056818181818e+00 3.62587361047047e-02 2.90026679316171e-04
4.63670454545455e+00 3.59752595972620e-02 2.89201670413341e-04
4.68284090909091e+00 3.56939993534023e-02 2.88364730550194e-04
4.72897727272727e+00 3.54149380466301e-02 2.87516256018987e-04
4.77511363636364e+00 3.51380584852989e-02 2.86656633529461e-04
4.82125000000000e+00 3.48633436116071e-02 2.85786239598707e-04
4.86738636363636e+00 3.45907765022554e-02 2.84905441434596e-04
4.91352272727273e+00 3.43203403651274e-02 2.84014597077260e-04
4.95965909090909e+00 3.40520185405002e-02 2.83114055504856e-04
5.00579545454545e+00 3.37857944983371e-02 2.82204157468642e-04
5.05193181818182e+00 3.35216518373173e-02 2.81285234882947e-04
5.09806818181818e+00 3.32595742854004e-02 2.80357611491312e-04
5.14420454545455e+00 3.29995456972292e-02 2.79421603505882e-04
5.19034090909091e+00 3.27415500531831e-02 2.78477519004857e-04
5.23647727272727e+00 3.24855714598824e-02 2.77525658557697e-04
5.28261363636364e+00 3.22315941476993e-02 2.76566315825640e-04
5.32875000000000e+00 3.19796024698280e-02 2.75599776968333e-04
5.37488636363636e+00 3.17295809027394e-02 2.74626321355510e-04
5.42102272727273e+00 3.14815140433350e-02 2.73646221634801e-04
5.46715909090909e+00 3.12353866098620e-02 2.72659743771089e-04
5.51329545454545e+00 3.09911834395763e-02 2.71667147725291e-04
5.55943181818182e+00 3.07488894878463e-02 2.70668686873651e-04
5.60556818181818e+00 3.05084898285380e-02 2.69664608543592e-04
5.65170454545455e+00 3.02699696517681e-02 2.68655154529438e-04
5.69784090909091e+00 3.00333142630288e-02 2.67640560523880e-04
5.74397727272727e+00 2.97985090835295e-02 2.66621056624839e-04
5.79011363636364e+00 2.95655396480368e-02 2.65596867823576e-04
5.83625000000000e+00 2.93343916040179e-02 2.64568213448786e-04
5.88238636363636e+00 2.91050507119427e-02 2.63535307755340e-04
5.92852272727273e+00 2.88775028428257e-02 2.62498359950617e-04
5.97465909090909e+00 2.86517339789163e-02 2.61457574197381e-04
6.02079545454545e+00 2.84277302116662e-02 2.60413150178897e-04
6.06693181818182e+00 2.82054777409031e-02 2.59365282560601e-04
6.11306818181818e+00 2.79849628750827e-02 2.58314161432368e-04
6.15920454545455e+00 2.77661720293302e-02 2.57259972734974e-04
6.20534090909091e+00 2.75490917246343e-02 2.56202897735361e-04
6.25147727272727e+00 2.73337085880654e-02 2.55143113447379e-04
6.29761363636364e+00 2.71200093508911e-02 2.54080793037614e-04
6.34375000000000e+00 2.69079808477857e-02 2.53016105314224e-04
6.38988636363636e+00 2.66976100170206e-02 2.51949215223135e-04
6.43602272727273e+00 2.64888838983258e-02 2.50880283850566e-04
6.48215909090909e+00 2.62817896334085e-02 2.49809468405821e-04
6.52829545454545e+00 2.60763144641745e-02 2.48736922699692e-04
6.57443181818182e+00 2.58724457319671e-02 2.47662796652369e-04
6.62056818181818e+00 2.56701708777192e-02 2.46587236665177e-04
6.66670454545454e+00 2.54694774402376e-02 2.45510385979594e-04
6.71284090909091e+00 2.52703530554594e-02 2.44432384198667e-04
6.75897727272727e+00 2.50727854565799e-02 2.43353367642107e-04
6.80511363636364e+00 2.48767624723980e-02 2.42273469689363e-04
6.85125000000000e+00 2.46822720265883e-02 2.41192820314278e-04
6.89738636363636e+00 2.44893021378076e-02 2.40111546508926e-04
6.94352272727273e+00 2.42978409178241e-02 2.39029772272486e-04
6.98965909090909e+00 2.41078765719039e-02 2.37947618583188e-04
7.03579545454545e+00 2.39193973972462e-02 2.36865203808344e-04
7.08193181818182e+00 2.37323917822830e-02 2.35782643257817e-04
7.12806818181818e+00 2.35468482067569e-02 2.34700049500776e-04
7.17420454545455e+00 2.33627552402098e-02 2.33617532671993e-04
7.22034090909091e+00 2.31801015412985e-02 2.32535200038064e-04
7.26647727272727e+00 2.29988758578548e-02 2.31453156300911e-04
7.31261363636364e+00 2.28190670254257e-02 2.30371503891359e-04
7.35875000000000e+00 2.26406639666041e-02 2.29290342547836e-04
7.40488636363636e+00 2.24636556910722e-02 2.28209769682051e-04
7.45102272727273e+00 2.22880312939577e-02 2.27129880360158e-04
7.49715909090909e+00 2.21137799561171e-02 2.26050767269279e-04
7.54329545454545e+00 2.19408909427539e-02 2.24972521072206e-04
7.58943181818182e+00 2.17693536027739e-02 2.23895230003893e-04
7.63556818181818e+00 2.15991573688078e-02 2.22818980144068e-04
7.68170454545455e+00 2.14302917558748e-02 2.21743855681196e-04
7.72784090909091e+00 2.12627463607527e-02 2.20669938520745e-04
7.77397727272727e+00 2.10965108619874e-02 2.19597308547006e-04
7.82011363636364e+00 2.09315750186002e-02 2.18526043876678e-04
7.86625000000000e+00 2.07679286694724e-02 2.17456220478598e-04
7.91238636363636e+00 2.06055617333423e-02 2.16387912491672e-04
7.95852272727273e+00 2.04444642073540e-02 2.15321192201940e-04
8.00465909090909e+00 2.02846261672619e-02 2.14256130006852e-04
8.05079545454545e+00 2.01260377662044e-02 2.13192794724304e-04
8.09693181818182e+00 1.99686892341117e-02 2.12131253228849e-04
8.14306818181818e+00 1.98125708776874e-02 2.11071570688152e-04
8.18920454545455e+00 1.96576730792220e-02 2.10013810792180e-04
8.23534090909091e+00 1.95039862960140e-02 2.08958035400181e-04
8.28147727272727e+00 1.93515010603420e-02 2.07904304768219e-04
8.32761363636364e+00 1.92002079783159e-02 2.06852677769699e-04
8.37375000000000e+00 1.90500977293113e-02 2.05803211552781e-04
8.41988636363636e+00 1.89011610659320e-02 2.04755961818391e-04
8.46602272727273e+00 1.87533888127254e-02 2.03710982795445e-04
8.51215909090909e+00 1.86067718663242e-02 2.02668327204829e-04
8.55829545454545e+00 1.84613011943557e-02 2.01628046530049e-04
8.60443181818182e+00 1.83169678348977e-02 2.00590190689690e-04
8.65056818181818e+00 1.81737628964295e-02 1.99554808243803e-04
8.69670454545455e+00 1.80316775567762e-02 1.98521946594083e-04
8.74284090909091e+00 1.78907030625763e-02 1.97491651666007e-04
8.78897727272727e+00 1.77508307292262e-02 1.96463968107729e-04
8.83511363636364e+00 1.76120519398569e-02 1.95438939482994e-04
8.88125000000000e+00 1.74743581448143e-02 1.94416607962718e-04
8.92738636363636e+00 1.73377408615964e-02 1.93397014569237e-04
8.97352272727273e+00 1.72021916737124e-02 1.92380199151025e-04
9.01965909090909e+00 1.70677022307760e-02 1.91366200347556e-04
9.06579545454546e+00 1.69342642475326e-02 1.90355055827404e-04
9.11193181818182e+00 1.68018695033590e-02 1.89346801993455e-04
9.15806818181818e+00 1.66705098421931e-02 1.88341474163902e-04
9.20420454545454e+00 1.65401771715912e-02 1.87339106747976e-04
9.25034090909091e+00 1.64108634622395e-02 1.86339732959892e-04
9.29647727272727e+00 1.62825607478779e-02 1.85343384993442e-04
9.34261363636364e+00 1.61552611243868e-02 1.84350094191548e-04
9.38875000000000e+00 1.60289567493093e-02 1.83359890768700e-04
9.43488636363636e+00 1.59036398417705e-02 1.82372804026321e-04
9.48102272727273e+00 1.57793026814622e-02 1.81388862327911e-04
9.52715909090909e+00 1.56559376086973e-02 1.80408093065360e-04
9.57329545454545e+00 1.55335370235409e-02 1.79430522869160e-04
9.61943181818182e+00 1.54120933853504e-02 1.78456177343197e-04
9.66556818181818e+00 1.52915992126899e-02 1.77485081224086e-04
9.71170454545454e+00 1.51720470824869e-02 1.76517258536009e-04
9.75784090909091e+00 1.50534296295835e-02 1.75552732333312e-04
9.80397727272727e+00 1.49357395466466e-02 1.74591524854378e-04
9.85011363636364e+00 1.48189695833505e-02 1.73633657671164e-04
9.89625000000000e+00 1.47031125459378e-02 1.72679151439408e-04
9.94238636363636e+00 1.45881612971269e-02 1.71728026089193e-04
9.98852272727273e+00 1.44741087552052e-02 1.70780300759367e-04
1.00346590909091e+01 1.43609478941668e-02 1.69835994056268e-04
1.00807954545455e+01 1.42486717421521e-02 1.68895123371857e-04
1.01269318181818e+01 1.41372733834706e-02 1.67957705916808e-04
1.01730681818182e+01 1.40267459543002e-02 1.67023758424706e-04
1.02192045454545e+01 1.39170826455840e-02 1.66093295715600e-04
1.02653409090909e+01 1.38082767025569e-02 1.65166333163861e-04
1.03114772727273e+01 1.37003214211423e-02 1.64242885493129e-04
1.03576136363636e+01 1.35932101507410e-02 1.63322965589853e-04
1.04037500000000e+01 1.34869362937687e-02 1.62406586899516e-04
1.04498863636364e+01 1.33814933021757e-02 1.61493761878340e-04
1.04960227272727e+01 1.32768746811243e-02 1.60584502351458e-04
1.05421590909091e+01 1.31730739845639e-02 1.59678819953339e-04
1.05882954545455e+01 1.30700848178391e-02 1.58776724604797e-04
1.06344318181818e+01 1.29679008372456e-02 1.57878226786478e-04
1.06805681818182e+01 1.28665157467548e-02 1.56983336427079e-04
1.07267045454545e+01 1.27659233005240e-02 1.56092061808691e-04
1.07728409090909e+01 1.26661173024661e-02 1.55204411774795e-04
1.08189772727273e+01 1.25670916030819e-02 1.54320394650202e-04
1.08651136363636e+01 1.24688401018797e-02 1.53440017177664e-04
1.09112500000000e+01 1.23713567469541e-02 1.52563286662403e-04
1.09573863636364e+01 1.22746355319246e-02 1.51690209584372e-04
1.10035227272727e+01 1.21786704991354e-02 1.50820791918322e-04
1.10496590909091e+01 1.20834557357668e-02 1.49955039526922e-04
1.10957954545455e+01 1.19889853761002e-02 1.49092956795457e-04
1.11419318181818e+01 1.18952536011141e-02 1.48234548667795e-04
1.11880681818182e+01 1.18022546355994e-02 1.47379819649135e-04
1.12342045454545e+01 1.17099827503417e-02 1.46528772824188e-04
1.12803409090909e+01 1.16184322617279e-02 1.45681411835012e-04
1.13264772727273e+01 1.15275975289563e-02 1.44837739912035e-04
1.13726136363636e+01 1.14374729561407e-02 1.43997758920037e-04
1.14187500000000e+01 1.13480529919253e-02 1.43161471279639e-04
1.14648863636364e+01 1.12593321267876e-02 1.42328878722264e-04
1.15110227272727e+01 1.11713048958270e-02 1.41499982576543e-04
1.15571590909091e+01 1.10839658753412e-02 1.40674784119710e-04
1.16032954545455e+01 1.09973096847977e-02 1.39853283352467e-04
1.16494318181818e+01 1.09113309864645e-02 1.39035480824262e-04
1.16955681818182e+01 1.08260244828659e-02 1.38221376737949e-04
1.17417045454545e+01 1.07413849186824e-02 1.37410970068359e-04
1.17878409090909e+01 1.06574070803917e-02 1.36604260335884e-04
1.18339772727273e+01 1.05740857938063e-02 1.35801246736354e-04
1.18801136363636e+01 1.04914159259067e-02 1.35001927284365e-04
1.19262500000000e+01 1.04093923844895e-02 1.34206300536770e-04
1.19723863636364e+01 1.03280101157863e-02 1.33414364474608e-04
1.20185227272727e+01 1.02472641068988e-02 1.32626116759712e-04
1.20646590909091e+01 1.01671493827792e-02 1.31841555049240e-04
1.21107954545455e+01 1.00876610079484e-02 1.31060675895287e-04
1.21569318181818e+01 1.00087940861592e-02 1.30283476382947e-04
1.22030681818182e+01 9.93054375814818e-03 1.29509953325799e-04
1.22492045454545e+01 9.85290520329207e-03 1.28740102473862e-04
1.22953409090909e+01 9.77587363928064e-03 1.27973920105630e-04
1.23414772727273e+01 9.69944431993960e-03 1.27211402246073e-04
1.23876136363636e+01 9.62361253682951e-03 1.26452543896690e-04
1.24337500000000e+01 9.54837361892544e-03 1.25697340582909e-04
1.24798863636364e+01 9.47372293051025e-03 1.24945787349205e-04
1.25260227272727e+01 9.39965587330521e-03 1.24197878989227e-04
1.25721590909091e+01 9.32616788380131e-03 1.23453610327685e-04
1.26182954545455e+01 9.25325443476010e-03 1.22712975231173e-04
1.26644318181818e+01 9.18091103490624e-03 1.21975968079555e-04
1.27105681818182e+01 9.10913322693681e-03 1.21242583042498e-04
1.27567045454545e+01 9.03791658896898e-03 1.20512813367188e-04
1.28028409090909e+01 8.96725673424093e-03 1.19786652808686e-04
1.28489772727273e+01 8.89714930918372e-03 1.19064094926551e-04
1.28951136363636e+01 8.82758999481890e-03 1.18345132392318e-04
1.29412500000000e+01 8.75857450646596e-03 1.17629758380027e-04
1.29873863636364e+01 8.69009859187561e-03 1.16917965662338e-04
1.30335227272727e+01 8.62215803309706e-03 1.16209746817154e-04
1.30796590909091e+01 8.55474864411567e-03 1.15505094480464e-04
1.31257954545455e+01 8.48786627216583e-03 1.14804000456473e-04
1.31719318181818e+01 8.42150679745021e-03 1.14106457040407e-04
1.32180681818182e+01 8.35566613137443e-03 1.13412456367416e-04
1.32642045454545e+01 8.29034021781401e-03 1.12721989771553e-04
1.33103409090909e+01 8.22552503284108e-03 1.12035049071932e-04
1.33564772727273e+01 8.16121658301399e-03 1.11351625939608e-04
1.34026136363636e+01 8.09741090660082e-03 1.10671711274249e-04
1.34487500000000e+01 8.03410407331214e-03 1.09995296454678e-04
1.34948863636364e+01 7.97129218264443e-03 1.09322372525266e-04
1.35410227272727e+01 7.90897136551901e-03 1.08652930381615e-04
1.35871590909091e+01 7.84713778218776e-03 1.07986960997569e-04
1.36332954545455e+01 7.78578762338322e-03 1.07324454624092e-04
1.36794318181818e+01 7.72491711006213e-03 1.06665401979429e-04
1.37255681818182e+01 7.66452249183766e-03 1.06009793662728e-04
1.37717045454545e+01 7.60460004808980e-03 1.05357619576753e-04
1.38178409090909e+01 7.54514608771556e-03 1.04708870085265e-04
1.38639772727273e+01 7.48615694760953e-03 1.04063535442757e-04
1.39101136363636e+01 7.42762899373652e-03 1.03421605233001e-04
1.39562500000000e+01 7.36955862088731e-03 1.02783069494580e-04
1.40023863636364e+01 7.31194225120652e-03 1.02147917988018e-04
1.40485227272727e+01 7.25477633563315e-03 1.01516140362770e-04
1.40946590909091e+01 7.19805735204126e-03 1.00887726361238e-04
1.41407954545455e+01 7.14178180624894e-03 1.00262665097051e-04
1.41869318181818e+01 7.08594623178387e-03 9.96409461266352e-05
1.42330681818182e+01 7.03054718848926e-03 9.90225589208191e-05
1.42792045454545e+01 6.97558126349811e-03 9.84074923445928e-05
1.43253409090909e+01 6.92104507100497e-03 9.77957356993219e-05
1.43714772727273e+01 6.86693525091429e-03 9.71872782087822e-05
1.44176136363636e+01 6.81324846978201e-03 9.65821085131235e-05
1.44637500000000e+01 6.75998142059227e-03 9.59802156825844e-05
1.45098863636364e+01 6.70713082144750e-03 9.53815885569234e-05
1.45560227272727e+01 6.65469341683616e-03 9.47862158957134e-05
