Energy (eV)          EEDF (eV^-(3/2))     First Anisotropy
1.69841269841270e-02 7.29123290492331e-02 3.44541158053257e-05
5.09523809523810e-02 7.25138702481143e-02 5.69294648835375e-05
8.49206349206349e-02 7.21175889867667e-02 7.52485812268644e-05
1.18888888888889e-01 7.17234733634774e-02 8.92238773905777e-05
1.52857142857143e-01 7.13315115438871e-02 1.00927660838201e-04
1.86825396825397e-01 7.09416917576313e-02 1.11141839345001e-04
2.20793650793651e-01 7.05540022986900e-02 1.20270265238200e-04
2.54761904761905e-01 7.01684315250234e-02 1.28556350960384e-04
2.88730158730159e-01 6.97849678582173e-02 1.36161229429990e-04
3.22698412698413e-01 6.94035997831344e-02 1.43198573717343e-04
3.56666666666667e-01 6.90243158475673e-02 1.49752374024162e-04
3.90634920634921e-01 6.86471046618947e-02 1.55886918627772e-04
4.24603174603175e-01 6.82719548987385e-02 1.61652807057564e-04
4.58571428571429e-01 6.78988552926241e-02 1.67090776098051e-04
4.92539682539682e-01 6.75277946396417e-02 1.72234242747319e-04
5.26507936507936e-01 6.71587617971099e-02 1.77111055837570e-04
5.60476190476190e-01 6.67917456839140e-02 1.81744739516756e-04
5.94444444444444e-01 6.64267352781092e-02 1.86155398096223e-04
6.28412698412698e-01 6.60637196187037e-02 1.90360389220344e-04
6.62380952380952e-01 6.57026878046055e-02 1.94374834677624e-04
6.96349206349206e-01 6.53436289942959e-02 1.98212013950135e-04
7.30317460317460e-01 6.49865324055031e-02 2.01883672213902e-04
7.64285714285714e-01 6.46313873148794e-02 2.05400264527300e-04
7.98253968253968e-01 6.42781830576788e-02 2.08771151729908e-04
8.32222222222222e-01 6.39269090274367e-02 2.12004759287453e-04
8.66190476190476e-01 6.35775546756518e-02 2.15108707345427e-04
9.00158730158730e-01 6.32301095114691e-02 2.18089918154749e-04
9.34126984126984e-01 6.28845631013649e-02 2.20954705527282e-04
9.68095238095238e-01 6.25409050688336e-02 2.23708849883308e-04
1.00206349206349e+00 6.21991250940760e-02 2.26357661701171e-04
1.03603174603175e+00 6.18592129133507e-02 2.28906035025057e-04
1.07000000000000e+00 6.15211583209573e-02 2.31358494621361e-04
1.10396825396825e+00 6.11849511622058e-02 2.33719234117089e-04
1.13793650793651e+00 6.08505813441628e-02 2.35992150717086e-04
1.17190476190476e+00 6.05180388258162e-02 2.38180876761208e-04
1.20587301587302e+00 6.01873136183589e-02 2.40288802561791e-04
1.23984126984127e+00 5.98583957931154e-02 2.42319101161601e-04
1.27380952380952e+00 5.95312754702706e-02 2.44274747858462e-04
1.30777777777778e+00 5.92059428292660e-02 2.46158537321277e-04
1.34174603174603e+00 5.88823881005001e-02 2.47973101121775e-04
1.37571428571429e+00 5.85606015654789e-02 2.49720918808511e-04
1.40968253968254e+00 5.82405735635420e-02 2.51404332143743e-04
1.44365079365079e+00 5.79222944822110e-02 2.53025555761614e-04
1.47761904761905e+00 5.76057547660475e-02 2.54586686626237e-04
1.51158730158730e+00 5.72909449095160e-02 2.56089714710226e-04
1.54555555555556e+00 5.69778554570467e-02 2.57536528472965e-04
1.57952380952381e+00 5.66664770088308e-02 2.58928923840735e-04
1.61349206349206e+00 5.63568002124279e-02 2.60268610419770e-04
1.64746031746032e+00 5.60488157704258e-02 2.61557217050735e-04
1.68142857142857e+00 5.57425144342125e-02 2.62796298868322e-04
1.71539682539683e+00 5.54378870039791e-02 2.63987339897523e-04
1.74936507936508e+00 5.51349243337736e-02 2.65131759163763e-04
1.78333333333333e+00 5.48336173241144e-02 2.66230914496236e-04
1.81730158730159e+00 5.45339569286916e-02 2.67286105939320e-04
1.85126984126984e+00 5.42359341488694e-02 2.68298580746182e-04
1.88523809523810e+00 5.39395400336461e-02 2.69269534402694e-04
1.91920634920635e+00 5.36447656841053e-02 2.70200115053664e-04
1.95317460317460e+00 5.33516022468503e-02 2.71091425916848e-04
1.98714285714286e+00 5.30600409199235e-02 2.71944527447041e-04
2.02111111111111e+00 5.27700729479062e-02 2.72760441071630e-04
2.05507936507937e+00 5.24816896218496e-02 2.73540149321014e-04
2.08904761904762e+00 5.21948822832252e-02 2.74284599205422e-04
2.12301587301587e+00 5.19096423180429e-02 2.74994703787465e-04
2.15698412698413e+00 5.16259611621198e-02 2.75671343585155e-04
2.19095238095238e+00 5.13438302966798e-02 2.76315369498140e-04
2.22492063492063e+00 5.10632412482614e-02 2.76927602417340e-04
2.25888888888889e+00 5.07841855922496e-02 2.77508835912905e-04
2.29285714285714e+00 5.05066549475691e-02 2.78059837276237e-04
2.32682539682540e+00 5.02306409814058e-02 2.78581348440191e-04
2.36079365079365e+00 4.99561354052298e-02 2.79074088359765e-04
2.39476190476190e+00 4.96831299746844e-02 2.79538752314974e-04
2.42873015873016e+00 4.94116164927631e-02 2.79976014125186e-04
2.46269841269841e+00 4.91415868049942e-02 2.80386526845835e-04
2.49666666666667e+00 4.88730328036950e-02 2.80770923372598e-04
2.53063492063492e+00 4.86059464243578e-02 2.81129818438168e-04
2.56460317460317e+00 4.83403196455248e-02 2.81463807736028e-04
2.59857142857143e+00 4.80761444916601e-02 2.81773469796215e-04
2.63253968253968e+00 4.78134130287578e-02 2.82059366450676e-04
2.66650793650794e+00 4.75521173681952e-02 2.82322043225385e-04
2.70047619047619e+00 4.72922496634310e-02 2.82562031056704e-04
2.73444444444444e+00 4.70338021098708e-02 2.82779845314185e-04
2.76841269841270e+00 4.67767669474744e-02 2.82975987425672e-04
2.80238095238095e+00 4.65211364567330e-02 2.83150945184133e-04
2.83634920634921e+00 4.62669029621732e-02 2.83305192994312e-04
2.87031746031746e+00 4.60140588293285e-02 2.83439193377419e-04
2.90428571428571e+00 4.57625964645977e-02 2.83553395942137e-04
2.93825396825397e+00 4.55125083176209e-02 2.83648238817956e-04
2.97222222222222e+00 4.52637868775804e-02 2.83724148851425e-04
3.00619047619048e+00 4.50164246763998e-02 2.83781541751435e-04
3.04015873015873e+00 4.47704142859551e-02 2.83820823429266e-04
3.07412698412698e+00 4.45257483179283e-02 2.83842388948952e-04
3.10809523809524e+00 4.42824194259800e-02 2.83846623810003e-04
3.14206349206349e+00 4.40404203023363e-02 2.83833904065332e-04
3.17603174603175e+00 4.37997436807192e-02 2.83804596394744e-04
3.21000000000000e+00 4.35603823337699e-02 2.83759059313657e-04
3.24396825396825e+00 4.33223290728993e-02 2.83697642123008e-04
3.27793650793651e+00 4.30855767502801e-02 2.83620685858883e-04
3.31190476190476e+00 4.28501182563987e-02 2.83528524201992e-04
3.34587301587302e+00 4.26159465199035e-02 2.83421482440687e-04
3.37984126984127e+00 4.23830545094884e-02 2.83299878565292e-04
3.41380952380952e+00 4.21514352308895e-02 2.83164023305088e-04
3.44777777777778e+00 4.19210817294320e-02 2.83014220129352e-04
3.48174603174603e+00 4.16919870877552e-02 2.82850766288140e-04
3.51571428571429e+00 4.14641444256617e-02 2.82673951792510e-04
3.54968253968254e+00 4.12375469018512e-02 2.82484060419727e-04
3.58365079365079e+00 4.10121877111291e-02 2.82281369716439e-04
3.61761904761905e+00 4.07880600867563e-02 2.82066150969500e-04
3.65158730158730e+00 4.05651572983319e-02 2.81838670166112e-04
3.68555555555556e+00 4.03434726516424e-02 2.81599186997763e-04
3.71952380952381e+00 4.01229994902616e-02 2.81347955789850e-04
3.75349206349206e+00 3.99037311929503e-02 2.81085225480060e-04
3.78746031746032e+00 3.96856611758295e-02 2.80811239567519e-04
3.82142857142857e+00 3.94687828904050e-02 2.80526237003923e-04
3.85539682539683e+00 3.92530898234168e-02 2.80230451225089e-04
3.88936507936508e+00 3.90385754983198e-02 2.79924111015449e-04
3.92333333333333e+00 3.88252334728551e-02 2.79607440468416e-04
3.95730158730159e+00 3.86130573410647e-02 2.79280658919968e-04
3.99126984126984e+00 3.84020407314443e-02 2.78943981779756e-04
4.02523809523810e+00 3.81921773067942e-02 2.78597619592713e-04
4.05920634920635e+00 3.79834607655911e-02 2.78241778846693e-04
4.09317460317460e+00 3.77758848397165e-02 2.77876661919608e-04
4.12714285714286e+00 3.75694432963272e-02 2.77502467002082e-04
4.16111111111111e+00 3.73641299361254e-02 2.77119388875860e-04
4.19507936507936e+00 3.71599385932106e-02 2.76727618006478e-04
4.22904761904762e+00 3.69568631363533e-02 2.76327341300722e-04
4.26301587301587e+00 3.67548974668665e-02 2.75918742044373e-04
4.29698412698413e+00 3.65540355203454e-02 2.75501999817190e-04
4.33095238095238e+00 3.63542712650440e-02 2.75077291224385e-04
4.36492063492063e+00 3.61555987017292e-02 2.74644789020935e-04
4.39888888888889e+00 3.59580118648650e-02 2.74204662824289e-04
4.43285714285714e+00 3.57615048206144e-02 2.73757079045406e-04
4.46682539682540e+00 3.55660716684604e-02 2.73302200798494e-04
4.50079365079365e+00 3.53717065396804e-02 2.72840188590576e-04
4.53476190476190e+00 3.51784035972024e-02 2.72371199477329e-04
4.56873015873016e+00 3.49861570367071e-02 2.71895387735380e-04
4.60269841269841e+00 3.47949610847506e-02 2.71412904788816e-04
4.63666666666667e+00 3.46048100002757e-02 2.70923899115592e-04
4.67063492063492e+00 3.44156980731774e-02 2.70428516899211e-04
4.70460317460317e+00 3.42276196241599e-02 2.69926901215627e-04
4.73857142857143e+00 3.40405690057653e-02 2.69419192668887e-04
4.77253968253968e+00 3.38545406006057e-02 2.68905529314680e-04
4.80650793650794e+00 3.36695288227761e-02 2.68386046564916e-04
4.84047619047619e+00 3.34855281165015e-02 2.67860877804904e-04
4.87444444444444e+00 3.33025329559970e-02 2.67330153610611e-04
4.90841269841270e+00 3.31205378464276e-02 2.66794002350856e-04
4.94238095238095e+00 3.29395373222428e-02 2.66252550109207e-04
4.97634920634921e+00 3.27595259484970e-02 2.65705920587715e-04
5.01031746031746e+00 3.25804983195746e-02 2.65154235692425e-04
5.04428571428571e+00 3.24024490590508e-02 2.64597614780283e-04
5.07825396825397e+00 3.22253728205902e-02 2.64036175230656e-04
5.11222222222222e+00 3.20492642863742e-02 2.63470032366419e-04
5.14619047619048e+00 3.18741181683385e-02 2.62899299357669e-04
5.18015873015873e+00 3.16999292069677e-02 2.62324087778173e-04
5.21412698412698e+00 3.15266921711597e-02 2.61744506880952e-04
5.24809523809524e+00 3.13544018590660e-02 2.61160664141497e-04
5.28206349206349e+00 3.11830530966060e-02 2.60572665178666e-04
5.31603174603175e+00 3.10126407386278e-02 2.59980613659187e-04
5.35000000000000e+00 3.08431596677677e-02 2.59384611827175e-04
5.38396825396825e+00 3.06746047943176e-02 2.58784759807278e-04
5.41793650793651e+00 3.05069710570113e-02 2.58181156005119e-04
5.45190476190476e+00 3.03402534219258e-02 2.57573897495980e-04
5.48587301587302e+00 3.01744468823483e-02 2.56963079346383e-04
5.51984126984127e+00 3.00095464595315e-02 2.56348795114733e-04
5.55380952380952e+00 2.98455472013385e-02 2.55731136773590e-04
5.58777777777778e+00 2.96824441832874e-02 2.55110194616814e-04
5.62174603174603e+00 2.95202325075094e-02 2.54486057748194e-04
5.65571428571429e+00 2.93589073026196e-02 2.53858813428897e-04
5.68968253968254e+00 2.91984637244248e-02 2.53228547554979e-04
5.72365079365079e+00 2.90388969546408e-02 2.52595344580605e-04
5.75761904761905e+00 2.88802022018734e-02 2.51959287426907e-04
5.79158730158730e+00 2.87223747006309e-02 2.51320457948266e-04
5.82555555555555e+00 2.85654097111980e-02 2.50678936304658e-04
5.85952380952381e+00 2.84093025203000e-02 2.50034801417592e-04
5.89349206349206e+00 2.82540484398864e-02 2.49388130894504e-04
5.92746031746032e+00 2.80996428080546e-02 2.48739000939493e-04
5.96142857142857e+00 2.79460809881124e-02 2.48087486798773e-04
5.99539682539683e+00 2.77933583684546e-02 2.47433662156910e-04
6.02936507936508e+00 2.76414703631869e-02 2.46777599572539e-04
6.06333333333333e+00 2.74904124109725e-02 2.46119370404114e-04
6.09730158730159e+00 2.73401799759010e-02 2.45459044722723e-04
6.13126984126984e+00 2.71907685465985e-02 2.44796691737961e-04
6.16523809523810e+00 2.70421736361068e-02 2.44132379217155e-04
6.19920634920635e+00 2.68943907824701e-02 2.43466173901988e-04
6.23317460317460e+00 2.67474155476395e-02 2.42798141435835e-04
6.26714285714286e+00 2.66012435182925e-02 2.42128346278787e-04
6.30111111111111e+00 2.64558703049864e-02 2.41456852115033e-04
6.33507936507936e+00 2.63112915420404e-02 2.40783721294171e-04
6.36904761904762e+00 2.61675028880880e-02 2.40109015229879e-04
6.40301587301587e+00 2.60245000250358e-02 2.39432794328925e-04
6.43698412698413e+00 2.58822786588361e-02 2.38755117908450e-04
6.47095238095238e+00 2.57408345186820e-02 2.38076044585980e-04
6.50492063492063e+00 2.56001633568919e-02 2.37395631741841e-04
6.53888888888889e+00 2.54602609494298e-02 2.36713935900976e-04
6.57285714285714e+00 2.53211230949151e-02 2.36031012663701e-04
6.60682539682540e+00 2.51827456153520e-02 2.35346916625191e-04
6.64079365079365e+00 2.50451243553627e-02 2.34661701749201e-04
6.67476190476190e+00 2.49082551820752e-02 2.33975420850664e-04
6.70873015873016e+00 2.47721339856134e-02 2.33288125961571e-04
6.74269841269841e+00 2.46367566781545e-02 2.32599868263568e-04
6.77666666666667e+00 2.45021191946182e-02 2.31910698009630e-04
6.81063492063492e+00 2.43682174919365e-02 2.31220664882350e-04
6.84460317460317e+00 2.42350475489434e-02 2.30529817496037e-04
6.87857142857143e+00 2.41026053668373e-02 2.29838203747367e-04
6.91253968253968e+00 2.39708869682841e-02 2.29145870749816e-04
6.94650793650794e+00 2.38398883980675e-02 2.28452864757678e-04
6.98047619047619e+00 2.37096057223936e-02 2.27759231509685e-04
7.01444444444444e+00 2.35800350287829e-02 2.27065015749678e-04
7.04841269841270e+00 2.34511724265071e-02 2.26370261562969e-04
7.08238095238095e+00 2.33230140457336e-02 2.25675012312635e-04
7.11634920634921e+00 2.31955560381414e-02 2.24979310565754e-04
7.15031746031746e+00 2.30687945762572e-02 2.24283198423137e-04
7.18428571428571e+00 2.29427258533504e-02 2.23586717057893e-04
7.21825396825397e+00 2.28173460838447e-02 2.22889907038140e-04
7.25222222222222e+00 2.26926515025040e-02 2.22192808265173e-04
7.28619047619048e+00 2.25686383650134e-02 2.21495459901960e-04
7.32015873015873e+00 2.24453029473466e-02 2.20797900689649e-04
7.35412698412698e+00 2.23226415456634e-02 2.20100168503224e-04
7.38809523809524e+00 2.22006504766983e-02 2.19402300661373e-04
7.42206349206349e+00 2.20793260769838e-02 2.18704333866464e-04
7.45603174603175e+00 2.19586647034007e-02 2.18006304135190e-04
7.49000000000000e+00 2.18386627325737e-02 2.17308247102602e-04
7.52396825396825e+00 2.17193165607719e-02 2.16610197594168e-04
7.55793650793651e+00 2.16006226042756e-02 2.15912189853339e-04
7.59190476190476e+00 2.14825772987899e-02 2.15214257763690e-04
7.62587301587302e+00 2.13651770993460e-02 2.14516434431434e-04
7.65984126984127e+00 2.12484184806552e-02 2.13818752475192e-04
7.69380952380952e+00 2.11322979363896e-02 2.13121243969125e-04
7.72777777777778e+00 2.10168119796852e-02 2.12423940377248e-04
7.76174603174603e+00 2.09019571425810e-02 2.11726872837967e-04
7.79571428571429e+00 2.07877299759231e-02 2.11030071761893e-04
7.82968253968254e+00 2.06741270496994e-02 2.10333567110322e-04
7.86365079365079e+00 2.05611449523523e-02 2.09637388340103e-04
7.89761904761905e+00 2.04487802912558e-02 2.08941564340069e-04
7.93158730158730e+00 2.03370296921792e-02 2.08246123704492e-04
7.96555555555556e+00 2.02258897991938e-02 2.07551094345619e-04
7.99952380952381e+00 2.01153572749889e-02 2.06856503761419e-04
8.03349206349206e+00 2.00054288002158e-02 2.06162378982110e-04
8.06746031746032e+00 1.98961010739397e-02 2.05468746508652e-04
8.10142857142857e+00 1.97873708131270e-02 2.04775632575670e-04
8.13539682539682e+00 1.96792347525540e-02 2.04083062778088e-04
8.16936507936508e+00 1.95716896451064e-02 2.03391062328645e-04
8.20333333333333e+00 1.94647322611521e-02 2.02699656006066e-04
8.23730158730159e+00 1.93583593889692e-02 2.02008868095517e-04
8.27126984126984e+00 1.92525678342566e-02 2.01318722641522e-04
8.30523809523810e+00 1.91473544200439e-02 2.00629243088135e-04
8.33920634920635e+00 1.90427159869755e-02 1.99940452526648e-04
8.37317460317460e+00 1.89386493927107e-02 1.99252373645362e-04
8.40714285714286e+00 1.88351515123301e-02 1.98565028672009e-04
8.44111111111111e+00 1.87322192378663e-02 1.97878439617131e-04
8.47507936507936e+00 1.86298494782169e-02 1.97192627927134e-04
8.50904761904762e+00 1.85280391594135e-02 1.96507614722693e-04
8.54301587301587e+00 1.84267852240473e-02 1.95823420750125e-04
8.57698412698413e+00 1.83260846316551e-02 1.95140066325674e-04
8.61095238095238e+00 1.82259343582702e-02 1.94457571569714e-04
8.64492063492063e+00 1.81263313963374e-02 1.93775956072300e-04
8.67888888888889e+00 1.80272727549674e-02 1.93095239122636e-04
8.71285714285714e+00 1.79287554593878e-02 1.92415439661984e-04
8.74682539682540e+00 1.78307765513094e-02 1.91736576229732e-04
8.78079365079365e+00 1.77333330884957e-02 1.91058667188896e-04
8.81476190476191e+00 1.76364221446801e-02 1.90381730403644e-04
8.84873015873016e+00 1.75400408098078e-02 1.89705783460175e-04
8.88269841269841e+00 1.74441861895088e-02 1.89030843621161e-04
8.91666666666667e+00 1.73488554054471e-02 1.88356927773590e-04
8.95063492063492e+00 1.72540455949074e-02 1.87684052645866e-04
8.98460317460317e+00 1.71597539107150e-02 1.87012234496834e-04
9.01857142857143e+00 1.70659775214642e-02 1.86341489328516e-04
9.05253968253968e+00 1.69727136110148e-02 1.85671832841988e-04
9.08650793650794e+00 1.68799593788229e-02 1.85003280386901e-04
9.12047619047619e+00 1.67877120395453e-02 1.84335847170613e-04
9.15444444444444e+00 1.66959688229612e-02 1.83669547958290e-04
9.18841269841270e+00 1.66047269741888e-02 1.83004397277753e-04
9.22238095238095e+00 1.65139837532030e-02 1.82340409376789e-04
9.25634920634921e+00 1.64237364351496e-02 1.81677598174331e-04
9.29031746031746e+00 1.63339823099663e-02 1.81015977461949e-04
9.32428571428571e+00 1.62447186823063e-02 1.80355560614518e-04
9.35825396825397e+00 1.61559428717434e-02 1.79696360787576e-04
9.39222222222222e+00 1.60676522123104e-02 1.79038390876032e-04
9.42619047619048e+00 1.59798440527973e-02 1.78381663466922e-04
9.46015873015873e+00 1.58925157563880e-02 1.77726191033612e-04
9.49412698412698e+00 1.58056647005858e-02 1.77071985656604e-04
9.52809523809524e+00 1.57192882774081e-02 1.76419059213748e-04
9.56206349206349e+00 1.56333838929436e-02 1.75767423340241e-04
9.59603174603174e+00 1.55479489676363e-02 1.75117089382952e-04
9.63000000000000e+00 1.54629809359368e-02 1.74468068587596e-04
9.66396825396825e+00 1.53784772462291e-02 1.73820371829366e-04
9.69793650793651e+00 1.52944353610166e-02 1.73174009752448e-04
9.73190476190476e+00 1.52108527565819e-02 1.72528992906622e-04
9.76587301587302e+00 1.51277269229149e-02 1.71885331484086e-04
9.79984126984127e+00 1.50450553638924e-02 1.71243035498365e-04
9.83380952380952e+00 1.49628355968639e-02 1.70602114746568e-04
9.86777777777778e+00 1.48810651529134e-02 1.69962578766165e-04
9.90174603174603e+00 1.47997415765332e-02 1.69324437011100e-04
9.93571428571429e+00 1.47188624255539e-02 1.68687698597831e-04
9.96968253968254e+00 1.46384252713150e-02 1.68052372477870e-04
1.00036507936508e+01 1.45584276982670e-02 1.67418467319359e-04
1.00376190476190e+01 1.44788673043786e-02 1.66785991915263e-04
1.00715873015873e+01 1.43997416999578e-02 1.66154954332843e-04
1.01055555555556e+01 1.43210485097034e-02 1.65525362843040e-04
1.01395238095238e+01 1.42427853697392e-02 1.64897225419626e-04
1.01734920634921e+01 1.41649499306487e-02 1.64270549825562e-04
1.02074603174603e+01 1.40875398543274e-02 1.63645343657928e-04
1.02414285714286e+01 1.40105528169619e-02 1.63021614308645e-04
1.02753968253968e+01 1.39339865059384e-02 1.62399369395836e-04
1.03093650793651e+01 1.38578386220327e-02 1.61778615174446e-04
1.03433333333333e+01 1.37821068793171e-02 1.61159358898650e-04
1.03773015873016e+01 1.37067890028901e-02 1.60541607269341e-04
1.04112698412698e+01 1.36318827317351e-02 1.59925366795614e-04
1.04452380952381e+01 1.35573858157525e-02 1.59310643837336e-04
1.04792063492063e+01 1.34832960185652e-02 1.58697444567690e-04
1.05131746031746e+01 1.34096111146047e-02 1.58085775015039e-04
1.05471428571429e+01 1.33363288918654e-02 1.57475641026041e-04
1.05811111111111e+01 1.32634471490423e-02 1.56867048306861e-04
1.06150793650794e+01 1.31909636982355e-02 1.56260002386837e-04
1.06490476190476e+01 1.31188763621391e-02 1.55654508658967e-04
1.06830158730159e+01 1.30471829766963e-02 1.55050572344145e-04
1.07169841269841e+01 1.29758813883386e-02 1.54448198884018e-04
