Energy (eV)          EEDF (eV^-(3/2))     First Anisotropy
2.34146341463415e-02 8.55634701323235e-02 5.00138295808968e-05
7.02439024390244e-02 8.48466080745817e-02 8.25184964831353e-05
1.17073170731707e-01 8.41357519819188e-02 1.08752313014829e-04
1.63902439024390e-01 8.34308515348948e-02 1.28572254832007e-04
2.10731707317073e-01 8.27318568383039e-02 1.45011470720841e-04
2.57560975609756e-01 8.20387184122867e-02 1.59219300293314e-04
3.04390243902439e-01 8.13513871897202e-02 1.71791780814252e-04
3.51219512195122e-01 8.06698145197164e-02 1.83089581048160e-04
3.98048780487805e-01 7.99939521560603e-02 1.93352387972615e-04
4.44878048780488e-01 7.93237522553947e-02 2.02749947337091e-04
4.91707317073171e-01 7.86591673785628e-02 2.11408164300161e-04
5.38536585365854e-01 7.80001504820069e-02 2.19423780537669e-04
5.85365853658537e-01 7.73466549152197e-02 2.26873229368356e-04
6.32195121951220e-01 7.66986344210132e-02 2.33818279334422e-04
6.79024390243902e-01 7.60560431284328e-02 2.40309790842557e-04
7.25853658536585e-01 7.54188355508458e-02 2.46390307430947e-04
7.72682926829268e-01 7.47869665819199e-02 2.52095897679349e-04
8.19512195121951e-01 7.41603914949570e-02 2.57457498336231e-04
8.66341463414634e-01 7.35390659370646e-02 2.62501915228360e-04
9.13170731707317e-01 7.29229459262844e-02 2.67252582707551e-04
9.60000000000000e-01 7.23119878505723e-02 2.71730150694057e-04
1.00682926829268e+00 7.17061484625236e-02 2.75952944545836e-04
1.05365853658537e+00 7.11053848781891e-02 2.79937330485214e-04
1.10048780487805e+00 7.05096545695627e-02 2.83698008562911e-04
1.14731707317073e+00 6.99189153672572e-02 2.87248250678569e-04
1.19414634146341e+00 6.93331254551905e-02 2.90600096638058e-04
1.24097560975610e+00 6.87522433676361e-02 2.93764514983369e-04
1.28780487804878e+00 6.81762279908104e-02 2.96751539577203e-04
1.33463414634146e+00 6.76050385461240e-02 2.99570381739068e-04
1.38146341463415e+00 6.70386346013447e-02 3.02229524943027e-04
1.42829268292683e+00 6.64769760629562e-02 3.04736808236537e-04
1.47512195121951e+00 6.59200231733642e-02 3.07099495566983e-04
1.52195121951220e+00 6.53677365080734e-02 3.09324335523890e-04
1.56878048780488e+00 6.48200769764231e-02 3.11417614976336e-04
1.61560975609756e+00 6.42770058080752e-02 3.13385203425304e-04
1.66243902439024e+00 6.37384845611591e-02 3.15232591628311e-04
1.70926829268293e+00 6.32044751158524e-02 3.16964927909743e-04
1.75609756097561e+00 6.26749396717213e-02 3.18587048289551e-04
1.80292682926829e+00 6.21498407450286e-02 3.20103503157811e-04
1.84975609756098e+00 6.16291411689226e-02 3.21518582632471e-04
1.89658536585366e+00 6.11128040821716e-02 3.22836337099616e-04
1.94341463414634e+00 6.06007929352944e-02 3.24060595463298e-04
1.99024390243902e+00 6.00930714850083e-02 3.25194983625639e-04
2.03707317073171e+00 5.95896037916969e-02 3.26242939055987e-04
2.08390243902439e+00 5.90903542192518e-02 3.27207725852522e-04
2.13073170731707e+00 5.85952874252603e-02 3.28092446494977e-04
2.17756097560976e+00 5.81043683658765e-02 3.28900052408804e-04
2.22439024390244e+00 5.76175622908533e-02 3.29633355481159e-04
2.27121951219512e+00 5.71348347410764e-02 3.30295037037724e-04
2.31804878048780e+00 5.66561515461435e-02 3.30887656054102e-04
2.36487804878049e+00 5.61814788239476e-02 3.31413658024993e-04
2.41170731707317e+00 5.57107829721784e-02 3.31875381419752e-04
2.45853658536585e+00 5.52440306721090e-02 3.32275063540305e-04
2.50536585365854e+00 5.47811888841575e-02 3.32614847629724e-04
2.55219512195122e+00 5.43222248455475e-02 3.32896788067402e-04
2.59902439024390e+00 5.38671060679992e-02 3.33122855184090e-04
2.64585365853659e+00 5.34158003371319e-02 3.33294940938941e-04
2.69268292682927e+00 5.29682757050057e-02 3.33414862668024e-04
2.73951219512195e+00 5.25245004930907e-02 3.33484366505405e-04
2.78634146341463e+00 5.20844432882601e-02 3.33505132112852e-04
2.83317073170732e+00 5.16480729405692e-02 3.33478775855374e-04
2.88000000000000e+00 5.12153585610547e-02 3.33406853778305e-04
2.92682926829268e+00 5.07862695210128e-02 3.33290865493497e-04
2.97365853658537e+00 5.03607754453844e-02 3.33132256440447e-04
3.02048780487805e+00 4.99388462150947e-02 3.32932419954879e-04
3.06731707317073e+00 4.95204519634067e-02 3.32692700612479e-04
3.11414634146341e+00 4.91055630738112e-02 3.32414396252226e-04
3.16097560975610e+00 4.86941501779323e-02 3.32098759893491e-04
3.20780487804878e+00 4.82861841547186e-02 3.31747002545857e-04
3.25463414634146e+00 4.78816361245274e-02 3.31360294605378e-04
3.30146341463415e+00 4.74804774509715e-02 3.30939767130940e-04
3.34829268292683e+00 4.70826797375794e-02 3.30486514327841e-04
3.39512195121951e+00 4.66882148257906e-02 3.30001594878276e-04
3.44195121951220e+00 4.62970547929618e-02 3.29486033215044e-04
3.48878048780488e+00 4.59091719515013e-02 3.28940821645956e-04
3.53560975609756e+00 4.55245388435418e-02 3.28366921224513e-04
3.58243902439024e+00 4.51431282423948e-02 3.27765262541951e-04
3.62926829268293e+00 4.47649131494771e-02 3.27136747647713e-04
3.67609756097561e+00 4.43898667924059e-02 3.26482250945172e-04
3.72292682926829e+00 4.40179626231008e-02 3.25802620058236e-04
3.76975609756098e+00 4.36491743168832e-02 3.25098677497316e-04
3.81658536585366e+00 4.32834757676513e-02 3.24371221199094e-04
3.86341463414634e+00 4.29208410890196e-02 3.23621025012501e-04
3.91024390243902e+00 4.25612446114792e-02 3.22848840233271e-04
3.95707317073171e+00 4.22046608805862e-02 3.22055396019393e-04
4.00390243902439e+00 4.18510646560381e-02 3.21241400783507e-04
4.05073170731707e+00 4.15004309072222e-02 3.20407542548887e-04
4.09756097560976e+00 4.11527348141314e-02 3.19554489265064e-04
4.14439024390244e+00 4.08079517647033e-02 3.18682890106984e-04
4.19121951219512e+00 4.04660573530767e-02 3.17793375925313e-04
4.23804878048781e+00 4.01270273778680e-02 3.16886559691643e-04
4.28487804878049e+00 3.97908378412380e-02 3.15963037646925e-04
4.33170731707317e+00 3.94574649448269e-02 3.15023389505933e-04
4.37853658536585e+00 3.91268850904558e-02 3.14068178632268e-04
4.42536585365854e+00 3.87990748776538e-02 3.13097953124205e-04
4.47219512195122e+00 3.84740111020013e-02 3.12113246127344e-04
4.51902439024390e+00 3.81516707534896e-02 3.11114576148298e-04
4.56585365853658e+00 3.78320310155891e-02 3.10102448021497e-04
4.61268292682927e+00 3.75150692615222e-02 3.09077353012280e-04
4.65951219512195e+00 3.72007630547909e-02 3.08039768897716e-04
4.70634146341463e+00 3.68890901468723e-02 3.06990160890838e-04
4.75317073170732e+00 3.65800284756442e-02 3.05928981857461e-04
4.80000000000000e+00 3.62735561638247e-02 3.04856672537593e-04
4.84682926829268e+00 3.59696515180476e-02 3.03773662373077e-04
4.89365853658537e+00 3.56682930254365e-02 3.02680369542104e-04
4.94048780487805e+00 3.53694593539875e-02 3.01577200976410e-04
4.98731707317073e+00 3.50731293504182e-02 3.00464553159766e-04
5.03414634146341e+00 3.47792820386712e-02 2.99342812276874e-04
5.08097560975610e+00 3.44878966184300e-02 2.98212354368908e-04
5.12780487804878e+00 3.41989524642076e-02 2.97073546051883e-04
5.17463414634146e+00 3.39124291221876e-02 2.95926744504506e-04
5.22146341463415e+00 3.36283063104888e-02 2.94772297442278e-04
5.26829268292683e+00 3.33465639171534e-02 2.93610543815812e-04
5.31512195121951e+00 3.30671819987245e-02 2.92441813910883e-04
5.36195121951220e+00 3.27901407788347e-02 2.91266429456377e-04
5.40878048780488e+00 3.25154206473117e-02 2.90084704254896e-04
5.45560975609756e+00 3.22430021572595e-02 2.88896944138946e-04
5.50243902439024e+00 3.19728660252245e-02 2.87703446915869e-04
5.54926829268293e+00 3.17049931293118e-02 2.86504502984748e-04
5.59609756097561e+00 3.14393645078326e-02 2.85300395401106e-04
5.64292682926829e+00 3.11759613579620e-02 2.84091399949930e-04
5.68975609756098e+00 3.09147650348651e-02 2.82877785704408e-04
5.73658536585366e+00 3.06557570489938e-02 2.81659814960839e-04
5.78341463414634e+00 3.03989190661723e-02 2.80437743164211e-04
5.83024390243902e+00 3.01442329058298e-02 2.79211819457675e-04
5.87707317073171e+00 2.98916805397158e-02 2.77982286606339e-04
5.92390243902439e+00 2.96412440910435e-02 2.76749381505494e-04
5.97073170731707e+00 2.93929058319524e-02 2.75513335103635e-04
6.01756097560976e+00 2.91466481835355e-02 2.74274372317460e-04
6.06439024390244e+00 2.89024537141637e-02 2.73032712533488e-04
6.11121951219512e+00 2.86603051382520e-02 2.71788569630306e-04
6.15804878048781e+00 2.84201853150367e-02 2.70542152009345e-04
6.20487804878049e+00 2.81820772477439e-02 2.69293663051193e-04
6.25170731707317e+00 2.79459640812313e-02 2.68043301028978e-04
6.29853658536585e+00 2.77118291019587e-02 2.66791259014957e-04
6.34536585365854e+00 2.74796557364139e-02 2.65537725332627e-04
6.39219512195122e+00 2.72494275499393e-02 2.64282883564222e-04
6.43902439024390e+00 2.70211282455697e-02 2.63026912566520e-04
6.48585365853659e+00 2.67947416632252e-02 2.61769986882810e-04
6.53268292682927e+00 2.65702517775175e-02 2.60512276650572e-04
6.57951219512195e+00 2.63476426976736e-02 2.59253947503312e-04
6.62634146341463e+00 2.61268986660548e-02 2.57995160980088e-04
6.67317073170732e+00 2.59080040570422e-02 2.56736074522086e-04
6.72000000000000e+00 2.56909433759306e-02 2.55476841477289e-04
6.76682926829268e+00 2.54757012581480e-02 2.54217611474162e-04
6.81365853658537e+00 2.52622624672112e-02 2.52958530326466e-04
6.86048780487805e+00 2.50506118946113e-02 2.51699739932866e-04
6.90731707317073e+00 2.48407345584202e-02 2.50441378649481e-04
6.95414634146341e+00 2.46326156022302e-02 2.49183581278477e-04
7.00097560975610e+00 2.44262402941029e-02 2.47926479064390e-04
7.04780487804878e+00 2.42215940258151e-02 2.46670200034493e-04
7.09463414634146e+00 2.40186623109510e-02 2.45414868902650e-04
7.14146341463415e+00 2.38174307847571e-02 2.44160606968657e-04
7.18829268292683e+00 2.36178852028290e-02 2.42907532458340e-04
7.23512195121951e+00 2.34200114401044e-02 2.41655760506345e-04
7.28195121951220e+00 2.32237954898623e-02 2.40405403146284e-04
7.32878048780488e+00 2.30292234629964e-02 2.39156569621753e-04
7.37560975609756e+00 2.28362815862331e-02 2.37909366290732e-04
7.42243902439024e+00 2.26449562019606e-02 2.36663896525946e-04
7.46926829268293e+00 2.24552337669922e-02 2.35420261026337e-04
7.51609756097561e+00 2.22671008516082e-02 2.34178557795640e-04
7.56292682926829e+00 2.20805441386047e-02 2.32938882127976e-04
7.60975609756098e+00 2.18955504225930e-02 2.31701326892975e-04
7.65658536585366e+00 2.17121066083340e-02 2.30465982441679e-04
7.70341463414634e+00 2.15301997105471e-02 2.29232936508834e-04
7.75024390243902e+00 2.13498168527439e-02 2.28002274498946e-04
7.79707317073171e+00 2.11709452663171e-02 2.26774079391184e-04
7.84390243902439e+00 2.09935722898615e-02 2.25548432005137e-04
7.89073170731707e+00 2.08176853675981e-02 2.24325410908657e-04
7.93756097560976e+00 2.06432720491697e-02 2.23105092322360e-04
7.98439024390244e+00 2.04703199885295e-02 2.21887550386553e-04
8.03121951219512e+00 2.02988169430677e-02 2.20672857135049e-04
8.07804878048780e+00 2.01287507727446e-02 2.19461082475294e-04
8.12487804878049e+00 1.99601094394378e-02 2.18252294433069e-04
8.17170731707317e+00 1.97928810054666e-02 2.17046559062962e-04
8.21853658536585e+00 1.96270536333746e-02 2.15843940355822e-04
8.26536585365854e+00 1.94626155848813e-02 2.14644500484906e-04
8.31219512195122e+00 1.92995552200506e-02 2.13448299778354e-04
8.35902439024390e+00 1.91378609964678e-02 2.12255396697563e-04
8.40585365853659e+00 1.89775214686116e-02 2.11065848062976e-04
8.45268292682927e+00 1.88185252864710e-02 2.09879708967512e-04
8.49951219512195e+00 1.86608611953190e-02 2.08697032687342e-04
8.54634146341463e+00 1.85045180347222e-02 2.07517870909273e-04
8.59317073170732e+00 1.83494847377504e-02 2.06342273702409e-04
8.64000000000000e+00 1.81957503301942e-02 2.05170289495432e-04
8.68682926829268e+00 1.80433039299616e-02 2.04001965285276e-04
8.73365853658537e+00 1.78921347457812e-02 2.02837346553785e-04
8.78048780487805e+00 1.77422320769692e-02 2.01676477181949e-04
8.82731707317073e+00 1.75935853124929e-02 2.00519399660291e-04
8.87414634146342e+00 1.74461839302207e-02 1.99366155060187e-04
8.92097560975610e+00 1.73000174961766e-02 1.98216783010519e-04
8.96780487804878e+00 1.71550756639628e-02 1.97071321890809e-04
9.01463414634146e+00 1.70113481735413e-02 1.95929808751265e-04
9.06146341463415e+00 1.68688248509970e-02 1.94792279230526e-04
9.10829268292683e+00 1.67274956076527e-02 1.93658767750622e-04
9.15512195121951e+00 1.65873504393559e-02 1.92529307488355e-04
9.20195121951219e+00 1.64483794257701e-02 1.91403930351566e-04
9.24878048780488e+00 1.63105727298209e-02 1.90282667158221e-04
9.29560975609756e+00 1.61739205965519e-02 1.89165547559851e-04
9.34243902439024e+00 1.60384133528851e-02 1.88052599962856e-04
9.38926829268293e+00 1.59040414067846e-02 1.86943851709419e-04
9.43609756097561e+00 1.57707952465782e-02 1.85839329049142e-04
9.48292682926829e+00 1.56386654402835e-02 1.84739057115282e-04
9.52975609756098e+00 1.55076426350773e-02 1.83643060091005e-04
9.57658536585366e+00 1.53777175562204e-02 1.82551361136195e-04
9.62341463414634e+00 1.52488810068170e-02 1.81463982312324e-04
9.67024390243902e+00 1.51211238670240e-02 1.80380944750490e-04
9.71707317073171e+00 1.49944370934057e-02 1.79302268578655e-04
9.76390243902439e+00 1.48688117184213e-02 1.78227973078010e-04
9.81073170731707e+00 1.47442388494040e-02 1.77158076612609e-04
9.85756097560976e+00 1.46207096683202e-02 1.76092596557254e-04
9.90439024390244e+00 1.44982154310152e-02 1.75031549455659e-04
9.95121951219512e+00 1.43767474665936e-02 1.73974950992977e-04
9.99804878048780e+00 1.42562971768062e-02 1.72922815930556e-04
1.00448780487805e+01 1.41368560356769e-02 1.71875158502831e-04
1.00917073170732e+01 1.40184155878365e-02 1.70831992012445e-04
1.01385365853659e+01 1.39009674493531e-02 1.69793328268092e-04
1.01853658536585e+01 1.37845033076754e-02 1.68759179351063e-04
1.02321951219512e+01 1.36690149176060e-02 1.67729556591557e-04
1.02790243902439e+01 1.35544941041766e-02 1.66704469351104e-04
1.03258536585366e+01 1.34409327620059e-02 1.65683927491651e-04
1.03726829268293e+01 1.33283228514190e-02 1.64667940173090e-04
1.04195121951220e+01 1.32166564012033e-02 1.63656514673693e-04
1.04663414634146e+01 1.31059255079845e-02 1.62649658779610e-04
1.05131707317073e+01 1.29961223324870e-02 1.61647379621051e-04
1.05600000000000e+01 1.28872391021756e-02 1.60649682529482e-04
1.06068292682927e+01 1.27792681106485e-02 1.59656573350387e-04
1.06536585365854e+01 1.26722017140337e-02 1.58668057316513e-04
1.07004878048780e+01 1.25660323335219e-02 1.57684137940903e-04
1.07473170731707e+01 1.24607524547751e-02 1.56704819255676e-04
1.07941463414634e+01 1.23563546244536e-02 1.55730104720536e-04
1.08409756097561e+01 1.22528314526455e-02 1.54759996150922e-04
1.08878048780488e+01 1.21501756122904e-02 1.53794495885367e-04
1.09346341463415e+01 1.20483798358313e-02 1.52833605727807e-04
1.09814634146341e+01 1.19474369175456e-02 1.51877325909850e-04
1.10282926829268e+01 1.18473397129830e-02 1.50925657189149e-04
1.10751219512195e+01 1.17480811357383e-02 1.49978599824368e-04
1.11219512195122e+01 1.16496541596874e-02 1.49036152896314e-04
1.11687804878049e+01 1.15520518175716e-02 1.48098315033362e-04
1.12156097560976e+01 1.14552672013645e-02 1.47165085050189e-04
1.12624390243902e+01 1.13592934591888e-02 1.46236461307326e-04
1.13092682926829e+01 1.12641237974403e-02 1.45312440744655e-04
1.13560975609756e+01 1.11697514802603e-02 1.44393020833852e-04
1.14029268292683e+01 1.10761698265616e-02 1.43478198624017e-04
1.14497560975610e+01 1.09833722120661e-02 1.42567969804821e-04
1.14965853658537e+01 1.08913520687920e-02 1.41662330597380e-04
1.15434146341463e+01 1.08001028821848e-02 1.40761276829956e-04
1.15902439024390e+01 1.07096181930723e-02 1.39864803029824e-04
1.16370731707317e+01 1.06198915971660e-02 1.38972904254740e-04
1.16839024390244e+01 1.05309167422925e-02 1.38085575197369e-04
1.17307317073171e+01 1.04426873302707e-02 1.37202809305350e-04
1.17775609756098e+01 1.03551971164258e-02 1.36324600555363e-04
1.18243902439024e+01 1.02684399069177e-02 1.35450942584911e-04
1.18712195121951e+01 1.01824095605439e-02 1.34581827839989e-04
1.19180487804878e+01 1.00970999882653e-02 1.33717249293615e-04
1.19648780487805e+01 1.00125051506285e-02 1.32857199604066e-04
1.20117073170732e+01 9.92861905949692e-03 1.32001670556530e-04
1.20585365853659e+01 9.84543577690354e-03 1.31150653656432e-04
1.21053658536585e+01 9.76294941530880e-03 1.30304140652111e-04
1.21521951219512e+01 9.68115413513625e-03 1.29462123007775e-04
1.21990243902439e+01 9.60004414641889e-03 1.28624591109347e-04
1.22458536585366e+01 9.51961370835267e-03 1.27791535865103e-04
1.22926829268293e+01 9.43985712691721e-03 1.26962947920941e-04
1.23395121951220e+01 9.36076875645670e-03 1.26138816890290e-04
1.23863414634146e+01 9.28234299924574e-03 1.25319132905023e-04
1.24331707317073e+01 9.20457430319167e-03 1.24503885855129e-04
1.24800000000000e+01 9.12745716335308e-03 1.23693064641923e-04
1.25268292682927e+01 9.05098612151738e-03 1.22886658680950e-04
1.25736585365854e+01 8.97515576398175e-03 1.22084657165080e-04
1.26204878048780e+01 8.89996072301209e-03 1.21287048340427e-04
1.26673170731707e+01 8.82539567643165e-03 1.20493820962892e-04
1.27141463414634e+01 8.75145534547772e-03 1.19704963583640e-04
1.27609756097561e+01 8.67813449620390e-03 1.18920463847274e-04
1.28078048780488e+01 8.60542793907885e-03 1.18140309903478e-04
1.28546341463415e+01 8.53333052691639e-03 1.17364489714007e-04
1.29014634146341e+01 8.46183715622319e-03 1.16592990372526e-04
1.29482926829268e+01 8.39094276680758e-03 1.15825799472816e-04
1.29951219512195e+01 8.32064233978010e-03 1.15062904436590e-04
1.30419512195122e+01 8.25093089884906e-03 1.14304292067452e-04
1.30887804878049e+01 8.18180350941468e-03 1.13549949022530e-04
1.31356097560976e+01 8.11325527873927e-03 1.12799862228177e-04
1.31824390243902e+01 8.04528135403359e-03 1.12054018458707e-04
1.32292682926829e+01 7.97787692368962e-03 1.11312403701839e-04
1.32760975609756e+01 7.91103721691270e-03 1.10575004434322e-04
1.33229268292683e+01 7.84475750187215e-03 1.09841806995001e-04
1.33697560975610e+01 7.77903308688625e-03 1.09112796969238e-04
1.34165853658537e+01 7.71385932006425e-03 1.08387960425521e-04
1.34634146341463e+01 7.64923158751897e-03 1.07667283307751e-04
1.35102439024390e+01 7.58514531450590e-03 1.06950750838034e-04
1.35570731707317e+01 7.52159596507483e-03 1.06238348715628e-04
1.36039024390244e+01 7.45857904034203e-03 1.05530062527582e-04
1.36507317073171e+01 7.39609007958586e-03 1.04825877169580e-04
1.36975609756098e+01 7.33412465990702e-03 1.04125778008449e-04
1.37443902439024e+01 7.27267839455860e-03 1.03429750310329e-04
1.37912195121951e+01 7.21174693399988e-03 1.02737778679181e-04
1.38380487804878e+01 7.15132596556496e-03 1.02049848183972e-04
1.38848780487805e+01 7.09141121184860e-03 1.01365943803840e-04
1.39317073170732e+01 7.03199843171987e-03 1.00686050059527e-04
1.39785365853659e+01 6.97308341958055e-03 1.00010151401555e-04
1.40253658536585e+01 6.91466200548197e-03 9.93382325524747e-05
1.40721951219512e+01 6.85673005357893e-03 9.86702781586195e-05
1.41190243902439e+01 6.79928346309514e-03 9.80062722661313e-05
1.41658536585366e+01 6.74231816801124e-03 9.73461993725984e-05
1.42126829268293e+01 6.68583013556978e-03 9.66900439090789e-05
1.42595121951220e+01 6.62981536720373e-03 9.60377897316235e-05
1.43063414634146e+01 6.57426989823288e-03 9.53894211411542e-05
1.43531707317073e+01 6.51918979641793e-03 9.47449223811671e-05
1.44000000000000e+01 6.46457116285363e-03 9.41042771442873e-05
1.44468292682927e+01 6.41041013167327e-03 9.34674695614145e-05
1.44936585365854e+01 6.35670286865012e-03 9.28344837145248e-05
1.45404878048780e+01 6.30344557205679e-03 9.22053031578891e-05
1.45873170731707e+01 6.25063447237732e-03 9.15799118774720e-05
1.46341463414634e+01 6.19826583095443e-03 9.09582938182002e-05
1.46809756097561e+01 6.14633594081658e-03 9.03404324195461e-05
1.47278048780488e+01 6.09484112639721e-03 8.97263115461106e-05
1.47746341463415e+01 6.04377774222630e-03 8.91159150288121e-05
