Energy (eV)          EEDF (eV^-(3/2))     First Anisotropy
4.79411764705882e-04 3.87973908561432e+01 2.12745337436770e-02
1.43823529411765e-03 3.84046928462977e+01 3.50704116331263e-02
2.39705882352941e-03 3.80159696324510e+01 4.61385285579965e-02
3.35588235294118e-03 3.76311809830545e+01 5.44512906661724e-02
4.31470588235294e-03 3.72502870733406e+01 6.13054318332356e-02
5.27352941176471e-03 3.68732484816653e+01 6.71936124202844e-02
6.23235294117647e-03 3.65000261854074e+01 7.23719610696095e-02
7.19117647058823e-03 3.61305815569254e+01 7.69958416745440e-02
8.15000000000000e-03 3.57648763595587e+01 8.11687504527741e-02
9.10882352941176e-03 3.54028727439762e+01 8.49641565643584e-02
1.00676470588235e-02 3.50445332433042e+01 8.84366811782058e-02
1.10264705882353e-02 3.46898207706984e+01 9.16283898666195e-02
1.19852941176471e-02 3.43386986121655e+01 9.45725926433516e-02
1.29441176470588e-02 3.39911304297671e+01 9.72962680795935e-02
1.39029411764706e-02 3.36470802508523e+01 9.98216785000690e-02
1.48617647058824e-02 3.33065124669022e+01 1.02167485011362e-01
1.58205882352941e-02 3.29693918283146e+01 1.04349540832500e-01
1.67794117647059e-02 3.26356834455501e+01 1.06381470493315e-01
1.77382352941176e-02 3.23053527804631e+01 1.08275101902622e-01
1.86970588235294e-02 3.19783656432582e+01 1.10040794193327e-01
1.96558823529412e-02 3.16546881928902e+01 1.11687691697555e-01
2.06147058823529e-02 3.13342869294300e+01 1.13223923116769e-01
2.15735294117647e-02 3.10171286920425e+01 1.14656759580729e-01
2.25323529411765e-02 3.07031806545428e+01 1.15992741798521e-01
2.34911764705882e-02 3.03924103250969e+01 1.17237783638109e-01
2.44500000000000e-02 3.00847855396522e+01 1.18397257215742e-01
2.54088235294118e-02 2.97802744588565e+01 1.19476062891709e-01
2.63676470588235e-02 2.94788455674359e+01 1.20478688178184e-01
2.73264705882353e-02 2.91804676681640e+01 1.21409257295320e-01
2.82852941176471e-02 2.88851098788310e+01 1.22271572703960e-01
2.92441176470588e-02 2.85927416313908e+01 1.23069150942736e-01
3.02029411764706e-02 2.83033326663837e+01 1.23805253316395e-01
3.11617647058824e-02 2.80168530306300e+01 1.24482912163073e-01
3.21205882352941e-02 2.77332730734957e+01 1.25104953637246e-01
3.30794117647059e-02 2.74525634457807e+01 1.25674017714384e-01
3.40382352941176e-02 2.71746950946672e+01 1.26192575736956e-01
3.49970588235294e-02 2.68996392608395e+01 1.26662945458175e-01
3.59558823529412e-02 2.66273674772526e+01 1.27087304675820e-01
3.69147058823529e-02 2.63578515643923e+01 1.27467703266696e-01
3.78735294117647e-02 2.60910636279737e+01 1.27806073716691e-01
3.88323529411765e-02 2.58269760555623e+01 1.28104240523435e-01
3.97911764705882e-02 2.55655615152165e+01 1.28363928744129e-01
4.07500000000000e-02 2.53067929511245e+01 1.28586771703339e-01
4.17088235294118e-02 2.50506435808856e+01 1.28774317610332e-01
4.26676470588235e-02 2.47970868940966e+01 1.28928035840576e-01
4.36264705882353e-02 2.45460966482170e+01 1.29049322618297e-01
4.45852941176471e-02 2.42976468659244e+01 1.29139505869776e-01
4.55441176470588e-02 2.40517118336630e+01 1.29199849928978e-01
4.65029411764706e-02 2.38082660977192e+01 1.29231559795074e-01
4.74617647058823e-02 2.35672844620157e+01 1.29235784886240e-01
4.84205882352941e-02 2.33287419851494e+01 1.29213622486001e-01
4.93794117647059e-02 2.30926139788966e+01 1.29166121015660e-01
5.03382352941176e-02 2.28588760045479e+01 1.29094283071477e-01
5.12970588235294e-02 2.26275038704323e+01 1.28999067959350e-01
5.22558823529412e-02 2.23984736304094e+01 1.28881394287169e-01
5.32147058823529e-02 2.21717615803742e+01 1.28742142332425e-01
5.41735294117647e-02 2.19473442561503e+01 1.28582156116102e-01
5.51323529411765e-02 2.17251984307698e+01 1.28402245334219e-01
5.60911764705882e-02 2.15053011129554e+01 1.28203187248179e-01
5.70500000000000e-02 2.12876295438394e+01 1.27985728468975e-01
5.80088235294118e-02 2.10721611946464e+01 1.27750586389294e-01
5.89676470588235e-02 2.08588737651801e+01 1.27498450741967e-01
5.99264705882353e-02 2.06477451806814e+01 1.27229985054097e-01
6.08852941176471e-02 2.04387535895785e+01 1.26945827788664e-01
6.18441176470588e-02 2.02318773619840e+01 1.26646593625379e-01
6.28029411764706e-02 2.00270950866845e+01 1.26332874638444e-01
6.37617647058824e-02 1.98243855691860e+01 1.26005241303387e-01
6.47205882352941e-02 1.96237278292966e+01 1.25664243450648e-01
6.56794117647059e-02 1.94251010996371e+01 1.25310411244113e-01
6.66382352941177e-02 1.92284848227980e+01 1.24944256124368e-01
6.75970588235294e-02 1.90338586492396e+01 1.24566271505259e-01
6.85558823529412e-02 1.88412024358196e+01 1.24176933618854e-01
6.95147058823529e-02 1.86504962430641e+01 1.23776702293018e-01
7.04735294117647e-02 1.84617203333221e+01 1.23366021599614e-01
7.14323529411765e-02 1.82748551685338e+01 1.22945320474755e-01
7.23911764705882e-02 1.80898814087828e+01 1.22515013378438e-01
7.33500000000000e-02 1.79067799097116e+01 1.22075500939508e-01
7.43088235294118e-02 1.77255317205613e+01 1.21627170396657e-01
7.52676470588235e-02 1.75461180827470e+01 1.21170396183893e-01
7.62264705882353e-02 1.73685204273710e+01 1.20705540486122e-01
7.71852941176471e-02 1.71927203733208e+01 1.20232953604408e-01
7.81441176470588e-02 1.70186997258693e+01 1.19752974462833e-01
7.91029411764706e-02 1.68464404742811e+01 1.19265931074213e-01
8.00617647058823e-02 1.66759247901217e+01 1.18772140910065e-01
8.10205882352941e-02 1.65071350252614e+01 1.18271911259438e-01
8.19794117647059e-02 1.63400537105063e+01 1.17765539633082e-01
8.29382352941176e-02 1.61746635533261e+01 1.17253314166165e-01
8.38970588235294e-02 1.60109474360806e+01 1.16735513857578e-01
8.48558823529412e-02 1.58488884146773e+01 1.16212408941156e-01
8.58147058823529e-02 1.56884697163819e+01 1.15684261225535e-01
8.67735294117647e-02 1.55296747382301e+01 1.15151324353635e-01
8.77323529411765e-02 1.53724870451797e+01 1.14613844056660e-01
8.86911764705882e-02 1.52168903688025e+01 1.14072058452695e-01
8.96500000000000e-02 1.50628686052020e+01 1.13526198348200e-01
9.06088235294118e-02 1.49104058133604e+01 1.12976487396977e-01
9.15676470588235e-02 1.47594862138580e+01 1.12423142380345e-01
9.25264705882353e-02 1.46100941868651e+01 1.11866373475784e-01
9.34852941176471e-02 1.44622142705380e+01 1.11306384390361e-01
9.44441176470588e-02 1.43158311597666e+01 1.10743372611185e-01
9.54029411764706e-02 1.41709297042376e+01 1.10177529633341e-01
9.63617647058824e-02 1.40274949069858e+01 1.09609041122595e-01
9.73205882352941e-02 1.38855119227362e+01 1.09038087076801e-01
9.82794117647059e-02 1.37449660566882e+01 1.08464842028904e-01
9.92382352941176e-02 1.36058427626695e+01 1.07889475255540e-01
1.00197058823529e-01 1.34681276416421e+01 1.07312150913185e-01
1.01155882352941e-01 1.33318064401189e+01 1.06733028033136e-01
1.02114705882353e-01 1.31968650500584e+01 1.06152261026703e-01
1.03073529411765e-01 1.30632895043716e+01 1.05569999547159e-01
1.04032352941176e-01 1.29310659792469e+01 1.04986388713567e-01
1.04991176470588e-01 1.28001807889270e+01 1.04401569264971e-01
1.05950000000000e-01 1.26706203880081e+01 1.03815677661770e-01
1.06908823529412e-01 1.25423713663970e+01 1.03228846241865e-01
1.07867647058824e-01 1.24154204514914e+01 1.02641203313862e-01
1.08826470588235e-01 1.22897545033087e+01 1.02052873303588e-01
1.09785294117647e-01 1.21653605165551e+01 1.01463976839830e-01
1.10744117647059e-01 1.20422256159172e+01 1.00874630891983e-01
1.11702941176471e-01 1.19203370580262e+01 1.00284948849020e-01
1.12661764705882e-01 1.17996822269068e+01 9.96950406489748e-02
1.13620588235294e-01 1.16802486358407e+01 9.91050128517052e-02
1.14579411764706e-01 1.15620239229662e+01 9.85149688547596e-02
1.15538235294118e-01 1.14449958523129e+01 9.79250085835005e-02
1.16497058823529e-01 1.13291523124892e+01 9.73352291675015e-02
1.17455882352941e-01 1.12144813132289e+01 9.67457246473620e-02
1.18414705882353e-01 1.11009709870638e+01 9.61565861355225e-02
1.19373529411765e-01 1.09886095852373e+01 9.55679019221252e-02
1.20332352941176e-01 1.08773854792928e+01 9.49797575296415e-02
1.21291176470588e-01 1.07672871571181e+01 9.43922358129303e-02
1.22250000000000e-01 1.06583032244545e+01 9.38054170097224e-02
1.23208823529412e-01 1.05504224010679e+01 9.32193788353000e-02
1.24167647058824e-01 1.04436335221810e+01 9.26341965291724e-02
1.25126470588235e-01 1.03379255347665e+01 9.20499429447476e-02
1.26085294117647e-01 1.02332874989074e+01 9.14666885924987e-02
1.27044117647059e-01 1.01297085842064e+01 9.08845017249714e-02
1.28002941176471e-01 1.00271780710786e+01 9.03034483767222e-02
1.28961764705882e-01 9.92568534727205e+00 8.97235924449711e-02
1.29920588235294e-01 9.82521990909637e+00 8.91449957265640e-02
1.30879411764706e-01 9.72577135805119e+00 8.85677180684359e-02
1.31838235294118e-01 9.62732940145183e+00 8.79918171051984e-02
1.32797058823529e-01 9.52988385133066e+00 8.74173487735971e-02
1.33755882352941e-01 9.43342462176249e+00 8.68443670648636e-02
1.34714705882353e-01 9.33794172996796e+00 8.62729241349477e-02
1.35673529411765e-01 9.24342529317151e+00 8.57030703722486e-02
1.36632352941176e-01 9.14986552964974e+00 8.51348544256144e-02
1.37591176470588e-01 9.05725275568463e+00 8.45683232688019e-02
1.38550000000000e-01 8.96557738655969e+00 8.40035222264164e-02
1.39508823529412e-01 8.87482993360483e+00 8.34404950353089e-02
1.40467647058824e-01 8.78500100514287e+00 8.28792838685771e-02
1.41426470588235e-01 8.69608130362282e+00 8.23199293940997e-02
1.42385294117647e-01 8.60806162651917e+00 8.17624707967640e-02
1.43344117647059e-01 8.52093286355033e+00 8.12069458342627e-02
1.44302941176471e-01 8.43468599753305e+00 8.06533908576761e-02
1.45261764705882e-01 8.34931210168301e+00 8.01018408647334e-02
1.46220588235294e-01 8.26480234042656e+00 7.95523295188422e-02
1.47179411764706e-01 8.18114796678051e+00 7.90048892585523e-02
1.48138235294118e-01 8.09834032271847e+00 7.84595510799014e-02
1.49097058823529e-01 8.01637083825021e+00 7.79163449352613e-02
1.50055882352941e-01 7.93523102932248e+00 7.73752995281488e-02
1.51014705882353e-01 7.85491249854833e+00 7.68364423921489e-02
1.51973529411765e-01 7.77540693275796e+00 7.62997999364658e-02
1.52932352941176e-01 7.69670610369150e+00 7.57653974602332e-02
1.53891176470588e-01 7.61880186562060e+00 7.52332591960868e-02
1.54850000000000e-01 7.54168615600633e+00 7.47034083233735e-02
1.55808823529412e-01 7.46535099318905e+00 7.41758670098419e-02
1.56767647058824e-01 7.38978847701322e+00 7.36506564238285e-02
1.57726470588235e-01 7.31499078658320e+00 7.31277967741699e-02
1.58685294117647e-01 7.24095018085645e+00 7.26073073214345e-02
1.59644117647059e-01 7.16765899646312e+00 7.20892064161385e-02
1.60602941176471e-01 7.09510964826923e+00 7.15735115090990e-02
1.61561764705882e-01 7.02329462725778e+00 7.10602391880431e-02
1.62520588235294e-01 6.95220650106333e+00 7.05494051871319e-02
1.63479411764706e-01 6.88183791191272e+00 7.00410244688306e-02
1.64438235294118e-01 6.81218157682566e+00 6.95351110448935e-02
1.65397058823529e-01 6.74323028684272e+00 6.90316782895271e-02
1.66355882352941e-01 6.67497690536097e+00 6.85307387707079e-02
1.67314705882353e-01 6.60741436861337e+00 6.80323043083563e-02
1.68273529411765e-01 6.54053568373960e+00 6.75363860060553e-02
1.69232352941176e-01 6.47433392924086e+00 6.70429942579656e-02
1.70191176470588e-01 6.40880225310417e+00 6.65521387792808e-02
1.71150000000000e-01 6.34393387323367e+00 6.60638286125292e-02
1.72108823529412e-01 6.27972207562673e+00 6.55780721567998e-02
1.73067647058824e-01 6.21616021478287e+00 6.50948771734986e-02
1.74026470588235e-01 6.15324171193001e+00 6.46142508144115e-02
1.74985294117647e-01 6.09096005541200e+00 6.41361996269215e-02
1.75944117647059e-01 6.02930879896344e+00 6.36607295809607e-02
1.76902941176471e-01 5.96828156207693e+00 6.31878460737593e-02
1.77861764705882e-01 5.90787202832478e+00 6.27175539557290e-02
1.78820588235294e-01 5.84807394570697e+00 6.22498575347419e-02
1.79779411764706e-01 5.78888112501833e+00 6.17847606385437e-02
1.80738235294118e-01 5.73028743994342e+00 6.13222664680002e-02
1.81697058823529e-01 5.67228682640864e+00 6.08623778451968e-02
1.82655882352941e-01 5.61487328125217e+00 6.04050970751881e-02
1.83614705882353e-01 5.55804086253472e+00 5.99504259897412e-02
1.84573529411765e-01 5.50178368800722e+00 5.94983659699877e-02
1.85532352941176e-01 5.44609593540492e+00 5.90489179492312e-02
1.86491176470588e-01 5.39097184095607e+00 5.86020824347273e-02
1.87450000000000e-01 5.33640569966016e+00 5.81578595101582e-02
1.88408823529412e-01 5.28239186383643e+00 5.77162488565899e-02
1.89367647058824e-01 5.22892474338688e+00 5.72772497546394e-02
1.90326470588235e-01 5.17599880438343e+00 5.68408611046356e-02
1.91285294117647e-01 5.12360856931642e+00 5.64070814284889e-02
1.92244117647059e-01 5.07174861571926e+00 5.59759088891043e-02
1.93202941176471e-01 5.02041357640309e+00 5.55473412919804e-02
1.94161764705882e-01 4.96959813811774e+00 5.51213761038919e-02
1.95120588235294e-01 4.91929704177328e+00 5.46980104542316e-02
1.96079411764706e-01 4.86950508113612e+00 5.42772411832388e-02
1.97038235294118e-01 4.82021710285709e+00 5.38590647217982e-02
1.97997058823529e-01 4.77142800592748e+00 5.34434772893150e-02
1.98955882352941e-01 4.72313274060931e+00 5.30304747804945e-02
1.99914705882353e-01 4.67532630863181e+00 5.26200527987204e-02
2.00873529411765e-01 4.62800376196599e+00 5.22122066725109e-02
2.01832352941176e-01 4.58116020300984e+00 5.18069314560319e-02
2.02791176470588e-01 4.53479078339479e+00 5.14042219449440e-02
2.03750000000000e-01 4.48889070416008e+00 5.10040726767301e-02
2.04708823529412e-01 4.44345521459020e+00 5.06064779459732e-02
2.05667647058824e-01 4.39847961237898e+00 5.02114318045071e-02
2.06626470588235e-01 4.35395924249707e+00 4.98189280761400e-02
2.07585294117647e-01 4.30988949734620e+00 4.94289603566502e-02
2.08544117647059e-01 4.26626581565592e+00 4.90415220279763e-02
2.09502941176471e-01 4.22308368262842e+00 4.86566062580644e-02
2.10461764705882e-01 4.18033862886365e+00 4.82742060145499e-02
2.11420588235294e-01 4.13802623049521e+00 4.78943140644652e-02
2.12379411764706e-01 4.09614210814305e+00 4.75169230118644e-02
2.13338235294118e-01 4.05468192690017e+00 4.71420251993630e-02
2.14297058823529e-01 4.01364139587591e+00 4.67696128667731e-02
2.15255882352941e-01 3.97301626733100e+00 4.63996780583529e-02
2.16214705882353e-01 3.93280233679658e+00 4.60322126485615e-02
2.17173529411765e-01 3.89299544208872e+00 4.56672083541618e-02
2.18132352941176e-01 3.85359146341983e+00 4.53046567334638e-02
2.19091176470588e-01 3.81458632243813e+00 4.49445491980052e-02
2.20050000000000e-01 3.77597598233171e+00 4.45868770116938e-02
2.21008823529412e-01 3.73775644689243e+00 4.42316313020712e-02
2.21967647058824e-01 3.69992376061294e+00 4.38788030593720e-02
2.22926470588235e-01 3.66247400777420e+00 4.35283831473942e-02
2.23885294117647e-01 3.62540331253588e+00 4.31803623024662e-02
2.24844117647059e-01 3.58870783804689e+00 4.28347311439436e-02
2.25802941176471e-01 3.55238378652940e+00 4.24914801731008e-02
2.26761764705882e-01 3.51642739841171e+00 4.21505997832536e-02
2.27720588235294e-01 3.48083495240625e+00 4.18120802585828e-02
2.28679411764706e-01 3.44560276466421e+00 4.14759118037165e-02
2.29638235294118e-01 3.41072718873787e+00 4.11420844630159e-02
2.30597058823529e-01 3.37620461519691e+00 4.08105882482802e-02
2.31555882352941e-01 3.34203147092603e+00 4.04814130627033e-02
2.32514705882353e-01 3.30820421919176e+00 4.01545487209060e-02
2.33473529411765e-01 3.27471935884615e+00 3.98299849579315e-02
2.34432352941176e-01 3.24157342438840e+00 3.95077114278155e-02
2.35391176470588e-01 3.20876298518838e+00 3.91877177122672e-02
2.36350000000000e-01 3.17628464554331e+00 3.88699933191988e-02
2.37308823529412e-01 3.14413504392054e+00 3.85545276911077e-02
2.38267647058824e-01 3.11231085300953e+00 3.82413102035633e-02
2.39226470588235e-01 3.08080877898337e+00 3.79303301733014e-02
2.40185294117647e-01 3.04962556154631e+00 3.76215768566697e-02
2.41144117647059e-01 3.01875797321349e+00 3.73150394574487e-02
2.42102941176471e-01 2.98820281935421e+00 3.70107071252607e-02
2.43061764705882e-01 2.95795693748943e+00 3.67085689631247e-02
2.44020588235294e-01 2.92801719733097e+00 3.64086140258332e-02
2.44979411764706e-01 2.89838050009631e+00 3.61108313433447e-02
2.45938235294118e-01 2.86904377845760e+00 3.58152098545547e-02
2.46897058823529e-01 2.84000399621929e+00 3.55217385104508e-02
2.47855882352941e-01 2.81125814774567e+00 3.52304062117105e-02
2.48814705882353e-01 2.78280325799272e+00 3.49412018243786e-02
2.49773529411765e-01 2.75463638186218e+00 3.46541141865899e-02
2.50732352941176e-01 2.72675460422994e+00 3.43691321068332e-02
2.51691176470588e-01 2.69915503931585e+00 3.40862443704454e-02
2.52650000000000e-01 2.67183483070888e+00 3.38054397378594e-02
2.53608823529412e-01 2.64479115075228e+00 3.35267069508785e-02
2.54567647058824e-01 2.61802120056556e+00 3.32500347309096e-02
2.55526470588235e-01 2.59152220944464e+00 3.29754117850275e-02
2.56485294117647e-01 2.56529143488089e+00 3.27028268041939e-02
2.57444117647059e-01 2.53932616197582e+00 3.24322684691157e-02
2.58402941176471e-01 2.51362370345727e+00 3.21637254484598e-02
2.59361764705882e-01 2.48818139910831e+00 3.18971864045125e-02
2.60320588235294e-01 2.46299661578076e+00 3.16326399913782e-02
2.61279411764706e-01 2.43806674683791e+00 3.13700748735655e-02
2.62238235294118e-01 2.41338921209739e+00 3.11094796715853e-02
2.63197058823529e-01 2.38896145756029e+00 3.08508430455131e-02
2.64155882352941e-01 2.36478095494317e+00 3.05941536437205e-02
2.65114705882353e-01 2.34084520168687e+00 3.03394001152121e-02
2.66073529411765e-01 2.31715172043082e+00 3.00865711146700e-02
2.67032352941176e-01 2.29369805901960e+00 2.98356553006194e-02
2.67991176470588e-01 2.27048178998983e+00 2.95866413403106e-02
2.68950000000000e-01 2.24750051057466e+00 2.93395179078820e-02
2.69908823529412e-01 2.22475184220295e+00 2.90942736890787e-02
2.70867647058824e-01 2.20223343050165e+00 2.88508973794196e-02
2.71826470588235e-01 2.17994294480708e+00 2.86093776887530e-02
2.72785294117647e-01 2.15787807816535e+00 2.83697033394317e-02
2.73744117647059e-01 2.13603654685531e+00 2.81318630707183e-02
2.74702941176471e-01 2.11441609038716e+00 2.78958456369596e-02
2.75661764705882e-01 2.09301447103680e+00 2.76616398118486e-02
2.76620588235294e-01 2.07182947384269e+00 2.74292343866024e-02
2.77579411764706e-01 2.05085890615131e+00 2.71986181847819e-02
2.78538235294118e-01 2.03010059755856e+00 2.69697800175489e-02
2.79497058823529e-01 2.00955239968204e+00 2.67427087515303e-02
2.80455882352941e-01 1.98921218577747e+00 2.65173932666532e-02
2.81414705882353e-01 1.96907785073280e+00 2.62938224658802e-02
2.82373529411765e-01 1.94914731063907e+00 2.60719852790140e-02
2.83332352941176e-01 1.92941850278307e+00 2.58518706608879e-02
2.84291176470588e-01 1.90988938522838e+00 2.56334675950406e-02
2.85250000000000e-01 1.89055793680670e+00 2.54167650919165e-02
2.86208823529412e-01 1.87142215670875e+00 2.52017521924189e-02
2.87167647058824e-01 1.85248006447439e+00 2.49884179661212e-02
2.88126470588235e-01 1.83372969959317e+00 2.47767515147048e-02
2.89085294117647e-01 1.81516912149318e+00 2.45667419701787e-02
2.90044117647059e-01 1.79679640915111e+00 2.43583784982028e-02
2.91002941176471e-01 1.77860966107992e+00 2.41516502963209e-02
2.91961764705882e-01 1.76060699494811e+00 2.39465465971761e-02
2.92920588235294e-01 1.74278654756631e+00 2.37430566667550e-02
2.93879411764706e-01 1.72514647451553e+00 2.35411698162409e-02
2.94838235294118e-01 1.70768495008992e+00 2.33408753651853e-02
2.95797058823529e-01 1.69040016710542e+00 2.31421626967256e-02
2.96755882352941e-01 1.67329033658463e+00 2.29450212228703e-02
2.97714705882353e-01 1.65635368774182e+00 2.27494403922174e-02
2.98673529411765e-01 1.63958846763180e+00 2.25554096928199e-02
2.99632352941176e-01 1.62299294113411e+00 2.23629186504708e-02
3.00591176470588e-01 1.60656539061004e+00 2.21719568314756e-02
3.01550000000000e-01 1.59030411588605e+00 2.19825138409496e-02
3.02508823529412e-01 1.57420743391878e+00 2.17945793255017e-02
