Energy (eV)          EEDF (eV^-(3/2))     First Anisotropy
1.45178571428571e-03 9.82328565573662e+00 6.56300971518815e-03
4.35535714285714e-03 9.70282074485531e+00 1.08072758215303e-02
7.25892857142857e-03 9.58383311919346e+00 1.41872614096478e-02
1.01625000000000e-02 9.46630466252732e+00 1.67071537010513e-02
1.30660714285714e-02 9.35021748093612e+00 1.87695000221555e-02
1.59696428571429e-02 9.23555389975501e+00 2.05277427830012e-02
1.88732142857143e-02 9.12229646048506e+00 2.20619048487880e-02
2.17767857142857e-02 9.01042791996499e+00 2.34206743552133e-02
2.46803571428571e-02 8.89993124577434e+00 2.46365813811226e-02
2.75839285714286e-02 8.79078961404983e+00 2.57327851138483e-02
3.04875000000000e-02 8.68298640804056e+00 2.67265522305185e-02
3.33910714285714e-02 8.57650521433321e+00 2.76312170869495e-02
3.62946428571429e-02 8.47132982080538e+00 2.84573669324824e-02
3.91982142857143e-02 8.36744421391917e+00 2.92135987887629e-02
4.21017857142857e-02 8.26483257701928e+00 2.99070243931138e-02
4.50053571428572e-02 8.16347928713993e+00 3.05436193159655e-02
4.79089285714286e-02 8.06336891272286e+00 3.11284715355871e-02
5.08125000000000e-02 7.96448621184895e+00 3.16659631652560e-02
5.37160714285714e-02 7.86681612930266e+00 3.21599061544236e-02
5.66196428571429e-02 7.77034379449559e+00 3.26136455217200e-02
5.95232142857143e-02 7.67505451906035e+00 3.30301392541488e-02
6.24267857142857e-02 7.58093379505397e+00 3.34120211017872e-02
6.53303571428571e-02 7.48796729228973e+00 3.37616505682736e-02
6.82339285714286e-02 7.39614085619733e+00 3.40811530838353e-02
7.11375000000000e-02 7.30544050603823e+00 3.43724527939282e-02
7.40410714285714e-02 7.21585243239131e+00 3.46372995051450e-02
7.69446428571429e-02 7.12736299518382e+00 3.48772909942662e-02
7.98482142857143e-02 7.03995872151780e+00 3.50938916657852e-02
8.27517857142857e-02 6.95362630391751e+00 3.52884483001596e-02
8.56553571428572e-02 6.86835259799427e+00 3.54622034220916e-02
8.85589285714286e-02 6.78412462046815e+00 3.56163066411506e-02
9.14625000000000e-02 6.70092954745149e+00 3.57518244605316e-02
9.43660714285714e-02 6.61875471222758e+00 3.58697487410532e-02
9.72696428571429e-02 6.53758760341453e+00 3.59710040163985e-02
1.00173214285714e-01 6.45741586298953e+00 3.60564538769113e-02
1.03076785714286e-01 6.37822728462494e+00 3.61269065627436e-02
1.05980357142857e-01 6.30000981186531e+00 3.61831200266801e-02
1.08883928571429e-01 6.22275153520034e+00 3.62258060742987e-02
1.11787500000000e-01 6.14644069245195e+00 3.62556343733975e-02
1.14691071428571e-01 6.07106566444190e+00 3.62732358667434e-02
1.17594642857143e-01 5.99661497568152e+00 3.62792058267241e-02
1.20498214285714e-01 5.92307729024509e+00 3.62741066226072e-02
1.23401785714286e-01 5.85044141234749e+00 3.62584701214130e-02
1.26305357142857e-01 5.77869628291859e+00 3.62328001551674e-02
1.29208928571429e-01 5.70783097803271e+00 3.61975741853051e-02
1.32112500000000e-01 5.63783470871601e+00 3.61532453538490e-02
1.35016071428571e-01 5.56869681734129e+00 3.61002440936557e-02
1.37919642857143e-01 5.50040677791015e+00 3.60389796236137e-02
1.40823214285714e-01 5.43295419260123e+00 3.59698413387026e-02
1.43726785714286e-01 5.36632879198270e+00 3.58932000087470e-02
1.46630357142857e-01 5.30052043210668e+00 3.58094091353037e-02
1.49533928571429e-01 5.23551909304465e+00 3.57188057149889e-02
1.52437500000000e-01 5.17131487852736e+00 3.56217114069373e-02
1.55341071428571e-01 5.10789801288368e+00 3.55184333915710e-02
1.58244642857143e-01 5.04525884106444e+00 3.54092651888849e-02
1.61148214285714e-01 4.98338782570101e+00 3.52944874369825e-02
1.64051785714286e-01 4.92227554708527e+00 3.51743685513204e-02
1.66955357142857e-01 4.86191270066473e+00 3.50491655583294e-02
1.69858928571429e-01 4.80229009568464e+00 3.49191244541786e-02
1.72762500000000e-01 4.74339865472956e+00 3.47844809403250e-02
1.75666071428571e-01 4.68522941108684e+00 3.46454609208467e-02
1.78569642857143e-01 4.62777350860409e+00 3.45022809886980e-02
1.81473214285714e-01 4.57102219914895e+00 3.43551488986269e-02
1.84376785714286e-01 4.51496684243910e+00 3.42042639561292e-02
1.87280357142857e-01 4.45959890385793e+00 3.40498175739135e-02
1.90183928571429e-01 4.40490995319948e+00 3.38919934329024e-02
1.93087500000000e-01 4.35089166415567e+00 3.37309679824740e-02
1.95991071428571e-01 4.29753581202132e+00 3.35669107467845e-02
1.98894642857143e-01 4.24483427344455e+00 3.33999846324123e-02
2.01798214285714e-01 4.19277902421131e+00 3.32303462341350e-02
2.04701785714286e-01 4.14136213897906e+00 3.30581460767472e-02
2.07605357142857e-01 4.09057578935558e+00 3.28835290105881e-02
2.10508928571429e-01 4.04041224274149e+00 3.27066342703151e-02
2.13412500000000e-01 3.99086386179148e+00 3.25275958354227e-02
2.16316071428571e-01 3.94192310240057e+00 3.23465426279998e-02
2.19219642857143e-01 3.89358251338702e+00 3.21635987171189e-02
2.22123214285714e-01 3.84583473454522e+00 3.19788835264680e-02
2.25026785714286e-01 3.79867249631934e+00 3.17925119907316e-02
2.27930357142857e-01 3.75208861810242e+00 3.16045948504841e-02
2.30833928571429e-01 3.70607600717026e+00 3.14152386564175e-02
2.33737500000000e-01 3.66062765813567e+00 3.12245460409095e-02
2.36641071428571e-01 3.61573665117019e+00 3.10326158504200e-02
2.39544642857143e-01 3.57139615164662e+00 3.08395432866284e-02
2.42448214285714e-01 3.52759940841753e+00 3.06454200530392e-02
2.45351785714286e-01 3.48433975345346e+00 3.04503344591511e-02
2.48255357142857e-01 3.44161060032944e+00 3.02543716484893e-02
2.51158928571429e-01 3.39940544324395e+00 3.00576135735260e-02
2.54062500000000e-01 3.35771785647859e+00 2.98601392072857e-02
2.56966071428571e-01 3.31654149281998e+00 2.96620246345212e-02
2.59869642857143e-01 3.27587008318047e+00 2.94633431522481e-02
2.62773214285714e-01 3.23569743506892e+00 2.92641653765601e-02
2.65676785714286e-01 3.19601743221055e+00 2.90645593135453e-02
2.68580357142857e-01 3.15682403319477e+00 2.88645905406478e-02
2.71483928571429e-01 3.11811127057300e+00 2.86643221662073e-02
2.74387500000000e-01 3.07987325033216e+00 2.84638149987122e-02
2.77291071428571e-01 3.04210415048834e+00 2.82631276109767e-02
2.80194642857143e-01 3.00479822069890e+00 2.80623164135595e-02
2.83098214285714e-01 2.96794978089866e+00 2.78614357346113e-02
2.86001785714286e-01 2.93155322091342e+00 2.76605378688943e-02
2.88905357142857e-01 2.89560299924797e+00 2.74596732251864e-02
2.91808928571429e-01 2.86009364225679e+00 2.72588902783955e-02
2.94712500000000e-01 2.82501974363671e+00 2.70582357077137e-02
2.97616071428571e-01 2.79037596316949e+00 2.68577544425431e-02
3.00519642857143e-01 2.75615702633441e+00 2.66574897172146e-02
3.03423214285714e-01 2.72235772308803e+00 2.64574831319368e-02
3.06326785714286e-01 2.68897290747984e+00 2.62577746869973e-02
3.09230357142857e-01 2.65599749656287e+00 2.60584029046278e-02
3.12133928571429e-01 2.62342646963173e+00 2.58594047782952e-02
3.15037500000000e-01 2.59125486773775e+00 2.56608158872849e-02
3.17941071428571e-01 2.55947779256164e+00 2.54626704299716e-02
3.20844642857143e-01 2.52809040603280e+00 2.52650012652783e-02
3.23748214285714e-01 2.49708792923468e+00 2.50678399600051e-02
3.26651785714286e-01 2.46646564202829e+00 2.48712168127801e-02
3.29555357142857e-01 2.43621888207085e+00 2.46751609561707e-02
3.32458928571429e-01 2.40634304411590e+00 2.44797003058463e-02
3.35362500000000e-01 2.37683357955284e+00 2.42848616568254e-02
3.38266071428571e-01 2.34768599539382e+00 2.40906707077730e-02
3.41169642857143e-01 2.31889585390415e+00 2.38971520928364e-02
3.44073214285714e-01 2.29045877161815e+00 2.37043294189268e-02
3.46976785714286e-01 2.26237041897436e+00 2.35122252824480e-02
3.49880357142857e-01 2.23462651942998e+00 2.33208613557772e-02
3.52783928571429e-01 2.20722284881805e+00 2.31302583378615e-02
3.55687500000000e-01 2.18015523491237e+00 2.29404360358846e-02
3.58591071428571e-01 2.15341955651517e+00 2.27514133830879e-02
3.61494642857143e-01 2.12701174310162e+00 2.25632084634868e-02
3.64398214285714e-01 2.10092777393317e+00 2.23758385415852e-02
3.67301785714286e-01 2.07516367770730e+00 2.21893200739396e-02
3.70205357142857e-01 2.04971553175693e+00 2.20036687830435e-02
3.73108928571429e-01 2.02457946146021e+00 2.18188996102264e-02
3.76012500000000e-01 1.99975163983104e+00 2.16350267855202e-02
3.78916071428571e-01 1.97522828669611e+00 2.14520638407434e-02
3.81819642857143e-01 1.95100566835525e+00 2.12700236288542e-02
3.84723214285714e-01 1.92708009678140e+00 2.10889183478628e-02
3.87626785714286e-01 1.90344792928643e+00 2.09087595486682e-02
3.90530357142857e-01 1.88010556779642e+00 2.07295581986254e-02
3.93433928571429e-01 1.85704945830984e+00 2.05513246372025e-02
3.96337500000000e-01 1.83427609051336e+00 2.03740686361576e-02
3.99241071428571e-01 1.81178199703840e+00 2.01977994091083e-02
4.02144642857143e-01 1.78956375313849e+00 2.00225256267874e-02
4.05048214285714e-01 1.76761797596624e+00 1.98482554364466e-02
4.07951785714286e-01 1.74594132425626e+00 1.96749964669737e-02
4.10855357142857e-01 1.72453049766834e+00 1.95027558839053e-02
4.13758928571429e-01 1.70338223629005e+00 1.93315403480361e-02
4.16662500000000e-01 1.68249332027725e+00 1.91613560675395e-02
4.19566071428571e-01 1.66186056918168e+00 1.89922088049054e-02
4.22469642857143e-01 1.64148084164567e+00 1.88241038890288e-02
4.25373214285714e-01 1.62135103474806e+00 1.86570462310595e-02
4.28276785714286e-01 1.60146808370451e+00 1.84910403275299e-02
4.31180357142857e-01 1.58182896127158e+00 1.83260903081925e-02
4.34083928571429e-01 1.56243067729025e+00 1.81621998976200e-02
4.36987500000000e-01 1.54327027835024e+00 1.79993724605555e-02
4.39891071428571e-01 1.52434484718106e+00 1.78376110068687e-02
4.42794642857143e-01 1.50565150236442e+00 1.76769182011671e-02
4.45698214285714e-01 1.48718739774164e+00 1.75172963758144e-02
4.48601785714286e-01 1.46894972213150e+00 1.73587475325994e-02
4.51505357142857e-01 1.45093569878915e+00 1.72012733845019e-02
4.54408928571429e-01 1.43314258498703e+00 1.70448753202219e-02
4.57312500000000e-01 1.41556767170217e+00 1.68895544437966e-02
4.60216071428572e-01 1.39820828306413e+00 1.67353115780486e-02
4.63119642857143e-01 1.38106177608478e+00 1.65821472722468e-02
4.66023214285714e-01 1.36412554012104e+00 1.64300618128486e-02
4.68926785714286e-01 1.34739699660998e+00 1.62790552240939e-02
4.71830357142857e-01 1.33087359857699e+00 1.61291273046018e-02
4.74733928571429e-01 1.31455283025128e+00 1.59802775947070e-02
4.77637500000000e-01 1.29843220677488e+00 1.58325054111806e-02
4.80541071428571e-01 1.28250927370174e+00 1.56858098495347e-02
4.83444642857143e-01 1.26678160674452e+00 1.55401897901322e-02
4.86348214285714e-01 1.25124681128705e+00 1.53956439070809e-02
4.89251785714286e-01 1.23590252213619e+00 1.52521706680466e-02
4.92155357142857e-01 1.22074640307456e+00 1.51097683664136e-02
4.95058928571429e-01 1.20577614650767e+00 1.49684350912731e-02
4.97962500000000e-01 1.19098947319353e+00 1.48281687579445e-02
5.00866071428572e-01 1.17638413178786e+00 1.46889671094072e-02
5.03769642857143e-01 1.16195789860725e+00 1.45508277211680e-02
5.06673214285714e-01 1.14770857718643e+00 1.44137480086486e-02
5.09576785714286e-01 1.13363399804632e+00 1.42777252264324e-02
5.12480357142857e-01 1.11973201828700e+00 1.41427564965964e-02
5.15383928571429e-01 1.10600052126393e+00 1.40088387811894e-02
5.18287500000000e-01 1.09243741633696e+00 1.38759689091255e-02
5.21191071428571e-01 1.07904063845711e+00 1.37441435769492e-02
5.24094642857143e-01 1.06580814794551e+00 1.36133593527069e-02
5.26998214285714e-01 1.05273793009101e+00 1.34836126820962e-02
5.29901785714286e-01 1.03982799493378e+00 1.33548998873066e-02
5.32805357142857e-01 1.02707637689475e+00 1.32272171920358e-02
5.35708928571429e-01 1.01448113447840e+00 1.31005606962842e-02
5.38612500000000e-01 1.00204035004018e+00 1.29749264001027e-02
5.41516071428571e-01 9.89752129410661e-01 1.28503102038520e-02
5.44419642857143e-01 9.77614601689637e-01 1.27267079112683e-02
5.47323214285714e-01 9.65625918880158e-01 1.26041152345879e-02
5.50226785714286e-01 9.53784255686927e-01 1.24825277931114e-02
5.53130357142857e-01 9.42087809178721e-01 1.23619411353322e-02
5.56033928571429e-01 9.30534798515717e-01 1.22423507158732e-02
5.58937500000000e-01 9.19123464733991e-01 1.21237519164976e-02
5.61841071428572e-01 9.07852070403643e-01 1.20061400459852e-02
5.64744642857143e-01 8.96718899437124e-01 1.18895103425481e-02
5.67648214285714e-01 8.85722256756290e-01 1.17738579781054e-02
5.70551785714286e-01 8.74860468104822e-01 1.16591780566580e-02
5.73455357142857e-01 8.64131879740558e-01 1.15454656339005e-02
5.76358928571429e-01 8.53534858185310e-01 1.14327156961334e-02
5.79262500000000e-01 8.43067790025386e-01 1.13209231788819e-02
5.82166071428571e-01 8.32729081600407e-01 1.12100829664870e-02
5.85069642857143e-01 8.22517158825148e-01 1.11001898939919e-02
5.87973214285714e-01 8.12430466886435e-01 1.09912387507076e-02
5.90876785714286e-01 8.02467470068842e-01 1.08832242784739e-02
5.93780357142857e-01 7.92626651474164e-01 1.07761411890636e-02
5.96683928571429e-01 7.82906512791867e-01 1.06699841449114e-02
5.99587500000000e-01 7.73305574114583e-01 1.05647477756391e-02
6.02491071428572e-01 7.63822373654722e-01 1.04604266774354e-02
6.05394642857143e-01 7.54455467579048e-01 1.03570154145116e-02
6.08298214285714e-01 7.45203429732626e-01 1.02545085220769e-02
6.11201785714286e-01 7.36064851477014e-01 1.01529005045350e-02
6.14105357142857e-01 7.27038341434388e-01 1.00521858509514e-02
6.17008928571429e-01 7.18122525276937e-01 9.95235901745101e-03
6.19912500000000e-01 7.09316045556301e-01 9.85341444190264e-03
6.22816071428572e-01 7.00617561445393e-01 9.75534654314746e-03
6.25719642857143e-01 6.92025748584936e-01 9.65814972210319e-03
6.28623214285714e-01 6.83539298831950e-01 9.56181836424429e-03
6.31526785714286e-01 6.75156920109669e-01 9.46634683777684e-03
6.34430357142857e-01 6.66877336174084e-01 9.37172950739898e-03
6.37333928571429e-01 6.58699286420713e-01 9.27796071822849e-03
6.40237500000000e-01 6.50621525727023e-01 9.18503480886655e-03
6.43141071428571e-01 6.42642824217121e-01 9.09294611052000e-03
6.46044642857143e-01 6.34761967119516e-01 9.00168894782093e-03
6.48948214285714e-01 6.26977754537863e-01 8.91125764088993e-03
6.51851785714286e-01 6.19289001311878e-01 8.82164650351874e-03
6.54755357142857e-01 6.11694536804267e-01 8.73284985542686e-03
6.57658928571429e-01 6.04193204723439e-01 8.64486200758809e-03
6.60562500000000e-01 5.96783862977998e-01 8.55767727386550e-03
6.63466071428572e-01 5.89465383462201e-01 8.47128997006248e-03
6.66369642857143e-01 5.82236651924216e-01 8.38569441451064e-03
6.69273214285714e-01 5.75096567757085e-01 8.30088492978384e-03
6.72176785714286e-01 5.68044043869927e-01 8.21685584091069e-03
6.75080357142857e-01 5.61078006493408e-01 8.13360148630024e-03
6.77983928571429e-01 5.54197395017099e-01 8.05111620434914e-03
6.80887500000000e-01 5.47401161855157e-01 7.96939434381443e-03
6.83791071428572e-01 5.40688272250663e-01 7.88843026282054e-03
6.86694642857143e-01 5.34057704153683e-01 7.80821832925989e-03
6.89598214285714e-01 5.27508448030601e-01 7.72875292221240e-03
6.92501785714286e-01 5.21039506744926e-01 7.65002843020231e-03
6.95405357142857e-01 5.14649895379653e-01 7.57203926094972e-03
6.98308928571429e-01 5.08338641088040e-01 7.49477982914599e-03
7.01212500000000e-01 5.02104782969690e-01 7.41824456570733e-03
7.04116071428572e-01 4.95947371892036e-01 7.34242791676266e-03
7.07019642857143e-01 4.89865470377550e-01 7.26732434390096e-03
7.09923214285714e-01 4.83858152429783e-01 7.19292832534236e-03
7.12826785714286e-01 4.77924503423119e-01 7.11923435425343e-03
7.15730357142857e-01 4.72063619940521e-01 7.04623694745503e-03
7.18633928571429e-01 4.66274609636631e-01 6.97393063426593e-03
7.21537500000000e-01 4.60556591123476e-01 6.90230996476479e-03
7.24441071428572e-01 4.54908693807563e-01 6.83136950877362e-03
7.27344642857143e-01 4.49330057785600e-01 6.76110385598357e-03
7.30248214285714e-01 4.43819833685735e-01 6.69150761691601e-03
7.33151785714286e-01 4.38377182565644e-01 6.62257542130325e-03
7.36055357142857e-01 4.33001275764293e-01 6.55430192587091e-03
7.38958928571429e-01 4.27691294776348e-01 6.48668180415581e-03
7.41862500000000e-01 4.22446431146789e-01 6.41970975388866e-03
7.44766071428572e-01 4.17265886322216e-01 6.35338049598664e-03
7.47669642857143e-01 4.12148871554481e-01 6.28768877457995e-03
7.50573214285714e-01 4.07094607755767e-01 6.22262935779670e-03
7.53476785714286e-01 4.02102325404425e-01 6.15819703621490e-03
7.56380357142857e-01 3.97171264409510e-01 6.09438662982151e-03
7.59283928571429e-01 3.92300673995566e-01 6.03119297871958e-03
7.62187500000000e-01 3.87489812605494e-01 5.96861094972950e-03
7.65091071428572e-01 3.82737947764784e-01 5.90663543540066e-03
7.67994642857143e-01 3.78044355992506e-01 5.84526135395950e-03
7.70898214285714e-01 3.73408322668993e-01 5.78448364994509e-03
7.73801785714286e-01 3.68829141948861e-01 5.72429729273510e-03
7.76705357142857e-01 3.64306116637215e-01 5.66469728277289e-03
7.79608928571429e-01 3.59838558083943e-01 5.60567864308645e-03
7.82512500000000e-01 3.55425786094212e-01 5.54723642519401e-03
7.85416071428572e-01 3.51067128804484e-01 5.48936570814126e-03
7.88319642857143e-01 3.46761922600333e-01 5.43206159838843e-03
7.91223214285714e-01 3.42509511995604e-01 5.37531923031979e-03
7.94126785714286e-01 3.38309249552118e-01 5.31913376484537e-03
7.97030357142857e-01 3.34160495766498e-01 5.26350039497598e-03
7.99933928571429e-01 3.30062618973209e-01 5.20841433808200e-03
8.02837500000000e-01 3.26014995262093e-01 5.15387084117998e-03
8.05741071428572e-01 3.22017008365128e-01 5.09986518000127e-03
8.08644642857143e-01 3.18068049580573e-01 5.04639265883120e-03
8.11548214285714e-01 3.14167517662585e-01 4.99344861091285e-03
8.14451785714286e-01 3.10314818747121e-01 4.94102839712393e-03
8.17355357142857e-01 3.06509366248466e-01 4.88912741097093e-03
8.20258928571429e-01 3.02750580770280e-01 4.83774107152297e-03
8.23162500000000e-01 2.99037890029652e-01 4.78686482814638e-03
8.26066071428572e-01 2.95370728753636e-01 4.73649415960884e-03
8.28969642857143e-01 2.91748538609275e-01 4.68662457388130e-03
8.31873214285714e-01 2.88170768102746e-01 4.63725160845336e-03
8.34776785714286e-01 2.84636872510999e-01 4.58837082908501e-03
8.37680357142857e-01 2.81146313787146e-01 4.53997783428133e-03
8.40583928571429e-01 2.77698560478857e-01 4.49206824884287e-03
8.43487500000000e-01 2.74293087658424e-01 4.44463772810745e-03
8.46391071428572e-01 2.70929376828227e-01 4.39768195709220e-03
8.49294642857143e-01 2.67606915856181e-01 4.35119665026858e-03
8.52198214285714e-01 2.64325198883589e-01 4.30517755180287e-03
8.55101785714286e-01 2.61083726262086e-01 4.25962043438039e-03
8.58005357142857e-01 2.57882004467119e-01 4.21452110321739e-03
8.60908928571429e-01 2.54719546023080e-01 4.16987539017403e-03
8.63812500000000e-01 2.51595869438929e-01 4.12567915755614e-03
8.66716071428572e-01 2.48510499121786e-01 4.08192829729571e-03
8.69619642857143e-01 2.45462965317425e-01 4.03861873070704e-03
8.72523214285714e-01 2.42452804026042e-01 3.99574640866485e-03
8.75426785714286e-01 2.39479556944128e-01 3.95330731049900e-03
8.78330357142857e-01 2.36542771385325e-01 3.91129744759303e-03
8.81233928571429e-01 2.33642000211753e-01 3.86971285800920e-03
8.84137500000000e-01 2.30776801774744e-01 3.82854960989768e-03
8.87041071428572e-01 2.27946739835874e-01 3.78780380071711e-03
8.89944642857143e-01 2.25151383512093e-01 3.74747155697753e-03
8.92848214285714e-01 2.22390307198743e-01 3.70754903436600e-03
8.95751785714286e-01 2.19663090515971e-01 3.66803241671005e-03
8.98655357142857e-01 2.16969318236335e-01 3.62891791920599e-03
9.01558928571429e-01 2.14308580221803e-01 3.59020178351142e-03
9.04462500000000e-01 2.11680471369215e-01 3.55188028080370e-03
9.07366071428572e-01 2.09084591538083e-01 3.51394971104021e-03
9.10269642857143e-01 2.06520545500031e-01 3.47640640269341e-03
9.13173214285714e-01 2.03987942868414e-01 3.43924671283294e-03
9.16076785714286e-01 2.01486398048937e-01 3.40246702615453e-03
