Energy (eV)          EEDF (eV^-(3/2))     First Anisotropy
2.00000000000000e-02 3.53436800851812e+00 1.77144466384887e-02
6.00000000000000e-02 3.23569093184969e+00 9.93842556693247e-03
1.00000000000000e-01 2.96225401011489e+00 1.20924403653483e-02
1.40000000000000e-01 2.71192428611392e+00 1.31987219829789e-02
1.80000000000000e-01 2.48274905139863e+00 1.37434620285369e-02
2.20000000000000e-01 2.27294061408095e+00 1.39315253398388e-02
2.60000000000000e-01 2.08086235386066e+00 1.38776045677809e-02
3.00000000000000e-01 1.90501595549399e+00 1.36547868934290e-02
3.40000000000000e-01 1.74402972111711e+00 1.33131248387342e-02
3.80000000000000e-01 1.59664787025424e+00 1.28884408587996e-02
4.20000000000000e-01 1.46172074404471e+00 1.24071078390016e-02
4.60000000000000e-01 1.33819583727651e+00 1.18888997202627e-02
5.00000000000000e-01 1.22510958827126e+00 1.13488117486935e-02
5.40000000000000e-01 1.12157986257736e+00 1.07982845668443e-02
5.80000000000000e-01 1.02679907183986e+00 1.02460611219055e-02
6.20000000000000e-01 9.40027874170648e-01 9.69880583237622e-03
6.60000000000000e-01 8.60589406878233e-01 9.16156342872215e-03
7.00000000000000e-01 7.87864006569428e-01 8.63810597891160e-03
7.40000000000000e-01 7.21284375436730e-01 8.13119971401060e-03
7.80000000000000e-01 6.60331156025856e-01 7.64281295844898e-03
8.20000000000000e-01 6.04528879964200e-01 7.17427994038493e-03
8.60000000000000e-01 5.53442259048065e-01 6.72643098781072e-03
9.00000000000000e-01 5.06672789757148e-01 6.29969674388517e-03
9.40000000000000e-01 4.63855644709625e-01 5.89419205418366e-03
9.80000000000000e-01 4.24656826809488e-01 5.50978378188497e-03
1.02000000000000e+00 3.88770563886946e-01 5.14614580244248e-03
1.06000000000000e+00 3.55916923508640e-01 4.80280369397018e-03
1.10000000000000e+00 3.25839629351908e-01 4.47917109266225e-03
1.14000000000000e+00 2.98304062109627e-01 4.17457926992560e-03
1.18000000000000e+00 2.73095429331586e-01 3.88830117253711e-03
1.22000000000000e+00 2.50017089926167e-01 3.61957092329919e-03
1.26000000000000e+00 2.28889020252523e-01 3.36759958915290e-03
1.30000000000000e+00 2.09546409837950e-01 3.13158787344702e-03
1.34000000000000e+00 1.91838375766257e-01 2.91073626953956e-03
1.38000000000000e+00 1.75626785708693e-01 2.70425311710622e-03
1.42000000000000e+00 1.60785180416402e-01 2.51136092521351e-03
1.46000000000000e+00 1.47197787269276e-01 2.33130126342812e-03
1.50000000000000e+00 1.34758617186344e-01 2.16333847096599e-03
1.54000000000000e+00 1.23370637853100e-01 2.00676239181347e-03
1.58000000000000e+00 1.12945016816507e-01 1.86089030907622e-03
1.62000000000000e+00 1.03400428543382e-01 1.72506822311840e-03
1.66000000000000e+00 9.46624200368665e-02 1.59867159422812e-03
1.70000000000000e+00 8.66628300624161e-02 1.48110565070217e-03
1.74000000000000e+00 7.93392574529815e-02 1.37180534667082e-03
1.78000000000000e+00 7.26345743458516e-02 1.27023504011374e-03
1.82000000000000e+00 6.64964805541521e-02 1.17588794988546e-03
1.86000000000000e+00 6.08770955968474e-02 1.08828544079848e-03
1.90000000000000e+00 5.57325852048615e-02 1.00697617759366e-03
1.94000000000000e+00 5.10228193898593e-02 9.31535181708944e-04
1.98000000000000e+00 4.67110594084396e-02 8.61562818928087e-04
2.02000000000000e+00 4.27636711798883e-02 7.96683741078289e-04
2.06000000000000e+00 3.91498629219958e-02 7.36545800804108e-04
2.10000000000000e+00 3.58414449583526e-02 6.80818954955173e-04
2.14000000000000e+00 3.28126098234914e-02 6.29194169185558e-04
2.18000000000000e+00 3.00397309505731e-02 5.81382333888762e-04
2.22000000000000e+00 2.75011783712728e-02 5.37113199512880e-04
2.26000000000000e+00 2.51771499902244e-02 4.96134337555608e-04
2.30000000000000e+00 2.30495171178703e-02 4.58210132077400e-04
2.34000000000000e+00 2.11016830567907e-02 4.23120805350553e-04
2.38000000000000e+00 1.93184536384070e-02 3.90661480245612e-04
2.42000000000000e+00 1.76859187001760e-02 3.60641281113524e-04
2.46000000000000e+00 1.61913435787311e-02 3.32882474225912e-04
2.50000000000000e+00 1.48230697725591e-02 3.07219648264502e-04
2.54000000000000e+00 1.35704239993266e-02 2.83498934884881e-04
2.58000000000000e+00 1.24236349384535e-02 2.61577269003274e-04
2.62000000000000e+00 1.13737570094804e-02 2.41321688153905e-04
2.66000000000000e+00 1.04126005916597e-02 2.22608670027088e-04
2.70000000000000e+00 9.53266814044459e-03 2.05323507114218e-04
2.74000000000000e+00 8.72709570255040e-03 1.89359717246824e-04
2.78000000000000e+00 7.98959937337351e-03 1.74618488715399e-04
2.82000000000000e+00 7.31442627910631e-03 1.61008158583566e-04
2.86000000000000e+00 6.69630970118228e-03 1.48443722768993e-04
2.90000000000000e+00 6.13042799299724e-03 1.36846376439697e-04
2.94000000000000e+00 5.61236696843468e-03 1.26143083269237e-04
2.98000000000000e+00 5.13808546880535e-03 1.16266172103359e-04
3.02000000000000e+00 4.70388383960427e-03 1.07152959611258e-04
3.06000000000000e+00 4.30637507118675e-03 9.87453975243614e-05
3.10000000000000e+00 3.94245837824490e-03 9.09897431023574e-05
3.14000000000000e+00 3.60929501199024e-03 8.38362515085491e-05
3.18000000000000e+00 3.30428611636401e-03 7.72388888229706e-05
3.22000000000000e+00 3.02505245554184e-03 7.11550644709405e-05
3.26000000000000e+00 2.76941585459593e-03 6.55453818958635e-05
3.30000000000000e+00 2.53538220854207e-03 6.03734063572832e-05
3.34000000000000e+00 2.32112592723262e-03 5.56054487877983e-05
3.38000000000000e+00 2.12497569475710e-03 5.12103646949008e-05
3.42000000000000e+00 1.94540143226614e-03 4.71593671456550e-05
3.46000000000000e+00 1.78100236252150e-03 4.34258529230491e-05
3.50000000000000e+00 1.63049608306920e-03 3.99852409925322e-05
3.54000000000000e+00 1.49270856280064e-03 3.68148224654748e-05
3.58000000000000e+00 1.36656498386925e-03 3.38936212929223e-05
3.62000000000000e+00 1.25108135752484e-03 3.12022649678881e-05
3.66000000000000e+00 1.14535684846433e-03 2.87228645575202e-05
3.70000000000000e+00 1.04856674782487e-03 2.64389034276808e-05
3.74000000000000e+00 9.59956040004649e-04 2.43351340618114e-05
3.78000000000000e+00 8.78833513129216e-04 2.23974824133861e-05
3.82000000000000e+00 8.04566367221668e-04 2.06129592668228e-05
3.86000000000000e+00 7.36575278017528e-04 1.89695781154300e-05
3.90000000000000e+00 6.74329877919345e-04 1.74562790968770e-05
3.94000000000000e+00 6.17344618840029e-04 1.60628585568200e-05
3.98000000000000e+00 5.65174984662810e-04 1.47799038397589e-05
4.02000000000000e+00 5.17414023772966e-04 1.35987329330002e-05
4.06000000000000e+00 4.73689174613160e-04 1.25113386148172e-05
4.10000000000000e+00 4.33659359499989e-04 1.15103367816045e-05
4.14000000000000e+00 3.97012324031937e-04 1.05889186510767e-05
4.18000000000000e+00 3.63462201334649e-04 9.74080655944345e-06
4.22000000000000e+00 3.32747282143317e-04 8.96021309005075e-06
4.26000000000000e+00 3.04627973327605e-04 8.24180328930366e-06
4.30000000000000e+00 2.78884928934491e-04 7.58065974282097e-06
4.34000000000000e+00 2.55317339170139e-04 6.97225030079728e-06
4.38000000000000e+00 2.33741363973928e-04 6.41239825651693e-06
4.42000000000000e+00 2.13988698965660e-04 5.89725479594035e-06
4.46000000000000e+00 1.95905262579556e-04 5.42327354932233e-06
4.50000000000000e+00 1.79349994143960e-04 4.98718708798139e-06
4.54000000000000e+00 1.64193753531127e-04 4.58598522067122e-06
4.58000000000000e+00 1.50318313793759e-04 4.21689495456029e-06
4.62000000000000e+00 1.37615438930297e-04 3.87736199565307e-06
4.66000000000000e+00 1.25986039585048e-04 3.56503367263060e-06
4.70000000000000e+00 1.15339400097142e-04 3.27774317659462e-06
4.74000000000000e+00 1.05592470868871e-04 3.01349501710756e-06
4.78000000000000e+00 9.66692205335101e-05 2.77045160227089e-06
4.82000000000000e+00 8.85000428691675e-05 2.54692085741251e-06
4.86000000000000e+00 8.10212138322709e-05 2.34134480329502e-06
4.90000000000000e+00 7.41743944752546e-05 2.15228902064392e-06
4.94000000000000e+00 6.79061758709332e-05 1.97843293325779e-06
4.98000000000000e+00 6.21676624937258e-05 1.81856084703128e-06
5.02000000000000e+00 5.69140908078748e-05 1.67155368692260e-06
5.06000000000000e+00 5.21044800874398e-05 1.53638137825558e-06
5.10000000000000e+00 4.77013127442734e-05 1.41209582278689e-06
5.14000000000000e+00 4.36702416703605e-05 1.29782442371250e-06
5.18000000000000e+00 3.99798223116331e-05 1.19276411725613e-06
5.22000000000000e+00 3.66012673832899e-05 1.09617587169489e-06
5.26000000000000e+00 3.35082223132662e-05 1.00737961765205e-06
5.30000000000000e+00 3.06765596621903e-05 9.25749576240699e-07
5.34000000000000e+00 2.80841909161904e-05 8.50709954191311e-07
5.38000000000000e+00 2.57108941844334e-05 7.81730977454465e-07
5.42000000000000e+00 2.35381564573412e-05 7.18325236952562e-07
5.46000000000000e+00 2.15490291950141e-05 6.60044322172788e-07
5.50000000000000e+00 1.97279961193708e-05 6.06475720160365e-07
5.54000000000000e+00 1.80608521787125e-05 5.57239959197193e-07
5.58000000000000e+00 1.65345927405681e-05 5.11987978046865e-07
5.62000000000000e+00 1.51373121484645e-05 4.70398703121935e-07
5.66000000000000e+00 1.38581108513096e-05 4.32176817292483e-07
5.70000000000000e+00 1.26870103809457e-05 3.97050705314628e-07
5.74000000000000e+00 1.16148755146531e-05 3.64770562021278e-07
5.78000000000000e+00 1.06333430154277e-05 3.35106650492376e-07
5.82000000000000e+00 9.73475639416896e-06 3.07847698414672e-07
5.86000000000000e+00 8.91210618488652e-06 2.82799421757923e-07
5.90000000000000e+00 8.15897526704087e-06 2.59783165740913e-07
5.94000000000000e+00 7.46948880850126e-06 2.38634653842283e-07
5.98000000000000e+00 6.83826843864927e-06 2.19202836332548e-07
6.02000000000000e+00 6.26039029415312e-06 2.01348830469589e-07
6.06000000000000e+00 5.73134661014684e-06 1.84944945114406e-07
6.10000000000000e+00 5.24701055720445e-06 1.69873783090969e-07
6.14000000000000e+00 4.80360404981851e-06 1.56027415137187e-07
6.18000000000000e+00 4.39766827527153e-06 1.43306619776695e-07
6.22000000000000e+00 4.02603671300934e-06 1.31620183886366e-07
6.26000000000000e+00 3.68581043405285e-06 1.20884259145147e-07
6.30000000000000e+00 3.37433548777015e-06 1.11021769928527e-07
6.34000000000000e+00 3.08918219961329e-06 1.01961868562203e-07
6.38000000000000e+00 2.82812621833104e-06 9.36394341705534e-08
6.42000000000000e+00 2.58913116481529e-06 8.59946116524259e-08
6.46000000000000e+00 2.37033274723282e-06 7.89723875904831e-08
6.50000000000000e+00 2.17002421853167e-06 7.25222001526491e-08
6.54000000000000e+00 1.98664306288279e-06 6.65975802767845e-08
6.58000000000000e+00 1.81875880720394e-06 6.11558216440612e-08
6.62000000000000e+00 1.66506186268904e-06 5.61576771440426e-08
6.66000000000000e+00 1.52435330930092e-06 5.15670797165101e-08
6.70000000000000e+00 1.39553554354071e-06 4.73508856227967e-08
6.74000000000000e+00 1.27760371654168e-06 4.34786383539321e-08
6.78000000000000e+00 1.16963789569971e-06 3.99223515252659e-08
6.82000000000000e+00 1.07079588869701e-06 3.66563092383920e-08
6.86000000000000e+00 9.80306673942441e-07 3.36568825120079e-08
6.90000000000000e+00 8.97464386182392e-07 3.09023604946174e-08
6.94000000000000e+00 8.21622810366616e-07 2.83727952744710e-08
6.98000000000000e+00 7.52190340818207e-07 2.60498591965260e-08
7.02000000000000e+00 6.88625366386492e-07 2.39167136831234e-08
7.06000000000000e+00 6.30432045584507e-07 2.19578886351165e-08
7.10000000000000e+00 5.77156438754828e-07 2.01591715638816e-08
7.14000000000000e+00 5.28382967092531e-07 1.85075056724920e-08
7.18000000000000e+00 4.83731170903742e-07 1.69908961668054e-08
7.22000000000000e+00 4.42852741812412e-07 1.55983241347243e-08
7.26000000000000e+00 4.05428805764921e-07 1.43196673848248e-08
7.30000000000000e+00 3.71167435638452e-07 1.31456276842821e-08
7.34000000000000e+00 3.39801374050132e-07 1.20676638808718e-08
7.38000000000000e+00 3.11085948603611e-07 1.10779304351103e-08
7.42000000000000e+00 2.84797163310856e-07 1.01692209265887e-08
7.46000000000000e+00 2.60729951301210e-07 9.33491613352162e-09
7.50000000000000e+00 2.38696575187904e-07 8.56893631670735e-09
7.54000000000000e+00 2.18525162613990e-07 7.86569736870568e-09
7.58000000000000e+00 2.00058365554173e-07 7.22007051628248e-09
7.62000000000000e+00 1.83152132914348e-07 6.62734528923856e-09
7.66000000000000e+00 1.67674586854463e-07 6.08319549180363e-09
7.70000000000000e+00 1.53504994069399e-07 5.58364793399478e-09
7.74000000000000e+00 1.40532824003312e-07 5.12505369986019e-09
7.78000000000000e+00 1.28656886650979e-07 4.70406174748579e-09
7.82000000000000e+00 1.17784543220541e-07 4.31759465216247e-09
7.86000000000000e+00 1.07830983500377e-07 3.96282631930591e-09
7.90000000000000e+00 9.87185642931689e-08 3.63716150769771e-09
7.94000000000000e+00 9.03762037565991e-08 3.33821701647234e-09
7.98000000000000e+00 8.27388269261885e-08 3.06380440109680e-09
8.02000000000000e+00 7.57468580950649e-08 2.81191409446452e-09
8.06000000000000e+00 6.93457560909391e-08 2.58070081922485e-09
8.10000000000000e+00 6.34855888251995e-08 2.36847018666601e-09
8.14000000000000e+00 5.81206437953730e-08 2.17366638592593e-09
8.18000000000000e+00 5.32090715026618e-08 1.99486087508240e-09
8.22000000000000e+00 4.87125590030160e-08 1.83074199282406e-09
8.26000000000000e+00 4.45960310452627e-08 1.68010541597867e-09
8.30000000000000e+00 4.08273764650078e-08 1.54184539422047e-09
8.34000000000000e+00 3.73771977000303e-08 1.41494669883634e-09
8.38000000000000e+00 3.42185814732556e-08 1.29847722754030e-09
8.42000000000000e+00 3.13268888545083e-08 1.19158121202387e-09
8.46000000000000e+00 2.86795630634114e-08 1.09347297924863e-09
8.50000000000000e+00 2.62559535141908e-08 1.00343122145718e-09
8.54000000000000e+00 2.40371547298374e-08 9.20793733528900e-10
8.58000000000000e+00 2.20058588690699e-08 8.44952579661118e-10
8.62000000000000e+00 2.01462207157286e-08 7.75349654440573e-10
8.66000000000000e+00 1.84437340774424e-08 7.11472606204209e-10
8.70000000000000e+00 1.68851186294127e-08 6.52851093193778e-10
8.74000000000000e+00 1.54582163206333e-08 5.99053345403253e-10
8.78000000000000e+00 1.41518965344577e-08 5.49683007218795e-10
8.82000000000000e+00 1.29559692637159e-08 5.04376237973724e-10
8.86000000000000e+00 1.18611056230975e-08 4.62799049399802e-10
8.90000000000000e+00 1.08587650787561e-08 4.24644860664391e-10
8.94000000000000e+00 9.94112882748453e-09 3.89632253253017e-10
8.98000000000000e+00 9.10103880578330e-09 3.57502909399498e-10
9.02000000000000e+00 8.33194185305937e-09 3.28019719091439e-10
9.06000000000000e+00 7.62783859339752e-09 3.00965041897169e-10
9.10000000000000e+00 6.98323663715445e-09 2.76139110979463e-10
9.14000000000000e+00 6.39310773732241e-09 2.53358567689950e-10
9.18000000000000e+00 5.85284856645875e-09 2.32455116083141e-10
9.22000000000000e+00 5.35824480821990e-09 2.13274287557302e-10
9.26000000000000e+00 4.90543828339418e-09 1.95674306627166e-10
9.30000000000000e+00 4.49089685399863e-09 1.79525049566462e-10
9.34000000000000e+00 4.11138687067529e-09 1.64707088331607e-10
9.38000000000000e+00 3.76394794846169e-09 1.51110812796591e-10
9.42000000000000e+00 3.44586987417265e-09 1.38635624897423e-10
9.46000000000000e+00 3.15467146525857e-09 1.27189198806650e-10
9.50000000000000e+00 2.88808121522758e-09 1.16686801738091e-10
9.54000000000000e+00 2.64401957465538e-09 1.07050670422594e-10
9.58000000000000e+00 2.42058272956494e-09 9.82094387003183e-11
9.62000000000000e+00 2.21602775063862e-09 9.00976120469119e-11
9.66000000000000e+00 2.02875899741841e-09 8.26550851924316e-11
9.70000000000000e+00 1.85731567143959e-09 7.58266993055836e-11
9.74000000000000e+00 1.70036042120565e-09 6.95618355040003e-11
9.78000000000000e+00 1.55666891011675e-09 6.38140417159350e-11
9.82000000000000e+00 1.42512026597625e-09 5.85406901618443e-11
9.86000000000000e+00 1.30468833757584e-09 5.37026629475994e-11
9.90000000000000e+00 1.19443369015621e-09 4.92640634661235e-11
9.94000000000000e+00 1.09349627730327e-09 4.51919514925930e-11
9.98000000000000e+00 1.00108873211684e-09 4.14561000313025e-11
1.00200000000000e+01 9.16490225319126e-10 3.80287721311481e-11
1.00600000000000e+01 8.39040842393047e-10 3.48845160325685e-11
1.01000000000000e+01 7.68136435888885e-10 3.19999771427578e-11
1.01400000000000e+01 7.03223912744499e-10 2.93537254589988e-11
1.01800000000000e+01 6.43796919857632e-10 2.69260971729499e-11
1.02200000000000e+01 5.89391894255399e-10 2.46990492924718e-11
1.02600000000000e+01 5.39584447050145e-10 2.26560262128623e-11
1.03000000000000e+01 4.93986052974539e-10 2.07818372568478e-11
1.03400000000000e+01 4.52241019672470e-10 1.90625442830270e-11
1.03800000000000e+01 4.14023713104583e-10 1.74853585362241e-11
1.04200000000000e+01 3.79036017425070e-10 1.60385459809497e-11
1.04600000000000e+01 3.47005009515403e-10 1.47113404213610e-11
1.05000000000000e+01 3.17680830035074e-10 1.34938637682222e-11
1.05400000000000e+01 2.90834734382397e-10 1.23770528657969e-11
1.05800000000000e+01 2.66257308361794e-10 1.13525923397551e-11
1.06200000000000e+01 2.43756834638794e-10 1.04128529713698e-11
1.06600000000000e+01 2.23157797240207e-10 9.55083514387215e-12
1.07000000000000e+01 2.04299512433755e-10 8.76011694408602e-12
1.07400000000000e+01 1.87034875307284e-10 8.03480653667700e-12
1.07800000000000e+01 1.71229212270167e-10 7.36949845975461e-12
1.08200000000000e+01 1.56759230525817e-10 6.75923351940084e-12
1.08600000000000e+01 1.43512056320589e-10 6.19946198716844e-12
1.09000000000000e+01 1.31384354466909e-10 5.68600982889348e-12
1.09400000000000e+01 1.20281522272425e-10 5.21504771547596e-12
1.09800000000000e+01 1.10116951587380e-10 4.78306258676225e-12
1.10200000000000e+01 1.00811353213787e-10 4.38683155846376e-12
1.10600000000000e+01 9.22921384064146e-11 4.02339797930493e-12
1.11000000000000e+01 8.44928526409651e-11 3.69004946143709e-12
1.11400000000000e+01 7.73526572325217e-11 3.38429772169792e-12
1.11800000000000e+01 7.08158547606075e-11 3.10386008464611e-12
1.12200000000000e+01 6.48314545989122e-11 2.84664251055553e-12
1.12600000000000e+01 5.93527751605827e-11 2.61072402280159e-12
1.13000000000000e+01 5.43370797563717e-11 2.39434241939787e-12
1.13400000000000e+01 4.97452432251411e-11 2.19588116291856e-12
1.13800000000000e+01 4.55414467362551e-11 2.01385735174125e-12
1.14200000000000e+01 4.16928983831554e-11 1.84691068352969e-12
1.14600000000000e+01 3.81695773885963e-11 1.69379332920472e-12
1.15000000000000e+01 3.49439999261999e-11 1.55336064237867e-12
1.15400000000000e+01 3.19910047316131e-11 1.42456263540227e-12
1.15800000000000e+01 2.92875568309157e-11 1.30643615884030e-12
1.16200000000000e+01 2.68125678552536e-11 1.19809772639271e-12
1.16600000000000e+01 2.45467315400546e-11 1.09873693205182e-12
1.17000000000000e+01 2.24723731256292e-11 1.00761041066696e-12
1.17400000000000e+01 2.05733114844005e-11 9.24036297108994e-13
1.17800000000000e+01 1.88347328992792e-11 8.47389142917107e-13
1.18200000000000e+01 1.72430755085867e-11 7.77095252697055e-13
1.18600000000000e+01 1.57859235161333e-11 7.12628405648166e-13
1.19000000000000e+01 1.44519103412333e-11 6.53505930448748e-13
1.19400000000000e+01 1.32306299531726e-11 5.99285104347315e-13
1.19800000000000e+01 1.21125556984912e-11 5.49559849709357e-13
1.20200000000000e+01 1.10889659878871e-11 5.03957703473981e-13
1.20600000000000e+01 1.01518762630610e-11 4.62137036997884e-13
1.21000000000000e+01 9.29397671280422e-12 4.23784505620752e-13
1.21400000000000e+01 8.50857525248271e-12 3.88612708989908e-13
1.21800000000000e+01 7.78954532212483e-12 3.56358044745494e-13
1.22200000000000e+01 7.13127809591058e-12 3.26778739602197e-13
1.22600000000000e+01 6.52863873026954e-12 2.99653043180062e-13
1.23000000000000e+01 5.97692630929897e-12 2.74777571145047e-13
1.23400000000000e+01 5.47183717505462e-12 2.51965785328554e-13
1.23800000000000e+01 5.00943135667026e-12 2.31046599512414e-13
1.24200000000000e+01 4.58610183643499e-12 2.11863100499220e-13
1.24600000000000e+01 4.19854641308678e-12 1.94271374944419e-13
1.25000000000000e+01 3.84374194284069e-12 1.78139433212474e-13
1.25400000000000e+01 3.51892075721764e-12 1.63346222240542e-13
1.25800000000000e+01 3.22154907372001e-12 1.49780720054774e-13
1.26200000000000e+01 2.94930723094551e-12 1.37341105191515e-13
