Energy (eV)          EEDF (eV^-(3/2))     First Anisotropy
3.50000000000000e-02 9.28406247378537e-02 6.80599996263435e-05
1.05000000000000e-01 9.16138573637591e-02 1.12020475343490e-04
1.75000000000000e-01 9.04033001152028e-02 1.46913473480993e-04
2.45000000000000e-01 8.92087387966535e-02 1.72841252353850e-04
3.15000000000000e-01 8.80299620428396e-02 1.93990079535689e-04
3.85000000000000e-01 8.68667612813966e-02 2.11958039688464e-04
4.55000000000000e-01 8.57189306959685e-02 2.27579733371723e-04
5.25000000000000e-01 8.45862671897920e-02 2.41363643597116e-04
5.95000000000000e-01 8.34685703497615e-02 2.53649950518399e-04
6.65000000000000e-01 8.23656424109680e-02 2.64681149027058e-04
7.35000000000000e-01 8.12772882217070e-02 2.74638258230707e-04
8.05000000000000e-01 8.02033152089484e-02 2.83661237898602e-04
8.75000000000000e-01 7.91435333442624e-02 2.91861340504219e-04
9.45000000000000e-01 7.80977551101966e-02 2.99329003438357e-04
1.01500000000000e+00 7.70657954670959e-02 3.06139116591445e-04
1.08500000000000e+00 7.60474718203625e-02 3.12354666170154e-04
1.15500000000000e+00 7.50426039881469e-02 3.18029331765660e-04
1.22500000000000e+00 7.40510141694674e-02 3.23209384958347e-04
1.29500000000000e+00 7.30725269127493e-02 3.27935107960782e-04
1.36500000000000e+00 7.21069690847809e-02 3.32241873978115e-04
1.43500000000000e+00 7.11541698400795e-02 3.36160983812113e-04
1.50500000000000e+00 7.02139605906617e-02 3.39720323368435e-04
1.57500000000000e+00 6.92861749762139e-02 3.42944887281405e-04
1.64500000000000e+00 6.83706488346562e-02 3.45857200897739e-04
1.71500000000000e+00 6.74672201730959e-02 3.48477664016512e-04
1.78500000000000e+00 6.65757291391644e-02 3.50824833634765e-04
1.85500000000000e+00 6.56960179927329e-02 3.52915658598582e-04
1.92500000000000e+00 6.48279310780021e-02 3.54765675933466e-04
1.99500000000000e+00 6.39713147959602e-02 3.56389176347601e-04
2.06500000000000e+00 6.31260175772056e-02 3.57799344716716e-04
2.13500000000000e+00 6.22918898551280e-02 3.59008380098728e-04
2.20500000000000e+00 6.14687840394439e-02 3.60027598872524e-04
2.27500000000000e+00 6.06565544900826e-02 3.60867523866301e-04
2.34500000000000e+00 5.98550574914162e-02 3.61537961777928e-04
2.41500000000000e+00 5.90641512268306e-02 3.62048070751506e-04
2.48500000000000e+00 5.82836957536331e-02 3.62406419630035e-04
2.55500000000000e+00 5.75135529782902e-02 3.62621040131500e-04
2.62500000000000e+00 5.67535866319939e-02 3.62699472978309e-04
2.69500000000000e+00 5.60036622465502e-02 3.62648808835473e-04
2.76500000000000e+00 5.52636471305863e-02 3.62475724771892e-04
2.83500000000000e+00 5.45334103460723e-02 3.62186516844320e-04
2.90500000000000e+00 5.38128226851530e-02 3.61787129309802e-04
2.97500000000000e+00 5.31017566472859e-02 3.61283180895120e-04
3.04500000000000e+00 5.24000864166814e-02 3.60679988488087e-04
3.11500000000000e+00 5.17076878400410e-02 3.59982588562387e-04
3.18500000000000e+00 5.10244384045894e-02 3.59195756603485e-04
3.25500000000000e+00 5.03502172163974e-02 3.58324024766110e-04
3.32500000000000e+00 4.96849049789910e-02 3.57371697962317e-04
3.39500000000000e+00 4.90283839722429e-02 3.56342868553022e-04
3.46500000000000e+00 4.83805380315431e-02 3.55241429793318e-04
3.53500000000000e+00 4.77412525272452e-02 3.54071088162754e-04
3.60500000000000e+00 4.71104143443834e-02 3.52835374695583e-04
3.67500000000000e+00 4.64879118626583e-02 3.51537655411818e-04
3.74500000000000e+00 4.58736349366865e-02 3.50181140938004e-04
3.81500000000000e+00 4.52674748765119e-02 3.48768895396199e-04
3.88500000000000e+00 4.46693244283739e-02 3.47303844630495e-04
3.95500000000000e+00 4.40790777557300e-02 3.45788783832821e-04
4.02500000000000e+00 4.34966304205290e-02 3.44226384622800e-04
4.09500000000000e+00 4.29218793647322e-02 3.42619201630491e-04
4.16500000000000e+00 4.23547228920777e-02 3.40969678625784e-04
4.23500000000000e+00 4.17950606500867e-02 3.39280154233402e-04
4.30500000000000e+00 4.12427936123073e-02 3.37552867268695e-04
4.37500000000000e+00 4.06978240607924e-02 3.35789961725703e-04
4.44500000000000e+00 4.01600555688097e-02 3.33993491445849e-04
4.51500000000000e+00 3.96293929837801e-02 3.32165424493011e-04
4.58500000000000e+00 3.91057424104412e-02 3.30307647258013e-04
4.65500000000000e+00 3.85890111942338e-02 3.28421968313551e-04
4.72500000000000e+00 3.80791079049073e-02 3.26510122038636e-04
4.79500000000000e+00 3.75759423203423e-02 3.24573772029753e-04
4.86500000000000e+00 3.70794254105867e-02 3.22614514314524e-04
4.93500000000000e+00 3.65894693221026e-02 3.20633880382208e-04
5.00500000000000e+00 3.61059873622218e-02 3.18633340044097e-04
5.07500000000000e+00 3.56288939838061e-02 3.16614304135802e-04
5.14500000000000e+00 3.51581047701109e-02 3.14578127072377e-04
5.21500000000000e+00 3.46935364198484e-02 3.12526109266278e-04
5.28500000000000e+00 3.42351067324484e-02 3.10459499417405e-04
5.35500000000000e+00 3.37827345935135e-02 3.08379496683678e-04
5.42500000000000e+00 3.33363399604670e-02 3.06287252739955e-04
5.49500000000000e+00 3.28958438483902e-02 3.04183873732439e-04
5.56500000000000e+00 3.24611683160466e-02 3.02070422135206e-04
5.63500000000000e+00 3.20322364520913e-02 2.99947918514980e-04
5.70500000000000e+00 3.16089723614622e-02 2.97817343209779e-04
5.77500000000000e+00 3.11913011519509e-02 2.95679637926673e-04
5.84500000000000e+00 3.07791489209518e-02 2.93535707263539e-04
5.91500000000000e+00 3.03724427423854e-02 2.91386420159229e-04
5.98500000000000e+00 2.99711106537949e-02 2.89232611276366e-04
6.05500000000000e+00 2.95750816436133e-02 2.87075082320676e-04
6.12500000000000e+00 2.91842856385985e-02 2.84914603300412e-04
6.19500000000000e+00 2.87986534914346e-02 2.82751913729283e-04
6.26500000000000e+00 2.84181169684969e-02 2.80587723775903e-04
6.33500000000000e+00 2.80426087377789e-02 2.78422715362845e-04
6.40500000000000e+00 2.76720623569785e-02 2.76257543217937e-04
6.47500000000000e+00 2.73064122617415e-02 2.74092835880305e-04
6.54500000000000e+00 2.69455937540611e-02 2.71929196663642e-04
6.61500000000000e+00 2.65895429908297e-02 2.69767204578876e-04
6.68500000000000e+00 2.62381969725430e-02 2.67607415218329e-04
6.75500000000000e+00 2.58914935321528e-02 2.65450361603364e-04
6.82500000000000e+00 2.55493713240669e-02 2.63296554997310e-04
6.89500000000000e+00 2.52117698132950e-02 2.61146485685400e-04
6.96500000000000e+00 2.48786292647374e-02 2.59000623723413e-04
7.03500000000000e+00 2.45498907326156e-02 2.56859419656422e-04
7.10500000000000e+00 2.42254960500423e-02 2.54723305209209e-04
7.17500000000000e+00 2.39053878187298e-02 2.52592693949612e-04
7.24500000000000e+00 2.35895093988334e-02 2.50467981926094e-04
7.31500000000000e+00 2.32778048989300e-02 2.48349548280792e-04
7.38500000000000e+00 2.29702191661284e-02 2.46237755839108e-04
7.45500000000000e+00 2.26666977763108e-02 2.44132951676945e-04
7.52500000000000e+00 2.23671870245027e-02 2.42035467666591e-04
7.59500000000000e+00 2.20716339153709e-02 2.39945621002235e-04
7.66500000000000e+00 2.17799861538460e-02 2.37863714705960e-04
7.73500000000000e+00 2.14921921358693e-02 2.35790038115121e-04
7.80500000000000e+00 2.12082009392626e-02 2.33724867351924e-04
7.87500000000000e+00 2.09279623147175e-02 2.31668465775910e-04
7.94500000000000e+00 2.06514266769043e-02 2.29621084420140e-04
8.01500000000000e+00 2.03785450956988e-02 2.27582962411761e-04
8.08500000000000e+00 2.01092692875241e-02 2.25554327377546e-04
8.15500000000000e+00 1.98435516068080e-02 2.23535395835108e-04
8.22500000000000e+00 1.95813450375516e-02 2.21526373570368e-04
8.29500000000000e+00 1.93226031850116e-02 2.19527456001796e-04
8.36500000000000e+00 1.90672802674898e-02 2.17538828531967e-04
8.43500000000000e+00 1.88153311082339e-02 2.15560666887002e-04
8.50500000000000e+00 1.85667111274428e-02 2.13593137444310e-04
8.57500000000000e+00 1.83213763343794e-02 2.11636397549121e-04
8.64500000000000e+00 1.80792833195865e-02 2.09690595820234e-04
8.71500000000000e+00 1.78403892472061e-02 2.07755872445431e-04
8.78500000000000e+00 1.76046518474000e-02 2.05832359466940e-04
8.85500000000000e+00 1.73720294088707e-02 2.03920181057286e-04
8.92500000000000e+00 1.71424807714807e-02 2.02019453785974e-04
8.99500000000000e+00 1.69159653189702e-02 2.00130286877304e-04
9.06500000000000e+00 1.66924429717699e-02 1.98252782459623e-04
9.13500000000000e+00 1.64718741799094e-02 1.96387035806411e-04
9.20500000000000e+00 1.62542199160198e-02 1.94533135569420e-04
9.27500000000000e+00 1.60394416684275e-02 1.92691164004217e-04
9.34500000000000e+00 1.58275014343405e-02 1.90861197188369e-04
9.41500000000000e+00 1.56183617131238e-02 1.89043305232572e-04
9.48500000000000e+00 1.54119854996642e-02 1.87237552484945e-04
9.55500000000000e+00 1.52083362778229e-02 1.85443997728723e-04
9.62500000000000e+00 1.50073780139738e-02 1.83662694373662e-04
9.69500000000000e+00 1.48090751506282e-02 1.81893690641264e-04
9.76500000000000e+00 1.46133926001430e-02 1.80137029744132e-04
9.83500000000000e+00 1.44202957385125e-02 1.78392750059619e-04
9.90500000000000e+00 1.42297503992417e-02 1.76660885297953e-04
9.97500000000000e+00 1.40417228673014e-02 1.74941464665068e-04
1.00450000000000e+01 1.38561798731622e-02 1.73234513020297e-04
1.01150000000000e+01 1.36730885869081e-02 1.71540051029118e-04
1.01850000000000e+01 1.34924166124275e-02 1.69858095311091e-04
1.02550000000000e+01 1.33141319816809e-02 1.68188658583163e-04
1.03250000000000e+01 1.31382031490447e-02 1.66531749798533e-04
1.03950000000000e+01 1.29645989857294e-02 1.64887374281164e-04
1.04650000000000e+01 1.27932887742718e-02 1.63255533856105e-04
1.05350000000000e+01 1.26242422030998e-02 1.61636226975803e-04
1.06050000000000e+01 1.24574293611688e-02 1.60029448842481e-04
1.06750000000000e+01 1.22928207326699e-02 1.58435191526720e-04
1.07450000000000e+01 1.21303871918067e-02 1.56853444082419e-04
1.08150000000000e+01 1.19700999976421e-02 1.55284192658180e-04
1.08850000000000e+01 1.18119307890132e-02 1.53727420605278e-04
1.09550000000000e+01 1.16558515795124e-02 1.52183108582309e-04
1.10250000000000e+01 1.15018347525359e-02 1.50651234656624e-04
1.10950000000000e+01 1.13498530563974e-02 1.49131774402661e-04
1.11650000000000e+01 1.11998795995057e-02 1.47624700997251e-04
1.12350000000000e+01 1.10518878456070e-02 1.46129985312017e-04
1.13050000000000e+01 1.09058516090894e-02 1.44647596002944e-04
1.13750000000000e+01 1.07617450503494e-02 1.43177499597218e-04
1.14450000000000e+01 1.06195426712201e-02 1.41719660577397e-04
1.15150000000000e+01 1.04792193104596e-02 1.40274041463015e-04
1.15850000000000e+01 1.03407501392989e-02 1.38840602889713e-04
1.16550000000000e+01 1.02041106570486e-02 1.37419303685946e-04
1.17250000000000e+01 1.00692766867638e-02 1.36010100947333e-04
1.17950000000000e+01 9.93622437096655e-03 1.34612950108762e-04
1.18650000000000e+01 9.80493016742398e-03 1.33227805014276e-04
1.19350000000000e+01 9.67537084498316e-03 1.31854617984851e-04
1.20050000000000e+01 9.54752347946041e-03 1.30493339884078e-04
1.20750000000000e+01 9.42136544958515e-03 1.29143920181852e-04
1.21450000000000e+01 9.29687443299729e-03 1.27806307016125e-04
1.22150000000000e+01 9.17402840229751e-03 1.26480447252749e-04
1.22850000000000e+01 9.05280562114977e-03 1.25166286543499e-04
1.23550000000000e+01 8.93318464043525e-03 1.23863769382334e-04
1.24250000000000e+01 8.81514429445717e-03 1.22572839159910e-04
1.24950000000000e+01 8.69866369719575e-03 1.21293438216432e-04
1.25650000000000e+01 8.58372223861263e-03 1.20025507892887e-04
1.26350000000000e+01 8.47029958100413e-03 1.18768988580696e-04
1.27050000000000e+01 8.35837565540272e-03 1.17523819769833e-04
1.27750000000000e+01 8.24793065802602e-03 1.16289940095472e-04
1.28450000000000e+01 8.13894504677269e-03 1.15067287383182e-04
1.29150000000000e+01 8.03139953776473e-03 1.13855798692727e-04
1.29850000000000e+01 7.92527510193534e-03 1.12655410360511e-04
1.30550000000000e+01 7.82055296166193e-03 1.11466058040707e-04
1.31250000000000e+01 7.71721458744363e-03 1.10287676745100e-04
1.31950000000000e+01 7.61524169462267e-03 1.09120200881683e-04
1.32650000000000e+01 7.51461624014912e-03 1.07963564292051e-04
1.33350000000000e+01 7.41532041938833e-03 1.06817700287644e-04
1.34050000000000e+01 7.31733666297061e-03 1.05682541684804e-04
1.34750000000000e+01 7.22064763368251e-03 1.04558020838776e-04
1.35450000000000e+01 7.12523622339914e-03 1.03444069676601e-04
1.36150000000000e+01 7.03108555005712e-03 1.02340619728984e-04
1.36850000000000e+01 6.93817895466744e-03 1.01247602161141e-04
1.37550000000000e+01 6.84649999836783e-03 1.00164947802664e-04
1.38250000000000e+01 6.75603245951409e-03 9.90925871764341e-05
1.38950000000000e+01 6.66676033080979e-03 9.80304505265951e-05
1.39650000000000e+01 6.57866781647401e-03 9.69784678456433e-05
1.40350000000000e+01 6.49173932944638e-03 9.59365689006179e-05
1.41050000000000e+01 6.40595948862915e-03 9.49046832584499e-05
1.41750000000000e+01 6.32131311616567e-03 9.38827403104968e-05
1.42450000000000e+01 6.23778523475477e-03 9.28706692962572e-05
1.43150000000000e+01 6.15536106500072e-03 9.18683993262975e-05
1.43850000000000e+01 6.07402602279820e-03 9.08758594044417e-05
1.44550000000000e+01 5.99376571675173e-03 8.98929784492124e-05
1.45250000000000e+01 5.91456594562929e-03 8.89196853145491e-05
1.45950000000000e+01 5.83641269584957e-03 8.79559088098406e-05
1.46650000000000e+01 5.75929213900239e-03 8.70015777192770e-05
1.47350000000000e+01 5.68319062940193e-03 8.60566208205411e-05
1.48050000000000e+01 5.60809470167224e-03 8.51209669028695e-05
1.48750000000000e+01 5.53399106836471e-03 8.41945447844792e-05
1.49450000000000e+01 5.46086661760695e-03 8.32772833294012e-05
1.50150000000000e+01 5.38870841078284e-03 8.23691114637340e-05
1.50850000000000e+01 5.31750368024310e-03 8.14699581913049e-05
1.51550000000000e+01 5.24723982704628e-03 8.05797526088002e-05
1.52250000000000e+01 5.17790441872941e-03 7.96984239203520e-05
1.52950000000000e+01 5.10948518710827e-03 7.88259014515882e-05
1.53650000000000e+01 5.04197002610665e-03 7.79621146631907e-05
1.54350000000000e+01 4.97534698961428e-03 7.71069931639614e-05
1.55050000000000e+01 4.90960428937311e-03 7.62604667233968e-05
1.55750000000000e+01 4.84473029289150e-03 7.54224652837993e-05
1.56450000000000e+01 4.78071352138597e-03 7.45929189719405e-05
1.57150000000000e+01 4.71754264775013e-03 7.37717581102858e-05
1.57850000000000e+01 4.65520649455049e-03 7.29589132277822e-05
1.58550000000000e+01 4.59369403204871e-03 7.21543150702380e-05
1.59250000000000e+01 4.53299437625002e-03 7.13578946103003e-05
1.59950000000000e+01 4.47309678697740e-03 7.05695830570366e-05
1.60650000000000e+01 4.41399066597120e-03 6.97893118651363e-05
1.61350000000000e+01 4.35566555501391e-03 6.90170127437387e-05
1.62050000000000e+01 4.29811113407969e-03 6.82526176649079e-05
1.62750000000000e+01 4.24131721950833e-03 6.74960588717565e-05
1.63450000000000e+01 4.18527376220337e-03 6.67472688862277e-05
1.64150000000000e+01 4.12997084585399e-03 6.60061805165482e-05
1.64850000000000e+01 4.07539868518047e-03 6.52727268643632e-05
1.65550000000000e+01 4.02154762420274e-03 6.45468413315633e-05
1.66250000000000e+01 3.96840813453188e-03 6.38284576268002e-05
1.66950000000000e+01 3.91597081368416e-03 6.31175097717130e-05
1.67650000000000e+01 3.86422638341736e-03 6.24139321068775e-05
1.68350000000000e+01 3.81316568808911e-03 6.17176592974697e-05
1.69050000000000e+01 3.76277969303685e-03 6.10286263386659e-05
1.69750000000000e+01 3.71305948297929e-03 6.03467685607762e-05
1.70450000000000e+01 3.66399626043890e-03 5.96720216341308e-05
1.71150000000000e+01 3.61558134418529e-03 5.90043215737219e-05
1.71850000000000e+01 3.56780616769921e-03 5.83436047435995e-05
1.72550000000000e+01 3.52066227765672e-03 5.76898078610403e-05
1.73250000000000e+01 3.47414133243350e-03 5.70428680004937e-05
1.73950000000000e+01 3.42823510062888e-03 5.64027225973068e-05
1.74650000000000e+01 3.38293545960940e-03 5.57693094512406e-05
1.75350000000000e+01 3.33823439407155e-03 5.51425667297791e-05
1.76050000000000e+01 3.29412399462357e-03 5.45224329712352e-05
1.76750000000000e+01 3.25059645638597e-03 5.39088470876682e-05
1.77450000000000e+01 3.20764407761052e-03 5.33017483676142e-05
1.78150000000000e+01 3.16525925831754e-03 5.27010764786365e-05
1.78850000000000e+01 3.12343449895110e-03 5.21067714696916e-05
1.79550000000000e+01 3.08216239905212e-03 5.15187737733294e-05
1.80250000000000e+01 3.04143565594888e-03 5.09370242077301e-05
1.80950000000000e+01 3.00124706346493e-03 5.03614639785757e-05
1.81650000000000e+01 2.96158951064401e-03 4.97920346807678e-05
1.82350000000000e+01 2.92245598049182e-03 4.92286782999919e-05
1.83050000000000e+01 2.88383954873449e-03 4.86713372141394e-05
1.83750000000000e+01 2.84573338259335e-03 4.81199541945880e-05
1.84450000000000e+01 2.80813073957595e-03 4.75744724073367e-05
1.85150000000000e+01 2.77102496628309e-03 4.70348354140179e-05
1.85850000000000e+01 2.73440949723150e-03 4.65009871727744e-05
1.86550000000000e+01 2.69827785369220e-03 4.59728720390127e-05
1.87250000000000e+01 2.66262364254412e-03 4.54504347660352e-05
1.87950000000000e+01 2.62744055514294e-03 4.49336205055574e-05
1.88650000000000e+01 2.59272236620479e-03 4.44223748081123e-05
1.89350000000000e+01 2.55846293270482e-03 4.39166436233373e-05
1.90050000000000e+01 2.52465619279019e-03 4.34163733001663e-05
1.90750000000000e+01 2.49129616470751e-03 4.29215105869131e-05
1.91450000000000e+01 2.45837694574445e-03 4.24320026312547e-05
1.92150000000000e+01 2.42589271118528e-03 4.19477969801203e-05
1.92850000000000e+01 2.39383771328029e-03 4.14688415794884e-05
1.93550000000000e+01 2.36220628022875e-03 4.09950847740949e-05
1.94250000000000e+01 2.33099281517535e-03 4.05264753070504e-05
1.94950000000000e+01 2.30019179521990e-03 4.00629623193766e-05
1.95650000000000e+01 2.26979777044012e-03 3.96044953494634e-05
1.96350000000000e+01 2.23980536292732e-03 3.91510243324481e-05
1.97050000000000e+01 2.21020926583482e-03 3.87024995995151e-05
1.97750000000000e+01 2.18100424243900e-03 3.82588718771234e-05
1.98450000000000e+01 2.15218512521267e-03 3.78200922861692e-05
1.99150000000000e+01 2.12374681491075e-03 3.73861123410785e-05
1.99850000000000e+01 2.09568427966804e-03 3.69568839488333e-05
2.00550000000000e+01 2.06799255410881e-03 3.65323594079336e-05
2.01250000000000e+01 2.04066673846831e-03 3.61124914073017e-05
2.01950000000000e+01 2.01370199772575e-03 3.56972330251284e-05
2.02650000000000e+01 1.98709356074882e-03 3.52865377276619e-05
2.03350000000000e+01 1.96083671944948e-03 3.48803593679432e-05
2.04050000000000e+01 1.93492682795091e-03 3.44786521844881e-05
2.04750000000000e+01 1.90935930176548e-03 3.40813707999223e-05
2.05450000000000e+01 1.88412961698356e-03 3.36884702195688e-05
2.06150000000000e+01 1.85923330947307e-03 3.32999058299840e-05
2.06850000000000e+01 1.83466597408958e-03 3.29156333974545e-05
2.07550000000000e+01 1.81042326389691e-03 3.25356090664497e-05
2.08250000000000e+01 1.78650088939791e-03 3.21597893580352e-05
2.08950000000000e+01 1.76289461777557e-03 3.17881311682473e-05
2.09650000000000e+01 1.73960027214398e-03 3.14205917664274e-05
2.10350000000000e+01 1.71661373080932e-03 3.10571287935243e-05
2.11050000000000e+01 1.69393092654059e-03 3.06977002603597e-05
2.11750000000000e+01 1.67154784584989e-03 3.03422645458621e-05
2.12450000000000e+01 1.64946052828232e-03 2.99907803952705e-05
2.13150000000000e+01 1.62766506571521e-03 2.96432069183079e-05
2.13850000000000e+01 1.60615760166664e-03 2.92995035873261e-05
2.14550000000000e+01 1.58493433061301e-03 2.89596302354221e-05
2.15250000000000e+01 1.56399149731577e-03 2.86235470545334e-05
2.15950000000000e+01 1.54332539615692e-03 2.82912145935047e-05
2.16650000000000e+01 1.52293237048335e-03 2.79625937561317e-05
2.17350000000000e+01 1.50280881195985e-03 2.76376457991874e-05
2.18050000000000e+01 1.48295115993062e-03 2.73163323304230e-05
2.18750000000000e+01 1.46335590078927e-03 2.69986153065508e-05
2.19450000000000e+01 1.44401956735714e-03 2.66844570312087e-05
2.20150000000000e+01 1.42493873826978e-03 2.63738201529085e-05
2.20850000000000e+01 1.40611003737161e-03 2.60666676629669e-05
