Energy (eV)          EEDF (eV^-(3/2))     First Anisotropy
3.52702702702703e-02 5.39573835674660e-02 3.32051505835509e-05
1.05810810810811e-01 5.34566982515000e-02 5.47608401586995e-05
1.76351351351351e-01 5.29606589315567e-02 7.21045137285022e-05
2.46891891891892e-01 5.24692224947233e-02 8.51679832663755e-05
3.17432432432432e-01 5.19823462323772e-02 9.59702472727281e-05
3.87972972972973e-01 5.14999878272908e-02 1.05277392698058e-04
4.58513513513514e-01 5.10221053584594e-02 1.13487216542588e-04
5.29054054054054e-01 5.05486572912547e-02 1.20840731922537e-04
5.99594594594595e-01 5.00796024785998e-02 1.27498304499467e-04
6.70135135135135e-01 4.96149001534572e-02 1.33573643550825e-04
7.40675675675676e-01 4.91545099286082e-02 1.39151192046917e-04
8.11216216216216e-01 4.86983917902656e-02 1.44295910382536e-04
8.81756756756757e-01 4.82465060971250e-02 1.49059182575864e-04
9.52297297297297e-01 4.77988135746633e-02 1.53482581805482e-04
1.02283783783784e+00 4.73552753133176e-02 1.57600378028460e-04
1.09337837837838e+00 4.69158527641619e-02 1.61441268818718e-04
1.16391891891892e+00 4.64805077372724e-02 1.65029610383863e-04
1.23445945945946e+00 4.60492023961670e-02 1.68386315469344e-04
1.30500000000000e+00 4.56218992554653e-02 1.71529522489008e-04
1.37554054054054e+00 4.51985611776225e-02 1.74475104158484e-04
1.44608108108108e+00 4.47791513697095e-02 1.77237060381387e-04
1.51662162162162e+00 4.43636333802191e-02 1.79827826298245e-04
1.58716216216216e+00 4.39519710958897e-02 1.82258517019089e-04
1.65770270270270e+00 4.35441287385665e-02 1.84539124368421e-04
1.72824324324324e+00 4.31400708620914e-02 1.86678676753878e-04
1.79878378378378e+00 4.27397623492222e-02 1.88685370337114e-04
1.86932432432432e+00 4.23431684085804e-02 1.90566677615717e-04
1.93986486486486e+00 4.19502545716270e-02 1.92329438277791e-04
2.01040540540541e+00 4.15609866877118e-02 1.93979934661510e-04
2.08094594594595e+00 4.11753309270791e-02 1.95523956748058e-04
2.15148648648649e+00 4.07932537718371e-02 1.96966857607205e-04
2.22202702702703e+00 4.04147220151171e-02 1.98313599744163e-04
2.29256756756757e+00 4.00397027581871e-02 1.99568795942350e-04
2.36310810810811e+00 3.96681634075922e-02 2.00736744422881e-04
2.43364864864865e+00 3.93000716723221e-02 2.01821459447873e-04
2.50418918918919e+00 3.89353955610042e-02 2.02826698078507e-04
2.57472972972973e+00 3.85741033791233e-02 2.03755983670379e-04
2.64527027027027e+00 3.82161637262668e-02 2.04612626586920e-04
2.71581081081081e+00 3.78615454933928e-02 2.05399742527701e-04
2.78635135135135e+00 3.75102178601323e-02 2.06120268805829e-04
2.85689189189189e+00 3.71621502921073e-02 2.06776978852891e-04
2.92743243243243e+00 3.68173125382771e-02 2.07372495183786e-04
2.99797297297297e+00 3.64756746283088e-02 2.07909301021647e-04
3.06851351351351e+00 3.61372068699729e-02 2.08389750751020e-04
3.13905405405405e+00 3.58018798465621e-02 2.08816079343186e-04
3.20959459459459e+00 3.54696644143353e-02 2.09190410876965e-04
3.28013513513514e+00 3.51405316999844e-02 2.09514766415660e-04
3.35067567567568e+00 3.48144530971500e-02 2.09791070553455e-04
3.42121621621622e+00 3.44914002668990e-02 2.10021158118968e-04
3.49175675675676e+00 3.41713451322568e-02 2.10206780321802e-04
3.56229729729730e+00 3.38542598767825e-02 2.10349609599488e-04
3.63283783783784e+00 3.35401169421520e-02 2.10451244663138e-04
3.70337837837838e+00 3.32288890257627e-02 2.10513214980050e-04
3.77391891891892e+00 3.29205490783603e-02 2.10536984896259e-04
3.84445945945946e+00 3.26150703016882e-02 2.10523957434592e-04
3.91500000000000e+00 3.23124261461585e-02 2.10475477799950e-04
3.98554054054054e+00 3.20125903085433e-02 2.10392836619327e-04
4.05608108108108e+00 3.17155367296904e-02 2.10277272941442e-04
4.12662162162162e+00 3.14212395922577e-02 2.10129977018536e-04
4.19716216216216e+00 3.11296733184697e-02 2.09952092889491e-04
4.26770270270270e+00 3.08408125678941e-02 2.09744720781750e-04
4.33824324324324e+00 3.05546322352396e-02 2.09508919348023e-04
4.40878378378378e+00 3.02711074481736e-02 2.09245707751857e-04
4.47932432432432e+00 2.99902135651611e-02 2.08956067614759e-04
4.54986486486486e+00 2.97119261733224e-02 2.08640944947594e-04
4.62040540540541e+00 2.94362210857154e-02 2.08301251516959e-04
4.69094594594595e+00 2.91630743410435e-02 2.07937866667848e-04
4.76148648648649e+00 2.88924621997411e-02 2.07551639049586e-04
4.83202702702703e+00 2.86243611425289e-02 2.07143387675028e-04
4.90256756756757e+00 2.83587478683693e-02 2.06713903358537e-04
4.97310810810811e+00 2.80955992924416e-02 2.06263949959336e-04
5.04364864864865e+00 2.78348925441355e-02 2.05794265552604e-04
5.11418918918919e+00 2.75766049650635e-02 2.05305563533584e-04
5.18472972972973e+00 2.73207141070913e-02 2.04798533659444e-04
5.25527027027027e+00 2.70671977303872e-02 2.04273843033429e-04
5.32581081081081e+00 2.68160338014887e-02 2.03732137034945e-04
5.39635135135135e+00 2.65672004913881e-02 2.03174040199730e-04
5.46689189189189e+00 2.63206761736352e-02 2.02600157053472e-04
5.53743243243243e+00 2.60764394224577e-02 2.02011072901546e-04
5.60797297297297e+00 2.58344690108989e-02 2.01407354578112e-04
5.67851351351351e+00 2.55947439089728e-02 2.00789551157084e-04
5.74905405405405e+00 2.53572432818364e-02 2.00158194627458e-04
5.81959459459459e+00 2.51219464879791e-02 1.99513800535217e-04
5.89013513513513e+00 2.48888330774284e-02 1.98856868675880e-04
5.96067567567568e+00 2.46578827895866e-02 1.98187883427646e-04
6.03121621621622e+00 2.44290755526404e-02 1.97507314471529e-04
6.10175675675676e+00 2.42023914806338e-02 1.96815617487514e-04
6.17229729729730e+00 2.39778108721378e-02 1.96113234402819e-04
6.24283783783784e+00 2.37553142085383e-02 1.95400593957678e-04
6.31337837837838e+00 2.35348821523401e-02 1.94678112163755e-04
6.38391891891892e+00 2.33164955454857e-02 1.93946192742129e-04
6.45445945945946e+00 2.31001354076904e-02 1.93205227541926e-04
6.52500000000000e+00 2.28857829347932e-02 1.92455596940771e-04
6.59554054054054e+00 2.26734194971215e-02 1.91697670227979e-04
6.66608108108108e+00 2.24630266378727e-02 1.90931805971390e-04
6.73662162162162e+00 2.22545860715102e-02 1.90158352368888e-04
6.80716216216216e+00 2.20480796821739e-02 1.89377647585302e-04
6.87770270270270e+00 2.18434895221055e-02 1.88590020075426e-04
6.94824324324324e+00 2.16407978100893e-02 1.87795788893913e-04
7.01878378378378e+00 2.14399869299060e-02 1.86995263992697e-04
7.08932432432432e+00 2.12410394288022e-02 1.86188746506639e-04
7.15986486486486e+00 2.10439380159735e-02 1.85376529090845e-04
7.23040540540541e+00 2.08486655607922e-02 1.84558895994060e-04
7.30094594594595e+00 2.06552050921342e-02 1.83736123439982e-04
7.37148648648649e+00 2.04635397960804e-02 1.82908480000586e-04
7.44202702702703e+00 2.02736530147330e-02 1.82076226635320e-04
7.51256756756757e+00 2.00855282447669e-02 1.81239616982757e-04
7.58310810810811e+00 1.98991491359962e-02 1.80398897578168e-04
7.65364864864865e+00 1.97144994899530e-02 1.79554308063146e-04
7.72418918918919e+00 1.95315632584790e-02 1.78706081387601e-04
7.79472972972973e+00 1.93503245423316e-02 1.77854444004555e-04
7.86527027027027e+00 1.91707675898014e-02 1.76999616058021e-04
7.93581081081081e+00 1.89928767953433e-02 1.76141811564101e-04
8.00635135135135e+00 1.88166366982205e-02 1.75281238585916e-04
8.07689189189189e+00 1.86420319811607e-02 1.74418099402513e-04
8.14743243243243e+00 1.84690474690247e-02 1.73552590671863e-04
8.21797297297297e+00 1.82976681274875e-02 1.72684903588402e-04
8.28851351351351e+00 1.81278790617320e-02 1.71815224035216e-04
8.35905405405405e+00 1.79596655151540e-02 1.70943732731158e-04
8.42959459459460e+00 1.77930128680797e-02 1.70070605373097e-04
8.50013513513514e+00 1.76279066364956e-02 1.69196012821896e-04
8.57067567567568e+00 1.74643324705992e-02 1.68320121089210e-04
8.64121621621622e+00 1.73022761541271e-02 1.67443091564435e-04
8.71175675675676e+00 1.71417236025391e-02 1.66565081238883e-04
8.78229729729730e+00 1.69826608619893e-02 1.65686242676259e-04
8.85283783783784e+00 1.68250741081133e-02 1.64806724180065e-04
8.92337837837838e+00 1.66689496448269e-02 1.63926669906828e-04
8.99391891891892e+00 1.65142739031355e-02 1.63046219975819e-04
9.06445945945946e+00 1.63610334399549e-02 1.62165510575423e-04
9.13500000000000e+00 1.62092149369430e-02 1.61284674066220e-04
9.20554054054054e+00 1.60588051993423e-02 1.60403839080940e-04
9.27608108108108e+00 1.59097911548330e-02 1.59523130621411e-04
9.34662162162162e+00 1.57621598523969e-02 1.58642670152601e-04
9.41716216216216e+00 1.56158984611921e-02 1.57762575693899e-04
9.48770270270270e+00 1.54709942694372e-02 1.56882961907652e-04
9.55824324324324e+00 1.53274346833072e-02 1.56003940185122e-04
9.62878378378378e+00 1.51852072258387e-02 1.55125618729964e-04
9.69932432432432e+00 1.50442995358453e-02 1.54248102639253e-04
9.76986486486486e+00 1.49046993668435e-02 1.53371494020383e-04
9.84040540540541e+00 1.47663945858482e-02 1.52495891952125e-04
9.91094594594595e+00 1.46293731727421e-02 1.51621392636328e-04
9.98148648648649e+00 1.44936232188034e-02 1.50748089696371e-04
1.00520270270270e+01 1.43591329252788e-02 1.49876073536533e-04
1.01225675675676e+01 1.42258906045060e-02 1.49005432047495e-04
1.01931081081081e+01 1.40938846761818e-02 1.48136251323774e-04
1.02636486486486e+01 1.39631036662010e-02 1.47268613901358e-04
1.03341891891892e+01 1.38335362094828e-02 1.46402600191865e-04
1.04047297297297e+01 1.37051710438889e-02 1.45538288223829e-04
1.04752702702703e+01 1.35779970142666e-02 1.44675753308551e-04
1.05458108108108e+01 1.34520030677190e-02 1.43815069503546e-04
1.06163513513514e+01 1.33271782527508e-02 1.42956307597058e-04
1.06868918918919e+01 1.32035117218426e-02 1.42099536520584e-04
1.07574324324324e+01 1.30809927258110e-02 1.41244823102158e-04
1.08279729729730e+01 1.29596106175059e-02 1.40392231749065e-04
1.08985135135135e+01 1.28393548474167e-02 1.39541825817389e-04
1.09690540540541e+01 1.27202149628519e-02 1.38693665717334e-04
1.10395945945946e+01 1.26021806102870e-02 1.37847810234908e-04
1.11101351351351e+01 1.24852415301272e-02 1.37004316297333e-04
1.11806756756757e+01 1.23693875600930e-02 1.36163238671938e-04
1.12512162162162e+01 1.22546086311342e-02 1.35324631248906e-04
1.13217567567568e+01 1.21408947666422e-02 1.34488545259465e-04
1.13922972972973e+01 1.20282360845929e-02 1.33655030513657e-04
1.14628378378378e+01 1.19166227926789e-02 1.32824135177487e-04
1.15333783783784e+01 1.18060451914126e-02 1.31995905487314e-04
1.16039189189189e+01 1.16964936703224e-02 1.31170386952230e-04
1.16744594594595e+01 1.15879587071965e-02 1.30347622677838e-04
1.17450000000000e+01 1.14804308700410e-02 1.29527654526262e-04
1.18155405405405e+01 1.13739008125511e-02 1.28710522904588e-04
1.18860810810811e+01 1.12683592769570e-02 1.27896266755948e-04
1.19566216216216e+01 1.11637970896104e-02 1.27084923637716e-04
1.20271621621622e+01 1.10602051637467e-02 1.26276529455373e-04
1.20977027027027e+01 1.09575744960314e-02 1.25471119565380e-04
1.21682432432432e+01 1.08558961658467e-02 1.24668727230777e-04
1.22387837837838e+01 1.07551613370262e-02 1.23869384685307e-04
1.23093243243243e+01 1.06553612537447e-02 1.23073122935638e-04
1.23798648648649e+01 1.05564872430541e-02 1.22279971509568e-04
1.24504054054054e+01 1.04585307116615e-02 1.21489959490996e-04
1.25209459459459e+01 1.03614831452464e-02 1.20703114065977e-04
1.25914864864865e+01 1.02653361100476e-02 1.19919461521788e-04
1.26620270270270e+01 1.01700812490310e-02 1.19139027059156e-04
1.27325675675676e+01 1.00757102842209e-02 1.18361834554037e-04
1.28031081081081e+01 9.98221501369159e-03 1.17587907529501e-04
1.28736486486486e+01 9.88958731091351e-03 1.16817267786448e-04
1.29441891891892e+01 9.79781912620564e-03 1.16049936342124e-04
1.30147297297297e+01 9.70690248316080e-03 1.15285933251931e-04
1.30852702702703e+01 9.61682948078964e-03 1.14525277384074e-04
1.31558108108108e+01 9.52759229070921e-03 1.13767987332679e-04
1.32263513513514e+01 9.43918315651762e-03 1.13014080127858e-04
1.32968918918919e+01 9.35159439512394e-03 1.12263572117786e-04
1.33674324324324e+01 9.26481839341091e-03 1.11516478799694e-04
1.34379729729730e+01 9.17884761020797e-03 1.10772814606542e-04
1.35085135135135e+01 9.09367457366297e-03 1.10032593765578e-04
1.35790540540541e+01 9.00929188064285e-03 1.09295829082757e-04
1.36495945945946e+01 8.92569219795284e-03 1.08562532771965e-04
1.37201351351351e+01 8.84286825921845e-03 1.07832716294949e-04
1.37906756756757e+01 8.76081286670236e-03 1.07106390159337e-04
1.38612162162162e+01 8.67951888884553e-03 1.06383564726252e-04
1.39317567567568e+01 8.59897925969310e-03 1.05664249064469e-04
1.40022972972973e+01 8.51918698001270e-03 1.04948451730324e-04
1.40728378378378e+01 8.44013511437919e-03 1.04236180616115e-04
1.41433783783784e+01 8.36181679284898e-03 1.03527442758857e-04
1.42139189189189e+01 8.28422520865802e-03 1.02822245100330e-04
1.42844594594595e+01 8.20735361767204e-03 1.02120593406660e-04
1.43550000000000e+01 8.13119533941272e-03 1.01422493002148e-04
1.44255405405405e+01 8.05574375433042e-03 1.00727948625708e-04
1.44960810810811e+01 7.98099230534782e-03 1.00036964417749e-04
1.45666216216216e+01 7.90693449519809e-03 9.93495439623780e-05
1.46371621621622e+01 7.83356388792519e-03 9.86656901096533e-05
1.47077027027027e+01 7.76087410677882e-03 9.79854056759298e-05
1.47782432432432e+01 7.68885883369757e-03 9.73086924459019e-05
1.48487837837838e+01 7.61751181022267e-03 9.66355518488165e-05
1.49193243243243e+01 7.54682683500598e-03 9.59659848247849e-05
1.49898648648649e+01 7.47679776519426e-03 9.52999916566493e-05
1.50604054054054e+01 7.40741851445546e-03 9.46375726294781e-05
1.51309459459459e+01 7.33868305248451e-03 9.39787270890607e-05
1.52014864864865e+01 7.27058540584227e-03 9.33234540788757e-05
1.52720270270270e+01 7.20311965562109e-03 9.26717522133541e-05
1.53425675675676e+01 7.13627993872272e-03 9.20236195188383e-05
1.54131081081081e+01 7.07006044600674e-03 9.13790540548530e-05
1.54836486486486e+01 7.00445542181809e-03 9.07380530256070e-05
1.55541891891892e+01 6.93945916475748e-03 9.01006133802046e-05
1.56247297297297e+01 6.87506602549354e-03 8.94667316925087e-05
1.56952702702703e+01 6.81127040794299e-03 8.88364040106927e-05
1.57658108108108e+01 6.74806676753284e-03 8.82096264426901e-05
1.58363513513514e+01 6.68544961074864e-03 8.75863943175102e-05
1.59068918918919e+01 6.62341349584228e-03 8.69667027510102e-05
1.59774324324324e+01 6.56195303078040e-03 8.63505465320337e-05
1.60479729729730e+01 6.50106287433475e-03 8.57379199799825e-05
1.61185135135135e+01 6.44073773445062e-03 8.51288174968029e-05
1.61890540540541e+01 6.38097236781454e-03 8.45232327751436e-05
1.62595945945946e+01 6.32176158050504e-03 8.39211593317068e-05
1.63301351351351e+01 6.26310022606778e-03 8.33225903994263e-05
1.64006756756757e+01 6.20498320652341e-03 8.27275187925946e-05
1.64712162162162e+01 6.14740547083493e-03 8.21359374274606e-05
1.65417567567568e+01 6.09036201449418e-03 8.15478385744412e-05
1.66122972972973e+01 6.03384788012022e-03 8.09632143610485e-05
1.66828378378378e+01 5.97785815565253e-03 8.03820566698046e-05
1.67533783783784e+01 5.92238797528301e-03 7.98043570104930e-05
1.68239189189189e+01 5.86743251801562e-03 7.92301070112833e-05
1.68944594594595e+01 5.81298700727088e-03 7.86592977124232e-05
1.69650000000000e+01 5.75904671143619e-03 7.80919200405952e-05
1.70355405405405e+01 5.70560694216918e-03 7.75279647122304e-05
1.71060810810811e+01 5.65266305525978e-03 7.69674222220651e-05
1.71766216216216e+01 5.60021044897257e-03 7.64102828674753e-05
1.72471621621622e+01 5.54824456488537e-03 7.58565366297565e-05
1.73177027027027e+01 5.49676088656593e-03 7.53061736279540e-05
1.73882432432432e+01 5.44575493920059e-03 7.47591834651567e-05
1.74587837837838e+01 5.39522229008559e-03 7.42155556668613e-05
1.75293243243243e+01 5.34515854706966e-03 7.36752795909918e-05
1.75998648648649e+01 5.29555935933011e-03 7.31383443155291e-05
1.76704054054054e+01 5.24642041612788e-03 7.26047390668089e-05
1.77409459459459e+01 5.19773744645268e-03 7.20744526017852e-05
1.78114864864865e+01 5.14950621947489e-03 7.15474736218375e-05
1.78820270270270e+01 5.10172254308175e-03 7.10237906874522e-05
1.79525675675676e+01 5.05438226459579e-03 7.05033921118602e-05
1.80231081081081e+01 5.00748126960318e-03 6.99862663653537e-05
1.80936486486486e+01 4.96101548161466e-03 6.94724014914076e-05
1.81641891891892e+01 4.91498086248125e-03 6.89617854973986e-05
1.82347297297297e+01 4.86937341101777e-03 6.84544062737131e-05
1.83052702702703e+01 4.82418916366827e-03 6.79502514930611e-05
1.83758108108108e+01 4.77942419340286e-03 6.74493089922329e-05
1.84463513513514e+01 4.73507460939375e-03 6.69515662201174e-05
1.85168918918919e+01 4.69113655739768e-03 6.64570106067132e-05
1.85874324324324e+01 4.64760621846122e-03 6.59656294864473e-05
1.86579729729730e+01 4.60447980953708e-03 6.54774100027827e-05
1.87285135135135e+01 4.56175358244529e-03 6.49923394688172e-05
1.87990540540541e+01 4.51942382356348e-03 6.45104048453936e-05
1.88695945945946e+01 4.47748685417884e-03 6.40315930895951e-05
1.89401351351351e+01 4.43593902926986e-03 6.35558910820896e-05
1.90106756756757e+01 4.39477673807735e-03 6.30832855367572e-05
1.90812162162162e+01 4.35399640312585e-03 6.26137633413744e-05
1.91517567567568e+01 4.31359447992750e-03 6.21473110640598e-05
1.92222972972973e+01 4.27356745730609e-03 6.16839152824809e-05
1.92928378378378e+01 4.23391185625026e-03 6.12235625150273e-05
1.93633783783784e+01 4.19462423044269e-03 6.07662391351574e-05
1.94339189189189e+01 4.15570116533796e-03 6.03119316933352e-05
1.95044594594595e+01 4.11713927787948e-03 5.98606264502057e-05
1.95750000000000e+01 4.07893521679780e-03 5.94123096876443e-05
1.96455405405405e+01 4.04108566153074e-03 5.89669676435395e-05
1.97160810810811e+01 4.00358732271393e-03 5.85245865028674e-05
1.97866216216216e+01 3.96643694112506e-03 5.80851524122582e-05
1.98571621621622e+01 3.92963128816129e-03 5.76486514003490e-05
1.99277027027027e+01 3.89316716498921e-03 5.72150696758598e-05
1.99982432432432e+01 3.85704140227923e-03 5.67843931948796e-05
2.00687837837838e+01 3.82125086047210e-03 5.63566079488608e-05
2.01393243243243e+01 3.78579242878439e-03 5.59316999038970e-05
2.02098648648649e+01 3.75066302565120e-03 5.55096549252799e-05
2.02804054054054e+01 3.71585959792450e-03 5.50904590592442e-05
2.03509459459459e+01 3.68137912061942e-03 5.46740981235396e-05
2.04214864864865e+01 3.64721859715944e-03 5.42605579797098e-05
2.04920270270270e+01 3.61337505843938e-03 5.38498244754905e-05
2.05625675675676e+01 3.57984556323595e-03 5.34418833733341e-05
2.06331081081081e+01 3.54662719745149e-03 5.30367206167747e-05
2.07036486486486e+01 3.51371707387167e-03 5.26343219429753e-05
2.07741891891892e+01 3.48111233239108e-03 5.22346731401782e-05
2.08447297297297e+01 3.44881013913003e-03 5.18377599930745e-05
2.09152702702703e+01 3.41680768681545e-03 5.14435682150823e-05
2.09858108108108e+01 3.38510219406728e-03 5.10520837001978e-05
2.10563513513514e+01 3.35369090516696e-03 5.06632921562949e-05
2.11268918918919e+01 3.32257109026505e-03 5.02771793486032e-05
2.11974324324324e+01 3.29174004454855e-03 4.98937310478850e-05
2.12679729729730e+01 3.26119508859428e-03 4.95129329662357e-05
2.13385135135135e+01 3.23093356769538e-03 4.91347709953003e-05
2.14090540540541e+01 3.20095285164014e-03 4.87592308591544e-05
2.14795945945946e+01 3.17125033490297e-03 4.83862983445642e-05
2.15501351351351e+01 3.14182343585926e-03 4.80159592518595e-05
2.16206756756757e+01 3.11266959711320e-03 4.76481993340575e-05
2.16912162162162e+01 3.08378628486203e-03 4.72830045222191e-05
2.17617567567568e+01 3.05517098868468e-03 4.69203605968187e-05
2.18322972972973e+01 3.02682122171754e-03 4.65602534055437e-05
2.19028378378378e+01 2.99873451991376e-03 4.62026688167177e-05
2.19733783783784e+01 2.97090844234758e-03 4.58475926615650e-05
2.20439189189189e+01 2.94334057061394e-03 4.54950109474324e-05
2.21144594594595e+01 2.91602850862661e-03 4.51449095466298e-05
2.21850000000000e+01 2.88896988277984e-03 4.47972744024664e-05
2.22555405405405e+01 2.86216234124953e-03 4.44520914850881e-05
