Energy (eV)          EEDF (eV^-(3/2))     First Anisotropy
4.85156250000000e-04 1.47666655774169e+01 6.42198752364283e-03
1.45546875000000e-03 1.46871662746870e+01 1.06116552349094e-02
2.42578125000000e-03 1.46080949723456e+01 1.40274847245622e-02
3.39609375000000e-03 1.45294493661941e+01 1.66340513949779e-02
4.36640625000000e-03 1.44512271644169e+01 1.88175298113834e-02
5.33671875000000e-03 1.43734260875335e+01 2.07236115393327e-02
6.30703125000000e-03 1.42960438683346e+01 2.24275374200531e-02
7.27734375000000e-03 1.42190782518163e+01 2.39746522223266e-02
8.24765625000000e-03 1.41425269951148e+01 2.53949698568830e-02
9.21796875000000e-03 1.40663878674412e+01 2.67096617448034e-02
1.01882812500000e-02 1.39906586500163e+01 2.79343692713329e-02
1.11585937500000e-02 1.39153371360063e+01 2.90810634949848e-02
1.21289062500000e-02 1.38404211304582e+01 3.01591655116220e-02
1.30992187500000e-02 1.37659084502361e+01 3.11762592788832e-02
1.40695312500000e-02 1.36917969239571e+01 3.21385653765177e-02
1.50398437500000e-02 1.36180843919287e+01 3.30512673400832e-02
1.60101562500000e-02 1.35447687060855e+01 3.39187432600184e-02
1.69804687500000e-02 1.34718477299264e+01 3.47447343680842e-02
1.79507812500000e-02 1.33993193384529e+01 3.55324704610770e-02
1.89210937500000e-02 1.33271814181066e+01 3.62847649996966e-02
1.98914062500000e-02 1.32554318667080e+01 3.70040884258968e-02
2.08617187500000e-02 1.31840685933951e+01 3.76926255277685e-02
2.18320312500000e-02 1.31130895185624e+01 3.83523209176099e-02
2.28023437500000e-02 1.30424925738003e+01 3.89849155149206e-02
2.37726562500000e-02 1.29722757018352e+01 3.95919761274781e-02
2.47429687500000e-02 1.29024368564689e+01 4.01749196696951e-02
2.57132812500000e-02 1.28329740025195e+01 4.07350331663808e-02
2.66835937500000e-02 1.27638851157619e+01 4.12734904095669e-02
2.76539062500000e-02 1.26951681828688e+01 4.17913659319183e-02
2.86242187500000e-02 1.26268212013521e+01 4.22896468097274e-02
2.95945312500000e-02 1.25588421795043e+01 4.27692426961055e-02
3.05648437500000e-02 1.24912291363409e+01 4.32309944001835e-02
3.15351562500000e-02 1.24239801015423e+01 4.36756812633597e-02
3.25054687500000e-02 1.23570931153966e+01 4.41040275338217e-02
3.34757812500000e-02 1.22905662287423e+01 4.45167079018420e-02
3.44460937500000e-02 1.22243975029115e+01 4.49143523279524e-02
3.54164062500000e-02 1.21585850096739e+01 4.52975502721181e-02
3.63867187500000e-02 1.20931268311798e+01 4.56668544129722e-02
3.73570312500000e-02 1.20280210599048e+01 4.60227839308566e-02
3.83273437500000e-02 1.19632657985940e+01 4.63658274160866e-02
3.92976562500000e-02 1.18988591602069e+01 4.66964454538753e-02
4.02679687500000e-02 1.18347992678620e+01 4.70150729291304e-02
4.12382812500000e-02 1.17710842547826e+01 4.73221210876966e-02
4.22085937500000e-02 1.17077122642421e+01 4.76179793850394e-02
4.31789062500000e-02 1.16446814495098e+01 4.79030171488151e-02
4.41492187500000e-02 1.15819899737975e+01 4.81775850779528e-02
4.51195312500000e-02 1.15196360102056e+01 4.84420165976295e-02
4.60898437500000e-02 1.14576177416699e+01 4.86966290869333e-02
4.70601562500000e-02 1.13959333609088e+01 4.89417249936674e-02
4.80304687500000e-02 1.13345810703706e+01 4.91775928488353e-02
4.90007812500000e-02 1.12735590821811e+01 4.94045081917816e-02
4.99710937500000e-02 1.12128656180914e+01 4.96227344155167e-02
5.09414062500000e-02 1.11524989094262e+01 4.98325235405729e-02
5.19117187500000e-02 1.10924571970321e+01 5.00341169247267e-02
5.28820312500000e-02 1.10327387312267e+01 5.02277459150652e-02
5.38523437500000e-02 1.09733417717471e+01 5.04136324480805e-02
5.48226562500000e-02 1.09142645876996e+01 5.05919896028251e-02
5.57929687500000e-02 1.08555054575092e+01 5.07630221116216e-02
5.67632812500000e-02 1.07970626688691e+01 5.09269268322689e-02
5.77335937500000e-02 1.07389345186913e+01 5.10838931852878e-02
5.87039062500000e-02 1.06811193130565e+01 5.12341035594048e-02
5.96742187500000e-02 1.06236153671651e+01 5.13777336880279e-02
6.06445312500000e-02 1.05664210052879e+01 5.15149529992836e-02
6.16148437500000e-02 1.05095345607173e+01 5.16459249419056e-02
6.25851562500000e-02 1.04529543757189e+01 5.17708072889559e-02
6.35554687500000e-02 1.03966788014827e+01 5.18897524212749e-02
6.45257812500000e-02 1.03407061980759e+01 5.20029075923040e-02
6.54960937500000e-02 1.02850349343942e+01 5.21104151757651e-02
6.64664062500000e-02 1.02296633881147e+01 5.22124128975754e-02
6.74367187500000e-02 1.01745899456490e+01 5.23090340532186e-02
6.84070312500000e-02 1.01198130020952e+01 5.24004077116884e-02
6.93773437500000e-02 1.00653309611922e+01 5.24866589070522e-02
7.03476562500000e-02 1.00111422352724e+01 5.25679088185224e-02
7.13179687500000e-02 9.95724524521591e+00 5.26442749398845e-02
7.22882812500000e-02 9.90363842040414e+00 5.27158712390975e-02
7.32585937500000e-02 9.85032019867441e+00 5.27828083087320e-02
7.42289062500000e-02 9.79728902627420e+00 5.28451935078885e-02
7.51992187500000e-02 9.74454335781593e+00 5.29031310962136e-02
7.61695312500000e-02 9.69208165623193e+00 5.29567223605528e-02
7.71398437500000e-02 9.63990239272964e+00 5.30060657347343e-02
7.81101562500000e-02 9.58800404674706e+00 5.30512569129392e-02
7.90804687500000e-02 9.53638510590843e+00 5.30923889570782e-02
8.00507812500000e-02 9.48504406598018e+00 5.31295523985992e-02
8.10210937500000e-02 9.43397943082707e+00 5.31628353350395e-02
8.19914062500000e-02 9.38318971236863e+00 5.31923235216808e-02
8.29617187500000e-02 9.33267343053574e+00 5.32181004586249e-02
8.39320312500000e-02 9.28242911322755e+00 5.32402474735445e-02
8.49023437500000e-02 9.23245529626853e+00 5.32588438003943e-02
8.58726562500000e-02 9.18275052336588e+00 5.32739666543349e-02
8.68429687500000e-02 9.13331334606700e+00 5.32856913030871e-02
8.78132812500000e-02 9.08414232371734e+00 5.32940911348998e-02
8.87835937500000e-02 9.03523602341841e+00 5.32992377233739e-02
8.97539062500000e-02 8.98659301998600e+00 5.33012008893161e-02
9.07242187500000e-02 8.93821189590869e+00 5.33000487597718e-02
9.16945312500000e-02 8.89009124130649e+00 5.32958478243997e-02
9.26648437500000e-02 8.84222965388980e+00 5.32886629893469e-02
9.36351562500000e-02 8.79462573891851e+00 5.32785576287757e-02
9.46054687500000e-02 8.74727810916139e+00 5.32655936341380e-02
9.55757812500000e-02 8.70018538485565e+00 5.32498314613387e-02
9.65460937500000e-02 8.65334619366670e+00 5.32313301759037e-02
9.75164062500000e-02 8.60675917064822e+00 5.32101474962413e-02
9.84867187500000e-02 8.56042295820234e+00 5.31863398351207e-02
9.94570312500000e-02 8.51433620604008e+00 5.31599623394438e-02
1.00427343750000e-01 8.46849757114204e+00 5.31310689283971e-02
1.01397656250000e-01 8.42290571771920e+00 5.30997122844351e-02
1.02367968750000e-01 8.37755931736273e+00 5.30659440713410e-02
1.03338281250000e-01 8.33245704824951e+00 5.30298147846783e-02
1.04308593750000e-01 8.28759759605298e+00 5.29913736010710e-02
1.05278906250000e-01 8.24297965389115e+00 5.29506688248483e-02
1.06249218750000e-01 8.19860192153853e+00 5.29077479095432e-02
1.07219531250000e-01 8.15446310542164e+00 5.28626570400096e-02
1.08189843750000e-01 8.11056191963783e+00 5.28154415156289e-02
1.09160156250000e-01 8.06689708451087e+00 5.27661457811303e-02
1.10130468750000e-01 8.02346732760227e+00 5.27148131014661e-02
1.11100781250000e-01 7.98027138366182e+00 5.26614860225765e-02
1.12071093750000e-01 7.93730799390362e+00 5.26062063874960e-02
1.13041406250000e-01 7.89457590599901e+00 5.25490150200435e-02
1.14011718750000e-01 7.85207387469058e+00 5.24899517549879e-02
1.14982031250000e-01 7.80980066174427e+00 5.24290557922190e-02
1.15952343750000e-01 7.76775503526421e+00 5.23663657100709e-02
1.16922656250000e-01 7.72593576968408e+00 5.23019191589005e-02
1.17892968750000e-01 7.68434164634692e+00 5.22357528879169e-02
1.18863281250000e-01 7.64297145345874e+00 5.21679031610462e-02
1.19833593750000e-01 7.60182398514481e+00 5.20984054591769e-02
1.20803906250000e-01 7.56089804261895e+00 5.20272945694614e-02
1.21774218750000e-01 7.52019243296046e+00 5.19546046119091e-02
1.22744531250000e-01 7.47970597025149e+00 5.18803689719888e-02
1.23714843750000e-01 7.43943747466507e+00 5.18046206233381e-02
1.24685156250000e-01 7.39938577245415e+00 5.17273916891346e-02
1.25655468750000e-01 7.35954969674194e+00 5.16487137555871e-02
1.26625781250000e-01 7.31992808638979e+00 5.15686178182719e-02
1.27596093750000e-01 7.28051978704718e+00 5.14871342871592e-02
1.28566406250000e-01 7.24132365004831e+00 5.14042930089477e-02
1.29536718750000e-01 7.20233853343456e+00 5.13201232714436e-02
1.30507031250000e-01 7.16356330087892e+00 5.12346538249133e-02
1.31477343750000e-01 7.12499682268175e+00 5.11479128858359e-02
1.32447656250000e-01 7.08663797472213e+00 5.10599281573344e-02
1.33417968750000e-01 7.04848563942795e+00 5.09707268323918e-02
1.34388281250000e-01 7.01053870475317e+00 5.08803356134205e-02
1.35358593750000e-01 6.97279606512309e+00 5.07887807149631e-02
1.36328906250000e-01 6.93525662043674e+00 5.06960878824501e-02
1.37299218750000e-01 6.89791927698816e+00 5.06022823944655e-02
1.38269531250000e-01 6.86078294649305e+00 5.05073891448802e-02
1.39239843750000e-01 6.82384654675955e+00 5.04114323876573e-02
1.40210156250000e-01 6.78710900164885e+00 5.03144361384254e-02
1.41180468750000e-01 6.75056924036153e+00 5.02164239257393e-02
1.42150781250000e-01 6.71422619831166e+00 5.01174188587949e-02
1.43121093750000e-01 6.67807881620161e+00 5.00174436438509e-02
1.44091406250000e-01 6.64212604087439e+00 4.99165205850562e-02
1.45061718750000e-01 6.60636682441051e+00 4.98146716002491e-02
1.46032031250000e-01 6.57080012495932e+00 4.97119182214842e-02
1.47002343750000e-01 6.53542490585717e+00 4.96082816102559e-02
1.47972656250000e-01 6.50024013643844e+00 4.95037825577520e-02
1.48942968750000e-01 6.46524479117435e+00 4.93984414995189e-02
1.49913281250000e-01 6.43043785046430e+00 4.92922784577286e-02
1.50883593750000e-01 6.39581829999129e+00 4.91853132867048e-02
1.51853906250000e-01 6.36138513070681e+00 4.90775653835290e-02
1.52824218750000e-01 6.32713733919177e+00 4.89690536995566e-02
1.53794531250000e-01 6.29307392762068e+00 4.88597969780903e-02
1.54764843750000e-01 6.25919390334405e+00 4.87498137560631e-02
1.55735156250000e-01 6.22549627887299e+00 4.86391220880282e-02
1.56705468750000e-01 6.19198007240611e+00 4.85277397766087e-02
1.57675781250000e-01 6.15864430706088e+00 4.84156843810300e-02
1.58646093750000e-01 6.12548801139762e+00 4.83029730002471e-02
1.59616406250000e-01 6.09251021938518e+00 4.81896226080647e-02
1.60586718750000e-01 6.05970996983560e+00 4.80756498417746e-02
1.61557031250000e-01 6.02708630708920e+00 4.79610710048336e-02
1.62527343750000e-01 5.99463828045278e+00 4.78459022873452e-02
1.63497656250000e-01 5.96236494418394e+00 4.77301594524752e-02
1.64467968750000e-01 5.93026535797039e+00 4.76138580511169e-02
1.65438281250000e-01 5.89833858622749e+00 4.74970134292271e-02
1.66408593750000e-01 5.86658369857505e+00 4.73796405244480e-02
1.67378906250000e-01 5.83499976980477e+00 4.72617541292271e-02
1.68349218750000e-01 5.80358587952273e+00 4.71433688913091e-02
1.69319531250000e-01 5.77234111213357e+00 4.70244990673423e-02
1.70289843750000e-01 5.74126455728764e+00 4.69051587266591e-02
1.71260156250000e-01 5.71035530922343e+00 4.67853617578624e-02
1.72230468750000e-01 5.67961246721241e+00 4.66651216749534e-02
1.73200781250000e-01 5.64903513552774e+00 4.65444518673001e-02
1.74171093750000e-01 5.61862242310911e+00 4.64233655997876e-02
1.75141406250000e-01 5.58837344354684e+00 4.63018757779887e-02
1.76111718750000e-01 5.55828731549956e+00 4.61799951417586e-02
1.77082031250000e-01 5.52836316207785e+00 4.60577362711857e-02
1.78052343750000e-01 5.49860011125984e+00 4.59351114017143e-02
1.79022656250000e-01 5.46899729586109e+00 4.58121326618075e-02
1.79992968750000e-01 5.43955385322000e+00 4.56888120728292e-02
1.80963281250000e-01 5.41026892518191e+00 4.55651613693656e-02
1.81933593750000e-01 5.38114165835264e+00 4.54411920060987e-02
1.82903906250000e-01 5.35217120406908e+00 4.53169153846371e-02
1.83874218750000e-01 5.32335671796334e+00 4.51923426788888e-02
1.84844531250000e-01 5.29469736048417e+00 4.50674848359859e-02
1.85814843750000e-01 5.26619229646358e+00 4.49423527560648e-02
1.86785156250000e-01 5.23784069510102e+00 4.48169570757418e-02
1.87755468750000e-01 5.20964173020037e+00 4.46913081743882e-02
1.88725781250000e-01 5.18159458014176e+00 4.45654163900603e-02
1.89696093750000e-01 5.15369842747182e+00 4.44392918528763e-02
1.90666406250000e-01 5.12595245939224e+00 4.43129444856822e-02
1.91636718750000e-01 5.09835586735241e+00 4.41863841751909e-02
1.92607031250000e-01 5.07090784703368e+00 4.40596205252205e-02
1.93577343750000e-01 5.04360759869195e+00 4.39326630234486e-02
1.94547656250000e-01 5.01645432664692e+00 4.38055210459124e-02
1.95517968750000e-01 4.98944723962303e+00 4.36782036963641e-02
1.96488281250000e-01 4.96258555072262e+00 4.35507200113462e-02
1.97458593750000e-01 4.93586847716410e+00 4.34230789595731e-02
1.98428906250000e-01 4.90929524026644e+00 4.32952892474181e-02
1.99399218750000e-01 4.88286506577034e+00 4.31673594777669e-02
2.00369531250000e-01 4.85657718335767e+00 4.30392981541527e-02
2.01339843750000e-01 4.83043082697124e+00 4.29111135273554e-02
2.02310156250000e-01 4.80442523478887e+00 4.27828138280266e-02
2.03280468750000e-01 4.77855964886785e+00 4.26544071171359e-02
2.04250781250000e-01 4.75283331556572e+00 4.25259012861874e-02
2.05221093750000e-01 4.72724548518662e+00 4.23973042101565e-02
2.06191406250000e-01 4.70179541196597e+00 4.22686235260990e-02
2.07161718750000e-01 4.67648235436578e+00 4.21398667821855e-02
2.08132031250000e-01 4.65130557463081e+00 4.20110414414196e-02
2.09102343750000e-01 4.62626433908254e+00 4.18821547373136e-02
2.10072656250000e-01 4.60135791809453e+00 4.17532138573904e-02
2.11042968750000e-01 4.57658558586422e+00 4.16242259423683e-02
2.12013281250000e-01 4.55194662039780e+00 4.14951979114303e-02
2.12983593750000e-01 4.52744030378770e+00 4.13661366043864e-02
2.13953906250000e-01 4.50306592179409e+00 4.12370487512396e-02
2.14924218750000e-01 4.47882276421770e+00 4.11079409699384e-02
2.15894531250000e-01 4.45471012448938e+00 4.09788198053305e-02
2.16864843750000e-01 4.43072729994076e+00 4.08496915933142e-02
2.17835156250000e-01 4.40687359178079e+00 4.07205626660851e-02
2.18805468750000e-01 4.38314830479147e+00 4.05914392196899e-02
2.19775781250000e-01 4.35955074768481e+00 4.04623273462741e-02
2.20746093750000e-01 4.33608023270920e+00 4.03332330394386e-02
2.21716406250000e-01 4.31273607599915e+00 4.02041621601064e-02
2.22686718750000e-01 4.28951759727846e+00 4.00751205693841e-02
2.23657031250000e-01 4.26642411984555e+00 3.99461139668411e-02
2.24627343750000e-01 4.24345497073152e+00 3.98171478943253e-02
2.25597656250000e-01 4.22060948067773e+00 3.96882278959667e-02
2.26567968750000e-01 4.19788698385393e+00 3.95593593934417e-02
2.27538281250000e-01 4.17528681818750e+00 3.94305476857921e-02
2.28508593750000e-01 4.15280832508306e+00 3.93017980762805e-02
2.29478906250000e-01 4.13045084940809e+00 3.91731157177949e-02
2.30449218750000e-01 4.10821373964155e+00 3.90445056163969e-02
2.31419531250000e-01 4.08609634785228e+00 3.89159727841711e-02
2.32389843750000e-01 4.06409802943252e+00 3.87875221199414e-02
2.33360156250000e-01 4.04221814340818e+00 3.86591584090142e-02
2.34330468750000e-01 4.02045605217372e+00 3.85308864443917e-02
2.35300781250000e-01 3.99881112147806e+00 3.84027108502367e-02
2.36271093750000e-01 3.97728272064245e+00 3.82746362000551e-02
2.37241406250000e-01 3.95587022222731e+00 3.81466670192669e-02
2.38211718750000e-01 3.93457300224923e+00 3.80188076698857e-02
2.39182031250000e-01 3.91339044016038e+00 3.78910624962824e-02
2.40152343750000e-01 3.89232191867609e+00 3.77634358242363e-02
2.41122656250000e-01 3.87136682376109e+00 3.76359318213072e-02
2.42092968750000e-01 3.85052454483484e+00 3.75085546097940e-02
2.43063281250000e-01 3.82979447445643e+00 3.73813082421165e-02
2.44033593750000e-01 3.80917600860142e+00 3.72541966987157e-02
2.45003906250000e-01 3.78866854635242e+00 3.71272238921709e-02
2.45974218750000e-01 3.76827149017068e+00 3.70003936651200e-02
2.46944531250000e-01 3.74798424559229e+00 3.68737097942914e-02
2.47914843750000e-01 3.72780622149455e+00 3.67471759884368e-02
2.48885156250000e-01 3.70773682979769e+00 3.66207958922942e-02
2.49855468750000e-01 3.68777548572622e+00 3.64945730845314e-02
2.50825781250000e-01 3.66792160751593e+00 3.63685110816344e-02
2.51796093750000e-01 3.64817461667037e+00 3.62426133358770e-02
2.52766406250000e-01 3.62853393767307e+00 3.61168832391243e-02
2.53736718750000e-01 3.60899899823921e+00 3.59913241208142e-02
2.54707031250000e-01 3.58956922903296e+00 3.58659392764415e-02
2.55677343750000e-01 3.57024406384977e+00 3.57407318664517e-02
2.56647656250000e-01 3.55102293959776e+00 3.56157050681008e-02
2.57617968750000e-01 3.53190529608747e+00 3.54908619768508e-02
2.58588281250000e-01 3.51289057627326e+00 3.53662056299808e-02
2.59558593750000e-01 3.49397822598171e+00 3.52417390101790e-02
2.60528906250000e-01 3.47516769414849e+00 3.51174650198780e-02
2.61499218750000e-01 3.45645843261279e+00 3.49933865796524e-02
2.62469531250000e-01 3.43784989610464e+00 3.48695065077449e-02
2.63439843750000e-01 3.41934154235105e+00 3.47458275225055e-02
2.64410156250000e-01 3.40093283205837e+00 3.46223523381060e-02
2.65380468750000e-01 3.38262322877534e+00 3.44990836636298e-02
2.66350781250000e-01 3.36441219888067e+00 3.43760241101687e-02
2.67321093750000e-01 3.34629921168515e+00 3.42531761931706e-02
2.68291406250000e-01 3.32828373941437e+00 3.41305424477513e-02
2.69261718750000e-01 3.31036525701960e+00 3.40081253382527e-02
2.70232031250000e-01 3.29254324239349e+00 3.38859272798187e-02
2.71202343750000e-01 3.27481717612590e+00 3.37639506416131e-02
2.72172656250000e-01 3.25718654171570e+00 3.36421977232379e-02
2.73142968750000e-01 3.23965082538570e+00 3.35206708448880e-02
2.74113281250000e-01 3.22220951607063e+00 3.33993722368224e-02
2.75083593750000e-01 3.20486210551176e+00 3.32783040415311e-02
2.76053906250000e-01 3.18760808824041e+00 3.31574684014557e-02
2.77024218750000e-01 3.17044696145447e+00 3.30368674581099e-02
2.77994531250000e-01 3.15337822500657e+00 3.29165032668071e-02
2.78964843750000e-01 3.13640138149513e+00 3.27963777987404e-02
2.79935156250000e-01 3.11951593624831e+00 3.26764930262147e-02
2.80905468750000e-01 3.10272139720465e+00 3.25568509217794e-02
2.81875781250000e-01 3.08601727490138e+00 3.24374533551203e-02
2.82846093750000e-01 3.06940308261242e+00 3.23183021760610e-02
2.83816406250000e-01 3.05287833613142e+00 3.21993991961974e-02
2.84786718750000e-01 3.03644255395861e+00 3.20807461871680e-02
2.85757031250000e-01 3.02009525708759e+00 3.19623449030996e-02
2.86727343750000e-01 3.00383596914030e+00 3.18441970001656e-02
2.87697656250000e-01 2.98766421635171e+00 3.17263041376965e-02
2.88667968750000e-01 2.97157952745819e+00 3.16086679773270e-02
2.89638281250000e-01 2.95558143368629e+00 3.14912900855648e-02
2.90608593750000e-01 2.93966946888095e+00 3.13741720121749e-02
2.91578906250000e-01 2.92384316930290e+00 3.12573152727913e-02
2.92549218750000e-01 2.90810207380254e+00 3.11407213472636e-02
2.93519531250000e-01 2.89244572362074e+00 3.10243916822661e-02
2.94489843750000e-01 2.87687366255961e+00 3.09083276896557e-02
2.95460156250000e-01 2.86138543678666e+00 3.07925307673589e-02
2.96430468750000e-01 2.84598059495811e+00 3.06770022243813e-02
2.97400781250000e-01 2.83065868820433e+00 3.05617433930350e-02
2.98371093750000e-01 2.81541926998357e+00 3.04467555557961e-02
2.99341406250000e-01 2.80026189624606e+00 3.03320399626312e-02
3.00311718750000e-01 2.78518612524548e+00 3.02175978334797e-02
3.01282031250000e-01 2.77019151770019e+00 3.01034303391037e-02
3.02252343750000e-01 2.75527763664999e+00 2.99895386738522e-02
3.03222656250000e-01 2.74044404744551e+00 2.98759239662307e-02
3.04192968750000e-01 2.72569031781978e+00 2.97625872805274e-02
3.05163281250000e-01 2.71101601787435e+00 2.96495297047246e-02
3.06133593750000e-01 2.69642071994237e+00 2.95367522813268e-02
