Energy (eV)          EEDF (eV^-(3/2))     First Anisotropy
4.54545454545455e-03 4.92110245170304e-01 2.26138196889249e-04
1.36363636363636e-02 4.89539631065752e-01 3.73699438396892e-04
2.27272727272727e-02 4.86982444956616e-01 4.94070581696769e-04
3.18181818181818e-02 4.84438616705764e-01 5.85972328295244e-04
4.09090909090909e-02 4.81908076536046e-01 6.62996993069797e-04
5.00000000000000e-02 4.79390755035038e-01 7.30271355734523e-04
5.90909090909091e-02 4.76886583157593e-01 7.90442513494272e-04
6.81818181818182e-02 4.74395492209324e-01 8.45105433604014e-04
7.72727272727273e-02 4.71917413860111e-01 8.95315611267560e-04
8.63636363636364e-02 4.69452280136724e-01 9.41817424601408e-04
9.54545454545454e-02 4.67000023420972e-01 9.85160703895161e-04
1.04545454545455e-01 4.64560576447862e-01 1.02576617154447e-03
1.13636363636364e-01 4.62133872305816e-01 1.06396486305623e-03
1.22727272727273e-01 4.59719844430392e-01 1.10002320606039e-03
1.31818181818182e-01 4.57318426604918e-01 1.13415968663702e-03
1.40909090909091e-01 4.54929552958657e-01 1.16655632898140e-03
1.50000000000000e-01 4.52553157964994e-01 1.19736684358448e-03
1.59090909090909e-01 4.50189176424626e-01 1.22672255089363e-03
1.68181818181818e-01 4.47837543509864e-01 1.25473679621180e-03
1.77272727272727e-01 4.45498194715542e-01 1.28150829772473e-03
1.86363636363636e-01 4.43171065873475e-01 1.30712371865254e-03
1.95454545454545e-01 4.40856093150701e-01 1.33165968619641e-03
2.04545454545455e-01 4.38553213047718e-01 1.35518439042446e-03
2.13636363636364e-01 4.36262362396677e-01 1.37775886678244e-03
2.22727272727273e-01 4.33983478359787e-01 1.39943803590890e-03
2.31818181818182e-01 4.31716498427508e-01 1.42027155489180e-03
2.40909090909091e-01 4.29461360416839e-01 1.44030452029888e-03
2.50000000000000e-01 4.27218002469608e-01 1.45957805492734e-03
2.59090909090909e-01 4.24986363042174e-01 1.47812979461664e-03
2.68181818181818e-01 4.22766380929964e-01 1.49599430581923e-03
2.77272727272727e-01 4.20557995239115e-01 1.51320344091444e-03
2.86363636363636e-01 4.18361145393857e-01 1.52978663530373e-03
2.95454545454545e-01 4.16175771134857e-01 1.54577116796871e-03
3.04545454545455e-01 4.14001812517559e-01 1.56118238537712e-03
3.13636363636364e-01 4.11839209910513e-01 1.57604389587907e-03
3.22727272727273e-01 4.09687903993801e-01 1.59037773926353e-03
3.31818181818182e-01 4.07547835757373e-01 1.60420453527646e-03
3.40909090909091e-01 4.05418946499432e-01 1.61754361420414e-03
3.50000000000000e-01 4.03301177824820e-01 1.63041313324548e-03
3.59090909090909e-01 4.01194471637588e-01 1.64283017524954e-03
3.68181818181818e-01 3.99098770157117e-01 1.65481084171990e-03
3.77272727272727e-01 3.97014015898581e-01 1.66637033596254e-03
3.86363636363636e-01 3.94940151677438e-01 1.67752303200252e-03
3.95454545454545e-01 3.92877120607858e-01 1.68828254061026e-03
4.04545454545455e-01 3.90824866101169e-01 1.69866176764276e-03
4.13636363636364e-01 3.88783331864284e-01 1.70867296663244e-03
4.22727272727273e-01 3.86752461898188e-01 1.71832778632311e-03
4.31818181818182e-01 3.84732200496389e-01 1.72763731374092e-03
4.40909090909091e-01 3.82722492243388e-01 1.73661211329302e-03
4.50000000000000e-01 3.80723282013158e-01 1.74526226327272e-03
4.59090909090909e-01 3.78734514963339e-01 1.75359738550466e-03
4.68181818181818e-01 3.76756136546754e-01 1.76162667687068e-03
4.77272727272727e-01 3.74788092496748e-01 1.76935893832037e-03
4.86363636363636e-01 3.72830328830134e-01 1.77680259690438e-03
4.95454545454545e-01 3.70882791845721e-01 1.78396572958894e-03
5.04545454545455e-01 3.68945428122830e-01 1.79085608429089e-03
5.13636363636364e-01 3.67018184519829e-01 1.79748109925978e-03
5.22727272727273e-01 3.65101008172688e-01 1.80384792097464e-03
5.31818181818182e-01 3.63193846493523e-01 1.80996342069423e-03
5.40909090909091e-01 3.61296647169151e-01 1.81583420977435e-03
5.50000000000000e-01 3.59409358159655e-01 1.82146665466250e-03
5.59090909090909e-01 3.57531927693634e-01 1.82686688769612e-03
5.68181818181818e-01 3.55664304276850e-01 1.83204082096997e-03
5.77272727272727e-01 3.53806436680646e-01 1.83699415935449e-03
5.86363636363636e-01 3.51958273943971e-01 1.84173240870014e-03
5.95454545454545e-01 3.50119765371973e-01 1.84626088657800e-03
6.04545454545454e-01 3.48290860534616e-01 1.85058473155216e-03
6.13636363636364e-01 3.46471509265288e-01 1.85470891184662e-03
6.22727272727273e-01 3.44661661659434e-01 1.85863823346271e-03
6.31818181818182e-01 3.42861268073188e-01 1.86237734778945e-03
6.40909090909091e-01 3.41070279122002e-01 1.86593075873890e-03
6.50000000000000e-01 3.39288645679299e-01 1.86930283013555e-03
6.59090909090909e-01 3.37516318872466e-01 1.87249778994087e-03
6.68181818181818e-01 3.35753250089551e-01 1.87551973757511e-03
6.77272727272727e-01 3.33999390969824e-01 1.87837265089538e-03
6.86363636363636e-01 3.32254693405173e-01 1.88106038934576e-03
6.95454545454545e-01 3.30519109538786e-01 1.88358669962871e-03
7.04545454545454e-01 3.28792591763841e-01 1.88595522039204e-03
7.13636363636364e-01 3.27075092722190e-01 1.88816948665458e-03
7.22727272727273e-01 3.25366565303078e-01 1.89023293399311e-03
7.31818181818182e-01 3.23666962641834e-01 1.89214890250726e-03
7.40909090909091e-01 3.21976238118599e-01 1.89392064057164e-03
7.50000000000000e-01 3.20294345357034e-01 1.89555130899716e-03
7.59090909090909e-01 3.18621238220883e-01 1.89704398258064e-03
7.68181818181818e-01 3.16956870819279e-01 1.89840165453169e-03
7.77272727272727e-01 3.15301197498860e-01 1.89962724074165e-03
7.86363636363636e-01 3.13654172844737e-01 1.90072358081974e-03
7.95454545454545e-01 3.12015751679256e-01 1.90169344146393e-03
8.04545454545454e-01 3.10385889060756e-01 1.90253951907797e-03
8.13636363636364e-01 3.08764540282330e-01 1.90326444226086e-03
8.22727272727273e-01 3.07151660870610e-01 1.90387077417986e-03
8.31818181818182e-01 3.05547206584542e-01 1.90436101483556e-03
8.40909090909091e-01 3.03951133414171e-01 1.90473760321893e-03
8.50000000000000e-01 3.02363397579435e-01 1.90500291990801e-03
8.59090909090909e-01 3.00783955527151e-01 1.90515928741769e-03
8.68181818181818e-01 2.99212763935302e-01 1.90520897316437e-03
8.77272727272727e-01 2.97649779706324e-01 1.90515419235290e-03
8.86363636363636e-01 2.96094959967780e-01 1.90499710805087e-03
8.95454545454545e-01 2.94548262071186e-01 1.90473983338512e-03
9.04545454545455e-01 2.93009643590835e-01 1.90438443311753e-03
9.13636363636364e-01 2.91479062322639e-01 1.90393292515186e-03
9.22727272727273e-01 2.89956476282971e-01 1.90338728198032e-03
9.31818181818182e-01 2.88441843707510e-01 1.90274943207130e-03
9.40909090909091e-01 2.86935123050101e-01 1.90202126119850e-03
9.50000000000000e-01 2.85436272981609e-01 1.90120461419616e-03
9.59090909090909e-01 2.83945252387257e-01 1.90030129473977e-03
9.68181818181818e-01 2.82462020370127e-01 1.89931306749212e-03
9.77272727272727e-01 2.80986536245375e-01 1.89824166020747e-03
9.86363636363636e-01 2.79518759540682e-01 1.89708876335038e-03
9.95454545454545e-01 2.78058649995140e-01 1.89585603163382e-03
1.00454545454545e+00 2.76606167558151e-01 1.89454508548059e-03
1.01363636363636e+00 2.75161272386914e-01 1.89315751107017e-03
1.02272727272727e+00 2.73723924848205e-01 1.89169486127802e-03
1.03181818181818e+00 2.72294085515832e-01 1.89015865750447e-03
1.04090909090909e+00 2.70871715169550e-01 1.88855039006861e-03
1.05000000000000e+00 2.69456774793988e-01 1.88687151473663e-03
1.05909090909091e+00 2.68049225590697e-01 1.88512346650432e-03
1.06818181818182e+00 2.66649028937487e-01 1.88330765168660e-03
1.07727272727273e+00 2.65256146427207e-01 1.88142543991707e-03
1.08636363636364e+00 2.63870539853330e-01 1.87947817804674e-03
1.09545454545455e+00 2.62492171208908e-01 1.87746718642969e-03
1.10454545454545e+00 2.61121002685524e-01 1.87539375960112e-03
1.11363636363636e+00 2.59756996672248e-01 1.87325916691974e-03
1.12272727272727e+00 2.58400115754628e-01 1.87106465319783e-03
1.13181818181818e+00 2.57050322713650e-01 1.86881143931881e-03
1.14090909090909e+00 2.55707580524723e-01 1.86650072282084e-03
1.15000000000000e+00 2.54371852356654e-01 1.86413367458174e-03
1.15909090909091e+00 2.53043101581960e-01 1.86171145107713e-03
1.16818181818182e+00 2.51721291741722e-01 1.85923518707960e-03
1.17727272727273e+00 2.50406386578920e-01 1.85670598828215e-03
1.18636363636364e+00 2.49098350025929e-01 1.85412494368272e-03
1.19545454545455e+00 2.47797146203527e-01 1.85149312208914e-03
1.20454545454545e+00 2.46502739419912e-01 1.84881157259268e-03
1.21363636363636e+00 2.45215094169713e-01 1.84608132501562e-03
1.22272727272727e+00 2.43934175133037e-01 1.84330339035251e-03
1.23181818181818e+00 2.42659947174489e-01 1.84047876120593e-03
1.24090909090909e+00 2.41392375342209e-01 1.83760841219785e-03
1.25000000000000e+00 2.40131424866913e-01 1.83469329685439e-03
1.25909090909091e+00 2.38877061170767e-01 1.83173435859734e-03
1.26818181818182e+00 2.37629249836791e-01 1.82873252403177e-03
1.27727272727273e+00 2.36387956637727e-01 1.82568869616622e-03
1.28636363636364e+00 2.35153147525111e-01 1.82260376553131e-03
1.29545454545455e+00 2.33924788628332e-01 1.81947860692462e-03
1.30454545454545e+00 2.32702846253712e-01 1.81631407975193e-03
1.31363636363636e+00 2.31487286883563e-01 1.81311102834892e-03
1.32272727272727e+00 2.30278077175293e-01 1.80987028230075e-03
1.33181818181818e+00 2.29075183960479e-01 1.80659265675898e-03
1.34090909090909e+00 2.27878574243959e-01 1.80327895274008e-03
1.35000000000000e+00 2.26688215202925e-01 1.79992995422323e-03
1.35909090909091e+00 2.25504074194616e-01 1.79654643806571e-03
1.36818181818182e+00 2.24326118729505e-01 1.79312916783920e-03
1.37727272727273e+00 2.23154316496468e-01 1.78967888760621e-03
1.38636363636364e+00 2.21988635353163e-01 1.78619633195840e-03
1.39545454545455e+00 2.20829043325146e-01 1.78268222300054e-03
1.40454545454545e+00 2.19675508604999e-01 1.77913727060332e-03
1.41363636363636e+00 2.18527999551444e-01 1.77556217264097e-03
1.42272727272727e+00 2.17386484688497e-01 1.77195761522849e-03
1.43181818181818e+00 2.16250932704591e-01 1.76832427295867e-03
1.44090909090909e+00 2.15121312451718e-01 1.76466280912423e-03
1.45000000000000e+00 2.13997592944580e-01 1.76097387302591e-03
1.45909090909091e+00 2.12879743367286e-01 1.75725810895838e-03
1.46818181818182e+00 2.11767733049730e-01 1.75351615055216e-03
1.47727272727273e+00 2.10661531489649e-01 1.74974861506107e-03
1.48636363636364e+00 2.09561108344115e-01 1.74595611246418e-03
1.49545454545455e+00 2.08466433428698e-01 1.74213924267905e-03
1.50454545454545e+00 2.07377476716644e-01 1.73829859575289e-03
1.51363636363636e+00 2.06294208338040e-01 1.73443475204300e-03
1.52272727272727e+00 2.05216598579009e-01 1.73054828239674e-03
1.53181818181818e+00 2.04144617880890e-01 1.72663974833214e-03
1.54090909090909e+00 2.03078236839424e-01 1.72270970220732e-03
1.55000000000000e+00 2.02017426203951e-01 1.71875868472944e-03
1.55909090909091e+00 2.00962156883277e-01 1.71478723312810e-03
1.56818181818182e+00 1.99912399924760e-01 1.71079587595917e-03
1.57727272727273e+00 1.98868126533735e-01 1.70678512785868e-03
1.58636363636364e+00 1.97829308065950e-01 1.70275549782477e-03
1.59545454545455e+00 1.96795916026782e-01 1.69870748664612e-03
1.60454545454545e+00 1.95767922070453e-01 1.69464158704949e-03
1.61363636363636e+00 1.94745297999248e-01 1.69055828383835e-03
1.62272727272727e+00 1.93728015762754e-01 1.68645805403307e-03
1.63181818181818e+00 1.92716047457080e-01 1.68234136701123e-03
1.64090909090909e+00 1.91709365324099e-01 1.67820868463864e-03
1.65000000000000e+00 1.90707941750679e-01 1.67406045896750e-03
1.65909090909091e+00 1.89711749273849e-01 1.66989713969254e-03
1.66818181818182e+00 1.88720760562201e-01 1.66571916937541e-03
1.67727272727273e+00 1.87734948433072e-01 1.66152697862398e-03
1.68636363636364e+00 1.86754285845793e-01 1.65732099364918e-03
1.69545454545455e+00 1.85778745900945e-01 1.65310163389251e-03
1.70454545454545e+00 1.84808301839623e-01 1.64886931214272e-03
1.71363636363636e+00 1.83842927042697e-01 1.64462443464441e-03
1.72272727272727e+00 1.82882595030089e-01 1.64036740120803e-03
1.73181818181818e+00 1.81927279460044e-01 1.63609860532077e-03
1.74090909090909e+00 1.80976954128409e-01 1.63181843425041e-03
1.75000000000000e+00 1.80031592967909e-01 1.62752726691849e-03
1.75909090909091e+00 1.79091170052706e-01 1.62322548071902e-03
1.76818181818182e+00 1.78155659581800e-01 1.61891344712579e-03
1.77727272727273e+00 1.77225035894288e-01 1.61459152725796e-03
1.78636363636364e+00 1.76299273463310e-01 1.61026007879283e-03
1.79545454545455e+00 1.75378346895348e-01 1.60591945377695e-03
1.80454545454545e+00 1.74462230929533e-01 1.60156999871905e-03
1.81363636363636e+00 1.73550900436944e-01 1.59721205467644e-03
1.82272727272727e+00 1.72644330419931e-01 1.59284595734303e-03
1.83181818181818e+00 1.71742496011420e-01 1.58847203713826e-03
1.84090909090909e+00 1.70845372474235e-01 1.58409061929013e-03
1.85000000000000e+00 1.69952935200420e-01 1.57970202187031e-03
1.85909090909091e+00 1.69065159715265e-01 1.57530656204290e-03
1.86818181818182e+00 1.68182021662454e-01 1.57090455202073e-03
1.87727272727273e+00 1.67303496817649e-01 1.56649629498215e-03
1.88636363636364e+00 1.66429561083052e-01 1.56208209140736e-03
1.89545454545455e+00 1.65560190486743e-01 1.55766223705851e-03
1.90454545454545e+00 1.64695361182024e-01 1.55323702305425e-03
1.91363636363636e+00 1.63835049446759e-01 1.54880673594005e-03
1.92272727272727e+00 1.62979231682732e-01 1.54437165775897e-03
1.93181818181818e+00 1.62127884414998e-01 1.53993206612413e-03
1.94090909090909e+00 1.61280984291232e-01 1.53548823428564e-03
1.95000000000000e+00 1.60438508081098e-01 1.53104042931489e-03
1.95909090909091e+00 1.59600432679819e-01 1.52658891784204e-03
1.96818181818182e+00 1.58766735094842e-01 1.52213396232888e-03
1.97727272727273e+00 1.57937392457973e-01 1.51767581730653e-03
1.98636363636364e+00 1.57112382020474e-01 1.51321473519336e-03
1.99545454545455e+00 1.56291681152437e-01 1.50875096442973e-03
2.00454545454545e+00 1.55475267342166e-01 1.50428474953913e-03
2.01363636363636e+00 1.54663118195555e-01 1.49981633118544e-03
2.02272727272727e+00 1.53855211435480e-01 1.49534594623099e-03
2.03181818181818e+00 1.53051524901184e-01 1.49087382779541e-03
2.04090909090909e+00 1.52252036547671e-01 1.48640020531099e-03
2.05000000000000e+00 1.51456724445099e-01 1.48192530284408e-03
2.05909090909091e+00 1.50665566781968e-01 1.47744934437067e-03
2.06818181818182e+00 1.49878541853105e-01 1.47297255033903e-03
2.07727272727273e+00 1.49095628070539e-01 1.46849513419903e-03
2.08636363636364e+00 1.48316803959069e-01 1.46401730775243e-03
2.09545454545455e+00 1.47542048155670e-01 1.45953927942985e-03
2.10454545454545e+00 1.46771339408910e-01 1.45506125434137e-03
2.11363636363636e+00 1.46004656578366e-01 1.45058343432329e-03
2.12272727272727e+00 1.45241978634048e-01 1.44610601798623e-03
2.13181818181818e+00 1.44483284655818e-01 1.44162920076390e-03
2.14090909090909e+00 1.43728553832818e-01 1.43715317495876e-03
2.15000000000000e+00 1.42977765462898e-01 1.43267812818949e-03
2.15909090909091e+00 1.42230898955457e-01 1.42820424824909e-03
2.16818181818182e+00 1.41487933820607e-01 1.42373171993115e-03
2.17727272727273e+00 1.40748849678929e-01 1.41926072182593e-03
2.18636363636364e+00 1.40013626257461e-01 1.41479143124748e-03
2.19545454545455e+00 1.39282243389138e-01 1.41032402264084e-03
2.20454545454545e+00 1.38554681012242e-01 1.40585866762409e-03
2.21363636363636e+00 1.37830919169846e-01 1.40139553502707e-03
2.22272727272727e+00 1.37110938009276e-01 1.39693479093130e-03
2.23181818181818e+00 1.36394717781560e-01 1.39247659871094e-03
2.24090909090909e+00 1.35682238840888e-01 1.38802111907108e-03
2.25000000000000e+00 1.34973481644072e-01 1.38356850861034e-03
2.25909090909091e+00 1.34268426753086e-01 1.37911892430014e-03
2.26818181818182e+00 1.33567054825266e-01 1.37467252055280e-03
2.27727272727273e+00 1.32869346622089e-01 1.37022944626065e-03
2.28636363636364e+00 1.32175283005526e-01 1.36578984933920e-03
2.29545454545455e+00 1.31484844937520e-01 1.36135387525338e-03
2.30454545454545e+00 1.30798013479462e-01 1.35692166705304e-03
2.31363636363636e+00 1.30114769791668e-01 1.35249336540561e-03
2.32272727272727e+00 1.29435095132869e-01 1.34806910862917e-03
2.33181818181818e+00 1.28758970859696e-01 1.34364903272733e-03
2.34090909090909e+00 1.28086378426162e-01 1.33923327142057e-03
2.35000000000000e+00 1.27417299383161e-01 1.33482195481606e-03
2.35909090909091e+00 1.26751715380736e-01 1.33041521354196e-03
2.36818181818182e+00 1.26089608159204e-01 1.32601317603597e-03
2.37727272727273e+00 1.25430959557065e-01 1.32161596580752e-03
2.38636363636364e+00 1.24775751507690e-01 1.31722370563119e-03
2.39545454545455e+00 1.24123966038824e-01 1.31283651618284e-03
2.40454545454545e+00 1.23475585272090e-01 1.30845451606961e-03
2.41363636363636e+00 1.22830591422503e-01 1.30407782185689e-03
2.42272727272727e+00 1.22188966797980e-01 1.29970654809660e-03
2.43181818181818e+00 1.21550693798857e-01 1.29534080735680e-03
2.44090909090909e+00 1.20915754917404e-01 1.29098071024806e-03
2.45000000000000e+00 1.20284132737343e-01 1.28662636419086e-03
2.45909090909091e+00 1.19655809935893e-01 1.28227787723578e-03
2.46818181818182e+00 1.19030769275703e-01 1.27793535555412e-03
2.47727272727273e+00 1.18408993612006e-01 1.27359890090417e-03
2.48636363636364e+00 1.17790465889590e-01 1.26926861450615e-03
2.49545454545455e+00 1.17175169142334e-01 1.26494459577873e-03
2.50454545454545e+00 1.16563086492744e-01 1.26062694236441e-03
2.51363636363636e+00 1.15954201151485e-01 1.25631575015262e-03
2.52272727272727e+00 1.15348496416924e-01 1.25201111330379e-03
2.53181818181818e+00 1.14745955674675e-01 1.24771312427403e-03
2.54090909090909e+00 1.14146562397137e-01 1.24342187383791e-03
2.55000000000000e+00 1.13550300143043e-01 1.23913744994589e-03
2.55909090909091e+00 1.12957152559295e-01 1.23485994125709e-03
2.56818181818182e+00 1.12367103373630e-01 1.23058943481548e-03
2.57727272727273e+00 1.11780136401090e-01 1.22632601370323e-03
2.58636363636364e+00 1.11196235541262e-01 1.22206976062444e-03
2.59545454545455e+00 1.10615384777834e-01 1.21782075673441e-03
2.60454545454545e+00 1.10037568178158e-01 1.21357908166116e-03
2.61363636363636e+00 1.09462769892813e-01 1.20934481352498e-03
2.62272727272727e+00 1.08890974155169e-01 1.20511802895904e-03
2.63181818181818e+00 1.08322165280956e-01 1.20089880313047e-03
2.64090909090909e+00 1.07756327667835e-01 1.19668720975975e-03
2.65000000000000e+00 1.07193445794965e-01 1.19248332006113e-03
2.65909090909091e+00 1.06633504224656e-01 1.18828720601235e-03
2.66818181818182e+00 1.06076487595695e-01 1.18409893820130e-03
2.67727272727273e+00 1.05522380629201e-01 1.17991858365116e-03
2.68636363636364e+00 1.04971168126105e-01 1.17574620913755e-03
2.69545454545455e+00 1.04422834966731e-01 1.17158188010297e-03
2.70454545454545e+00 1.03877366110386e-01 1.16742566067516e-03
2.71363636363636e+00 1.03334746594940e-01 1.16327761368396e-03
2.72272727272727e+00 1.02794961536423e-01 1.15913780067890e-03
2.73181818181818e+00 1.02257996128613e-01 1.15500628194705e-03
2.74090909090909e+00 1.01723835642631e-01 1.15088311653003e-03
2.75000000000000e+00 1.01192465426535e-01 1.14676836124049e-03
2.75909090909091e+00 1.00663870906809e-01 1.14266207369071e-03
2.76818181818182e+00 1.00138037582273e-01 1.13856431029613e-03
2.77727272727273e+00 9.96149510293993e-02 1.13447512425861e-03
2.78636363636364e+00 9.90945969000039e-02 1.13039456863880e-03
2.79545454545455e+00 9.85769609208522e-02 1.12632269534911e-03
2.80454545454545e+00 9.80620288932680e-02 1.12225955516967e-03
2.81363636363636e+00 9.75497866927434e-02 1.11820519776256e-03
2.82272727272727e+00 9.70402202685528e-02 1.11415967168693e-03
2.83181818181818e+00 9.65333156433665e-02 1.11012302441465e-03
2.84090909090909e+00 9.60290589128680e-02 1.10609530234464e-03
2.85000000000000e+00 9.55274362453716e-02 1.10207654988986e-03
2.85909090909091e+00 9.50284338831617e-02 1.09806681228461e-03
2.86818181818182e+00 9.45320381369387e-02 1.09406613373213e-03
