Energy (eV)          EEDF (eV^-(3/2))     First Anisotropy
3.44117647058824e-02 1.79930981706204e-01 1.62467714195823e-04
1.03235294117647e-01 1.76301314492878e-01 2.66470245288437e-04
1.72058823529412e-01 1.72744866924991e-01 3.47007948703239e-04
2.40882352941176e-01 1.69260161993708e-01 4.05370075959812e-04
3.09705882352941e-01 1.65845752447895e-01 4.51762615269449e-04
3.78529411764706e-01 1.62500220264449e-01 4.90125329835493e-04
4.47352941176471e-01 1.59222176008114e-01 5.22537331959021e-04
5.16176470588235e-01 1.56010258268214e-01 5.50277908991789e-04
5.85000000000000e-01 1.52863133110616e-01 5.74210980074425e-04
6.53823529411765e-01 1.49779493498081e-01 5.94957862321837e-04
7.22647058823529e-01 1.46758058770229e-01 6.12986229938469e-04
7.91470588235294e-01 1.43797574091288e-01 6.28660483523599e-04
8.60294117647059e-01 1.40896809947322e-01 6.42272351505264e-04
9.29117647058823e-01 1.38054561622225e-01 6.54060526644712e-04
9.97941176470588e-01 1.35269648699549e-01 6.64223826691053e-04
1.06676470588235e+00 1.32540914583230e-01 6.72930340037786e-04
1.13558823529412e+00 1.29867225998151e-01 6.80323971932673e-04
1.20441176470588e+00 1.27247472535659e-01 6.86529251137484e-04
1.27323529411765e+00 1.24680566186741e-01 6.91654939589339e-04
1.34205882352941e+00 1.22165440890399e-01 6.95796793118600e-04
1.41088235294118e+00 1.19701052090773e-01 6.99039709738120e-04
1.47970588235294e+00 1.17286376303340e-01 7.01459426191535e-04
1.54852941176471e+00 1.14920410689850e-01 7.03123875699186e-04
1.61735294117647e+00 1.12602172641848e-01 7.04094287608928e-04
1.68617647058824e+00 1.10330699372583e-01 7.04426087676028e-04
1.75500000000000e+00 1.08105047517162e-01 7.04169641436276e-04
1.82382352941176e+00 1.05924292752763e-01 7.03370877978697e-04
1.89264705882353e+00 1.03787529377859e-01 7.02071810191295e-04
1.96147058823529e+00 1.01693869973919e-01 7.00310975268873e-04
2.03029411764706e+00 9.96424450238995e-02 6.98123815359166e-04
2.09911764705882e+00 9.76324025511274e-02 6.95543000796042e-04
2.16794117647059e+00 9.56629077654651e-02 6.92598710243752e-04
2.23676470588235e+00 9.37331427166170e-02 6.89318874061418e-04
2.30558823529412e+00 9.18423059544266e-02 6.85729386809180e-04
2.37441176470588e+00 8.99896121960279e-02 6.81854293705632e-04
2.44323529411765e+00 8.81742919996916e-02 6.77715954960940e-04
2.51205882352941e+00 8.63955914453095e-02 6.73335191230645e-04
2.58088235294118e+00 8.46527718212624e-02 6.68731412870074e-04
2.64970588235294e+00 8.29451093176268e-02 6.63922735212649e-04
2.71852941176471e+00 8.12718947255696e-02 6.58926081750221e-04
2.78735294117647e+00 7.96324331428076e-02 6.53757276788148e-04
2.85617647058824e+00 7.80260436850078e-02 6.48431128907825e-04
2.92500000000000e+00 7.64520592030102e-02 6.42961505852498e-04
2.99382352941176e+00 7.49098260108801e-02 6.37361404414688e-04
3.06264705882353e+00 7.33987035987352e-02 6.31643011418800e-04
3.13147058823529e+00 7.19180643827548e-02 6.25817759121176e-04
3.20029411764706e+00 7.04672934390841e-02 6.19896378449029e-04
3.26911764705882e+00 6.90457882484501e-02 6.13888945605995e-04
3.33794117647059e+00 6.76529584459297e-02 6.07804925314514e-04
3.40676470588235e+00 6.62882255757656e-02 6.01653210535492e-04
3.47558823529412e+00 6.49510228511283e-02 5.95442159021785e-04
3.54441176470588e+00 6.36407949187242e-02 5.89179627019642e-04
3.61323529411765e+00 6.23569976281457e-02 5.82873000391481e-04
3.68205882352941e+00 6.10990978058938e-02 5.76529223407686e-04
3.75088235294118e+00 5.98665730339386e-02 5.70154825423814e-04
3.81970588235294e+00 5.86589114327545e-02 5.63755945631666e-04
3.88852941176471e+00 5.74756114487315e-02 5.57338356058586e-04
3.95735294117647e+00 5.63161816458755e-02 5.50907482967090e-04
4.02617647058823e+00 5.51801405017098e-02 5.44468426791645e-04
4.09500000000000e+00 5.40670162072948e-02 5.38025980426010e-04
4.16382352941176e+00 5.29763464738775e-02 5.31584647532974e-04
4.23264705882353e+00 5.19076783329642e-02 5.25148658145392e-04
4.30147058823529e+00 5.08605679562826e-02 5.18721983204348e-04
4.37029411764706e+00 4.98345804687087e-02 5.12308349793707e-04
4.43911764705882e+00 4.88292897676594e-02 5.05911254152383e-04
4.50794117647059e+00 4.78442783461276e-02 4.99533974205504e-04
4.57676470588235e+00 4.68791371192877e-02 4.93179581336851e-04
4.64558823529412e+00 4.59334652545987e-02 4.86850951457942e-04
4.71441176470588e+00 4.50068700053348e-02 4.80550775424435e-04
4.78323529411765e+00 4.40989665474710e-02 4.74281568844598e-04
4.85205882352941e+00 4.32093778198678e-02 4.68045681323663e-04
4.92088235294118e+00 4.23377343676707e-02 4.61845305182654e-04
4.98970588235294e+00 4.14836741888722e-02 4.55682483685463e-04
5.05852941176471e+00 4.06468425839693e-02 4.49559118808095e-04
5.12735294117647e+00 3.98268920086528e-02 4.43476978579838e-04
5.19617647058823e+00 3.90234819294691e-02 4.37437704023836e-04
5.26500000000000e+00 3.82362786823934e-02 4.31442815529559e-04
5.33382352941176e+00 3.74649553356863e-02 4.25493719654985e-04
5.40264705882353e+00 3.67091915497492e-02 4.19591714614959e-04
5.47147058823529e+00 3.59686734485283e-02 4.13737995445518e-04
5.54029411764706e+00 3.52430934876507e-02 4.07933659910289e-04
5.60911764705882e+00 3.45321503266982e-02 4.02179713300433e-04
5.67794117647059e+00 3.38355487040578e-02 3.96477073187965e-04
5.74676470588235e+00 3.31529993142969e-02 3.90826573936788e-04
5.81558823529412e+00 3.24842186880114e-02 3.85228970985377e-04
5.88441176470588e+00 3.18289290740986e-02 3.79684944914281e-04
5.95323529411765e+00 3.11868583244033e-02 3.74195105309966e-04
6.02205882352941e+00 3.05577397806942e-02 3.68759994437112e-04
6.09088235294118e+00 2.99413121639171e-02 3.63380090730005e-04
6.15970588235294e+00 2.93373194656829e-02 3.58055812112045e-04
6.22852941176470e+00 2.87455108419452e-02 3.52787519153318e-04
6.29735294117647e+00 2.81656405088222e-02 3.47575518074805e-04
6.36617647058823e+00 2.75974676405201e-02 3.42420063607312e-04
6.43500000000000e+00 2.70407562693161e-02 3.37321361589216e-04
6.50382352941176e+00 2.64952751883872e-02 3.32279571933580e-04
6.57264705882353e+00 2.59607978532601e-02 3.27294810842143e-04
6.64147058823529e+00 2.54371022902958e-02 3.22367152892371e-04
6.71029411764706e+00 2.49239710036301e-02 3.17496633673898e-04
6.77911764705882e+00 2.44211908848453e-02 3.12683251786464e-04
6.84794117647059e+00 2.39285531244646e-02 3.07926970872082e-04
6.91676470588235e+00 2.34458531252309e-02 3.03227721551714e-04
6.98558823529412e+00 2.29728904171363e-02 2.98585403271210e-04
7.05441176470588e+00 2.25094685741642e-02 2.93999886060945e-04
7.12323529411765e+00 2.20553951327118e-02 2.89471012213055e-04
7.19205882352941e+00 2.16104815116588e-02 2.84998597880720e-04
7.26088235294118e+00 2.11745429340475e-02 2.80582434603165e-04
7.32970588235294e+00 2.07473983503429e-02 2.76222290759560e-04
7.39852941176470e+00 2.03288703632412e-02 2.71917912955458e-04
7.46735294117647e+00 1.99187851539951e-02 2.67669027344918e-04
7.53617647058823e+00 1.95169724102250e-02 2.63475340891316e-04
7.60500000000000e+00 1.91232652551864e-02 2.59336542489310e-04
7.67382352941176e+00 1.87375001789614e-02 2.55252304356193e-04
7.74264705882353e+00 1.83595169690376e-02 2.51222282960685e-04
7.81147058823529e+00 1.79891586453086e-02 2.47246119894649e-04
7.88029411764706e+00 1.76262713943575e-02 2.43323443126231e-04
7.94911764705882e+00 1.72707045055764e-02 2.39453867860320e-04
8.01794117647059e+00 1.69223103085753e-02 2.35636997442493e-04
8.08676470588235e+00 1.65809441118525e-02 2.31872424220817e-04
8.15558823529412e+00 1.62464641427035e-02 2.28159730367426e-04
8.22441176470588e+00 1.59187314883408e-02 2.24498488661703e-04
8.29323529411765e+00 1.55976100382023e-02 2.20888263236574e-04
8.36205882352941e+00 1.52829664274235e-02 2.17328610289826e-04
8.43088235294118e+00 1.49746699814498e-02 2.13819078761986e-04
8.49970588235294e+00 1.46725926617655e-02 2.10359210981981e-04
8.56852941176471e+00 1.43766090127190e-02 2.06948543282205e-04
8.63735294117647e+00 1.40865961094191e-02 2.03586606584293e-04
8.70617647058823e+00 1.38024335066835e-02 2.00272926956863e-04
8.77500000000000e+00 1.35240031890166e-02 1.97007026093535e-04
8.84382352941176e+00 1.32511895219010e-02 1.93788421979399e-04
8.91264705882353e+00 1.29838792028456e-02 1.90616629263489e-04
8.98147058823529e+00 1.27219612152726e-02 1.87491159603533e-04
9.05029411764706e+00 1.24653267820920e-02 1.84411522271322e-04
9.11911764705882e+00 1.22138693205252e-02 1.81377224508534e-04
9.18794117647059e+00 1.19674843978404e-02 1.78387771919664e-04
9.25676470588235e+00 1.17260696879806e-02 1.75442668845332e-04
9.32558823529412e+00 1.14895249290662e-02 1.72541418716783e-04
9.39441176470588e+00 1.12577518817561e-02 1.69683524392416e-04
9.46323529411765e+00 1.10306542884469e-02 1.66868488477016e-04
9.53205882352941e+00 1.08081378332972e-02 1.64095813624565e-04
9.60088235294118e+00 1.05901101030565e-02 1.61365002825355e-04
9.66970588235294e+00 1.03764805486858e-02 1.58675559677908e-04
9.73852941176471e+00 1.01671604477512e-02 1.56026988646487e-04
9.80735294117647e+00 9.96206286757665e-03 1.53418795304791e-04
9.87617647058823e+00 9.76110262914013e-03 1.50850486566402e-04
9.94500000000000e+00 9.56419627169795e-03 1.48321570867433e-04
1.00138235294118e+01 9.37126201831257e-03 1.45831558513628e-04
1.00826470588235e+01 9.18221974112608e-03 1.43379961597606e-04
1.01514705882353e+01 8.99699092977195e-03 1.40966294712229e-04
1.02202941176471e+01 8.81549865513042e-03 1.38590074308778e-04
1.02891176470588e+01 8.63766754349233e-03 1.36250819166547e-04
1.03579411764706e+01 8.46342373982449e-03 1.33948051391030e-04
1.04267647058824e+01 8.29269487893866e-03 1.31681295797224e-04
1.04955882352941e+01 8.12541005387361e-03 1.29450079496961e-04
1.05644117647059e+01 7.96149979122504e-03 1.27253932636273e-04
1.06332352941176e+01 7.80089601742607e-03 1.25092389420054e-04
1.07020588235294e+01 7.64353203068513e-03 1.22964986419099e-04
1.07708823529412e+01 7.48934247769509e-03 1.20871263568255e-04
1.08397058823529e+01 7.33826332199896e-03 1.18810764849739e-04
1.09085294117647e+01 7.19023181892046e-03 1.16783037739070e-04
1.09773529411765e+01 7.04518648820724e-03 1.14787632823831e-04
1.10461764705882e+01 6.90306709245606e-03 1.12824104396621e-04
1.11150000000000e+01 6.76381460806706e-03 1.10892011294106e-04
1.11838235294118e+01 6.62737120090022e-03 1.08990915433827e-04
1.12526470588235e+01 6.49368020591426e-03 1.07120382631569e-04
1.13214705882353e+01 6.36268609990848e-03 1.05279983372503e-04
1.13902941176471e+01 6.23433447861964e-03 1.03469291434272e-04
1.14591176470588e+01 6.10857203751058e-03 1.01687884638599e-04
1.15279411764706e+01 5.98534654618950e-03 9.99353453566838e-05
1.15967647058824e+01 5.86460682788518e-03 9.82112600361218e-05
1.16655882352941e+01 5.74630273719753e-03 9.65152188646518e-05
1.17344117647059e+01 5.63038514231095e-03 9.48468162072579e-05
1.18032352941176e+01 5.51680590149551e-03 9.32056512384165e-05
1.18720588235294e+01 5.40551784324329e-03 9.15913267525526e-05
1.19408823529412e+01 5.29647474948841e-03 9.00034497812806e-05
1.20097058823529e+01 5.18963133355090e-03 8.84416320016479e-05
1.20785294117647e+01 5.08494322229981e-03 8.69054893155094e-05
1.21473529411765e+01 4.98236693689497e-03 8.53946415450573e-05
1.22161764705882e+01 4.88185987725888e-03 8.39087127848984e-05
1.22850000000000e+01 4.78338030181168e-03 8.24473319214085e-05
1.23538235294118e+01 4.68688731024136e-03 8.10101316051713e-05
1.24226470588235e+01 4.59234082885861e-03 7.95967487579687e-05
1.24914705882353e+01 4.49970159157110e-03 7.82068250506460e-05
1.25602941176471e+01 4.40893112367376e-03 7.68400059365150e-05
1.26291176470588e+01 4.31999172803857e-03 7.54959411180663e-05
1.26979411764706e+01 4.23284646725246e-03 7.41742848495056e-05
1.27667647058824e+01 4.14745914902444e-03 7.28746955818217e-05
1.28355882352941e+01 4.06379431051487e-03 7.15968357000863e-05
1.29044117647059e+01 3.98181720556018e-03 7.03403717832088e-05
1.29732352941176e+01 3.90149378825532e-03 6.91049749966129e-05
1.30420588235294e+01 3.82279069889598e-03 6.78903202573370e-05
1.31108823529412e+01 3.74567525193293e-03 6.66960866181564e-05
1.31797058823529e+01 3.67011542055661e-03 6.55219575120264e-05
1.32485294117647e+01 3.59607982402066e-03 6.43676204383745e-05
1.33173529411765e+01 3.52353771407396e-03 6.32327667278483e-05
1.33861764705882e+01 3.45245896382163e-03 6.21170917514243e-05
1.34550000000000e+01 3.38281405355432e-03 6.10202952435319e-05
1.35238235294118e+01 3.31457405855546e-03 5.99420805808559e-05
1.35926470588235e+01 3.24771063860050e-03 5.88821550983968e-05
1.36614705882353e+01 3.18219602464864e-03 5.78402303869564e-05
1.37302941176471e+01 3.11800300737219e-03 5.68160216148415e-05
1.37991176470588e+01 3.05510492725870e-03 5.58092478189835e-05
1.38679411764706e+01 2.99347566211282e-03 5.48196320859422e-05
1.39367647058824e+01 2.93308961669068e-03 5.38469012890699e-05
1.40055882352941e+01 2.87392171165526e-03 5.28907858881270e-05
1.40744117647059e+01 2.81594737442605e-03 5.19510200832386e-05
1.41432352941176e+01 2.75914252768665e-03 5.10273420596210e-05
1.42120588235294e+01 2.70348357943734e-03 5.01194934016108e-05
1.42808823529412e+01 2.64894741437066e-03 4.92272193325354e-05
1.43497058823529e+01 2.59551138307759e-03 4.83502688607357e-05
1.44185294117647e+01 2.54315329304588e-03 4.74883945481046e-05
1.44873529411765e+01 2.49185139909542e-03 4.66413523318525e-05
1.45561764705882e+01 2.44158439540736e-03 4.58089016481131e-05
1.46250000000000e+01 2.39233140559776e-03 4.49908056334633e-05
1.46938235294118e+01 2.34407197409033e-03 4.41868306186546e-05
1.47626470588235e+01 2.29678605860494e-03 4.33967463261211e-05
1.48314705882353e+01 2.25045402083313e-03 4.26203260555442e-05
1.49002941176471e+01 2.20505661832191e-03 4.18573462077215e-05
1.49691176470588e+01 2.16057499739586e-03 4.11075864665262e-05
1.50379411764706e+01 2.11699068439809e-03 4.03708299066704e-05
1.51067647058824e+01 2.07428557833260e-03 3.96468628006705e-05
1.51755882352941e+01 2.03244194307611e-03 3.89354744682770e-05
1.52444117647059e+01 1.99144240083777e-03 3.82364573670153e-05
1.53132352941176e+01 1.95126992410227e-03 3.75496072448683e-05
1.53820588235294e+01 1.91190782859163e-03 3.68747227288388e-05
1.54508823529412e+01 1.87333976710276e-03 3.62116054749080e-05
1.55197058823529e+01 1.83554972193859e-03 3.55600602546677e-05
1.55885294117647e+01 1.79852199852015e-03 3.49198947857478e-05
1.56573529411765e+01 1.76224121864077e-03 3.42909195984821e-05
1.57261764705882e+01 1.72669231477297e-03 3.36729481082388e-05
1.57950000000000e+01 1.69186052310577e-03 3.30657967411262e-05
1.58638235294118e+01 1.65773137744078e-03 3.24692845784069e-05
1.59326470588235e+01 1.62429070382866e-03 3.18832334799611e-05
1.60014705882353e+01 1.59152461402731e-03 3.13074682000187e-05
1.60702941176471e+01 1.55941949975963e-03 3.07418160527385e-05
1.61391176470588e+01 1.52796202766084e-03 3.01861070259368e-05
1.62079411764706e+01 1.49713913313220e-03 2.96401738446249e-05
1.62767647058823e+01 1.46693801512130e-03 2.91038518300370e-05
1.63455882352941e+01 1.43734613062799e-03 2.85769787876242e-05
1.64144117647059e+01 1.40835119003717e-03 2.80593950595804e-05
1.64832352941176e+01 1.37994115146365e-03 2.75509436200060e-05
1.65520588235294e+01 1.35210421577278e-03 2.70514697858308e-05
1.66208823529412e+01 1.32482882218390e-03 2.65608213104858e-05
1.66897058823529e+01 1.29810364295682e-03 2.60788484346942e-05
1.67585294117647e+01 1.27191757886097e-03 2.56054037628396e-05
1.68273529411765e+01 1.24625975441593e-03 2.51403421640904e-05
1.68961764705882e+01 1.22111951383109e-03 2.46835208140319e-05
1.69650000000000e+01 1.19648641611643e-03 2.42347992729380e-05
1.70338235294118e+01 1.17235023076431e-03 2.37940392358502e-05
1.71026470588235e+01 1.14870093392490e-03 2.33611046096317e-05
1.71714705882353e+01 1.12552870381187e-03 2.29358615849958e-05
1.72402941176471e+01 1.10282391663999e-03 2.25181784014502e-05
1.73091176470588e+01 1.08057714302303e-03 2.21079254182428e-05
1.73779411764706e+01 1.05877914365648e-03 2.17049751512550e-05
1.74467647058824e+01 1.03742086561624e-03 2.13092021704566e-05
1.75155882352941e+01 1.01649343848152e-03 2.09204830171782e-05
1.75844117647059e+01 9.95988171008577e-04 2.05386962339417e-05
1.76532352941176e+01 9.75896547157529e-04 2.01637224236008e-05
1.77220588235294e+01 9.56210222569757e-04 1.97954440460840e-05
1.77908823529412e+01 9.36921021435072e-04 1.94337454767544e-05
1.78597058823529e+01 9.18020932758039e-04 1.90785130356433e-05
1.79285294117647e+01 8.99502107145551e-04 1.87296348976303e-05
1.79973529411765e+01 8.81356853447845e-04 1.83870010195819e-05
1.80661764705882e+01 8.63577635865992e-04 1.80505031637039e-05
1.81350000000000e+01 8.46157070515646e-04 1.77200349460999e-05
1.82038235294118e+01 8.29087922372229e-04 1.73954916609859e-05
1.82726470588235e+01 8.12363102546898e-04 1.70767703286165e-05
1.83414705882353e+01 7.95975665057100e-04 1.67637697399323e-05
1.84102941176471e+01 7.79918803952800e-04 1.64563902912206e-05
1.84791176470588e+01 7.64185850751256e-04 1.61545340282094e-05
1.85479411764706e+01 7.48770271401968e-04 1.58581046669929e-05
1.86167647058823e+01 7.33665663662939e-04 1.55670075196566e-05
1.86855882352941e+01 7.18865754363997e-04 1.52811494335003e-05
1.87544117647059e+01 7.04364397038566e-04 1.50004388074240e-05
1.88232352941176e+01 6.90155569130021e-04 1.47247856285017e-05
1.88920588235294e+01 6.76233369499756e-04 1.44541013289614e-05
1.89608823529412e+01 6.62592016197043e-04 1.41882988223807e-05
1.90297058823529e+01 6.49225843833460e-04 1.39272925200483e-05
1.90985294117647e+01 6.36129301305996e-04 1.36709982658804e-05
1.91673529411765e+01 6.23296949425844e-04 1.34193332829815e-05
1.92361764705882e+01 6.10723458859780e-04 1.31722161862271e-05
1.93050000000000e+01 5.98403607713312e-04 1.29295670122124e-05
1.93738235294118e+01 5.86332279369742e-04 1.26913070955214e-05
1.94426470588235e+01 5.74504460551698e-04 1.24573590983776e-05
1.95114705882353e+01 5.62915239049522e-04 1.22276470381469e-05
1.95802941176471e+01 5.51559801688387e-04 1.20020961709526e-05
1.96491176470588e+01 5.40433432503099e-04 1.17806330189252e-05
1.97179411764706e+01 5.29531510602979e-04 1.15631853816496e-05
1.97867647058824e+01 5.18849508312525e-04 1.13496822823443e-05
1.98555882352941e+01 5.08382989239271e-04 1.11400539233891e-05
1.99244117647059e+01 4.98127606589069e-04 1.09342316948564e-05
1.99932352941176e+01 4.88079101200506e-04 1.07321481969655e-05
2.00620588235294e+01 4.78233299782163e-04 1.05337371393760e-05
2.01308823529412e+01 4.68586113326334e-04 1.03389333634894e-05
2.01997058823529e+01 4.59133535261512e-04 1.01476728512130e-05
2.02685294117647e+01 4.49871639839002e-04 9.95989267789598e-06
2.03373529411765e+01 4.40796580458687e-04 9.77553097327977e-06
2.04061764705882e+01 4.31904588204993e-04 9.59452692783261e-06
2.04750000000000e+01 4.23191970146010e-04 9.41682081106917e-06
2.05438235294118e+01 4.14655107804904e-04 9.24235388439911e-06
2.06126470588235e+01 4.06290455781515e-04 9.07106841933188e-06
2.06814705882353e+01 3.98094540153522e-04 8.90290771427142e-06
2.07502941176471e+01 3.90063957038472e-04 8.73781601253369e-06
2.08191176470588e+01 3.82195371296034e-04 8.57573851905073e-06
2.08879411764706e+01 3.74485515025125e-04 8.41662140627689e-06
2.09567647058823e+01 3.66931186246578e-04 8.26041177531006e-06
2.10255882352941e+01 3.59529247538766e-04 8.10705762345446e-06
2.10944117647059e+01 3.52276624839949e-04 7.95650784825127e-06
2.11632352941176e+01 3.45170306064544e-04 7.80871226112882e-06
2.12320588235294e+01 3.38207339856238e-04 7.66362151644279e-06
2.13008823529412e+01 3.31384834460429e-04 7.52118712509102e-06
2.13697058823529e+01 3.24699956423506e-04 7.38136145887130e-06
2.14385294117647e+01 3.18149929449875e-04 7.24409771650338e-06
2.15073529411765e+01 3.11732033219621e-04 7.10934989517720e-06
2.15761764705882e+01 3.05443602348003e-04 6.97707279335008e-06
2.16450000000000e+01 2.99282025187821e-04 6.84722202182612e-06
2.17138235294118e+01 2.93244742748175e-04 6.71975394232939e-06
