Energy (eV)          EEDF (eV^-(3/2))     First Anisotropy
9.71153846153846e-03 2.25887626578131e-01 1.17342815414366e-04
2.91346153846154e-02 2.24387833066366e-01 1.93774511344479e-04
4.85576923076923e-02 2.22897997518002e-01 2.55825960492239e-04
6.79807692307692e-02 2.21418053813735e-01 3.02980123391436e-04
8.74038461538462e-02 2.19947936279247e-01 3.42318209511080e-04
1.06826923076923e-01 2.18487579672630e-01 3.76516595195223e-04
1.26250000000000e-01 2.17036919178575e-01 4.06959845369208e-04
1.45673076923077e-01 2.15595890436766e-01 4.34483786959607e-04
1.65096153846154e-01 2.14164429484607e-01 4.59642577273856e-04
1.84519230769231e-01 2.12742472796470e-01 4.82827755671193e-04
2.03942307692308e-01 2.11329957268440e-01 5.04329067579952e-04
2.23365384615385e-01 2.09926820215541e-01 5.24368633043190e-04
2.42788461538462e-01 2.08532999368963e-01 5.43121545160276e-04
2.62211538461538e-01 2.07148432873313e-01 5.60728984172457e-04
2.81634615384615e-01 2.05773059283832e-01 5.77306938976883e-04
3.01057692307692e-01 2.04406817563768e-01 5.92952218491956e-04
3.20480769230769e-01 2.03049647081615e-01 6.07746720657348e-04
3.39903846153846e-01 2.01701487608421e-01 6.21760541913964e-04
3.59326923076923e-01 2.00362279315122e-01 6.35054292058942e-04
3.78750000000000e-01 1.99031962769889e-01 6.47680850134723e-04
3.98173076923077e-01 1.97710478938861e-01 6.59686720586748e-04
4.17596153846154e-01 1.96397769173219e-01 6.71113093215408e-04
4.37019230769231e-01 1.95093775217096e-01 6.81996683872661e-04
4.56442307692308e-01 1.93798439201414e-01 6.92370411271040e-04
4.75865384615385e-01 1.92511703641319e-01 7.02263944649622e-04
4.95288461538462e-01 1.91233511433626e-01 7.11704152806220e-04
5.14711538461538e-01 1.89963805854287e-01 7.20715475237665e-04
5.34134615384615e-01 1.88702530555865e-01 7.29320231388060e-04
5.53557692307692e-01 1.87449629565057e-01 7.37538880257178e-04
5.72980769230769e-01 1.86205047280194e-01 7.45390239839326e-04
5.92403846153846e-01 1.84968728468775e-01 7.52891673783746e-04
6.11826923076923e-01 1.83740618265019e-01 7.60059251117771e-04
6.31250000000000e-01 1.82520662167427e-01 7.66907883378386e-04
6.50673076923077e-01 1.81308806038237e-01 7.73451444344612e-04
6.70096153846154e-01 1.80104996095333e-01 7.79702872714742e-04
6.89519230769231e-01 1.78909178915623e-01 7.85674261655532e-04
7.08942307692308e-01 1.77721301430718e-01 7.91376938727928e-04
7.28365384615385e-01 1.76541310924581e-01 7.96821535126300e-04
7.47788461538461e-01 1.75369155031184e-01 8.02018047111954e-04
7.67211538461538e-01 1.74204781732187e-01 8.06975890475196e-04
7.86634615384615e-01 1.73048139354622e-01 8.11703948976712e-04
8.06057692307692e-01 1.71899176568612e-01 8.16210617574152e-04
8.25480769230769e-01 1.70757842385087e-01 8.20503841111857e-04
8.44903846153846e-01 1.69624086153520e-01 8.24591149045740e-04
8.64326923076923e-01 1.68497857559683e-01 8.28479686697601e-04
8.83750000000000e-01 1.67379106623409e-01 8.32176243230806e-04
9.03173076923077e-01 1.66267783697609e-01 8.35687277849762e-04
9.22596153846154e-01 1.65163839462335e-01 8.39018942471829e-04
9.42019230769231e-01 1.64067224926364e-01 8.42177102287683e-04
9.61442307692308e-01 1.62977891423756e-01 8.45167355610528e-04
9.80865384615385e-01 1.61895790611685e-01 8.47995051116360e-04
1.00028846153846e+00 1.60820874468305e-01 8.50665303825299e-04
1.01971153846154e+00 1.59753095290611e-01 8.53183010358334e-04
1.03913461538462e+00 1.58692405689224e-01 8.55552859132008e-04
1.05855769230769e+00 1.57638758602626e-01 8.57779348740587e-04
1.07798076923077e+00 1.56592107261674e-01 8.59866796605057e-04
1.09740384615385e+00 1.55552405217811e-01 8.61819342843990e-04
1.11682692307692e+00 1.54519606340141e-01 8.63640971803973e-04
1.13625000000000e+00 1.53493664785469e-01 8.65335515202204e-04
1.15567307692308e+00 1.52474535024312e-01 8.66906656566670e-04
1.17509615384615e+00 1.51462171829479e-01 8.68357942968767e-04
1.19451923076923e+00 1.50456530282539e-01 8.69692795683621e-04
1.21394230769231e+00 1.49457565746265e-01 8.70914513262155e-04
1.23336538461538e+00 1.48465233888341e-01 8.72026272351409e-04
1.25278846153846e+00 1.47479490678708e-01 8.73031144187421e-04
1.27221153846154e+00 1.46500292363786e-01 8.73932094747221e-04
1.29163461538462e+00 1.45527595488430e-01 8.74731984649519e-04
1.31105769230769e+00 1.44561356893425e-01 8.75433584106637e-04
1.33048076923077e+00 1.43601533691291e-01 8.76039572341764e-04
1.34990384615385e+00 1.42648083286727e-01 8.76552536823460e-04
1.36932692307692e+00 1.41700963374155e-01 8.76974986942323e-04
1.38875000000000e+00 1.40760131915022e-01 8.77309352871936e-04
1.40817307692308e+00 1.39825547156853e-01 8.77557985826541e-04
1.42759615384615e+00 1.38897167624393e-01 8.77723164637973e-04
1.44701923076923e+00 1.37974952124151e-01 8.77807101735041e-04
1.46644230769231e+00 1.37058859723296e-01 8.77811943047295e-04
1.48586538461538e+00 1.36148849767218e-01 8.77739766251662e-04
1.50528846153846e+00 1.35244881877250e-01 8.77592592269165e-04
1.52471153846154e+00 1.34346915930754e-01 8.77372383317403e-04
1.54413461538462e+00 1.33454912077527e-01 8.77081040911294e-04
1.56355769230769e+00 1.32568830737631e-01 8.76720416602984e-04
1.58298076923077e+00 1.31688632582552e-01 8.76292309848143e-04
1.60240384615385e+00 1.30814278550598e-01 8.75798465838995e-04
1.62182692307692e+00 1.29945729844768e-01 8.75240585581972e-04
1.64125000000000e+00 1.29082947914940e-01 8.74620323623488e-04
1.66067307692308e+00 1.28225894472328e-01 8.73939287044976e-04
1.68009615384615e+00 1.27374531482365e-01 8.73199039862071e-04
1.69951923076923e+00 1.26528821167997e-01 8.72401107015923e-04
1.71894230769231e+00 1.25688725992986e-01 8.71546973300951e-04
1.73836538461538e+00 1.24854208675334e-01 8.70638080958955e-04
1.75778846153846e+00 1.24025232185299e-01 8.69675838545369e-04
1.77721153846154e+00 1.23201759729537e-01 8.68661618472002e-04
1.79663461538462e+00 1.22383754763733e-01 8.67596754556435e-04
1.81605769230769e+00 1.21571180990682e-01 8.66482550431495e-04
1.83548076923077e+00 1.20764002345216e-01 8.65320277067295e-04
1.85490384615385e+00 1.19962183006115e-01 8.64111170305535e-04
1.87432692307692e+00 1.19165687394228e-01 8.62856438854617e-04
1.89375000000000e+00 1.18374480158140e-01 8.61557261801935e-04
1.91317307692308e+00 1.17588526185419e-01 8.60214787241112e-04
1.93259615384615e+00 1.16807790596761e-01 8.58830135535907e-04
1.95201923076923e+00 1.16032238748415e-01 8.57404402275243e-04
1.97144230769231e+00 1.15261836218677e-01 8.55938656924624e-04
1.99086538461538e+00 1.14496548818383e-01 8.54433940362924e-04
2.01028846153846e+00 1.13736342589149e-01 8.52891272086192e-04
2.02971153846154e+00 1.12981183790483e-01 8.51311647740881e-04
2.04913461538462e+00 1.12231038909711e-01 8.49696036682275e-04
2.06855769230769e+00 1.11485874660260e-01 8.48045388864346e-04
2.08798076923077e+00 1.10745657969363e-01 8.46360632406595e-04
2.10740384615385e+00 1.10010355987453e-01 8.44642671187004e-04
2.12682692307692e+00 1.09279936086484e-01 8.42892391440831e-04
2.14625000000000e+00 1.08554365848191e-01 8.41110659361094e-04
2.16567307692308e+00 1.07833613072994e-01 8.39298319671978e-04
2.18509615384615e+00 1.07117645775101e-01 8.37456198203527e-04
2.20451923076923e+00 1.06406432184313e-01 8.35585104219009e-04
2.22394230769231e+00 1.05699940734904e-01 8.33685829042116e-04
2.24336538461538e+00 1.04998140073972e-01 8.31759143732941e-04
2.26278846153846e+00 1.04300999059860e-01 8.29805805115129e-04
2.28221153846154e+00 1.03608486751510e-01 8.27826553465730e-04
2.30163461538462e+00 1.02920572416390e-01 8.25822110234530e-04
2.32105769230769e+00 1.02237225528952e-01 8.23793183837417e-04
2.34048076923077e+00 1.01558415760440e-01 8.21740467396030e-04
2.35990384615385e+00 1.00884112986419e-01 8.19664636506690e-04
2.37932692307692e+00 1.00214287285265e-01 8.17566354814169e-04
2.39875000000000e+00 9.95489089284018e-02 8.15446271798066e-04
2.41817307692308e+00 9.88879483874594e-02 8.13305021408523e-04
2.43759615384615e+00 9.82313763301218e-02 8.11143224175034e-04
2.45701923076923e+00 9.75791636214719e-02 8.08961489110734e-04
2.47644230769231e+00 9.69312813147218e-02 8.06760412409036e-04
2.49586538461538e+00 9.62877006579423e-02 8.04540575319533e-04
2.51528846153846e+00 9.56483930926371e-02 8.02302549281856e-04
2.53471153846154e+00 9.50133302448452e-02 8.00046893820522e-04
2.55413461538462e+00 9.43824839315410e-02 7.97774154469279e-04
2.57355769230769e+00 9.37558261592472e-02 7.95484867721965e-04
2.59298076923077e+00 9.31333291154894e-02 7.93179558979832e-04
2.61240384615385e+00 9.25149651748926e-02 7.90858740527455e-04
2.63182692307692e+00 9.19007068978212e-02 7.88522916310250e-04
2.65125000000000e+00 9.12905270221730e-02 7.86172579930510e-04
2.67067307692308e+00 9.06843984691897e-02 7.83808213386447e-04
2.69009615384615e+00 9.00822943399039e-02 7.81430288841419e-04
2.70951923076923e+00 8.94841879161434e-02 7.79039270220770e-04
2.72894230769231e+00 8.88900526527178e-02 7.76635612010565e-04
2.74836538461538e+00 8.82998621828991e-02 7.74219757342716e-04
2.76778846153846e+00 8.77135903171322e-02 7.71792142420369e-04
2.78721153846154e+00 8.71312110355179e-02 7.69353194622618e-04
2.80663461538462e+00 8.65526984930372e-02 7.66903330636696e-04
2.82605769230769e+00 8.59780270182947e-02 7.64442960735180e-04
2.84548076923077e+00 8.54071711062845e-02 7.61972486930835e-04
2.86490384615385e+00 8.48401054233764e-02 7.59492301157874e-04
2.88432692307692e+00 8.42768048060840e-02 7.57002789407868e-04
2.90375000000000e+00 8.37172442541032e-02 7.54504329930791e-04
2.92317307692308e+00 8.31613989350744e-02 7.51997292088615e-04
2.94259615384615e+00 8.26092441815133e-02 7.49482037863353e-04
2.96201923076923e+00 8.20607554915599e-02 7.46958923217981e-04
2.98144230769231e+00 8.15159085223344e-02 7.44428297005535e-04
3.00086538461538e+00 8.09746790944393e-02 7.41890499253296e-04
3.02028846153846e+00 8.04370431907889e-02 7.39345865009264e-04
3.03971153846154e+00 7.99029769502069e-02 7.36794722645262e-04
3.05913461538462e+00 7.93724566717249e-02 7.34237392184883e-04
3.07855769230769e+00 7.88454588134416e-02 7.31674189027465e-04
3.09798076923077e+00 7.83219599863494e-02 7.29105422296901e-04
3.11740384615385e+00 7.78019369584450e-02 7.26531393214370e-04
3.13682692307692e+00 7.72853666536100e-02 7.23952398704924e-04
3.15625000000000e+00 7.67722261456609e-02 7.21368729788756e-04
3.17567307692308e+00 7.62624926622801e-02 7.18780670546757e-04
3.19509615384615e+00 7.57561435823480e-02 7.16188499420824e-04
3.21451923076923e+00 7.52531564364954e-02 7.13592490386933e-04
3.23394230769231e+00 7.47535089014144e-02 7.10992911971364e-04
3.25336538461538e+00 7.42571788035817e-02 7.08390025717787e-04
3.27278846153846e+00 7.37641441181942e-02 7.05784089550929e-04
3.29221153846154e+00 7.32743829636785e-02 7.03175356260934e-04
3.31163461538462e+00 7.27878736052510e-02 7.00564072009995e-04
3.33105769230769e+00 7.23045944538800e-02 6.97950479593031e-04
3.35048076923077e+00 7.18245240609835e-02 6.95334816963071e-04
3.36990384615385e+00 7.13476411218383e-02 6.92717315778201e-04
3.38932692307692e+00 7.08739244745622e-02 6.90098204563172e-04
3.40875000000000e+00 7.04033530949954e-02 6.87477707272986e-04
3.42817307692308e+00 6.99359060999658e-02 6.84856042363478e-04
3.44759615384615e+00 6.94715627449564e-02 6.82233423921490e-04
3.46701923076923e+00 6.90103024245069e-02 6.79610062684740e-04
3.48644230769231e+00 6.85521046673125e-02 6.76986165157662e-04
3.50586538461538e+00 6.80969491393206e-02 6.74361932243098e-04
3.52528846153846e+00 6.76448156427628e-02 6.71737562197981e-04
3.54471153846154e+00 6.71956841114172e-02 6.69113249280438e-04
3.56413461538461e+00 6.67495346135743e-02 6.66489182416833e-04
3.58355769230769e+00 6.63063473510917e-02 6.63865548069837e-04
3.60298076923077e+00 6.58661026548133e-02 6.61242528922122e-04
3.62240384615385e+00 6.54287809874132e-02 6.58620302579197e-04
3.64182692307692e+00 6.49943629424679e-02 6.55999044353130e-04
3.66125000000000e+00 6.45628292400296e-02 6.53378925980133e-04
3.68067307692308e+00 6.41341607293522e-02 6.50760114787228e-04
3.70009615384615e+00 6.37083383868420e-02 6.48142774680649e-04
3.71951923076923e+00 6.32853433163438e-02 6.45527067037805e-04
3.73894230769231e+00 6.28651567448950e-02 6.42913149914316e-04
3.75836538461538e+00 6.24477600253155e-02 6.40301176822581e-04
3.77778846153846e+00 6.20331346353248e-02 6.37691299338826e-04
3.79721153846154e+00 6.16212621734340e-02 6.35083665895351e-04
3.81663461538461e+00 6.12121243614287e-02 6.32478420590562e-04
3.83605769230769e+00 6.08057030435060e-02 6.29875705720880e-04
3.85548076923077e+00 6.04019801822992e-02 6.27275660605429e-04
3.87490384615385e+00 6.00009378612600e-02 6.24678420427821e-04
3.89432692307692e+00 5.96025582838124e-02 6.22084118695508e-04
3.91375000000000e+00 5.92068237695059e-02 6.19492886094693e-04
3.93317307692308e+00 5.88137167563022e-02 6.16904849743502e-04
3.95259615384615e+00 5.84232197987668e-02 6.14320134060527e-04
3.97201923076923e+00 5.80353155682654e-02 6.11738861549053e-04
3.99144230769231e+00 5.76499868492702e-02 6.09161152086068e-04
4.01086538461538e+00 5.72672165415340e-02 6.06587121831416e-04
4.03028846153846e+00 5.68869876592846e-02 6.04016885534624e-04
4.04971153846154e+00 5.65092833276477e-02 6.01450555456078e-04
4.06913461538462e+00 5.61340867847332e-02 5.98888240304152e-04
4.08855769230769e+00 5.57613813808475e-02 5.96330047476945e-04
4.10798076923077e+00 5.53911505750286e-02 5.93776082012313e-04
4.12740384615385e+00 5.50233779370491e-02 5.91226445553118e-04
4.14682692307692e+00 5.46580471466447e-02 5.88681238526081e-04
4.16625000000000e+00 5.42951419901576e-02 5.86140559118720e-04
4.18567307692308e+00 5.39346463624609e-02 5.83604502610125e-04
4.20509615384615e+00 5.35765442653587e-02 5.81073162137176e-04
4.22451923076923e+00 5.32208198077121e-02 5.78546629386545e-04
4.24394230769231e+00 5.28674572022134e-02 5.76024993957466e-04
4.26336538461538e+00 5.25164407672179e-02 5.73508342386749e-04
4.28278846153846e+00 5.21677549260082e-02 5.70996760195080e-04
4.30221153846154e+00 5.18213842036677e-02 5.68490330922861e-04
4.32163461538461e+00 5.14773132288393e-02 5.65989135180130e-04
4.34105769230769e+00 5.11355267330064e-02 5.63493252636260e-04
4.36048076923077e+00 5.07960095474612e-02 5.61002761081200e-04
4.37990384615385e+00 5.04587466049954e-02 5.58517735500368e-04
4.39932692307692e+00 5.01237229391953e-02 5.56038250009679e-04
4.41875000000000e+00 4.97909236815024e-02 5.53564376940647e-04
4.43817307692308e+00 4.94603340628392e-02 5.51096186240645e-04
4.45759615384615e+00 4.91319394121884e-02 5.48633746150993e-04
4.47701923076923e+00 4.88057251566646e-02 5.46177123819368e-04
4.49644230769231e+00 4.84816768186880e-02 5.43726384728606e-04
4.51586538461538e+00 4.81597800175320e-02 5.41281591824634e-04
4.53528846153846e+00 4.78400204686511e-02 5.38842807335660e-04
4.55471153846154e+00 4.75223839809392e-02 5.36410091909649e-04
4.57413461538462e+00 4.72068564582163e-02 5.33983503764297e-04
4.59355769230769e+00 4.68934238985721e-02 5.31563100456917e-04
4.61298076923077e+00 4.65820723917048e-02 5.29148938044413e-04
4.63240384615385e+00 4.62727881203517e-02 5.26741070255385e-04
4.65182692307692e+00 4.59655573596452e-02 5.24339550212182e-04
4.67125000000000e+00 4.56603664745314e-02 5.21944429612083e-04
4.69067307692308e+00 4.53572019211458e-02 5.19555758189452e-04
4.71009615384615e+00 4.50560502455497e-02 5.17173584317417e-04
4.72951923076923e+00 4.47568980837596e-02 5.14797955551501e-04
4.74894230769231e+00 4.44597321592632e-02 5.12428918117126e-04
4.76836538461538e+00 4.41645392843303e-02 5.10066516128889e-04
4.78778846153846e+00 4.38713063593991e-02 5.07710793211060e-04
4.80721153846154e+00 4.35800203706637e-02 5.05361791725241e-04
4.82663461538461e+00 4.32906683913354e-02 5.03019552009256e-04
4.84605769230769e+00 4.30032375810420e-02 5.00684113954338e-04
4.86548076923077e+00 4.27177151834857e-02 4.98355516252781e-04
4.88490384615385e+00 4.24340885276565e-02 4.96033795656390e-04
4.90432692307692e+00 4.21523450272435e-02 4.93718988511752e-04
4.92375000000000e+00 4.18724721783613e-02 4.91411130026754e-04
4.94317307692308e+00 4.15944575607175e-02 4.89110253787990e-04
4.96259615384615e+00 4.13182888364854e-02 4.86816392295795e-04
4.98201923076923e+00 4.10439537503019e-02 4.84529577447882e-04
5.00144230769231e+00 4.07714401270774e-02 4.82249840079325e-04
5.02086538461538e+00 4.05007358731096e-02 4.79977209262855e-04
5.04028846153846e+00 4.02318289755224e-02 4.77711713754866e-04
5.05971153846154e+00 3.99647075001379e-02 4.75453381303283e-04
5.07913461538462e+00 3.96993595925481e-02 4.73202237965273e-04
5.09855769230769e+00 3.94357734775658e-02 4.70958309515114e-04
5.11798076923077e+00 3.91739374571576e-02 4.68721620769814e-04
5.13740384615385e+00 3.89138399114754e-02 4.66492194924246e-04
5.15682692307692e+00 3.86554692983180e-02 4.64270054922094e-04
5.17625000000000e+00 3.83988141511235e-02 4.62055222798178e-04
5.19567307692308e+00 3.81438630799624e-02 4.59847719245172e-04
5.21509615384615e+00 3.78906047705296e-02 4.57647564090334e-04
5.23451923076923e+00 3.76390279841183e-02 4.55454776726431e-04
5.25394230769231e+00 3.73891215556848e-02 4.53269375698709e-04
5.27336538461538e+00 3.71408743947966e-02 4.51091378077411e-04
5.29278846153846e+00 3.68942754851186e-02 4.48920800749730e-04
5.31221153846154e+00 3.66493138825322e-02 4.46757659798993e-04
5.33163461538461e+00 3.64059787160476e-02 4.44601969892706e-04
5.35105769230769e+00 3.61642591873017e-02 4.42453745540992e-04
5.37048076923077e+00 3.59241445687292e-02 4.40313000491484e-04
5.38990384615385e+00 3.56856242044415e-02 4.38179747132829e-04
5.40932692307692e+00 3.54486875097345e-02 4.36053997720557e-04
5.42875000000000e+00 3.52133239693109e-02 4.33935763786848e-04
5.44817307692308e+00 3.49795231381275e-02 4.31825055751318e-04
5.46759615384615e+00 3.47472746404912e-02 4.29721883346515e-04
5.48701923076923e+00 3.45165681700160e-02 4.27626256002569e-04
5.50644230769231e+00 3.42873934879087e-02 4.25538182475939e-04
5.52586538461538e+00 3.40597404237770e-02 4.23457670286161e-04
5.54528846153846e+00 3.38335988751597e-02 4.21384726871920e-04
5.56471153846154e+00 3.36089588058604e-02 4.19319359033695e-04
5.58413461538461e+00 3.33858102467251e-02 4.17261572384298e-04
5.60355769230769e+00 3.31641432951830e-02 4.15211372475273e-04
5.62298076923077e+00 3.29439481136250e-02 4.13168764253539e-04
5.64240384615385e+00 3.27252149301541e-02 4.11133751525681e-04
5.66182692307692e+00 3.25079340381345e-02 4.09106338055526e-04
5.68125000000000e+00 3.22920957946152e-02 4.07086527034036e-04
5.70067307692308e+00 3.20776906210529e-02 4.05074320729320e-04
5.72009615384615e+00 3.18647090025017e-02 4.03069720867053e-04
5.73951923076923e+00 3.16531414875561e-02 4.01072728974327e-04
5.75894230769231e+00 3.14429786868300e-02 3.99083346045673e-04
5.77836538461538e+00 3.12342112736466e-02 3.97101572037211e-04
5.79778846153846e+00 3.10268299836090e-02 3.95127406902195e-04
5.81721153846154e+00 3.08208256131200e-02 3.93160850090223e-04
5.83663461538461e+00 3.06161890200469e-02 3.91201900053626e-04
5.85605769230769e+00 3.04129111233010e-02 3.89250555256703e-04
5.87548076923077e+00 3.02109829013977e-02 3.87306813687446e-04
5.89490384615385e+00 3.00103953930972e-02 3.85370672376183e-04
5.91432692307692e+00 2.98111396969921e-02 3.83442128379286e-04
5.93375000000000e+00 2.96132069701066e-02 3.81521178302666e-04
5.95317307692308e+00 2.94165884285145e-02 3.79607817987023e-04
5.97259615384615e+00 2.92212753466109e-02 3.77702042848191e-04
5.99201923076923e+00 2.90272590570461e-02 3.75803848184927e-04
6.01144230769231e+00 2.88345309493733e-02 3.73913228878486e-04
6.03086538461538e+00 2.86430824706383e-02 3.72030178937778e-04
6.05028846153846e+00 2.84529051249867e-02 3.70154692427990e-04
6.06971153846154e+00 2.82639904723472e-02 3.68286763020283e-04
6.08913461538461e+00 2.80763301290005e-02 3.66426383548008e-04
6.10855769230769e+00 2.78899157671940e-02 3.64573546911999e-04
6.12798076923077e+00 2.77047391138609e-02 3.62728245641397e-04
