Energy (eV)          EEDF (eV^-(3/2))     First Anisotropy
3.08333333333333e-04 1.25843835364597e+02 6.05918740043496e-02
9.25000000000000e-04 1.24049932492014e+02 9.96763610062694e-02
1.54166666666667e-03 1.22281601692653e+02 1.30586373529026e-01
2.15833333333333e-03 1.20538478433388e+02 1.53470571407238e-01
2.77500000000000e-03 1.18820203381182e+02 1.72067440276687e-01
3.39166666666667e-03 1.17126422327942e+02 1.87806466875410e-01
4.00833333333333e-03 1.15456786109510e+02 2.01435357583381e-01
4.62500000000000e-03 1.13810950541526e+02 2.13410333323009e-01
5.24166666666667e-03 1.12188576347429e+02 2.24037049287956e-01
5.85833333333333e-03 1.10589329084166e+02 2.33533691724549e-01
6.47500000000000e-03 1.09012879077552e+02 2.42063350826520e-01
7.09166666666667e-03 1.07458901353888e+02 2.49752284739642e-01
7.70833333333333e-03 1.05927075570029e+02 2.56700976133068e-01
8.32500000000000e-03 1.04417085950268e+02 2.62991200997036e-01
8.94166666666667e-03 1.02928621221002e+02 2.68690749351673e-01
9.55833333333333e-03 1.01461374544395e+02 2.73856692889454e-01
1.01750000000000e-02 1.00015043457286e+02 2.78537715453327e-01
1.07916666666667e-02 9.85893298102363e+01 2.82775817514567e-01
1.14083333333333e-02 9.71839396981660e+01 2.86607590920551e-01
1.20250000000000e-02 9.57985834093398e+01 2.90065190460495e-01
1.26416666666667e-02 9.44329753664176e+01 2.93177085896250e-01
1.32583333333333e-02 9.30868340538761e+01 2.95968654158301e-01
1.38750000000000e-02 9.17598819737007e+01 2.98462651477637e-01
1.44916666666667e-02 9.04518455873822e+01 3.00679593092333e-01
1.51083333333333e-02 8.91624552481672e+01 3.02638063642905e-01
1.57250000000000e-02 8.78914451568593e+01 3.04354972789892e-01
1.63416666666667e-02 8.66385533064117e+01 3.05845766573716e-01
1.69583333333333e-02 8.54035214183234e+01 3.07124605191073e-01
1.75750000000000e-02 8.41860948990194e+01 3.08204513056255e-01
1.81916666666667e-02 8.29860227868787e+01 3.09097505435246e-01
1.88083333333333e-02 8.18030576922870e+01 3.09814697449825e-01
1.94250000000000e-02 8.06369557548833e+01 3.10366397891696e-01
2.00416666666667e-02 7.94874765928934e+01 3.10762189594786e-01
2.06583333333333e-02 7.83543832464626e+01 3.11010999986924e-01
2.12750000000000e-02 7.72374421359525e+01 3.11121162769189e-01
2.18916666666667e-02 7.61364230134622e+01 3.11100471346791e-01
2.25083333333333e-02 7.50510989091453e+01 3.10956226547418e-01
2.31250000000000e-02 7.39812460906701e+01 3.10695278880938e-01
2.37416666666667e-02 7.29266440168225e+01 3.10324065437909e-01
2.43583333333333e-02 7.18870752865658e+01 3.09848643364443e-01
2.49750000000000e-02 7.08623255997302e+01 3.09274719830004e-01
2.55916666666667e-02 6.98521837126024e+01 3.08607678331671e-01
2.62083333333333e-02 6.88564413895220e+01 3.07852602910732e-01
2.68250000000000e-02 6.78748933648386e+01 3.07014300031638e-01
2.74416666666667e-02 6.69073373003962e+01 3.06097317844873e-01
2.80583333333333e-02 6.59535737394927e+01 3.05105964171862e-01
2.86750000000000e-02 6.50134060701177e+01 3.04044322881626e-01
2.92916666666667e-02 6.40866404842484e+01 3.02916268325383e-01
2.99083333333333e-02 6.31730859340176e+01 3.01725478999175e-01
3.05250000000000e-02 6.22725540962334e+01 3.00475450069050e-01
3.11416666666667e-02 6.13848593334047e+01 2.99169504404489e-01
3.17583333333333e-02 6.05098186519839e+01 2.97810803163904e-01
3.23750000000000e-02 5.96472516681553e+01 2.96402355555719e-01
3.29916666666667e-02 5.87969805705162e+01 2.94947027418984e-01
3.36083333333333e-02 5.79588300802712e+01 2.93447549567340e-01
3.42250000000000e-02 5.71326274182710e+01 2.91906525522431e-01
3.48416666666667e-02 5.63182022692763e+01 2.90326438288615e-01
3.54583333333333e-02 5.55153867439944e+01 2.88709657030662e-01
3.60750000000000e-02 5.47240153473428e+01 2.87058443290451e-01
3.66916666666667e-02 5.39439249442287e+01 2.85374956407458e-01
3.73083333333333e-02 5.31749547233256e+01 2.83661258935308e-01
3.79250000000000e-02 5.24169461665347e+01 2.81919321704014e-01
3.85416666666667e-02 5.16697430162135e+01 2.80151028208232e-01
3.91583333333333e-02 5.09331912406009e+01 2.78358179053668e-01
3.97750000000000e-02 5.02071390044444e+01 2.76542496126800e-01
4.03916666666667e-02 4.94914366376157e+01 2.74705626184720e-01
4.10083333333333e-02 4.87859366020994e+01 2.72849144544283e-01
4.16250000000000e-02 4.80904934637522e+01 2.70974558552025e-01
4.22416666666667e-02 4.74049638622465e+01 2.69083310548283e-01
4.28583333333333e-02 4.67292064795432e+01 2.67176780957369e-01
4.34750000000000e-02 4.60630820127484e+01 2.65256291201730e-01
4.40916666666667e-02 4.54064531453293e+01 2.63323106169773e-01
4.47083333333333e-02 4.47591845169955e+01 2.61378436826610e-01
4.53250000000000e-02 4.41211426976203e+01 2.59423442681704e-01
4.59416666666667e-02 4.34921961596724e+01 2.57459233858742e-01
4.65583333333333e-02 4.28722152494394e+01 2.55486873318425e-01
4.71750000000000e-02 4.22610721619756e+01 2.53507378963538e-01
4.77916666666667e-02 4.16586409147005e+01 2.51521725386629e-01
4.84083333333333e-02 4.10647973198968e+01 2.49530845775650e-01
4.90250000000000e-02 4.04794189606526e+01 2.47535633721782e-01
4.96416666666667e-02 3.99023851655746e+01 2.45536944703869e-01
5.02583333333333e-02 3.93335769825020e+01 2.43535597732447e-01
5.08750000000000e-02 3.87728771554061e+01 2.41532376911688e-01
5.14916666666667e-02 3.82201701001731e+01 2.39528032706999e-01
5.21083333333333e-02 3.76753418794740e+01 2.37523283371406e-01
5.27250000000000e-02 3.71382801805902e+01 2.35518816302479e-01
5.33416666666667e-02 3.66088742922177e+01 2.33515289129944e-01
5.39583333333333e-02 3.60870150804417e+01 2.31513330959611e-01
5.45750000000000e-02 3.55725949674516e+01 2.29513543558032e-01
5.51916666666667e-02 3.50655079093262e+01 2.27516502289713e-01
5.58083333333333e-02 3.45656493730592e+01 2.25522757206985e-01
5.64250000000000e-02 3.40729163161332e+01 2.23532834088932e-01
5.70416666666667e-02 3.35872071652421e+01 2.21547235252090e-01
5.76583333333333e-02 3.31084217943207e+01 2.19566440509408e-01
5.82750000000000e-02 3.26364615049445e+01 2.17590908085079e-01
5.88916666666667e-02 3.21712290059504e+01 2.15621075318243e-01
5.95083333333333e-02 3.17126283924243e+01 2.13657359509997e-01
6.01250000000000e-02 3.12605651268950e+01 2.11700158731945e-01
6.07416666666667e-02 3.08149460198160e+01 2.09749852438885e-01
6.13583333333333e-02 3.03756792094666e+01 2.07806802219591e-01
6.19750000000000e-02 2.99426741439107e+01 2.05871352513823e-01
6.25916666666667e-02 2.95158415623023e+01 2.03943831147244e-01
6.32083333333333e-02 2.90950934756591e+01 2.02024549999003e-01
6.38250000000000e-02 2.86803431495570e+01 2.00113805639538e-01
6.44416666666667e-02 2.82715050862237e+01 1.98211879798703e-01
6.50583333333333e-02 2.78684950061472e+01 1.96319039961107e-01
6.56750000000000e-02 2.74712298314751e+01 1.94435539935039e-01
6.62916666666667e-02 2.70796276688657e+01 1.92561620263024e-01
6.69083333333333e-02 2.66936077918910e+01 1.90697508754137e-01
6.75250000000000e-02 2.63130906251164e+01 1.88843420992783e-01
6.81416666666667e-02 2.59379977276742e+01 1.86999560699408e-01
6.87583333333333e-02 2.55682517764285e+01 1.85166120207597e-01
6.93750000000000e-02 2.52037765507061e+01 1.83343280920139e-01
6.99916666666667e-02 2.48444969165641e+01 1.81531213626436e-01
7.06083333333333e-02 2.44903388106809e+01 1.79730078931075e-01
7.12250000000000e-02 2.41412292257140e+01 1.77940027663467e-01
7.18416666666667e-02 2.37970961952316e+01 1.76161201157538e-01
7.24583333333333e-02 2.34578687782979e+01 1.74393731637463e-01
7.30750000000000e-02 2.31234770454327e+01 1.72637742586339e-01
7.36916666666667e-02 2.27938520641789e+01 1.70893348992884e-01
7.43083333333333e-02 2.24689258843515e+01 1.69160657699238e-01
7.49250000000000e-02 2.21486315245756e+01 1.67439767733360e-01
7.55416666666667e-02 2.18329029584618e+01 1.65730770526798e-01
7.61583333333333e-02 2.15216751004911e+01 1.64033750228826e-01
7.67750000000000e-02 2.12148837931065e+01 1.62348784006585e-01
7.73916666666667e-02 2.09124657934724e+01 1.60675942237442e-01
7.80083333333333e-02 2.06143587599657e+01 1.59015288793141e-01
7.86250000000000e-02 2.03205012398001e+01 1.57366881311216e-01
7.92416666666667e-02 2.00308326563444e+01 1.55730771364950e-01
7.98583333333333e-02 1.97452932961932e+01 1.54107004720766e-01
8.04750000000000e-02 1.94638242973027e+01 1.52495621583963e-01
8.10916666666667e-02 1.91863676368435e+01 1.50896656748925e-01
8.17083333333333e-02 1.89128661188267e+01 1.49310139832544e-01
8.23250000000000e-02 1.86432633627297e+01 1.47736095496967e-01
8.29416666666667e-02 1.83775037918616e+01 1.46174543582339e-01
8.35583333333333e-02 1.81155326215197e+01 1.44625499318720e-01
8.41750000000000e-02 1.78572958480860e+01 1.43088973528218e-01
8.47916666666667e-02 1.76027402378834e+01 1.41564972742228e-01
8.54083333333333e-02 1.73518133158395e+01 1.40053499394036e-01
8.60250000000000e-02 1.71044633550347e+01 1.38554552002409e-01
8.66416666666667e-02 1.68606393660285e+01 1.37068125275094e-01
8.72583333333333e-02 1.66202910860087e+01 1.35594210283999e-01
8.78750000000000e-02 1.63833689687726e+01 1.34132794632083e-01
8.84916666666667e-02 1.61498241745033e+01 1.32683862544647e-01
8.91083333333333e-02 1.59196085593835e+01 1.31247395028795e-01
8.97250000000000e-02 1.56926746659920e+01 1.29823370025260e-01
9.03416666666667e-02 1.54689757135115e+01 1.28411762488807e-01
9.09583333333333e-02 1.52484655877863e+01 1.27012544533509e-01
9.15750000000000e-02 1.50310988321174e+01 1.25625685570942e-01
9.21916666666667e-02 1.48168306378834e+01 1.24251152380896e-01
9.28083333333333e-02 1.46056168350228e+01 1.22888909243795e-01
9.34250000000000e-02 1.43974138832120e+01 1.21538918066560e-01
9.40416666666667e-02 1.41921788628811e+01 1.20201138444685e-01
9.46583333333333e-02 1.39898694661035e+01 1.18875527782990e-01
9.52750000000000e-02 1.37904439881396e+01 1.17562041410308e-01
9.58916666666667e-02 1.35938613188321e+01 1.16260632633842e-01
9.65083333333333e-02 1.34000809338847e+01 1.14971252849335e-01
9.71250000000000e-02 1.32090628867569e+01 1.13693851645617e-01
9.77416666666667e-02 1.30207678004226e+01 1.12428376852070e-01
9.83583333333333e-02 1.28351568590206e+01 1.11174774639163e-01
9.89750000000000e-02 1.26521918000870e+01 1.09932989613788e-01
9.95916666666667e-02 1.24718349066612e+01 1.08702964860554e-01
1.00208333333333e-01 1.22940489992925e+01 1.07484642016375e-01
1.00825000000000e-01 1.21187974283880e+01 1.06277961442943e-01
1.01441666666667e-01 1.19460440676873e+01 1.05082862107945e-01
1.02058333333333e-01 1.17757533045450e+01 1.03899281744557e-01
1.02675000000000e-01 1.16078900346594e+01 1.02727157081088e-01
1.03291666666667e-01 1.14424196547782e+01 1.01566423589542e-01
1.03908333333333e-01 1.12793080536350e+01 1.00417015709734e-01
1.04525000000000e-01 1.11185216068643e+01 9.92788670492217e-02
1.05141666666667e-01 1.09600271700155e+01 9.81519101417735e-02
1.05758333333333e-01 1.08037920699047e+01 9.70360766574412e-02
1.06375000000000e-01 1.06497840997109e+01 9.59312975895993e-02
1.06991666666667e-01 1.04979715122857e+01 9.48375030230356e-02
1.07608333333333e-01 1.03483230118997e+01 9.37546223309282e-02
1.08225000000000e-01 1.02008077495153e+01 9.26825843499058e-02
1.08841666666667e-01 1.00553953163792e+01 9.16213171574485e-02
1.09458333333333e-01 9.91205573614478e+00 9.05707482566619e-02
1.10075000000000e-01 9.77075946031586e+00 8.95308047401925e-02
1.10691666666667e-01 9.63147736211063e+00 8.85014130766287e-02
1.11308333333333e-01 9.49418072894162e+00 8.74824992838933e-02
1.11925000000000e-01 9.35884125802568e+00 8.64739890827807e-02
1.12541666666667e-01 9.22543105050730e+00 8.54758076920516e-02
1.13158333333333e-01 9.09392260427970e+00 8.44878799911971e-02
1.13775000000000e-01 8.96428880975565e+00 8.35101306643132e-02
1.14391666666667e-01 8.83650294423931e+00 8.25424840035718e-02
1.15008333333333e-01 8.71053866507226e+00 8.15848640620690e-02
1.15625000000000e-01 8.58637000556012e+00 8.06371947886917e-02
1.16241666666667e-01 8.46397136958243e+00 7.96993998396534e-02
1.16858333333333e-01 8.34331752504826e+00 7.87714027220808e-02
1.17475000000000e-01 8.22438359997372e+00 7.78531269204702e-02
1.18091666666667e-01 8.10714507731979e+00 7.69444957160031e-02
1.18708333333333e-01 7.99157778874292e+00 7.60454323214657e-02
1.19325000000000e-01 7.87765791081865e+00 7.51558599998536e-02
1.19941666666667e-01 7.76536196009765e+00 7.42757018911785e-02
1.20558333333333e-01 7.65466678713755e+00 7.34048811392770e-02
1.21175000000000e-01 7.54554957286791e+00 7.25433210030842e-02
1.21791666666667e-01 7.43798782385517e+00 7.16909446906446e-02
1.22408333333333e-01 7.33195936660263e+00 7.08476754783309e-02
1.23025000000000e-01 7.22744234405202e+00 7.00134368152615e-02
1.23641666666667e-01 7.12441521104863e+00 6.91881521642424e-02
1.24258333333333e-01 7.02285672889687e+00 6.83717451138753e-02
1.24875000000000e-01 6.92274596199390e+00 6.75641394765718e-02
1.25491666666667e-01 6.82406227348643e+00 6.67652591361503e-02
1.26108333333333e-01 6.72678532007001e+00 6.59750281532823e-02
1.26725000000000e-01 6.63089504875031e+00 6.51933708575150e-02
1.27341666666667e-01 6.53637169268335e+00 6.44202117012624e-02
1.27958333333333e-01 6.44319576620743e+00 6.36554753590133e-02
1.28575000000000e-01 6.35134806172742e+00 6.28990868137374e-02
1.29191666666667e-01 6.26080964573095e+00 6.21509712170228e-02
1.29808333333333e-01 6.17156185404196e+00 6.14110539824319e-02
1.30425000000000e-01 6.08358628882405e+00 6.06792608666524e-02
1.31041666666667e-01 5.99686481476488e+00 5.99555178355334e-02
1.31658333333333e-01 5.91137955454137e+00 5.92397511519440e-02
1.32275000000000e-01 5.82711288593781e+00 5.85318874520129e-02
1.32891666666667e-01 5.74404743819145e+00 5.78318536168199e-02
1.33508333333333e-01 5.66216608765959e+00 5.71395768551007e-02
1.34125000000000e-01 5.58145195504837e+00 5.64549847748823e-02
1.34741666666667e-01 5.50188840191282e+00 5.57780052605959e-02
1.35358333333333e-01 5.42345902651649e+00 5.51085665509460e-02
1.35975000000000e-01 5.34614766116712e+00 5.44465973062313e-02
1.36591666666667e-01 5.26993836886449e+00 5.37920264906607e-02
1.37208333333333e-01 5.19481543934388e+00 5.31447834456812e-02
1.37825000000000e-01 5.12076338651472e+00 5.25047979532498e-02
1.38441666666667e-01 5.04776694525006e+00 5.18720001231402e-02
1.39058333333333e-01 4.97581106760548e+00 5.12463204620013e-02
1.39675000000000e-01 4.90488092035696e+00 5.06276899328381e-02
1.40291666666667e-01 4.83496188192603e+00 5.00160398471031e-02
1.40908333333333e-01 4.76603953876606e+00 4.94113019297434e-02
1.41525000000000e-01 4.69809968299589e+00 4.88134083751210e-02
1.42141666666667e-01 4.63112830945480e+00 4.82222917436919e-02
1.42758333333333e-01 4.56511161224871e+00 4.76378850232831e-02
1.43375000000000e-01 4.50003598247594e+00 4.70601216816737e-02
1.43991666666667e-01 4.43588800540660e+00 4.64889355676717e-02
1.44608333333333e-01 4.37265445718138e+00 4.59242609688434e-02
1.45225000000000e-01 4.31032230262618e+00 4.53660326609603e-02
1.45841666666667e-01 4.24887869255055e+00 4.48141858132913e-02
1.46458333333333e-01 4.18831096059226e+00 4.42686560429984e-02
1.47075000000000e-01 4.12860662111738e+00 4.37293794616412e-02
1.47691666666667e-01 4.06975336663293e+00 4.31962925845023e-02
1.48308333333333e-01 4.01173906477047e+00 4.26693323818523e-02
1.48925000000000e-01 3.95455175626865e+00 4.21484363226889e-02
1.49541666666667e-01 3.89817965249501e+00 4.16335422879293e-02
1.50158333333333e-01 3.84261113256255e+00 4.11245886187261e-02
1.50775000000000e-01 3.78783474139151e+00 4.06215141576115e-02
1.51391666666667e-01 3.73383918733588e+00 4.01242581653930e-02
1.52008333333333e-01 3.68061333942677e+00 3.96327603666951e-02
1.52625000000000e-01 3.62814622551062e+00 3.91469609886667e-02
1.53241666666667e-01 3.57642702997587e+00 3.86668006814201e-02
1.53858333333333e-01 3.52544509111756e+00 3.81922205609651e-02
1.54475000000000e-01 3.47518989934898e+00 3.77231622456240e-02
1.55091666666667e-01 3.42565109502436e+00 3.72595677798692e-02
1.55708333333333e-01 3.37681846591922e+00 3.68013796747987e-02
1.56325000000000e-01 3.32868194551268e+00 3.63485409423960e-02
1.56941666666667e-01 3.28123161090214e+00 3.59009950226235e-02
1.57558333333333e-01 3.23445768039416e+00 3.54586858215836e-02
1.58175000000000e-01 3.18835051185484e+00 3.50215577437544e-02
1.58791666666667e-01 3.14290060071249e+00 3.45895556221978e-02
1.59408333333333e-01 3.09809857765420e+00 3.41626247545418e-02
1.60025000000000e-01 3.05393520704163e+00 3.37407109333157e-02
1.60641666666667e-01 3.01040138499799e+00 3.33237603791396e-02
1.61258333333333e-01 2.96748813720555e+00 3.29117197746542e-02
1.61875000000000e-01 2.92518661738438e+00 3.25045362930652e-02
1.62491666666667e-01 2.88348810546008e+00 3.21021575341912e-02
1.63108333333333e-01 2.84238400545774e+00 3.17045315564619e-02
1.63725000000000e-01 2.80186584404114e+00 3.13116069037780e-02
1.64341666666667e-01 2.76192526875793e+00 3.09233325442946e-02
1.64958333333333e-01 2.72255404602562e+00 3.05396579005971e-02
1.65575000000000e-01 2.68374405972910e+00 3.01605328749777e-02
1.66191666666667e-01 2.64548730953979e+00 2.97859077908387e-02
1.66808333333333e-01 2.60777590898975e+00 2.94157334211525e-02
1.67425000000000e-01 2.57060208412514e+00 2.90499610122506e-02
1.68041666666667e-01 2.53395817189631e+00 2.86885422277310e-02
1.68658333333333e-01 2.49783661831606e+00 2.83314291753018e-02
1.69275000000000e-01 2.46222997716688e+00 2.79785744291692e-02
1.69891666666667e-01 2.42713090845902e+00 2.76299309763466e-02
1.70508333333333e-01 2.39253217666916e+00 2.72854522419719e-02
1.71125000000000e-01 2.35842664949931e+00 2.69450921103777e-02
1.71741666666667e-01 2.32480729640007e+00 2.66088048736998e-02
1.72358333333333e-01 2.29166718688602e+00 2.62765452557557e-02
1.72975000000000e-01 2.25899948934444e+00 2.59482684318760e-02
1.73591666666667e-01 2.22679746962082e+00 2.56239299797106e-02
1.74208333333333e-01 2.19505448940774e+00 2.53034859017539e-02
1.74825000000000e-01 2.16376400510137e+00 2.49868926440093e-02
1.75441666666667e-01 2.13291956644667e+00 2.46741070488996e-02
1.76058333333333e-01 2.10251481499645e+00 2.43650863765149e-02
1.76675000000000e-01 2.07254348301380e+00 2.40597883221807e-02
1.77291666666667e-01 2.04299939217450e+00 2.37581709713825e-02
1.77908333333333e-01 2.01387645209313e+00 2.34601928198083e-02
1.78525000000000e-01 1.98516865926963e+00 2.31658127898844e-02
1.79141666666667e-01 1.95687009584651e+00 2.28749901876276e-02
1.79758333333333e-01 1.92897492819905e+00 2.25876847215527e-02
1.80375000000000e-01 1.90147740592429e+00 2.23038565182358e-02
1.80991666666667e-01 1.87437186065068e+00 2.20234660810118e-02
1.81608333333333e-01 1.84765270468958e+00 2.17464743078124e-02
1.82225000000000e-01 1.82131443006501e+00 2.14728425058112e-02
1.82841666666667e-01 1.79535160737347e+00 2.12025323518890e-02
1.83458333333333e-01 1.76975888449415e+00 2.09355059094621e-02
1.84075000000000e-01 1.74453098565773e+00 2.06717256422662e-02
1.84691666666667e-01 1.71966271035437e+00 2.04111543765117e-02
1.85308333333333e-01 1.69514893209988e+00 2.01537553167596e-02
1.85925000000000e-01 1.67098459754218e+00 1.98994920588927e-02
1.86541666666667e-01 1.64716472541536e+00 1.96483285538900e-02
1.87158333333333e-01 1.62368440535938e+00 1.94002291228037e-02
1.87775000000000e-01 1.60053879706268e+00 1.91551584689678e-02
1.88391666666667e-01 1.57772312926036e+00 1.89130816433208e-02
1.89008333333333e-01 1.55523269860510e+00 1.86739640585343e-02
1.89625000000000e-01 1.53306286884443e+00 1.84377715005020e-02
1.90241666666667e-01 1.51120906986120e+00 1.82044700951454e-02
1.90858333333333e-01 1.48966679659348e+00 1.79740263217427e-02
1.91475000000000e-01 1.46843160824514e+00 1.77464070237403e-02
1.92091666666667e-01 1.44749912736677e+00 1.75215793769773e-02
1.92708333333333e-01 1.42686503882244e+00 1.72995109022605e-02
1.93325000000000e-01 1.40652508903223e+00 1.70801694755360e-02
1.93941666666667e-01 1.38647508509198e+00 1.68635232974743e-02
1.94558333333333e-01 1.36671089378477e+00 1.66495409053323e-02
