Energy (eV)          EEDF (eV^-(3/2))     First Anisotropy
3.70370370370370e-03 6.14444392236913e-01 1.19647726638834e-07
1.11111111111111e-02 6.14444240496176e-01 3.89455621822415e-07
1.85185185185185e-02 6.14443820317284e-01 9.52564341122758e-07
2.59259259259259e-02 6.14443154164150e-01 1.59466712420637e-06
3.33333333333333e-02 6.14442279309150e-01 2.27035810377198e-06
4.07407407407407e-02 6.14441214244476e-01 3.01515697697957e-06
4.81481481481481e-02 6.14439942863037e-01 3.86369453373704e-06
5.55555555555556e-02 6.14438452696837e-01 4.79138150919305e-06
6.29629629629630e-02 6.14436746154700e-01 5.80167569993599e-06
7.03703703703704e-02 6.14434807114117e-01 6.89756071660605e-06
7.77777777777778e-02 6.14432635668411e-01 8.05188750504961e-06
8.51851851851852e-02 6.14430231591574e-01 9.28628604186203e-06
9.25925925925926e-02 6.14427581057236e-01 1.06259549782233e-05
1.00000000000000e-01 6.14424670244895e-01 1.20406028420092e-05
1.07407407407407e-01 6.14421502580903e-01 1.34855631727228e-05
1.14814814814815e-01 6.14418086519347e-01 1.49745241289988e-05
1.22222222222222e-01 6.14414416427430e-01 1.65345164208916e-05
1.29629629629630e-01 6.14410486487015e-01 1.81662826906684e-05
1.37037037037037e-01 6.14406290710861e-01 1.98705833252397e-05
1.44444444444444e-01 6.14401822963872e-01 2.16481757133338e-05
1.51851851851852e-01 6.14397076978276e-01 2.34998193077755e-05
1.59259259259259e-01 6.14392046364520e-01 2.54262789564331e-05
1.66666666666667e-01 6.14386724619135e-01 2.74283270223335e-05
1.74074074074074e-01 6.14381105130421e-01 2.95067391565162e-05
1.81481481481481e-01 6.14375181184729e-01 3.16620979462133e-05
1.88888888888889e-01 6.14368946045371e-01 3.38936282380025e-05
1.96296296296296e-01 6.14362393391304e-01 3.61977605976408e-05
2.03703703703704e-01 6.14355517883344e-01 3.84202558155415e-05
2.11111111111111e-01 6.14348373084849e-01 4.05446487553852e-05
2.18518518518519e-01 6.14340957564228e-01 4.27074164300907e-05
2.25925925925926e-01 6.14333270606441e-01 4.49058957226666e-05
2.33333333333333e-01 6.14325311479492e-01 4.71394838887866e-05
2.40740740740741e-01 6.14317079430393e-01 4.94076361782125e-05
2.48148148148148e-01 6.14308573681835e-01 5.17098607414285e-05
2.55555555555556e-01 6.14299793429440e-01 5.40457141219993e-05
2.62962962962963e-01 6.14290737839494e-01 5.64147972278716e-05
2.70370370370370e-01 6.14281406047086e-01 5.88167510211852e-05
2.77777777777778e-01 6.14271797154804e-01 6.12512221684079e-05
2.85185185185185e-01 6.14261910241453e-01 6.37176364915849e-05
2.92592592592593e-01 6.14251744431603e-01 6.62147616291814e-05
3.00000000000000e-01 6.14241299036119e-01 6.87967076856206e-05
3.07407407407407e-01 6.14230557947792e-01 7.17208389027720e-05
3.14814814814815e-01 6.14219444256117e-01 7.53180565046828e-05
3.22222222222222e-01 6.14207843500631e-01 7.96737035383158e-05
3.29629629629630e-01 6.14195657294668e-01 8.47052599702822e-05
3.37037037037037e-01 6.14182801513728e-01 9.03372492482109e-05
3.44444444444444e-01 6.14169204702089e-01 9.65005683079035e-05
3.51851851851852e-01 6.14154806667796e-01 1.03131892509876e-04
3.59259259259259e-01 6.14139557241637e-01 1.10173142532755e-04
3.66666666666667e-01 6.14123415179270e-01 1.17571005683588e-04
3.74074074074074e-01 6.14106347188579e-01 1.25276504131243e-04
3.81481481481481e-01 6.14088327067181e-01 1.33244573120022e-04
3.88888888888889e-01 6.14069334945623e-01 1.41433519870998e-04
3.96296296296296e-01 6.14049356659147e-01 1.49804499093080e-04
4.03703703703704e-01 6.14028383204457e-01 1.58317135016956e-04
4.11111111111111e-01 6.14006419350519e-01 1.67407350608548e-04
4.18518518518519e-01 6.13983339854154e-01 1.77480622241425e-04
4.25925925925926e-01 6.13959036197551e-01 1.88432404339428e-04
4.33333333333333e-01 6.13933415706909e-01 2.00163887655204e-04
4.40740740740741e-01 6.13906399845089e-01 2.12584991610392e-04
4.48148148148148e-01 6.13877922675669e-01 2.25613669405485e-04
4.55555555555556e-01 6.13847929480105e-01 2.39175273274056e-04
4.62962962962963e-01 6.13816375511853e-01 2.53201974136119e-04
4.70370370370370e-01 6.13783224873146e-01 2.67632230354198e-04
4.77777777777778e-01 6.13748449501766e-01 2.82410292139795e-04
4.85185185185185e-01 6.13712028258851e-01 2.97485686714728e-04
4.92592592592593e-01 6.13673946120694e-01 3.12812686370275e-04
5.00000000000000e-01 6.13634193465339e-01 3.28212088550803e-04
5.07407407407407e-01 6.13592802555632e-01 3.43549269732621e-04
5.14814814814815e-01 6.13549799571843e-01 3.59004511267683e-04
5.22222222222222e-01 6.13505168798965e-01 3.74706969499391e-04
5.29629629629630e-01 6.13458901429837e-01 3.90602471047666e-04
5.37037037037037e-01 6.13410994822145e-01 4.06641475789751e-04
5.44444444444445e-01 6.13361451819241e-01 4.22778767665069e-04
5.51851851851852e-01 6.13310280129759e-01 4.38973164400710e-04
5.59259259259259e-01 6.13257491760888e-01 4.55187247302560e-04
5.66666666666667e-01 6.13203102500630e-01 4.71387109544192e-04
5.74074074074074e-01 6.13147131444831e-01 4.87542120939858e-04
5.81481481481481e-01 6.13089600565291e-01 5.03624693475447e-04
5.88888888888889e-01 6.13030534318999e-01 5.19610000208281e-04
5.96296296296296e-01 6.12969959306223e-01 5.35475728045496e-04
6.03703703703704e-01 6.12907903957085e-01 5.51911723057973e-04
6.11111111111111e-01 6.12844236555500e-01 5.70877269752437e-04
6.18518518518519e-01 6.12778542898278e-01 5.94061802483088e-04
6.25925925925926e-01 6.12710318610527e-01 6.21656173894843e-04
6.33333333333333e-01 6.12639120419706e-01 6.53199601887026e-04
6.40740740740741e-01 6.12564560668331e-01 6.88267185364051e-04
6.48148148148148e-01 6.12486302300997e-01 7.26467191361283e-04
6.55555555555556e-01 6.12404054284404e-01 7.67438545799988e-04
6.62962962962963e-01 6.12317567422961e-01 8.10848511400667e-04
6.70370370370370e-01 6.12226630535901e-01 8.56390537977814e-04
6.77777777777778e-01 6.12131066964957e-01 9.03782267026470e-04
6.85185185185185e-01 6.12030731385433e-01 9.52763651393631e-04
6.92592592592593e-01 6.11925506901163e-01 1.00309519413829e-03
7.00000000000000e-01 6.11815302396864e-01 1.05439604541168e-03
7.07407407407407e-01 6.11700087285193e-01 1.10726155526595e-03
7.14814814814815e-01 6.11579648052602e-01 1.16482641932191e-03
7.22222222222222e-01 6.11453290168762e-01 1.23031459106529e-03
7.29629629629630e-01 6.11320128462824e-01 1.30422895648181e-03
7.37037037037037e-01 6.11179382666280e-01 1.38570320343012e-03
7.44444444444444e-01 6.11030369411233e-01 1.47392730404767e-03
7.51851851851852e-01 6.10872494800168e-01 1.56814406508563e-03
7.59259259259259e-01 6.10705247507516e-01 1.66764587442944e-03
7.66666666666667e-01 6.10528192376416e-01 1.77177163102222e-03
7.74074074074074e-01 6.10340964476705e-01 1.87990384645101e-03
7.81481481481482e-01 6.10143263592808e-01 1.99146589463095e-03
7.88888888888889e-01 6.09934849115285e-01 2.10591936232413e-03
7.96296296296296e-01 6.09715535317202e-01 2.22276160306926e-03
8.03703703703704e-01 6.09485186966899e-01 2.34133393968464e-03
8.11111111111111e-01 6.09243753460078e-01 2.45987902803667e-03
8.18518518518519e-01 6.08991453072311e-01 2.57605501402147e-03
8.25925925925926e-01 6.08728700103576e-01 2.68888101799809e-03
8.33333333333333e-01 6.08455899596713e-01 2.79839720190316e-03
8.40740740740741e-01 6.08173447301037e-01 2.90464622026541e-03
8.48148148148148e-01 6.07881729624013e-01 3.00767329623159e-03
8.55555555555556e-01 6.07581123574478e-01 3.10752626847788e-03
8.62962962962963e-01 6.07271996700274e-01 3.20425561372699e-03
8.70370370370370e-01 6.06954707022666e-01 3.29791444842564e-03
8.77777777777778e-01 6.06629602969583e-01 3.38855850827181e-03
8.85185185185185e-01 6.06297023310301e-01 3.47624608392400e-03
8.92592592592593e-01 6.05957297098245e-01 3.56103794797236e-03
9.00000000000000e-01 6.05610743616459e-01 3.64300795699059e-03
9.07407407407407e-01 6.05257670279923e-01 3.72331292050778e-03
9.14814814814815e-01 6.04898167855667e-01 3.80402614472525e-03
9.22222222222222e-01 6.04532143651741e-01 3.88597069914976e-03
9.29629629629630e-01 6.04159531463412e-01 3.96894198410735e-03
9.37037037037037e-01 6.03780278432319e-01 4.05280595583560e-03
9.44444444444445e-01 6.03394344325183e-01 4.13743430302927e-03
9.51851851851852e-01 6.03001700827983e-01 4.22270442543998e-03
9.59259259259259e-01 6.02602330856589e-01 4.30849939681378e-03
9.66666666666667e-01 6.02196227884698e-01 4.39470791337323e-03
9.74074074074074e-01 6.01783395289827e-01 4.48122422660448e-03
9.81481481481482e-01 6.01363845718510e-01 4.56794802745671e-03
9.88888888888889e-01 6.00937600478463e-01 4.65478420578197e-03
9.96296296296296e-01 6.00504688974428e-01 4.74164281111707e-03
1.00370370370370e+00 6.00065148124021e-01 4.83455209638023e-03
1.01111111111111e+00 5.99617847444836e-01 4.94646831426490e-03
1.01851851851852e+00 5.99160460099784e-01 5.08751417221597e-03
1.02592592592593e+00 5.98690091075146e-01 5.25982945211833e-03
1.03333333333333e+00 5.98204069300343e-01 5.46125158043927e-03
1.04074074074074e+00 5.97699939049409e-01 5.68968219231125e-03
1.04814814814815e+00 5.97175451397134e-01 5.94308831888386e-03
1.05555555555556e+00 5.96628555726100e-01 6.21950356212102e-03
1.06296296296296e+00 5.96057391283333e-01 6.51702923497145e-03
1.07037037037037e+00 5.95460278787009e-01 6.83383545021626e-03
1.07777777777778e+00 5.94835712085113e-01 7.16816214386152e-03
1.08518518518519e+00 5.94182349869136e-01 7.51832002080559e-03
1.09259259259259e+00 5.93499007446936e-01 7.88269140836073e-03
1.10000000000000e+00 5.92784648580431e-01 8.26294677773745e-03
1.10740740740741e+00 5.92037718054992e-01 8.66205472748786e-03
1.11481481481481e+00 5.91256565465420e-01 9.07752957403130e-03
1.12222222222222e+00 5.90440165915909e-01 9.50561578963383e-03
1.12962962962963e+00 5.89587634380802e-01 9.94497552846373e-03
1.13703703703704e+00 5.88698190647119e-01 1.03944861961558e-02
1.14444444444444e+00 5.87771154336483e-01 1.08530703200423e-02
1.15185185185185e+00 5.86805940011203e-01 1.13196953812783e-02
1.15925925925926e+00 5.85802052371163e-01 1.17933735454099e-02
1.16666666666667e+00 5.84759081547287e-01 1.22731613010537e-02
1.17407407407407e+00 5.83676698496473e-01 1.27581590157831e-02
1.18148148148148e+00 5.82554650502154e-01 1.32475104179033e-02
1.18888888888889e+00 5.81392756783849e-01 1.37404020103260e-02
1.19629629629630e+00 5.80190904218794e-01 1.42360624039418e-02
1.20370370370370e+00 5.78949043181206e-01 1.47478059393632e-02
1.21111111111111e+00 5.77664292360324e-01 1.52763383420899e-02
1.21851851851852e+00 5.76336441803924e-01 1.58075522947896e-02
1.22592592592593e+00 5.74965497045295e-01 1.63401073320437e-02
1.23333333333333e+00 5.73551473677949e-01 1.68738457180064e-02
1.24074074074074e+00 5.72094400043831e-01 1.74085784128120e-02
1.24814814814815e+00 5.70594319756266e-01 1.79440867516473e-02
1.25555555555556e+00 5.69051294063621e-01 1.84801240807903e-02
1.26296296296296e+00 5.67465404059363e-01 1.90164173507384e-02
1.27037037037037e+00 5.65836752744218e-01 1.95526686647998e-02
1.27777777777778e+00 5.64165466946121e-01 2.00885567813031e-02
1.28518518518519e+00 5.62451699103737e-01 2.06237385676206e-02
1.29259259259259e+00 5.60695628919321e-01 2.11578504054688e-02
1.30000000000000e+00 5.58897464886527e-01 2.16898140597621e-02
1.30740740740741e+00 5.57057681378472e-01 2.22214001321494e-02
1.31481481481481e+00 5.55176315123016e-01 2.27588423076382e-02
1.32222222222222e+00 5.53252686449009e-01 2.33055015782694e-02
1.32962962962963e+00 5.51286152621364e-01 2.38608809962248e-02
1.33703703703704e+00 5.49276119994967e-01 2.44243936613943e-02
1.34444444444444e+00 5.47222046212524e-01 2.49954250929430e-02
1.35185185185185e+00 5.45123441897641e-01 2.55733391383509e-02
1.35925925925926e+00 5.42979871856971e-01 2.61574837647884e-02
1.36666666666667e+00 5.40790955806712e-01 2.67471967128847e-02
1.37407407407407e+00 5.38556368639983e-01 2.73418109957638e-02
1.38148148148148e+00 5.36275840252615e-01 2.79406602288722e-02
1.38888888888889e+00 5.33949154945635e-01 2.85430837788044e-02
1.39629629629630e+00 5.31576150423325e-01 2.91484317215142e-02
1.40370370370370e+00 5.29156716406123e-01 2.97565648800060e-02
1.41111111111111e+00 5.26690711589636e-01 3.03678445188372e-02
1.41851851851852e+00 5.24177964505628e-01 3.09821470429205e-02
1.42592592592593e+00 5.21618352367781e-01 3.15988739310904e-02
1.43333333333333e+00 5.19011799802487e-01 3.22174333173829e-02
1.44074074074074e+00 5.16358278512468e-01 3.28372355507099e-02
1.44814814814815e+00 5.13657806753911e-01 3.34576954721500e-02
1.45555555555556e+00 5.10910448646156e-01 3.40782344811090e-02
1.46296296296296e+00 5.08116313331734e-01 3.46982824021401e-02
1.47037037037037e+00 5.05275554003464e-01 3.53172791638051e-02
1.47777777777778e+00 5.02388366814178e-01 3.59346763005602e-02
1.48518518518519e+00 4.99454989683634e-01 3.65499382871282e-02
1.49259259259259e+00 4.96475701016357e-01 3.71625437040758e-02
1.50000000000000e+00 4.93450818344867e-01 3.77769259381814e-02
1.50740740740741e+00 4.90379485297483e-01 3.83965372418185e-02
1.51481481481481e+00 4.87261019188729e-01 3.90139681181100e-02
1.52222222222222e+00 4.84096143801834e-01 3.96233758962736e-02
1.52962962962963e+00 4.80885526961257e-01 4.02253884441646e-02
1.53703703703704e+00 4.77629784865688e-01 4.08205653437191e-02
1.54444444444444e+00 4.74329489245120e-01 4.14093821401826e-02
1.55185185185185e+00 4.70985174155113e-01 4.19922343659231e-02
1.55925925925926e+00 4.67597342413991e-01 4.25694415301402e-02
1.56666666666667e+00 4.64166471689112e-01 4.31412510673723e-02
1.57407407407407e+00 4.60693020238795e-01 4.37078422372835e-02
1.58148148148148e+00 4.57177432316950e-01 4.42693299681262e-02
1.58888888888889e+00 4.53620143247914e-01 4.48257686270601e-02
1.59629629629630e+00 4.50021584180964e-01 4.53771556172214e-02
1.60370370370370e+00 4.46382186547674e-01 4.59712975805718e-02
1.61111111111111e+00 4.42692740186932e-01 4.66280250623436e-02
1.61851851851852e+00 4.38950446011479e-01 4.73249126966607e-02
1.62592592592593e+00 4.35151663420817e-01 4.80659295217248e-02
1.63333333333333e+00 4.31292962462917e-01 4.88484191612433e-02
1.64074074074074e+00 4.27371127072926e-01 4.96696872298164e-02
1.64814814814815e+00 4.23383157108361e-01 5.05270167314072e-02
1.65555555555556e+00 4.19326269187782e-01 5.14176833487635e-02
1.66296296296296e+00 4.15197896345579e-01 5.23389705544207e-02
1.67037037037037e+00 4.10995686520322e-01 5.32881844827288e-02
1.67777777777778e+00 4.06717499898369e-01 5.42626685090286e-02
1.68518518518519e+00 4.02361405138188e-01 5.52598174837897e-02
1.69259259259259e+00 3.97925674504826e-01 5.62770915301463e-02
1.70000000000000e+00 3.93408777954043e-01 5.73353811850073e-02
1.70740740740741e+00 3.88804403134617e-01 5.84349993248158e-02
1.71481481481481e+00 3.84109612814992e-01 5.95103869285073e-02
1.72222222222222e+00 3.79329684603037e-01 6.05186944806971e-02
1.72962962962963e+00 3.74469766380438e-01 6.14616292466518e-02
1.73703703703704e+00 3.69534875057356e-01 6.23409207826305e-02
1.74444444444444e+00 3.64529894431129e-01 6.31583239358461e-02
1.75185185185185e+00 3.59459573413558e-01 6.39156140239104e-02
1.75925925925926e+00 3.54328524609280e-01 6.46145822525267e-02
1.76666666666667e+00 3.49141223227371e-01 6.52570313724080e-02
1.77407407407407e+00 3.43902006308506e-01 6.58447715722707e-02
1.78148148148148e+00 3.38615072250316e-01 6.63796166029342e-02
1.78888888888889e+00 3.33284480614074e-01 6.68633800440856e-02
1.79629629629630e+00 3.27914152209434e-01 6.72978709088635e-02
1.80370370370370e+00 3.22507869569267e-01 6.80036975300512e-02
1.81111111111111e+00 3.16997300811574e-01 6.89596949595841e-02
1.81851851851852e+00 3.11388662685918e-01 6.98303195315711e-02
1.82592592592593e+00 3.05688108922548e-01 7.06169676762938e-02
1.83333333333333e+00 2.99901808332380e-01 7.13206477581054e-02
1.84074074074074e+00 2.94035926886549e-01 7.19425705207148e-02
1.84814814814815e+00 2.88096610283294e-01 7.24841385716552e-02
1.85555555555556e+00 2.82089967009826e-01 7.29469360612340e-02
1.86296296296296e+00 2.76022051900984e-01 7.33327185915559e-02
1.87037037037037e+00 2.69898850195830e-01 7.36434033591614e-02
1.87777777777778e+00 2.63726262092579e-01 7.38810595364889e-02
1.88518518518519e+00 2.57510087801326e-01 7.40478989094581e-02
1.89259259259259e+00 2.51256013091186e-01 7.41462668935711e-02
1.90000000000000e+00 2.44969595309605e-01 7.41450089059389e-02
1.90740740740741e+00 2.38663588718410e-01 7.39944088612776e-02
1.91481481481481e+00 2.32353863277233e-01 7.36923748040732e-02
1.92222222222222e+00 2.26052191385278e-01 7.32563044685028e-02
1.92962962962963e+00 2.19770119843952e-01 7.26905038368380e-02
1.93703703703704e+00 2.13518938965022e-01 7.19995636448685e-02
1.94444444444444e+00 2.07309654055136e-01 7.11883232479488e-02
1.95185185185185e+00 2.01152959815044e-01 7.02618315906976e-02
1.95925925925926e+00 1.95059217756408e-01 6.92253079467114e-02
1.96666666666667e+00 1.89038436722032e-01 6.80841026329072e-02
1.97407407407407e+00 1.83100256578541e-01 6.68436578851230e-02
1.98148148148148e+00 1.77253935136223e-01 6.55094690050025e-02
1.98888888888889e+00 1.71508338353101e-01 6.40870458607277e-02
1.99629629629630e+00 1.65871933871760e-01 6.25818756284350e-02
2.00370370370370e+00 1.60352787706330e-01 6.10000821901542e-02
2.01111111111111e+00 1.54961117221172e-01 5.93897327032884e-02
2.01851851851852e+00 1.49696301496333e-01 5.77939616612085e-02
2.02592592592593e+00 1.44558101284500e-01 5.62113996581982e-02
2.03333333333333e+00 1.39546123932906e-01 5.46436017974823e-02
2.04074074074074e+00 1.34659831668647e-01 5.30920123108159e-02
2.04814814814815e+00 1.29898549747143e-01 5.15579677751013e-02
2.05555555555556e+00 1.25261474454561e-01 5.00427003729409e-02
2.06296296296296e+00 1.20747680956285e-01 4.85473411843099e-02
2.07037037037037e+00 1.16356130984302e-01 4.70729234995206e-02
2.07777777777778e+00 1.12085680357159e-01 4.56203861442359e-02
2.08518518518519e+00 1.07935086326884e-01 4.41905768254043e-02
2.09259259259259e+00 1.03903014744716e-01 4.27842556711471e-02
2.10000000000000e+00 9.99880470077130e-02 4.13732383050153e-02
2.10740740740741e+00 9.61986046310876e-02 3.99376900427722e-02
2.11481481481481e+00 9.25408992198520e-02 3.85217369863645e-02
2.12222222222222e+00 8.90099731666082e-02 3.71599938807663e-02
2.12962962962963e+00 8.56010292941278e-02 3.58506706682080e-02
2.13703703703704e+00 8.23094254040869e-02 3.45920383003086e-02
2.14444444444444e+00 7.91306689993607e-02 3.33824268953990e-02
2.15185185185185e+00 7.60604121551225e-02 3.22202240574824e-02
2.15925925925926e+00 7.30944465336056e-02 3.11038732432001e-02
2.16666666666667e+00 7.02286985389728e-02 3.00318721678641e-02
2.17407407407407e+00 6.74592246088343e-02 2.90027712496625e-02
2.18148148148148e+00 6.47822066390404e-02 2.80151720913762e-02
2.18888888888889e+00 6.21939475384278e-02 2.70677260090885e-02
2.19629629629630e+00 5.96908669083709e-02 2.61591327078755e-02
2.20370370370370e+00 5.72694968249943e-02 2.52692065218321e-02
2.21111111111111e+00 5.49319858126420e-02 2.43855846208581e-02
2.21851851851852e+00 5.26769873479963e-02 2.35169787111976e-02
2.22592592592593e+00 5.05030022633693e-02 2.26643765218812e-02
2.23333333333333e+00 4.84085003389593e-02 2.18280900540358e-02
2.24074074074074e+00 4.63919258551021e-02 2.10083726434508e-02
2.24814814814815e+00 4.44517029746379e-02 2.02054207804786e-02
2.25555555555556e+00 4.25862409529822e-02 1.94193759490016e-02
2.26296296296296e+00 4.07939391754004e-02 1.86503264677394e-02
2.27037037037037e+00 3.90731920221793e-02 1.78983093213436e-02
2.27777777777778e+00 3.74223935635142e-02 1.71633119693799e-02
2.28518518518519e+00 3.58399420870011e-02 1.64452741218721e-02
2.29259259259259e+00 3.43242444616465e-02 1.57440894699423e-02
2.30000000000000e+00 3.28737203434046e-02 1.50606647739988e-02
2.30740740740741e+00 3.14868549129487e-02 1.43997132230680e-02
2.31481481481481e+00 3.01613852424537e-02 1.37673385667392e-02
2.32222222222222e+00 2.88943594730398e-02 1.31651478876124e-02
2.32962962962963e+00 2.76829703049000e-02 1.25916771308267e-02
2.33703703703704e+00 2.65245476045305e-02 1.20455363833821e-02
