Energy (eV)          EEDF (eV^-(3/2))     First Anisotropy
3.71428571428571e-04 2.13102452037401e+02 7.98687137219612e-02
1.11428571428571e-03 2.07911839141257e+02 1.30719203030434e-01
1.85714285714286e-03 2.02847655862927e+02 1.69500609812337e-01
2.60000000000000e-03 1.97906822716783e+02 1.97162674659740e-01
3.34285714285714e-03 1.93086335217467e+02 2.18788492545447e-01
4.08571428571429e-03 1.88383262062389e+02 2.36353755417555e-01
4.82857142857143e-03 1.83794743346708e+02 2.50907622485717e-01
5.57142857142857e-03 1.79317988828443e+02 2.63099354416800e-01
6.31428571428571e-03 1.74950276226728e+02 2.73369695580042e-01
7.05714285714286e-03 1.70688949567515e+02 2.82037110475334e-01
7.80000000000000e-03 1.66531417571211e+02 2.89342306786348e-01
8.54285714285714e-03 1.62475152073881e+02 2.95473512825487e-01
9.28571428571429e-03 1.58517686491015e+02 3.00581877292112e-01
1.00285714285714e-02 1.54656614317062e+02 3.04791378076405e-01
1.07714285714286e-02 1.50889587663763e+02 3.08205483171427e-01
1.15142857142857e-02 1.47214315832339e+02 3.10911790868216e-01
1.22571428571429e-02 1.43628563913260e+02 3.12985363711520e-01
1.30000000000000e-02 1.40130151442114e+02 3.14491182173808e-01
1.37428571428571e-02 1.36716951056801e+02 3.15485992869690e-01
1.44857142857143e-02 1.33386887219617e+02 3.16019727321046e-01
1.52285714285714e-02 1.30137934940487e+02 3.16136608875418e-01
1.59714285714286e-02 1.26968118559268e+02 3.15876030443107e-01
1.67142857142857e-02 1.23875510534231e+02 3.15273257163905e-01
1.74571428571429e-02 1.20858230271174e+02 3.14360000840411e-01
1.82000000000000e-02 1.17914442987240e+02 3.13164888552766e-01
1.89428571428571e-02 1.15042358585276e+02 3.11713852733195e-01
1.96857142857143e-02 1.12240230574656e+02 3.10030457536635e-01
2.04285714285714e-02 1.09506355000407e+02 3.08136173975666e-01
2.11714285714286e-02 1.06839069415411e+02 3.06050614273241e-01
2.19142857142857e-02 1.04236751863269e+02 3.03791731018957e-01
2.26571428571429e-02 1.01697819892642e+02 3.01375991286011e-01
2.34000000000000e-02 9.92207295997723e+01 2.98818525092917e-01
2.41428571428571e-02 9.68039746832297e+01 2.96133255834481e-01
2.48857142857143e-02 9.44460855340447e+01 2.93333014388149e-01
2.56285714285714e-02 9.21456283362448e+01 2.90429639372211e-01
2.63714285714286e-02 8.99012042004881e+01 2.87434066051484e-01
2.71142857142857e-02 8.77114483092974e+01 2.84356404163802e-01
2.78571428571429e-02 8.55750290874995e+01 2.81206009176358e-01
2.86000000000000e-02 8.34906473957878e+01 2.77991544131257e-01
2.93428571428571e-02 8.14570357363429e+01 2.74721035969756e-01
3.00857142857143e-02 7.94729574862646e+01 2.71401926103222e-01
3.08285714285714e-02 7.75372061415879e+01 2.68041115969760e-01
3.15714285714286e-02 7.56486045874449e+01 2.64645008477767e-01
3.23142857142857e-02 7.38060043794197e+01 2.61219544805537e-01
3.30571428571429e-02 7.20082850454240e+01 2.57770239362680e-01
3.38000000000000e-02 7.02543534066751e+01 2.54302210221546e-01
3.45428571428571e-02 6.85431429098372e+01 2.50820207595502e-01
3.52857142857143e-02 6.68736129814353e+01 2.47328639815035e-01
3.60285714285714e-02 6.52447483922356e+01 2.43831597105756e-01
3.67714285714286e-02 6.36555586426304e+01 2.40332873598667e-01
3.75142857142857e-02 6.21050773582825e+01 2.36835986974059e-01
3.82571428571429e-02 6.05923617026380e+01 2.33344197738358e-01
3.90000000000000e-02 5.91164918052866e+01 2.29860525893714e-01
3.97428571428571e-02 5.76765702003401e+01 2.26387766891484e-01
4.04857142857143e-02 5.62717212828575e+01 2.22928506324098e-01
4.12285714285714e-02 5.49010907743132e+01 2.19485133517281e-01
4.19714285714286e-02 5.35638452051193e+01 2.16059854268750e-01
4.27142857142857e-02 5.22591714063062e+01 2.12654702207220e-01
4.34571428571429e-02 5.09862760151492e+01 2.09271550279966e-01
4.42000000000000e-02 4.97443849939838e+01 2.05912120557277e-01
4.49428571428571e-02 4.85327431578501e+01 2.02577993803522e-01
4.56857142857143e-02 4.73506137168774e+01 1.99270618340171e-01
4.64285714285714e-02 4.61972778267007e+01 1.95991318304376e-01
4.71714285714286e-02 4.50720341528267e+01 1.92741301460656e-01
4.79142857142857e-02 4.39741984430470e+01 1.89521666130123e-01
4.86571428571429e-02 4.29031031114257e+01 1.86333408406950e-01
4.94000000000000e-02 4.18580968332875e+01 1.83177428205962e-01
5.01428571428571e-02 4.08385441478981e+01 1.80054535277025e-01
5.08857142857143e-02 3.98438250732542e+01 1.76965454789544e-01
5.16285714285714e-02 3.88733347279114e+01 1.73910832561250e-01
5.23714285714286e-02 3.79264829642846e+01 1.70891240039413e-01
5.31142857142857e-02 3.70026940089454e+01 1.67907178680634e-01
5.38571428571429e-02 3.61014061125540e+01 1.64959084650376e-01
5.46000000000000e-02 3.52220712089797e+01 1.62047332671771e-01
5.53428571428571e-02 3.43641545810728e+01 1.59172239924477e-01
5.60857142857143e-02 3.35271345364273e+01 1.56334069666814e-01
5.68285714285714e-02 3.27105020892556e+01 1.53533034637879e-01
5.75714285714286e-02 3.19137606517351e+01 1.50769300317276e-01
5.83142857142857e-02 3.11364257313980e+01 1.48042987756453e-01
5.90571428571429e-02 3.03780246365556e+01 1.45354176714345e-01
5.98000000000000e-02 2.96380961894073e+01 1.42702908154420e-01
6.05428571428571e-02 2.89161904448709e+01 1.40089186823337e-01
6.12857142857143e-02 2.82118684176808e+01 1.37512983643631e-01
6.20285714285714e-02 2.75247018147617e+01 1.34974237965217e-01
6.27714285714286e-02 2.68542727754466e+01 1.32472859733144e-01
6.35142857142857e-02 2.62001736168866e+01 1.30008731340658e-01
6.42571428571429e-02 2.55620065861726e+01 1.27581709754291e-01
6.50000000000000e-02 2.49393836188898e+01 1.25191628149426e-01
6.57428571428571e-02 2.43319261025729e+01 1.22838297635500e-01
6.64857142857143e-02 2.37392646470219e+01 1.20521508852071e-01
6.72285714285714e-02 2.31610388591495e+01 1.18241033471868e-01
6.79714285714286e-02 2.25968971243405e+01 1.15996625654193e-01
6.87142857142857e-02 2.20464963922560e+01 1.13788023261950e-01
6.94571428571429e-02 2.15095019682499e+01 1.11614949314559e-01
7.02000000000000e-02 2.09855873101748e+01 1.09477113060053e-01
7.09428571428571e-02 2.04744338293737e+01 1.07374211134117e-01
7.16857142857143e-02 1.99757306973745e+01 1.05305928627238e-01
7.24285714285714e-02 1.94891746564657e+01 1.03271940089400e-01
7.31714285714286e-02 1.90144698356865e+01 1.01271910505576e-01
7.39142857142857e-02 1.85513275706118e+01 9.93054960907689e-02
7.46571428571429e-02 1.80994662278360e+01 9.73723452862423e-02
7.54000000000000e-02 1.76586110339717e+01 9.54720994563253e-02
7.61428571428572e-02 1.72284939082187e+01 9.36043936648737e-02
7.68857142857143e-02 1.68088532996785e+01 9.17688573851188e-02
7.76285714285714e-02 1.63994340279852e+01 8.99651151670479e-02
7.83714285714286e-02 1.59999871284443e+01 8.81927872880990e-02
7.91142857142857e-02 1.56102697004062e+01 8.64514902644008e-02
7.98571428571429e-02 1.52300447595734e+01 8.47408375320020e-02
8.06000000000000e-02 1.48590810940958e+01 8.30604398907715e-02
8.13428571428571e-02 1.44971531237018e+01 8.14099060190571e-02
8.20857142857143e-02 1.41440407627868e+01 7.97888429393931e-02
8.28285714285714e-02 1.37995292863268e+01 7.81968564551032e-02
8.35714285714286e-02 1.34634091995519e+01 7.66335515779667e-02
8.43142857142857e-02 1.31354761103702e+01 7.50985328471166e-02
8.50571428571429e-02 1.28155306050892e+01 7.35914047907394e-02
8.58000000000000e-02 1.25033781273147e+01 7.21117721985037e-02
8.65428571428571e-02 1.21988288594281e+01 7.06592404557224e-02
8.72857142857143e-02 1.19016976073677e+01 6.92334158411364e-02
8.80285714285714e-02 1.16118036878123e+01 6.78339058047032e-02
8.87714285714286e-02 1.13289708185035e+01 6.64603192412749e-02
8.95142857142857e-02 1.10530270109054e+01 6.51122666788172e-02
9.02571428571429e-02 1.07838044656265e+01 6.37893605861738e-02
9.10000000000000e-02 1.05211394705108e+01 6.24912155291531e-02
9.17428571428571e-02 1.02648723009155e+01 6.12174483798553e-02
9.24857142857143e-02 1.00148471227478e+01 5.99676784987501e-02
9.32285714285714e-02 9.77091189754486e+00 5.87415279030335e-02
9.39714285714286e-02 9.53291829017396e+00 5.75386214338618e-02
9.47142857142857e-02 9.30072157851627e+00 5.63585868560536e-02
9.54571428571429e-02 9.07418056546849e+00 5.52010550576508e-02
9.62000000000000e-02 8.85315749318353e+00 5.40656601274581e-02
9.69428571428572e-02 8.63751795916595e+00 5.29520394781427e-02
9.76857142857143e-02 8.42713083467378e+00 5.18598339488029e-02
9.84285714285714e-02 8.22186818485313e+00 5.07886878981891e-02
9.91714285714286e-02 8.02160519106511e+00 4.97382492986001e-02
9.99142857142857e-02 7.82622007489270e+00 4.87081698023212e-02
1.00657142857143e-01 7.63559402417265e+00 4.76981047941071e-02
1.01400000000000e-01 7.44961112061023e+00 4.67077133802594e-02
1.02142857142857e-01 7.26815826915200e+00 4.57366587285220e-02
1.02885714285714e-01 7.09112512994908e+00 4.47846079047730e-02
1.03628571428571e-01 6.91840405048176e+00 4.38512317711609e-02
1.04371428571429e-01 6.74989000036149e+00 4.29362052652474e-02
1.05114285714286e-01 6.58548050746237e+00 4.20392073488770e-02
1.05857142857143e-01 6.42507559560930e+00 4.11599210338706e-02
1.06600000000000e-01 6.26857772378284e+00 4.02980333347473e-02
1.07342857142857e-01 6.11589172660535e+00 3.94532354918362e-02
1.08085714285714e-01 5.96692475708285e+00 3.86252228376911e-02
1.08828571428571e-01 5.82158622952236e+00 3.78136946797703e-02
1.09571428571429e-01 5.67978776465922e+00 3.70183545036250e-02
1.10314285714286e-01 5.54144313591407e+00 3.62389099060173e-02
1.11057142857143e-01 5.40646821695963e+00 3.54750725919208e-02
1.11800000000000e-01 5.27478093056383e+00 3.47265583123786e-02
1.12542857142857e-01 5.14630119851884e+00 3.39930870253864e-02
1.13285714285714e-01 5.02095089343657e+00 3.32743827642950e-02
1.14028571428571e-01 4.89865379074005e+00 3.25701735204963e-02
1.14771428571429e-01 4.77933552248176e+00 3.18801913900084e-02
1.15514285714286e-01 4.66292353212082e+00 3.12041724988924e-02
1.16257142857143e-01 4.54934703040236e+00 3.05418569817996e-02
1.17000000000000e-01 4.43853695231081e+00 2.98929889124862e-02
1.17742857142857e-01 4.33042591494303e+00 2.92573164184262e-02
1.18485714285714e-01 4.22494817692762e+00 2.86345915553108e-02
1.19228571428571e-01 4.12203959804616e+00 2.80245701939948e-02
1.19971428571429e-01 4.02163760036657e+00 2.74270121249370e-02
1.20714285714286e-01 3.92368113018985e+00 2.68416809812825e-02
1.21457142857143e-01 3.82811062092405e+00 2.62683442061375e-02
1.22200000000000e-01 3.73486795686213e+00 2.57067729807728e-02
1.22942857142857e-01 3.64389643773825e+00 2.51567423049058e-02
1.23685714285714e-01 3.55514074456655e+00 2.46180308796401e-02
1.24428571428571e-01 3.46854690567824e+00 2.40904210011915e-02
1.25171428571429e-01 3.38406226401189e+00 2.35736986340220e-02
1.25914285714286e-01 3.30163544509293e+00 2.30676533350844e-02
1.26657142857143e-01 3.22121632579347e+00 2.25720782148357e-02
1.27400000000000e-01 3.14275600385265e+00 2.20867698664194e-02
1.28142857142857e-01 3.06620676805568e+00 2.16115284205652e-02
1.28885714285714e-01 2.99152206947740e+00 2.11461574381379e-02
1.29628571428571e-01 2.91865649291497e+00 2.06904638119931e-02
1.30371428571429e-01 2.84756572935994e+00 2.02442578169416e-02
1.31114285714286e-01 2.77820654905426e+00 1.98073530373583e-02
1.31857142857143e-01 2.71053677520270e+00 1.93795663253849e-02
1.32600000000000e-01 2.64451525832542e+00 1.89607177331700e-02
1.33342857142857e-01 2.58010185116739e+00 1.85506305491026e-02
1.34085714285714e-01 2.51725738449253e+00 1.81491312003630e-02
1.34828571428571e-01 2.45594364305387e+00 1.77560491634748e-02
1.35571428571429e-01 2.39612334242697e+00 1.73712169972217e-02
1.36314285714286e-01 2.33776010633747e+00 1.69944702749125e-02
1.37057142857143e-01 2.28081844454104e+00 1.66256475421167e-02
1.37800000000000e-01 2.22526373124202e+00 1.62645902531963e-02
1.38542857142857e-01 2.17106218398274e+00 1.59111427939159e-02
1.39285714285714e-01 2.11818084326858e+00 1.55651523938846e-02
1.40028571428571e-01 2.06658755235449e+00 1.52264690458572e-02
1.40771428571429e-01 2.01625093774882e+00 1.48949455262037e-02
1.41514285714286e-01 1.96714039013529e+00 1.45704373325103e-02
1.42257142857143e-01 1.91922604575979e+00 1.42528026423891e-02
1.43000000000000e-01 1.87247876827040e+00 1.39419022549541e-02
1.43742857142857e-01 1.82687013095524e+00 1.36375996035904e-02
1.44485714285714e-01 1.78237239959255e+00 1.33397606778636e-02
1.45228571428571e-01 1.73895851544702e+00 1.30482539512956e-02
1.45971428571429e-01 1.69660207886268e+00 1.27629503928419e-02
1.46714285714286e-01 1.65527733320942e+00 1.24837234100837e-02
1.47457142857143e-01 1.61495914922069e+00 1.22104488100893e-02
1.48200000000000e-01 1.57562300971250e+00 1.19430047460911e-02
1.48942857142857e-01 1.53724499463854e+00 1.16812717232428e-02
1.49685714285714e-01 1.49980176665516e+00 1.14251325293882e-02
1.50428571428571e-01 1.46327055681742e+00 1.11744721708414e-02
1.51171428571429e-01 1.42762915077177e+00 1.09291778774567e-02
1.51914285714286e-01 1.39285587524765e+00 1.06891390513908e-02
1.52657142857143e-01 1.35892958487813e+00 1.04542472305888e-02
1.53400000000000e-01 1.32582964934162e+00 1.02243960406561e-02
1.54142857142857e-01 1.29353594078724e+00 9.99948119571264e-03
1.54885714285714e-01 1.26202882168516e+00 9.77940043731993e-03
1.55628571428571e-01 1.23128913279356e+00 9.56405347768048e-03
1.56371428571429e-01 1.20129818153918e+00 9.35334200023108e-03
1.57114285714286e-01 1.17203773065045e+00 9.14716961377371e-03
1.57857142857143e-01 1.14348998706761e+00 8.94544181888006e-03
1.58600000000000e-01 1.11563759112285e+00 8.74806596477733e-03
1.59342857142857e-01 1.08846360596009e+00 8.55495124686720e-03
1.60085714285714e-01 1.06195150730892e+00 8.36600865307181e-03
1.60828571428571e-01 1.03608517336188e+00 8.18115091381741e-03
1.61571428571429e-01 1.01084887499613e+00 8.00029249958550e-03
1.62314285714286e-01 9.86227266208731e-01 7.82334958010013e-03
1.63057142857143e-01 9.62205374784868e-01 7.65023999374972e-03
1.63800000000000e-01 9.38768593193341e-01 7.48088320920292e-03
1.64542857142857e-01 9.15902669684325e-01 7.31520032074718e-03
1.65285714285714e-01 8.93593699682592e-01 7.15311400131720e-03
1.66028571428571e-01 8.71828117271540e-01 6.99454845861761e-03
1.66771428571429e-01 8.50592686964472e-01 6.83942943068893e-03
1.67514285714286e-01 8.29874495656181e-01 6.68768414977831e-03
1.68257142857143e-01 8.09660944770621e-01 6.53924131474763e-03
1.69000000000000e-01 7.89939742599790e-01 6.39403105707560e-03
1.69742857142857e-01 7.70698896813320e-01 6.25198493486004e-03
1.70485714285714e-01 7.51926707214642e-01 6.11303589181977e-03
1.71228571428571e-01 7.33611758576682e-01 5.97711821892605e-03
1.71971428571429e-01 7.15742913717153e-01 5.84416754875655e-03
1.72714285714286e-01 6.98309306726104e-01 5.71412082364889e-03
1.73457142857143e-01 6.81300336358473e-01 5.58691627097817e-03
1.74200000000000e-01 6.64705659587533e-01 5.46249337317521e-03
1.74942857142857e-01 6.48515185302381e-01 5.34079286100191e-03
1.75685714285714e-01 6.32719068211298e-01 5.22175667785964e-03
1.76428571428571e-01 6.17307702814485e-01 5.10532794633098e-03
1.77171428571429e-01 6.02271717576755e-01 4.99145096187982e-03
1.77914285714286e-01 5.87601969228758e-01 4.88007116488319e-03
1.78657142857143e-01 5.73289537207054e-01 4.77113511860894e-03
1.79400000000000e-01 5.59325718229572e-01 4.66459048287274e-03
1.80142857142857e-01 5.45702020992589e-01 4.56038600702176e-03
1.80885714285714e-01 5.32410161039668e-01 4.45847149893250e-03
1.81628571428571e-01 5.19442055690911e-01 4.35879779590442e-03
1.82371428571429e-01 5.06789819139164e-01 4.26131675810457e-03
1.83114285714286e-01 4.94445757654699e-01 4.16598124408220e-03
1.83857142857143e-01 4.82402364906737e-01 4.07274509124787e-03
1.84600000000000e-01 4.70652317398897e-01 3.98156309280180e-03
1.85342857142857e-01 4.59188470007145e-01 3.89239099072808e-03
1.86085714285714e-01 4.48003851661419e-01 3.80518544891962e-03
1.86828571428571e-01 4.37091661079573e-01 3.71990402791096e-03
1.87571428571429e-01 4.26445262640734e-01 3.63650517834391e-03
1.88314285714286e-01 4.16058182350223e-01 3.55494821959039e-03
1.89057142857143e-01 4.05924103902783e-01 3.47519332252130e-03
1.89800000000000e-01 3.96036864841673e-01 3.39720148935578e-03
1.90542857142857e-01 3.86390452804219e-01 3.32093454687052e-03
1.91285714285714e-01 3.76979001887442e-01 3.24635512314369e-03
1.92028571428571e-01 3.67796789058954e-01 3.17342662566148e-03
1.92771428571429e-01 3.58838230684320e-01 3.10211323499182e-03
1.93514285714286e-01 3.50097879131690e-01 3.03237988616562e-03
1.94257142857143e-01 3.41570419459147e-01 2.96419225352157e-03
1.95000000000000e-01 3.33250666182723e-01 2.89751673314957e-03
1.95742857142857e-01 3.25133560117326e-01 2.83232043644777e-03
1.96485714285714e-01 3.17214165318059e-01 2.76857117002906e-03
1.97228571428571e-01 3.09487666060620e-01 2.70623741678281e-03
1.97971428571429e-01 3.01949363919029e-01 2.64528832987750e-03
1.98714285714286e-01 2.94594674908553e-01 2.58569371657880e-03
1.99457142857143e-01 2.87419126698228e-01 2.52742402496211e-03
2.00200000000000e-01 2.80418355891259e-01 2.47045032864864e-03
2.00942857142857e-01 2.73588105366906e-01 2.41474432078982e-03
2.01685714285714e-01 2.66924221706325e-01 2.36027829673117e-03
2.02428571428571e-01 2.60422652652077e-01 2.30702513765436e-03
2.03171428571429e-01 2.54079444649010e-01 2.25495830498086e-03
2.03914285714286e-01 2.47890740440136e-01 2.20405182633485e-03
2.04657142857143e-01 2.41852776721061e-01 2.15428028392490e-03
2.05400000000000e-01 2.35961881851551e-01 2.10561880129891e-03
2.06142857142857e-01 2.30214473618915e-01 2.05804303779736e-03
2.06885714285714e-01 2.24607057071645e-01 2.01152917361481e-03
2.07628571428571e-01 2.19136222381994e-01 1.96605389568974e-03
2.08371428571429e-01 2.13798642776612e-01 1.92159439254673e-03
2.09114285714286e-01 2.08591072513562e-01 1.87812834214023e-03
2.09857142857143e-01 2.03510344908611e-01 1.83563390172032e-03
2.10600000000000e-01 1.98553370409592e-01 1.79408969635920e-03
2.11342857142857e-01 1.93717134714458e-01 1.75347481388756e-03
2.12085714285714e-01 1.88998696948115e-01 1.71376879203678e-03
2.12828571428571e-01 1.84395187864113e-01 1.67495160628252e-03
2.13571428571429e-01 1.79903808103271e-01 1.63700366513763e-03
2.14314285714286e-01 1.75521826491399e-01 1.59990579964077e-03
2.15057142857143e-01 1.71246578378504e-01 1.56363925453590e-03
2.15800000000000e-01 1.67075464018428e-01 1.52818567834848e-03
2.16542857142857e-01 1.63005946985327e-01 1.49352711880029e-03
2.17285714285714e-01 1.59035552639343e-01 1.45964601175418e-03
2.18028571428571e-01 1.55161866613593e-01 1.42652517075228e-03
2.18771428571429e-01 1.51382533348799e-01 1.39414778275504e-03
2.19514285714286e-01 1.47695254660881e-01 1.36249739906443e-03
2.20257142857143e-01 1.44097788343458e-01 1.33155792766159e-03
2.21000000000000e-01 1.40587946804377e-01 1.30131362463534e-03
2.21742857142857e-01 1.37163595733281e-01 1.27174909005834e-03
2.22485714285714e-01 1.33822652810376e-01 1.24284925849064e-03
2.23228571428571e-01 1.30563086433450e-01 1.21459938998538e-03
2.23971428571429e-01 1.27382914484752e-01 1.18698506625732e-03
2.24714285714286e-01 1.24280203125686e-01 1.15999218285476e-03
2.25457142857143e-01 1.21253065620859e-01 1.13360694251462e-03
2.26200000000000e-01 1.18299661190769e-01 1.10781584776838e-03
2.26942857142857e-01 1.15418193890659e-01 1.08260569725430e-03
2.27685714285714e-01 1.12606911523860e-01 1.05796357756697e-03
2.28428571428571e-01 1.09864104570749e-01 1.03387685553179e-03
2.29171428571429e-01 1.07188105151091e-01 1.01033317477919e-03
2.29914285714286e-01 1.04577286009804e-01 9.87320449001132e-04
2.30657142857143e-01 1.02030059527446e-01 9.64826856197506e-04
2.31400000000000e-01 9.95448767547916e-02 9.42840832305006e-04
2.32142857142857e-01 9.71202264694616e-02 9.21351067915317e-04
2.32885714285714e-01 9.47546342614362e-02 9.00346501285595e-04
2.33628571428571e-01 9.24466616319221e-02 8.79816311708254e-04
2.34371428571429e-01 9.01949051201574e-02 8.59749916462704e-04
