Energy (eV)          EEDF (eV^-(3/2))     First Anisotropy
1.60000000000000e-02 8.56790943080884e-02 4.14542804352874e-05
4.80000000000000e-02 8.51879250590693e-02 6.84868304817039e-05
8.00000000000000e-02 8.46995715172917e-02 9.05005756151570e-05
1.12000000000000e-01 8.42140175411254e-02 1.07279607769761e-04
1.44000000000000e-01 8.37312470815825e-02 1.21319148008580e-04
1.76000000000000e-01 8.32512441816955e-02 1.33561037167079e-04
2.08000000000000e-01 8.27739929759779e-02 1.44491909679170e-04
2.40000000000000e-01 8.22994776898962e-02 1.54405177159454e-04
2.72000000000000e-01 8.18276826393480e-02 1.63495138948439e-04
3.04000000000000e-01 8.13585922301430e-02 1.71898913672922e-04
3.36000000000000e-01 8.08921909574871e-02 1.79717850235386e-04
3.68000000000000e-01 8.04284634054706e-02 1.87029550774184e-04
4.00000000000000e-01 7.99673942465575e-02 1.93895115085857e-04
4.32000000000000e-01 7.95089682410798e-02 2.00363750662952e-04
4.64000000000000e-01 7.90531702367334e-02 2.06475837178335e-04
4.96000000000000e-01 7.85999851680772e-02 2.12265037722735e-04
5.28000000000000e-01 7.81493980560352e-02 2.17759797413865e-04
5.60000000000000e-01 7.77013940074012e-02 2.22984434461232e-04
5.92000000000000e-01 7.72559582143471e-02 2.27959952031638e-04
6.24000000000000e-01 7.68130759539328e-02 2.32704653931256e-04
6.56000000000000e-01 7.63727325876198e-02 2.37234619355508e-04
6.88000000000000e-01 7.59349135607877e-02 2.41564074408625e-04
7.20000000000000e-01 7.54996044022524e-02 2.45705686691838e-04
7.52000000000000e-01 7.50667907237886e-02 2.49670801667697e-04
7.84000000000000e-01 7.46364582196536e-02 2.53469634343349e-04
8.16000000000000e-01 7.42085926661147e-02 2.57111426232369e-04
8.48000000000000e-01 7.37831799209790e-02 2.60604575025151e-04
8.80000000000000e-01 7.33602059231263e-02 2.63956742583444e-04
9.12000000000000e-01 7.29396566920436e-02 2.67174945553847e-04
9.44000000000000e-01 7.25215183273639e-02 2.70265631921110e-04
9.76000000000000e-01 7.21057770084059e-02 2.73234746095097e-04
1.00800000000000e+00 7.16924189937179e-02 2.76087784575894e-04
1.04000000000000e+00 7.12814306206232e-02 2.78829843822941e-04
1.07200000000000e+00 7.08727983047684e-02 2.81465661631483e-04
1.10400000000000e+00 7.04665085396750e-02 2.83999653068612e-04
1.13600000000000e+00 7.00625478962921e-02 2.86435941824655e-04
1.16800000000000e+00 6.96609030225534e-02 2.88778387680574e-04
1.20000000000000e+00 6.92615606429352e-02 2.91030610668244e-04
1.23200000000000e+00 6.88645075580181e-02 2.93196012401444e-04
1.26400000000000e+00 6.84697306440504e-02 2.95277794975780e-04
1.29600000000000e+00 6.80772168525145e-02 2.97278977770629e-04
1.32800000000000e+00 6.76869532096954e-02 2.99202412433441e-04
1.36000000000000e+00 6.72989268162520e-02 3.01050796283356e-04
1.39200000000000e+00 6.69131248467910e-02 3.02826684335201e-04
1.42400000000000e+00 6.65295345494425e-02 3.04532500115242e-04
1.45600000000000e+00 6.61481432454388e-02 3.06170545415398e-04
1.48800000000000e+00 6.57689383286953e-02 3.07743009111851e-04
1.52000000000000e+00 6.53919072653941e-02 3.09251975156667e-04
1.55200000000000e+00 6.50170375935689e-02 3.10699429836324e-04
1.58400000000000e+00 6.46443169226940e-02 3.12087268378599e-04
1.61600000000000e+00 6.42737329332743e-02 3.13417300978863e-04
1.64800000000000e+00 6.39052733764382e-02 3.14691258307736e-04
1.68000000000000e+00 6.35389260735327e-02 3.15910796554146e-04
1.71200000000000e+00 6.31746789157210e-02 3.17077502051685e-04
1.74400000000000e+00 6.28125198635820e-02 3.18192895529912e-04
1.77600000000000e+00 6.24524369467128e-02 3.19258436027763e-04
1.80800000000000e+00 6.20944182633324e-02 3.20275524501719e-04
1.84000000000000e+00 6.17384519798889e-02 3.21245507157812e-04
1.87200000000000e+00 6.13845263306682e-02 3.22169678533280e-04
1.90400000000000e+00 6.10326296174049e-02 3.23049284350676e-04
1.93600000000000e+00 6.06827502088959e-02 3.23885524165184e-04
1.96800000000000e+00 6.03348765406158e-02 3.24679553823259e-04
2.00000000000000e+00 5.99889971143347e-02 3.25432487749154e-04
2.03200000000000e+00 5.96451004977383e-02 3.26145401074079e-04
2.06400000000000e+00 5.93031753240496e-02 3.26819331621197e-04
2.09600000000000e+00 5.89632102916538e-02 3.27455281758508e-04
2.12800000000000e+00 5.86251941637243e-02 3.28054220130338e-04
2.16000000000000e+00 5.82891157678514e-02 3.28617083277233e-04
2.19200000000000e+00 5.79549639956730e-02 3.29144777153024e-04
2.22400000000000e+00 5.76227278025077e-02 3.29638178547200e-04
2.25600000000000e+00 5.72923962069891e-02 3.30098136419763e-04
2.28800000000000e+00 5.69639582907037e-02 3.30525473155219e-04
2.32000000000000e+00 5.66374031978294e-02 3.30920985741822e-04
2.35200000000000e+00 5.63127201347767e-02 3.31285446881347e-04
2.38400000000000e+00 5.59898983698324e-02 3.31619606034620e-04
2.41600000000000e+00 5.56689272328044e-02 3.31924190407430e-04
2.44800000000000e+00 5.53497961146691e-02 3.32199905880838e-04
2.48000000000000e+00 5.50324944672211e-02 3.32447437889834e-04
2.51200000000000e+00 5.47170118027241e-02 3.32667452253971e-04
2.54400000000000e+00 5.44033376935645e-02 3.32860595963144e-04
2.57600000000000e+00 5.40914617719067e-02 3.33027497921484e-04
2.60800000000000e+00 5.37813737293503e-02 3.33168769652162e-04
2.64000000000000e+00 5.34730633165895e-02 3.33285005965680e-04
2.67200000000000e+00 5.31665203430745e-02 3.33376785593995e-04
2.70400000000000e+00 5.28617346766742e-02 3.33444671792529e-04
2.73600000000000e+00 5.25586962433416e-02 3.33489212912207e-04
2.76800000000000e+00 5.22573950267811e-02 3.33510942943416e-04
2.80000000000000e+00 5.19578210681168e-02 3.33510382033390e-04
2.83200000000000e+00 5.16599644655638e-02 3.33488036978814e-04
2.86400000000000e+00 5.13638153741008e-02 3.33444401695108e-04
2.89600000000000e+00 5.10693640051446e-02 3.33379957663651e-04
2.92800000000000e+00 5.07766006262266e-02 3.33295174358322e-04
2.96000000000000e+00 5.04855155606714e-02 3.33190509652658e-04
2.99200000000000e+00 5.01960991872764e-02 3.33066410208475e-04
3.02400000000000e+00 4.99083419399944e-02 3.32923311847190e-04
3.05600000000000e+00 4.96222343076168e-02 3.32761639904777e-04
3.08800000000000e+00 4.93377668334596e-02 3.32581809571099e-04
3.12000000000000e+00 4.90549301150511e-02 3.32384226214773e-04
3.15200000000000e+00 4.87737148038203e-02 3.32169285694139e-04
3.18400000000000e+00 4.84941116047887e-02 3.31937374655044e-04
3.21600000000000e+00 4.82161112762628e-02 3.31688870816233e-04
3.24800000000000e+00 4.79397046295284e-02 3.31424143243012e-04
3.28000000000000e+00 4.76648825285471e-02 3.31143552609699e-04
3.31200000000000e+00 4.73916358896546e-02 3.30847451451452e-04
3.34400000000000e+00 4.71199556812598e-02 3.30536184406101e-04
3.37600000000000e+00 4.68498329235470e-02 3.30210088446391e-04
3.40800000000000e+00 4.65812586881784e-02 3.29869493103139e-04
3.44000000000000e+00 4.63142240979996e-02 3.29514720679788e-04
3.47200000000000e+00 4.60487203267458e-02 3.29146086458669e-04
3.50400000000000e+00 4.57847385987503e-02 3.28763898899487e-04
3.53600000000000e+00 4.55222701886543e-02 3.28368459830432e-04
3.56800000000000e+00 4.52613064211183e-02 3.27960064632023e-04
3.60000000000000e+00 4.50018386705359e-02 3.27539002414335e-04
3.63200000000000e+00 4.47438583607482e-02 3.27105556187733e-04
3.66400000000000e+00 4.44873569647605e-02 3.26660003027297e-04
3.69600000000000e+00 4.42323260044607e-02 3.26202614231659e-04
3.72800000000000e+00 4.39787570503386e-02 3.25733655476059e-04
3.76000000000000e+00 4.37266417212076e-02 3.25253386959909e-04
3.79200000000000e+00 4.34759716839277e-02 3.24762063549472e-04
3.82400000000000e+00 4.32267386531297e-02 3.24259934915556e-04
3.85600000000000e+00 4.29789343909419e-02 3.23747245666397e-04
3.88800000000000e+00 4.27325507067176e-02 3.23224235476231e-04
3.92000000000000e+00 4.24875794567639e-02 3.22691139209487e-04
3.95200000000000e+00 4.22440125440733e-02 3.22148187040774e-04
3.98400000000000e+00 4.20018419180555e-02 3.21595604571074e-04
4.01600000000000e+00 4.17610595742718e-02 3.21033612940150e-04
4.04800000000000e+00 4.15216575541698e-02 3.20462428935215e-04
4.08000000000000e+00 4.12836279448211e-02 3.19882265096140e-04
4.11200000000000e+00 4.10469628786594e-02 3.19293329817427e-04
4.14400000000000e+00 4.08116545332204e-02 3.18695827446877e-04
4.17600000000000e+00 4.05776951308834e-02 3.18089958381260e-04
4.20800000000000e+00 4.03450769386142e-02 3.17475919158964e-04
4.24000000000000e+00 4.01137922677094e-02 3.16853902549817e-04
4.27200000000000e+00 3.98838334735423e-02 3.16224097642239e-04
4.30400000000000e+00 3.96551929553104e-02 3.15586689927699e-04
4.33600000000000e+00 3.94278631557839e-02 3.14941861382661e-04
4.36800000000000e+00 3.92018365610561e-02 3.14289790548122e-04
4.40000000000000e+00 3.89771057002950e-02 3.13630652606820e-04
4.43200000000000e+00 3.87536631454963e-02 3.12964619458119e-04
4.46400000000000e+00 3.85315015112379e-02 3.12291859790825e-04
4.49600000000000e+00 3.83106134544359e-02 3.11612539153889e-04
4.52800000000000e+00 3.80909916741019e-02 3.10926820025013e-04
4.56000000000000e+00 3.78726289111014e-02 3.10234861877414e-04
4.59200000000000e+00 3.76555179479142e-02 3.09536821244671e-04
4.62400000000000e+00 3.74396516083956e-02 3.08832851783798e-04
4.65600000000000e+00 3.72250227575394e-02 3.08123104336513e-04
4.68800000000000e+00 3.70116243012419e-02 3.07407726988911e-04
4.72000000000000e+00 3.67994491860676e-02 3.06686865129478e-04
4.75200000000000e+00 3.65884903990159e-02 3.05960661505463e-04
4.78400000000000e+00 3.63787409672893e-02 3.05229256277909e-04
4.81600000000000e+00 3.61701939580630e-02 3.04492787075067e-04
4.84800000000000e+00 3.59628424782559e-02 3.03751389044421e-04
4.88000000000000e+00 3.57566796743024e-02 3.03005194903432e-04
4.91200000000000e+00 3.55516987319261e-02 3.02254334988904e-04
4.94400000000000e+00 3.53478928759147e-02 3.01498937305093e-04
4.97600000000000e+00 3.51452553698957e-02 3.00739127570521e-04
5.00800000000000e+00 3.49437795161141e-02 2.99975029263675e-04
5.04000000000000e+00 3.47434586552107e-02 2.99206763667503e-04
5.07200000000000e+00 3.45442861660024e-02 2.98434449912839e-04
5.10400000000000e+00 3.43462554652628e-02 2.97658205020720e-04
5.13600000000000e+00 3.41493600075052e-02 2.96878143943587e-04
5.16800000000000e+00 3.39535932847657e-02 2.96094379605571e-04
5.20000000000000e+00 3.37589488263885e-02 2.95307022941731e-04
5.23200000000000e+00 3.35654201988119e-02 2.94516182936371e-04
5.26400000000000e+00 3.33730010053555e-02 2.93721966660458e-04
5.29600000000000e+00 3.31816848860090e-02 2.92924479308038e-04
5.32800000000000e+00 3.29914655172220e-02 2.92123824231892e-04
5.36000000000000e+00 3.28023366116946e-02 2.91320102978291e-04
5.39200000000000e+00 3.26142919181701e-02 2.90513415320979e-04
5.42400000000000e+00 3.24273252212280e-02 2.89703859294320e-04
5.45600000000000e+00 3.22414303410788e-02 2.88891531225628e-04
5.48800000000000e+00 3.20566011333595e-02 2.88076525766888e-04
5.52000000000000e+00 3.18728314889308e-02 2.87258935925637e-04
5.55200000000000e+00 3.16901153336750e-02 2.86438853095174e-04
5.58400000000000e+00 3.15084466282953e-02 2.85616367084074e-04
5.61600000000000e+00 3.13278193681159e-02 2.84791566145101e-04
5.64800000000000e+00 3.11482275828841e-02 2.83964537003370e-04
5.68000000000000e+00 3.09696653365725e-02 2.83135364883886e-04
5.71200000000000e+00 3.07921267271828e-02 2.82304133538640e-04
5.74400000000000e+00 3.06156058865511e-02 2.81470925272914e-04
5.77600000000000e+00 3.04400969801536e-02 2.80635820971063e-04
5.80800000000000e+00 3.02655942069137e-02 2.79798900121796e-04
5.84000000000000e+00 3.00920917990106e-02 2.78960240842872e-04
5.87200000000000e+00 2.99195840216885e-02 2.78119919905267e-04
5.90400000000000e+00 2.97480651730668e-02 2.77278012756796e-04
5.93600000000000e+00 2.95775295839520e-02 2.76434593545273e-04
5.96800000000000e+00 2.94079716176502e-02 2.75589735141175e-04
6.00000000000000e+00 2.92393856697807e-02 2.74743509159824e-04
6.03200000000000e+00 2.90717661680907e-02 2.73895985983064e-04
6.06400000000000e+00 2.89051075722715e-02 2.73047234780555e-04
6.09600000000000e+00 2.87394043737749e-02 2.72197323530585e-04
6.12800000000000e+00 2.85746510956314e-02 2.71346319040457e-04
6.16000000000000e+00 2.84108422922691e-02 2.70494286966507e-04
6.19200000000000e+00 2.82479725493339e-02 2.69641291833621e-04
6.22400000000000e+00 2.80860364835100e-02 2.68787397054434e-04
6.25600000000000e+00 2.79250287423427e-02 2.67932664948132e-04
6.28800000000000e+00 2.77649440040608e-02 2.67077156758780e-04
6.32000000000000e+00 2.76057769774013e-02 2.66220932673432e-04
6.35200000000000e+00 2.74475224014340e-02 2.65364051839836e-04
6.38400000000000e+00 2.72901750453878e-02 2.64506572383710e-04
6.41600000000000e+00 2.71337297084782e-02 2.63648551425765e-04
6.44800000000000e+00 2.69781812197346e-02 2.62790045098329e-04
6.48000000000000e+00 2.68235244378301e-02 2.61931108561732e-04
6.51200000000000e+00 2.66697542509111e-02 2.61071796020294e-04
6.54400000000000e+00 2.65168655764288e-02 2.60212160738023e-04
6.57600000000000e+00 2.63648533609705e-02 2.59352255054068e-04
6.60800000000000e+00 2.62137125800935e-02 2.58492130397763e-04
6.64000000000000e+00 2.60634382381582e-02 2.57631837303511e-04
6.67200000000000e+00 2.59140253681633e-02 2.56771425425319e-04
6.70400000000000e+00 2.57654690315819e-02 2.55910943551039e-04
6.73600000000000e+00 2.56177643181978e-02 2.55050439616406e-04
6.76800000000000e+00 2.54709063459435e-02 2.54189960718746e-04
6.80000000000000e+00 2.53248902607385e-02 2.53329553130464e-04
6.83200000000000e+00 2.51797112363295e-02 2.52469262312310e-04
6.86400000000000e+00 2.50353644741301e-02 2.51609132926352e-04
6.89600000000000e+00 2.48918452030629e-02 2.50749208848707e-04
6.92800000000000e+00 2.47491486794012e-02 2.49889533182093e-04
6.96000000000000e+00 2.46072701866126e-02 2.49030148268104e-04
6.99200000000000e+00 2.44662050352030e-02 2.48171095699283e-04
7.02400000000000e+00 2.43259485625616e-02 2.47312416330980e-04
7.05600000000000e+00 2.41864961328066e-02 2.46454150292969e-04
7.08800000000000e+00 2.40478431366324e-02 2.45596337000891e-04
7.12000000000000e+00 2.39099849911568e-02 2.44739015167473e-04
7.15200000000000e+00 2.37729171397698e-02 2.43882222813564e-04
7.18400000000000e+00 2.36366350519829e-02 2.43025997278956e-04
7.21600000000000e+00 2.35011342232792e-02 2.42170375233048e-04
7.24800000000000e+00 2.33664101749649e-02 2.41315392685268e-04
7.28000000000000e+00 2.32324584540210e-02 2.40461084995344e-04
7.31200000000000e+00 2.30992746329560e-02 2.39607486883422e-04
7.34400000000000e+00 2.29668543096597e-02 2.38754632439968e-04
7.37600000000000e+00 2.28351931072580e-02 2.37902555135492e-04
7.40800000000000e+00 2.27042866739676e-02 2.37051287830159e-04
7.44000000000000e+00 2.25741306829528e-02 2.36200862783194e-04
7.47200000000000e+00 2.24447208321818e-02 2.35351311662120e-04
7.50400000000000e+00 2.23160528442853e-02 2.34502665551860e-04
7.53600000000000e+00 2.21881224664145e-02 2.33654954963683e-04
7.56800000000000e+00 2.20609254701007e-02 2.32808209844002e-04
7.60000000000000e+00 2.19344576511157e-02 2.31962459582983e-04
7.63200000000000e+00 2.18087148293327e-02 2.31117733023056e-04
7.66400000000000e+00 2.16836928485881e-02 2.30274058467282e-04
7.69600000000000e+00 2.15593875765442e-02 2.29431463687560e-04
7.72800000000000e+00 2.14357949045526e-02 2.28589975932694e-04
7.76000000000000e+00 2.13129107475184e-02 2.27749621936343e-04
7.79200000000000e+00 2.11907310437652e-02 2.26910427924849e-04
7.82400000000000e+00 2.10692517549006e-02 2.26072419624894e-04
7.85600000000000e+00 2.09484688656832e-02 2.25235622271059e-04
7.88800000000000e+00 2.08283783838896e-02 2.24400060613300e-04
7.92000000000000e+00 2.07089763401823e-02 2.23565758924226e-04
7.95200000000000e+00 2.05902587879788e-02 2.22732741006295e-04
7.98400000000000e+00 2.04722218033210e-02 2.21901030198906e-04
8.01600000000000e+00 2.03548614847454e-02 2.21070649385350e-04
8.04800000000000e+00 2.02381739531545e-02 2.20241620999670e-04
8.08000000000000e+00 2.01221553516882e-02 2.19413967033411e-04
8.11200000000000e+00 2.00068018455965e-02 2.18587709042208e-04
8.14400000000000e+00 1.98921096221126e-02 2.17762868152379e-04
8.17600000000000e+00 1.97780748903273e-02 2.16939465067330e-04
8.20800000000000e+00 1.96646938810632e-02 2.16117520073850e-04
8.24000000000000e+00 1.95519628467502e-02 2.15297053048360e-04
8.27200000000000e+00 1.94398780613021e-02 2.14478083463035e-04
8.30400000000000e+00 1.93284358199927e-02 2.13660630391837e-04
8.33600000000000e+00 1.92176324393341e-02 2.12844712516412e-04
8.36800000000000e+00 1.91074642569543e-02 2.12030348131992e-04
8.40000000000000e+00 1.89979276314766e-02 2.11217555153111e-04
8.43200000000000e+00 1.88890189423990e-02 2.10406351119258e-04
8.46400000000000e+00 1.87807345899747e-02 2.09596753200444e-04
8.49600000000000e+00 1.86730709950930e-02 2.08788778202724e-04
8.52800000000000e+00 1.85660245991609e-02 2.07982442573606e-04
8.56000000000000e+00 1.84595918639858e-02 2.07177762407326e-04
8.59200000000000e+00 1.83537692716582e-02 2.06374753450094e-04
8.62400000000000e+00 1.82485533244358e-02 2.05573431105283e-04
8.65600000000000e+00 1.81439405446275e-02 2.04773810438489e-04
8.68800000000000e+00 1.80399274744786e-02 2.03975906182526e-04
8.72000000000000e+00 1.79365106760566e-02 2.03179732742366e-04
8.75200000000000e+00 1.78336867311375e-02 2.02385304200000e-04
8.78400000000000e+00 1.77314522410929e-02 2.01592634319181e-04
8.81600000000000e+00 1.76298038267775e-02 2.00801736550132e-04
8.84800000000000e+00 1.75287381284174e-02 2.00012624034233e-04
8.88000000000000e+00 1.74282518054994e-02 1.99225309608544e-04
8.91200000000000e+00 1.73283415366600e-02 1.98439805810304e-04
8.94400000000000e+00 1.72290040195764e-02 1.97656124881374e-04
8.97600000000000e+00 1.71302359708564e-02 1.96874278772593e-04
9.00800000000000e+00 1.70320341259307e-02 1.96094279148085e-04
9.04000000000000e+00 1.69343952389446e-02 1.95316137389491e-04
9.07200000000000e+00 1.68373160826507e-02 1.94539864600132e-04
9.10400000000000e+00 1.67407934483026e-02 1.93765471609142e-04
9.13600000000000e+00 1.66448241455480e-02 1.92992968975502e-04
9.16800000000000e+00 1.65494050023245e-02 1.92222366992029e-04
9.20000000000000e+00 1.64545328647535e-02 1.91453675689310e-04
9.23200000000000e+00 1.63602045970368e-02 1.90686904839617e-04
9.26400000000000e+00 1.62664170813526e-02 1.89922063960680e-04
9.29600000000000e+00 1.61731672177525e-02 1.89159162319448e-04
9.32800000000000e+00 1.60804519240591e-02 1.88398208935813e-04
9.36000000000000e+00 1.59882681357641e-02 1.87639212586252e-04
9.39200000000000e+00 1.58966128059269e-02 1.86882181807458e-04
9.42400000000000e+00 1.58054829050739e-02 1.86127124899860e-04
9.45600000000000e+00 1.57148754210988e-02 1.85374049931132e-04
9.48800000000000e+00 1.56247873591623e-02 1.84622964739650e-04
9.52000000000000e+00 1.55352157415937e-02 1.83873876937872e-04
9.55200000000000e+00 1.54461576077923e-02 1.83126793915689e-04
9.58400000000000e+00 1.53576100141293e-02 1.82381722843726e-04
9.61600000000000e+00 1.52695700338510e-02 1.81638670676618e-04
9.64800000000000e+00 1.51820347569817e-02 1.80897644156193e-04
9.68000000000000e+00 1.50950012902275e-02 1.80158649814640e-04
9.71200000000000e+00 1.50084667568808e-02 1.79421693977640e-04
9.74400000000000e+00 1.49224282967254e-02 1.78686782767417e-04
9.77600000000000e+00 1.48368830659415e-02 1.77953922105771e-04
9.80800000000000e+00 1.47518282370121e-02 1.77223117717057e-04
9.84000000000000e+00 1.46672609986293e-02 1.76494375131162e-04
9.87200000000000e+00 1.45831785556015e-02 1.75767699686382e-04
9.90400000000000e+00 1.44995781287611e-02 1.75043096532286e-04
9.93600000000000e+00 1.44164569548724e-02 1.74320570632549e-04
9.96800000000000e+00 1.43338122865404e-02 1.73600126767703e-04
1.00000000000000e+01 1.42516413921201e-02 1.72881769537896e-04
1.00320000000000e+01 1.41699415556259e-02 1.72165503365622e-04
1.00640000000000e+01 1.40887100766423e-02 1.71451332498336e-04
1.00960000000000e+01 1.40079442702341e-02 1.70739261011109e-04
