Energy (eV)          EEDF (eV^-(3/2))     First Anisotropy
8.22727272727273e-03 3.70676000003124e-01 2.08597993531050e-04
2.46818181818182e-02 3.67775855147565e-01 3.44264430700886e-04
4.11363636363636e-02 3.64898400849302e-01 4.53964612817817e-04
5.75909090909091e-02 3.62043459562271e-01 5.36998915764482e-04
7.40454545454545e-02 3.59210855153019e-01 6.05997952067568e-04
9.05000000000000e-02 3.56400412854122e-01 6.65743846110809e-04
1.06954545454545e-01 3.53611959274175e-01 7.18714623679088e-04
1.23409090909091e-01 3.50845322376334e-01 7.66408622123859e-04
1.39863636363636e-01 3.48100331452968e-01 8.09820826817670e-04
1.56318181818182e-01 3.45376817169275e-01 8.49655361227159e-04
1.72772727272727e-01 3.42674611474203e-01 8.86434107134299e-04
1.89227272727273e-01 3.39993547668155e-01 9.20557766032364e-04
2.05681818181818e-01 3.37333460336098e-01 9.52342698049360e-04
2.22136363636364e-01 3.34694185346953e-01 9.82044379254356e-04
2.38590909090909e-01 3.32075559878182e-01 1.00987302136718e-03
2.55045454545455e-01 3.29477422358410e-01 1.03600434009396e-03
2.71500000000000e-01 3.26899612501596e-01 1.06058720737031e-03
2.87954545454545e-01 3.24341971255863e-01 1.08374922916842e-03
3.04409090909091e-01 3.21804340832429e-01 1.10560089995044e-03
3.20863636363636e-01 3.19286564659414e-01 1.12623875716319e-03
3.37318181818182e-01 3.16788487406586e-01 1.14574781584733e-03
3.53772727272727e-01 3.14309954943243e-01 1.16420347643137e-03
3.70227272727273e-01 3.11850814359533e-01 1.18167303795684e-03
3.86681818181818e-01 3.09410913934122e-01 1.19821691767903e-03
4.03136363636364e-01 3.06990103127116e-01 1.21388963379969e-03
4.19590909090909e-01 3.04588232588539e-01 1.22874061812312e-03
4.36045454545455e-01 3.02205154125316e-01 1.24281488497230e-03
4.52500000000000e-01 2.99840720714946e-01 1.25615358931043e-03
4.68954545454545e-01 2.97494786474544e-01 1.26879449589130e-03
4.85409090909091e-01 2.95167206672858e-01 1.28077237578707e-03
5.01863636363636e-01 2.92857837701134e-01 1.29211934421500e-03
5.18318181818182e-01 2.90566537083705e-01 1.30286514953032e-03
5.34772727272727e-01 2.88293163450465e-01 1.31303742232193e-03
5.51227272727273e-01 2.86037576546207e-01 1.32266189014858e-03
5.67681818181818e-01 2.83799637208496e-01 1.33176256732939e-03
5.84136363636364e-01 2.81579207360071e-01 1.34036191503852e-03
6.00590909090909e-01 2.79376150011587e-01 1.34848098719365e-03
6.17045454545455e-01 2.77190329238125e-01 1.35613955639891e-03
6.33500000000000e-01 2.75021610185371e-01 1.36335622561228e-03
6.49954545454545e-01 2.72869859047182e-01 1.37014852742334e-03
6.66409090909091e-01 2.70734943071016e-01 1.37653301222336e-03
6.82863636363636e-01 2.68616730536465e-01 1.38252532714082e-03
6.99318181818182e-01 2.66515090760016e-01 1.38814028655021e-03
7.15772727272727e-01 2.64429894074470e-01 1.39339193559939e-03
7.32227272727273e-01 2.62361011833107e-01 1.39829360678797e-03
7.48681818181818e-01 2.60308316392658e-01 1.40285797349016e-03
7.65136363636364e-01 2.58271681105965e-01 1.40709709383920e-03
7.81590909090909e-01 2.56250980322061e-01 1.41102245496464e-03
7.98045454545455e-01 2.54246089367890e-01 1.41464501114730e-03
8.14500000000000e-01 2.52256884550871e-01 1.41797521888167e-03
8.30954545454545e-01 2.50283243141270e-01 1.42102306905829e-03
8.47409090909091e-01 2.48325043374374e-01 1.42379811626560e-03
8.63863636363636e-01 2.46382164433476e-01 1.42630950580958e-03
8.80318181818182e-01 2.44454486451690e-01 1.42856599838878e-03
8.96772727272727e-01 2.42541890495511e-01 1.43057599294767e-03
9.13227272727273e-01 2.40644258566302e-01 1.43234754722694e-03
9.29681818181818e-01 2.38761473586419e-01 1.43388839873050e-03
9.46136363636364e-01 2.36893419392315e-01 1.43520598033996e-03
9.62590909090909e-01 2.35039980733230e-01 1.43630743844056e-03
9.79045454545455e-01 2.33201043256277e-01 1.43719964799657e-03
9.95500000000000e-01 2.31376493507016e-01 1.43788922577343e-03
1.01195454545455e+00 2.29566218920259e-01 1.43838254850971e-03
1.02840909090909e+00 2.27770107795810e-01 1.43868575604244e-03
1.04486363636364e+00 2.25988049336896e-01 1.43880477196315e-03
1.06131818181818e+00 2.24219933579516e-01 1.43874531005611e-03
1.07777272727273e+00 2.22465651453251e-01 1.43851288478762e-03
1.09422727272727e+00 2.20725094708651e-01 1.43811282456979e-03
1.11068181818182e+00 2.18998155959394e-01 1.43755026737378e-03
1.12713636363636e+00 2.17284728674693e-01 1.43683018841801e-03
1.14359090909091e+00 2.15584707126524e-01 1.43595739534338e-03
1.16004545454545e+00 2.13897986444055e-01 1.43493653822902e-03
1.17650000000000e+00 2.12224462547698e-01 1.43377211710876e-03
1.19295454545455e+00 2.10564032200742e-01 1.43246848785854e-03
1.20940909090909e+00 2.08916592946302e-01 1.43102986891071e-03
1.22586363636364e+00 2.07282043156353e-01 1.42946034645086e-03
1.24231818181818e+00 2.05660281971390e-01 1.42776388043915e-03
1.25877272727273e+00 2.04051209347029e-01 1.42594430921165e-03
1.27522727272727e+00 2.02454725996217e-01 1.42400535756917e-03
1.29168181818182e+00 2.00870733421423e-01 1.42195063016946e-03
1.30813636363636e+00 1.99299133907848e-01 1.41978363236230e-03
1.32459090909091e+00 1.97739830480996e-01 1.41750776360577e-03
1.34104545454545e+00 1.96192726948771e-01 1.41512632370843e-03
1.35750000000000e+00 1.94657727848520e-01 1.41264251706909e-03
1.37395454545455e+00 1.93134738487141e-01 1.41005945573752e-03
1.39040909090909e+00 1.91623664890235e-01 1.40738016327406e-03
1.40686363636364e+00 1.90124413840353e-01 1.40460757749226e-03
1.42331818181818e+00 1.88636892828133e-01 1.40174455398221e-03
1.43977272727273e+00 1.87161010088794e-01 1.39879386857370e-03
1.45622727272727e+00 1.85696674555160e-01 1.39575822285397e-03
1.47268181818182e+00 1.84243795882741e-01 1.39264023720017e-03
1.48913636363636e+00 1.82802284443615e-01 1.38944246743426e-03
1.50559090909091e+00 1.81372051291645e-01 1.38616739802441e-03
1.52204545454545e+00 1.79953008195664e-01 1.38281744639023e-03
1.53850000000000e+00 1.78545067596144e-01 1.37939496552731e-03
1.55495454545455e+00 1.77148142636921e-01 1.37590224571564e-03
1.57140909090909e+00 1.75762147123450e-01 1.37234151694269e-03
1.58786363636364e+00 1.74386995553150e-01 1.36871495045063e-03
1.60431818181818e+00 1.73022603075169e-01 1.36502466097856e-03
1.62077272727273e+00 1.71668885519427e-01 1.36127270816608e-03
1.63722727272727e+00 1.70325759357806e-01 1.35746110061601e-03
1.65368181818182e+00 1.68993141724007e-01 1.35359178922172e-03
1.67013636363636e+00 1.67670950407998e-01 1.34966668095320e-03
1.68659090909091e+00 1.66359103827070e-01 1.34568763239175e-03
1.70304545454545e+00 1.65057521052394e-01 1.34165645291715e-03
1.71950000000000e+00 1.63766121773037e-01 1.33757490645075e-03
1.73595454545455e+00 1.62484826321413e-01 1.33344471245772e-03
1.75240909090909e+00 1.61213555638530e-01 1.32926754757435e-03
1.76886363636364e+00 1.59952231298397e-01 1.32504504652249e-03
1.78531818181818e+00 1.58700775474441e-01 1.32077880363071e-03
1.80177272727273e+00 1.57459110962922e-01 1.31647037366993e-03
1.81822727272727e+00 1.56227161150468e-01 1.31212127500521e-03
1.83468181818182e+00 1.55004850029968e-01 1.30773298343961e-03
1.85113636363636e+00 1.53792102195536e-01 1.30330694387422e-03
1.86759090909091e+00 1.52588842818133e-01 1.29884456435967e-03
1.88404545454545e+00 1.51394997667066e-01 1.29434721857502e-03
1.90050000000000e+00 1.50210493079761e-01 1.28981624705030e-03
1.91695454545455e+00 1.49035255982408e-01 1.28525295777475e-03
1.93340909090909e+00 1.47869213860707e-01 1.28065862734783e-03
1.94986363636364e+00 1.46712294779709e-01 1.27603450153671e-03
1.96631818181818e+00 1.45564427355485e-01 1.27138179636129e-03
1.98277272727273e+00 1.44425540774198e-01 1.26670169860567e-03
1.99922727272727e+00 1.43295564764666e-01 1.26199536835334e-03
2.01568181818182e+00 1.42174429611206e-01 1.25726393340239e-03
2.03213636363636e+00 1.41062066149052e-01 1.25250849926746e-03
2.04859090909091e+00 1.39958405743627e-01 1.24773014378855e-03
2.06504545454545e+00 1.38863380308110e-01 1.24292991912735e-03
2.08150000000000e+00 1.37776922277807e-01 1.23810885266225e-03
2.09795454545455e+00 1.36698964627049e-01 1.23326794736449e-03
2.11440909090909e+00 1.35629440844341e-01 1.22840818264648e-03
2.13086363636364e+00 1.34568284948631e-01 1.22353051470777e-03
2.14731818181818e+00 1.33515431465205e-01 1.21863587733946e-03
2.16377272727273e+00 1.32470815441349e-01 1.21372518224258e-03
2.18022727272727e+00 1.31434372422964e-01 1.20879932111946e-03
2.19668181818182e+00 1.30406038465029e-01 1.20385916064744e-03
2.21313636363636e+00 1.29385750127424e-01 1.19890555114331e-03
2.22959090909091e+00 1.28373444457164e-01 1.19393932171246e-03
2.24604545454545e+00 1.27369059002869e-01 1.18896128189705e-03
2.26250000000000e+00 1.26372531792857e-01 1.18397222235339e-03
2.27895454545455e+00 1.25383801349082e-01 1.17897291508657e-03
2.29540909090909e+00 1.24402806665868e-01 1.17396411409570e-03
2.31186363636364e+00 1.23429487223335e-01 1.16894655558967e-03
2.32831818181818e+00 1.22463782966750e-01 1.16392095860253e-03
2.34477272727273e+00 1.21505634319469e-01 1.15888802519181e-03
2.36122727272727e+00 1.20554982162877e-01 1.15384844219585e-03
2.37768181818182e+00 1.19611767844953e-01 1.14880287672727e-03
2.39413636363636e+00 1.18675933176461e-01 1.14375198373253e-03
2.41059090909091e+00 1.17747420415629e-01 1.13869640164252e-03
2.42704545454545e+00 1.16826172280134e-01 1.13363675375793e-03
2.44350000000000e+00 1.15912131928264e-01 1.12857364877584e-03
2.45995454545455e+00 1.15005242970480e-01 1.12350768093467e-03
2.47640909090909e+00 1.14105449451099e-01 1.11843943051818e-03
2.49286363636364e+00 1.13212695859450e-01 1.11336946398834e-03
2.50931818181818e+00 1.12326927112067e-01 1.10829833446788e-03
2.52577272727273e+00 1.11448088563453e-01 1.10322658186212e-03
2.54222727272727e+00 1.10576125988760e-01 1.09815473435565e-03
2.55868181818182e+00 1.09710985590844e-01 1.09308330437855e-03
2.57513636363636e+00 1.08852613996788e-01 1.08801279523752e-03
2.59159090909091e+00 1.08000958244605e-01 1.08294369722228e-03
2.60804545454545e+00 1.07155965793234e-01 1.07787648878551e-03
2.62450000000000e+00 1.06317584506238e-01 1.07281163696109e-03
2.64095454545455e+00 1.05485762661447e-01 1.06774959745115e-03
2.65740909090909e+00 1.04660448935104e-01 1.06269081502781e-03
2.67386363636364e+00 1.03841592411170e-01 1.05763572361256e-03
2.69031818181818e+00 1.03029142565896e-01 1.05258474666176e-03
2.70677272727273e+00 1.02223049276814e-01 1.04753829723910e-03
2.72322727272727e+00 1.01423262807711e-01 1.04249677930300e-03
2.73968181818182e+00 1.00629733814464e-01 1.03746058409780e-03
2.75613636363636e+00 9.98424133418551e-02 1.03243009599572e-03
2.77259090909091e+00 9.90612528119930e-02 1.02740568901240e-03
2.78904545454545e+00 9.82862040326699e-02 1.02238772782214e-03
2.80550000000000e+00 9.75172191831994e-02 1.01737656809590e-03
2.82195454545455e+00 9.67542508224923e-02 1.01237255655064e-03
2.83840909090909e+00 9.59972518752627e-02 1.00737603127445e-03
2.85486363636364e+00 9.52461756398345e-02 1.00238732177060e-03
2.87131818181818e+00 9.45009757747027e-02 9.97406749271055e-04
2.88777272727273e+00 9.37616063060804e-02 9.92434626775745e-04
2.90422727272727e+00 9.30280216148050e-02 9.87471260168905e-04
2.92068181818182e+00 9.23001764411770e-02 9.82516944990080e-04
2.93713636363636e+00 9.15780258820490e-02 9.77571971598304e-04
2.95359090909091e+00 9.08615253806932e-02 9.72636622053648e-04
2.97004545454545e+00 9.01506307338212e-02 9.67711170997748e-04
2.98650000000000e+00 8.94452980792261e-02 9.62795885930515e-04
3.00295454545455e+00 8.87454839025711e-02 9.57891027234121e-04
3.01940909090909e+00 8.80511450253440e-02 9.52996848440285e-04
3.03586363636364e+00 8.73622386114225e-02 9.48113596250789e-04
3.05231818181818e+00 8.66787221553309e-02 9.43241510795331e-04
3.06877272727273e+00 8.60005534885916e-02 9.38380825648924e-04
3.08522727272727e+00 8.53276907682742e-02 9.33531768805908e-04
3.10168181818182e+00 8.46600924810179e-02 9.28694559789539e-04
3.11813636363636e+00 8.39977174403696e-02 9.23869414229871e-04
3.13459090909091e+00 8.33405247778851e-02 9.19056541071610e-04
3.15104545454545e+00 8.26884739490451e-02 9.14256143342205e-04
3.16750000000000e+00 8.20415247224327e-02 9.09468418381392e-04
3.18395454545455e+00 8.13996371854579e-02 9.04693557848401e-04
3.20040909090909e+00 8.07627717338008e-02 8.99931747943680e-04
3.21686363636364e+00 8.01308890769522e-02 8.95183169413774e-04
3.23331818181818e+00 7.95039502279140e-02 8.90447997765880e-04
3.24977272727273e+00 7.88819165085622e-02 8.85726403270667e-04
3.26622727272727e+00 7.82647495395979e-02 8.81018551816064e-04
3.28268181818182e+00 7.76524112438989e-02 8.76324602318299e-04
3.29913636363636e+00 7.70448638440840e-02 8.71644710789855e-04
3.31559090909091e+00 7.64420698546734e-02 8.66979027837804e-04
3.33204545454545e+00 7.58439920870883e-02 8.62327699337401e-04
3.34850000000000e+00 7.52505936401425e-02 8.57690866624065e-04
3.36495454545455e+00 7.46618379048831e-02 8.53068666489323e-04
3.38140909090909e+00 7.40776885553096e-02 8.48461231366672e-04
3.39786363636364e+00 7.34981095530610e-02 8.43868689325979e-04
3.41431818181818e+00 7.29230651383566e-02 8.39291164253591e-04
3.43077272727273e+00 7.23525198345346e-02 8.34728775845339e-04
3.44722727272727e+00 7.17864384392079e-02 8.30181640358079e-04
3.46368181818182e+00 7.12247860270609e-02 8.25649868289125e-04
3.48013636363636e+00 7.06675279476201e-02 8.21133567998448e-04
3.49659090909091e+00 7.01146298183285e-02 8.16632843465431e-04
3.51304545454545e+00 6.95660575287806e-02 8.12147794882030e-04
3.52950000000000e+00 6.90217772323453e-02 8.07678518814886e-04
3.54595454545455e+00 6.84817553502679e-02 8.03225108193577e-04
3.56240909090909e+00 6.79459585634893e-02 7.98787652467662e-04
3.57886363636364e+00 6.74143538166196e-02 7.94366237594281e-04
3.59531818181818e+00 6.68869083099478e-02 7.89960946190387e-04
3.61177272727273e+00 6.63635895032918e-02 7.85571857519415e-04
3.62822727272727e+00 6.58443651081937e-02 7.81199048154926e-04
3.64468181818182e+00 6.53292030902559e-02 7.76842589898940e-04
3.66113636363636e+00 6.48180716671007e-02 7.72502553012907e-04
3.67759090909091e+00 6.43109393022362e-02 7.68179004205074e-04
3.69404545454545e+00 6.38077747086515e-02 7.63872007154347e-04
3.71050000000000e+00 6.33085468414171e-02 7.59581622647693e-04
3.72695454545455e+00 6.28132249011684e-02 7.55307908563964e-04
3.74340909090909e+00 6.23217783268760e-02 7.51050920007306e-04
3.75986363636364e+00 6.18341767992212e-02 7.46810709290197e-04
3.77631818181818e+00 6.13503902335319e-02 7.42587326063108e-04
3.79277272727273e+00 6.08703887830537e-02 7.38380817297106e-04
3.80922727272727e+00 6.03941428320461e-02 7.34191227871504e-04
3.82568181818182e+00 5.99216229977364e-02 7.30018598705143e-04
3.84213636363636e+00 5.94528001284502e-02 7.25862969642855e-04
3.85859090909091e+00 5.89876452981675e-02 7.21724377648180e-04
3.87504545454545e+00 5.85261298095792e-02 7.17602857267347e-04
3.89150000000000e+00 5.80682251875369e-02 7.13498440746671e-04
3.90795454545455e+00 5.76139031820154e-02 7.09411158013411e-04
3.92440909090909e+00 5.71631357617096e-02 7.05341036789649e-04
3.94086363636364e+00 5.67158951169070e-02 7.01288102572873e-04
3.95731818181818e+00 5.62721536532276e-02 6.97252378746812e-04
3.97377272727273e+00 5.58318839944086e-02 6.93233886561508e-04
3.99022727272727e+00 5.53950589761846e-02 6.89232645654997e-04
4.00668181818182e+00 5.49616516479210e-02 6.85248672374422e-04
4.02313636363636e+00 5.45316352709025e-02 6.81281982358355e-04
4.03959090909091e+00 5.41049833134908e-02 6.77332588912662e-04
4.05604545454545e+00 5.36816694537279e-02 6.73400503422496e-04
4.07250000000000e+00 5.32616675735245e-02 6.69485735452920e-04
4.08895454545455e+00 5.28449517611847e-02 6.65588292728091e-04
4.10540909090909e+00 5.24314963057223e-02 6.61708181229219e-04
4.12186363636364e+00 5.20212756993087e-02 6.57845405173511e-04
4.13831818181818e+00 5.16142646317152e-02 6.53999967109336e-04
4.15477272727273e+00 5.12104379926862e-02 6.50171867895115e-04
4.17122727272727e+00 5.08097708665034e-02 6.46361107163367e-04
4.18768181818182e+00 5.04122385333521e-02 6.42567681811200e-04
4.20413636363636e+00 5.00178164677530e-02 6.38791588313262e-04
4.22059090909091e+00 4.96264803342483e-02 6.35032821261274e-04
4.23704545454545e+00 4.92382059896206e-02 6.31291373730491e-04
4.25350000000000e+00 4.88529694777286e-02 6.27567237366471e-04
4.26995454545455e+00 4.84707470316592e-02 6.23860402363496e-04
4.28640909090909e+00 4.80915150686749e-02 6.20170857548872e-04
4.30286363636364e+00 4.77152501923017e-02 6.16498590361314e-04
4.31931818181818e+00 4.73419291873856e-02 6.12843586933093e-04
4.33577272727273e+00 4.69715290221180e-02 6.09205832068368e-04
4.35222727272727e+00 4.66040268431991e-02 6.05585309656582e-04
4.36868181818182e+00 4.62393999769793e-02 6.01982001314416e-04
4.38513636363636e+00 4.58776259280234e-02 5.98395888459844e-04
4.40159090909091e+00 4.55186823752596e-02 5.94826950997765e-04
4.41804545454545e+00 4.51625471738744e-02 5.91275167646638e-04
4.43450000000000e+00 4.48091983507139e-02 5.87740516013566e-04
4.45095454545455e+00 4.44586141061213e-02 5.84222972572489e-04
4.46740909090909e+00 4.41107728094372e-02 5.80722512737043e-04
4.48386363636364e+00 4.37656530007822e-02 5.77239110838965e-04
4.50031818181818e+00 4.34232333866531e-02 5.73772740199178e-04
4.51677272727273e+00 4.30834928416519e-02 5.70323373106133e-04
4.53322727272727e+00 4.27464104041760e-02 5.66890981184809e-04
4.54968181818182e+00 4.24119652773715e-02 5.63475534173899e-04
4.56613636363636e+00 4.20801368278169e-02 5.60077001787554e-04
4.58259090909091e+00 4.17509045820820e-02 5.56695352531853e-04
4.59904545454545e+00 4.14242482283456e-02 5.53330553996276e-04
4.61550000000000e+00 4.11001476122956e-02 5.49982572918756e-04
4.63195454545454e+00 4.07785827386984e-02 5.46651375164199e-04
4.64840909090909e+00 4.04595337673857e-02 5.43336925787808e-04
4.66486363636364e+00 4.01429810147776e-02 5.40039189013730e-04
4.68131818181818e+00 3.98289049499531e-02 5.36758128296766e-04
4.69777272727273e+00 3.95172861961278e-02 5.33493706301083e-04
4.71422727272727e+00 3.92081055268079e-02 5.30245885229964e-04
4.73068181818182e+00 3.89013438665844e-02 5.27014625724274e-04
4.74713636363636e+00 3.85969822899277e-02 5.23799888535018e-04
4.76359090909091e+00 3.82950020181069e-02 5.20601633456903e-04
4.78004545454545e+00 3.79953844205731e-02 5.17419819588798e-04
4.79650000000000e+00 3.76981110112981e-02 5.14254405390348e-04
4.81295454545455e+00 3.74031634501161e-02 5.11105348661144e-04
4.82940909090909e+00 3.71105235391391e-02 5.07972606595677e-04
4.84586363636364e+00 3.68201732240584e-02 5.04856135762651e-04
4.86231818181818e+00 3.65320945906347e-02 5.01755892158688e-04
4.87877272727273e+00 3.62462698659613e-02 4.98671831187668e-04
4.89522727272727e+00 3.59626814150265e-02 4.95603907955864e-04
4.91168181818182e+00 3.56813117413749e-02 4.92552076278921e-04
4.92813636363636e+00 3.54021434860029e-02 4.89516290185676e-04
4.94459090909091e+00 3.51251594245977e-02 4.86496502956710e-04
4.96104545454545e+00 3.48503424687203e-02 4.83492667357488e-04
4.97750000000000e+00 3.45776756625317e-02 4.80504735687629e-04
4.99395454545455e+00 3.43071421839403e-02 4.77532659760817e-04
5.01040909090909e+00 3.40387253413960e-02 4.74576390952786e-04
5.02686363636364e+00 3.37724085750033e-02 4.71635880181357e-04
5.04331818181818e+00 3.35081754533815e-02 4.68711077953251e-04
5.05977272727273e+00 3.32460096747448e-02 4.65801934344401e-04
5.07622727272727e+00 3.29858950638264e-02 4.62908399264182e-04
5.09268181818182e+00 3.27278155724280e-02 4.60030421559743e-04
5.10913636363636e+00 3.24717552784070e-02 4.57167950369279e-04
5.12559090909091e+00 3.22176983831997e-02 4.54320934254668e-04
5.14204545454545e+00 3.19656292128329e-02 4.51489321410333e-04
5.15850000000000e+00 3.17155322149934e-02 4.48673059706261e-04
5.17495454545455e+00 3.14673919600092e-02 4.45872096668769e-04
5.19140909090909e+00 3.12211931379791e-02 4.43086379522414e-04
