Energy (eV)          EEDF (eV^-(3/2))     First Anisotropy
1.67500000000000e-02 1.47383965231074e-01 8.72487700350219e-05
5.02500000000000e-02 1.46114707663348e-01 1.43936032957243e-04
8.37500000000000e-02 1.44856380828654e-01 1.89650645968701e-04
1.17250000000000e-01 1.43608890592474e-01 2.24161325272169e-04
1.50750000000000e-01 1.42372143630984e-01 2.52762931738554e-04
1.84250000000000e-01 1.41146047424058e-01 2.77462528024102e-04
2.17750000000000e-01 1.39930510248348e-01 2.99301305180122e-04
2.51250000000000e-01 1.38725441170416e-01 3.18909503536610e-04
2.84750000000000e-01 1.37530750039940e-01 3.36706090260032e-04
3.18250000000000e-01 1.36346347482959e-01 3.52987871126865e-04
3.51750000000000e-01 1.35172144895197e-01 3.67975064058988e-04
3.85250000000000e-01 1.34008054435429e-01 3.81836929509828e-04
4.18750000000000e-01 1.32853989018908e-01 3.94707237466344e-04
4.52250000000000e-01 1.31709862310857e-01 4.06694124796700e-04
4.85750000000000e-01 1.30575588720005e-01 4.17886657661590e-04
5.19250000000000e-01 1.29451083392184e-01 4.28359359373407e-04
5.52750000000000e-01 1.28336262203985e-01 4.38175429202200e-04
5.86250000000000e-01 1.27231041756459e-01 4.47389089357202e-04
6.19750000000000e-01 1.26135339368886e-01 4.56047334023766e-04
6.53250000000000e-01 1.25049073072581e-01 4.64191257769783e-04
6.86750000000000e-01 1.23972161604767e-01 4.71857081442029e-04
7.20250000000000e-01 1.22904524402495e-01 4.79076956227843e-04
7.53750000000000e-01 1.21846081596618e-01 4.85879602208999e-04
7.87250000000000e-01 1.20796754005814e-01 4.92290821512256e-04
8.20750000000000e-01 1.19756463130662e-01 4.98333915115091e-04
8.54250000000000e-01 1.18725131147775e-01 5.04030024696487e-04
8.87750000000000e-01 1.17702680903969e-01 5.09398415504617e-04
9.21250000000000e-01 1.16689035910500e-01 5.14456712323616e-04
9.54750000000000e-01 1.15684120337338e-01 5.19221097788718e-04
9.88250000000000e-01 1.14687859007492e-01 5.23706480208066e-04
1.02175000000000e+00 1.13700177391392e-01 5.27926636486933e-04
1.05525000000000e+00 1.12721001601307e-01 5.31894334569983e-04
1.08875000000000e+00 1.11750258385822e-01 5.35621438915825e-04
1.12225000000000e+00 1.10787875124356e-01 5.39119001823131e-04
1.15575000000000e+00 1.09833779821731e-01 5.42397342887354e-04
1.18925000000000e+00 1.08887901102785e-01 5.45466118443076e-04
1.22275000000000e+00 1.07950168207030e-01 5.48334382511630e-04
1.25625000000000e+00 1.07020510983365e-01 5.51010640507097e-04
1.28975000000000e+00 1.06098859884821e-01 5.53502896739432e-04
1.32325000000000e+00 1.05185145963362e-01 5.55818696580600e-04
1.35675000000000e+00 1.04279300864728e-01 5.57965164019621e-04
1.39025000000000e+00 1.03381256823317e-01 5.59949035217571e-04
1.42375000000000e+00 1.02490946657120e-01 5.61776688579294e-04
1.45725000000000e+00 1.01608303762693e-01 5.63454171781144e-04
1.49075000000000e+00 1.00733262110176e-01 5.64987226129547e-04
1.52425000000000e+00 9.98657562383516e-02 5.66381308571145e-04
1.55775000000000e+00 9.90057212497473e-02 5.67641611630547e-04
1.59125000000000e+00 9.81530928057834e-02 5.68773081513779e-04
1.62475000000000e+00 9.73078071219577e-02 5.69780434583619e-04
1.65825000000000e+00 9.64698009630747e-02 5.70668172385789e-04
1.69175000000000e+00 9.56390116385147e-02 5.71440595382031e-04
1.72525000000000e+00 9.48153769975438e-02 5.72101815526424e-04
1.75875000000000e+00 9.39988354246649e-02 5.72655767804611e-04
1.79225000000000e+00 9.31893258350081e-02 5.73106220840746e-04
1.82575000000000e+00 9.23867876697608e-02 5.73456786664720e-04
1.85925000000000e+00 9.15911608916375e-02 5.73710929721714e-04
1.89275000000000e+00 9.08023859803887e-02 5.73871975196208e-04
1.92625000000000e+00 9.00204039283477e-02 5.73943116714809e-04
1.95975000000000e+00 8.92451562360166e-02 5.73927423485220e-04
1.99325000000000e+00 8.84765849076902e-02 5.73827846922038e-04
2.02675000000000e+00 8.77146324471168e-02 5.73647226805329e-04
2.06025000000000e+00 8.69592418531975e-02 5.73388297012515e-04
2.09375000000000e+00 8.62103566157217e-02 5.73053690860149e-04
2.12725000000000e+00 8.54679207111398e-02 5.72645946088740e-04
2.16075000000000e+00 8.47318785983719e-02 5.72167509519892e-04
2.19425000000000e+00 8.40021752146530e-02 5.71620741412777e-04
2.22775000000000e+00 8.32787559714137e-02 5.71007919543837e-04
2.26125000000000e+00 8.25615667501964e-02 5.70331243031721e-04
2.29475000000000e+00 8.18505538986071e-02 5.69592835927250e-04
2.32825000000000e+00 8.11456642263011e-02 5.68794750586275e-04
2.36175000000000e+00 8.04468450010044e-02 5.67938970841923e-04
2.39525000000000e+00 7.97540439445686e-02 5.67027414991066e-04
2.42875000000000e+00 7.90672092290600e-02 5.66061938608514e-04
2.46225000000000e+00 7.83862894728827e-02 5.65044337201494e-04
2.49575000000000e+00 7.77112337369341e-02 5.63976348715647e-04
2.52925000000000e+00 7.70419915207949e-02 5.62859655902872e-04
2.56275000000000e+00 7.63785127589509e-02 5.61695888560785e-04
2.59625000000000e+00 7.57207478170476e-02 5.60486625652183e-04
2.62975000000000e+00 7.50686474881770e-02 5.59233397312747e-04
2.66325000000000e+00 7.44221629891968e-02 5.57937686754502e-04
2.69675000000000e+00 7.37812459570806e-02 5.56600932071540e-04
2.73025000000000e+00 7.31458484453004e-02 5.55224527954500e-04
2.76375000000000e+00 7.25159229202389e-02 5.53809827319542e-04
2.79725000000000e+00 7.18914222576346e-02 5.52358142857125e-04
2.83075000000000e+00 7.12722997390555e-02 5.50870748505622e-04
2.86425000000000e+00 7.06585090484050e-02 5.49348880854323e-04
2.89775000000000e+00 7.00500042684561e-02 5.47793740480086e-04
2.93125000000000e+00 6.94467398774174e-02 5.46206493221629e-04
2.96475000000000e+00 6.88486707455267e-02 5.44588271394976e-04
2.99825000000000e+00 6.82557521316755e-02 5.42940174953662e-04
3.03175000000000e+00 6.76679396800617e-02 5.41263272596816e-04
3.06525000000000e+00 6.70851894168712e-02 5.39558602827870e-04
3.09875000000000e+00 6.65074577469888e-02 5.37827174967047e-04
3.13225000000000e+00 6.59347014507364e-02 5.36069970119817e-04
3.16575000000000e+00 6.53668776806398e-02 5.34287942103829e-04
3.19925000000000e+00 6.48039439582236e-02 5.32482018336823e-04
3.23275000000000e+00 6.42458581708332e-02 5.30653100687132e-04
3.26625000000000e+00 6.36925785684843e-02 5.28802066289130e-04
3.29975000000000e+00 6.31440637607399e-02 5.26929768325304e-04
3.33325000000000e+00 6.26002727136138e-02 5.25037036776703e-04
3.36675000000000e+00 6.20611647465006e-02 5.23124679143446e-04
3.40025000000000e+00 6.15266995291329e-02 5.21193481136480e-04
3.43375000000000e+00 6.09968370785638e-02 5.19244207342465e-04
3.46725000000000e+00 6.04715377561759e-02 5.17277601862922e-04
3.50075000000000e+00 5.99507622647162e-02 5.15294388928715e-04
3.53425000000000e+00 5.94344716453562e-02 5.13295273491422e-04
3.56775000000000e+00 5.89226272747772e-02 5.11280941792449e-04
3.60125000000000e+00 5.84151908622811e-02 5.09252061910920e-04
3.63475000000000e+00 5.79121244469260e-02 5.07209284291527e-04
3.66825000000000e+00 5.74133903946860e-02 5.05153242253058e-04
3.70175000000000e+00 5.69189513956363e-02 5.03084552478670e-04
3.73525000000000e+00 5.64287704611618e-02 5.01003815488632e-04
3.76875000000000e+00 5.59428109211901e-02 4.98911616096321e-04
3.80225000000000e+00 5.54610364214479e-02 4.96808523848254e-04
3.83575000000000e+00 5.49834109207421e-02 4.94695093448896e-04
3.86925000000000e+00 5.45098986882629e-02 4.92571865170793e-04
3.90275000000000e+00 5.40404643009110e-02 4.90439365250762e-04
3.93625000000000e+00 5.35750726406478e-02 4.88298106272702e-04
3.96975000000000e+00 5.31136888918680e-02 4.86148587537571e-04
4.00325000000000e+00 5.26562785387954e-02 4.83991295421143e-04
4.03675000000000e+00 5.22028073629003e-02 4.81826703719979e-04
4.07025000000000e+00 5.17532414403401e-02 4.79655273986096e-04
4.10375000000000e+00 5.13075471394213e-02 4.77477455850808e-04
4.13725000000000e+00 5.08656911180835e-02 4.75293687338273e-04
4.17075000000000e+00 5.04276403214052e-02 4.73104395168955e-04
4.20425000000000e+00 4.99933619791309e-02 4.70909995053621e-04
4.23775000000000e+00 4.95628236032196e-02 4.68710891978115e-04
4.27125000000000e+00 4.91359929854145e-02 4.66507480479257e-04
4.30475000000000e+00 4.87128381948333e-02 4.64300144912295e-04
4.33825000000000e+00 4.82933275755797e-02 4.62089259710148e-04
4.37175000000000e+00 4.78774297443752e-02 4.59875189634883e-04
4.40525000000000e+00 4.74651135882113e-02 4.57658290021552e-04
4.43875000000000e+00 4.70563482620217e-02 4.55438907014737e-04
4.47225000000000e+00 4.66511031863754e-02 4.53217377798151e-04
4.50575000000000e+00 4.62493480451886e-02 4.50994030817445e-04
4.53925000000000e+00 4.58510527834568e-02 4.48769185996535e-04
4.57275000000000e+00 4.54561876050067e-02 4.46543154947652e-04
4.60625000000000e+00 4.50647229702669e-02 4.44316241175328e-04
4.63975000000000e+00 4.46766295940581e-02 4.42088740274573e-04
4.67325000000000e+00 4.42918784434024e-02 4.39860940123434e-04
4.70675000000000e+00 4.39104407353515e-02 4.37633121070108e-04
4.74025000000000e+00 4.35322879348329e-02 4.35405556114812e-04
4.77375000000000e+00 4.31573917525160e-02 4.33178511086604e-04
4.80725000000000e+00 4.27857241426950e-02 4.30952244815326e-04
4.84075000000000e+00 4.24172573011917e-02 4.28727009298832e-04
4.87425000000000e+00 4.20519636632745e-02 4.26503049865598e-04
4.90775000000000e+00 4.16898159015972e-02 4.24280605333005e-04
4.94125000000000e+00 4.13307869241539e-02 4.22059908161311e-04
4.97475000000000e+00 4.09748498722531e-02 4.19841184603449e-04
5.00825000000000e+00 4.06219781185076e-02 4.17624654850999e-04
5.04175000000000e+00 4.02721452648430e-02 4.15410533176137e-04
5.07525000000000e+00 3.99253251405228e-02 4.13199028069885e-04
5.10875000000000e+00 3.95814918001904e-02 4.10990342376816e-04
5.14225000000000e+00 3.92406195219284e-02 4.08784673426179e-04
5.17575000000000e+00 3.89026828053343e-02 4.06582213159643e-04
5.20925000000000e+00 3.85676563696128e-02 4.04383148255836e-04
5.24275000000000e+00 3.82355151516845e-02 4.02187660251639e-04
5.27625000000000e+00 3.79062343043109e-02 3.99995925660330e-04
5.30975000000000e+00 3.75797891942360e-02 3.97808116086861e-04
5.34325000000000e+00 3.72561554003429e-02 3.95624398340206e-04
5.37675000000000e+00 3.69353087118273e-02 3.93444934542819e-04
5.41025000000000e+00 3.66172251263862e-02 3.91269882237423e-04
5.44375000000000e+00 3.63018808484224e-02 3.89099394491168e-04
5.47725000000000e+00 3.59892522872640e-02 3.86933619997198e-04
5.51075000000000e+00 3.56793160554000e-02 3.84772703173741e-04
5.54425000000000e+00 3.53720489667307e-02 3.82616784260755e-04
5.57775000000000e+00 3.50674280348328e-02 3.80465999414222e-04
5.61125000000000e+00 3.47654304712401e-02 3.78320480798218e-04
5.64475000000000e+00 3.44660336837387e-02 3.76180356674709e-04
5.67825000000000e+00 3.41692152746768e-02 3.74045751491198e-04
5.71175000000000e+00 3.38749530392891e-02 3.71916785966332e-04
5.74525000000000e+00 3.35832249640358e-02 3.69793577173392e-04
5.77875000000000e+00 3.32940092249559e-02 3.67676238621876e-04
5.81225000000000e+00 3.30072841860343e-02 3.65564880337179e-04
5.84575000000000e+00 3.27230283975831e-02 3.63459608938321e-04
5.87925000000000e+00 3.24412205946376e-02 3.61360527713916e-04
5.91275000000000e+00 3.21618396953648e-02 3.59267736696396e-04
5.94625000000000e+00 3.18848647994867e-02 3.57181332734420e-04
5.97975000000000e+00 3.16102751867166e-02 3.55101409563733e-04
6.01325000000000e+00 3.13380503152090e-02 3.53028057876330e-04
6.04675000000000e+00 3.10681698200230e-02 3.50961365388018e-04
6.08025000000000e+00 3.08006135115988e-02 3.48901416904503e-04
6.11375000000000e+00 3.05353613742471e-02 3.46848294385920e-04
6.14725000000000e+00 3.02723935646522e-02 3.44802077009914e-04
6.18075000000000e+00 3.00116904103870e-02 3.42762841233312e-04
6.21425000000000e+00 2.97532324084419e-02 3.40730660852419e-04
6.24775000000000e+00 2.94970002237652e-02 3.38705607061945e-04
6.28125000000000e+00 2.92429746878170e-02 3.36687748512593e-04
6.31475000000000e+00 2.89911367971352e-02 3.34677151367379e-04
6.34825000000000e+00 2.87414677119140e-02 3.32673879356764e-04
6.38175000000000e+00 2.84939487545939e-02 3.30677993832490e-04
6.41525000000000e+00 2.82485614084652e-02 3.28689553820242e-04
6.44875000000000e+00 2.80052873162824e-02 3.26708616071200e-04
6.48225000000000e+00 2.77641082788910e-02 3.24735235112412e-04
6.51575000000000e+00 2.75250062538659e-02 3.22769463296114e-04
6.54925000000000e+00 2.72879633541617e-02 3.20811350847934e-04
6.58275000000000e+00 2.70529618467748e-02 3.18860945914030e-04
6.61625000000000e+00 2.68199841514166e-02 3.16918294607294e-04
6.64975000000000e+00 2.65890128391984e-02 3.14983441052485e-04
6.68325000000000e+00 2.63600306313273e-02 3.13056427430426e-04
6.71675000000000e+00 2.61330203978142e-02 3.11137294021232e-04
6.75025000000000e+00 2.59079651561916e-02 3.09226079246605e-04
6.78375000000000e+00 2.56848480702437e-02 3.07322819711264e-04
6.81725000000000e+00 2.54636524487468e-02 3.05427550243476e-04
6.85075000000000e+00 2.52443617442201e-02 3.03540303934710e-04
6.88425000000000e+00 2.50269595516887e-02 3.01661112178447e-04
6.91775000000000e+00 2.48114296074556e-02 2.99790004708218e-04
6.95125000000000e+00 2.45977557878854e-02 2.97927009634773e-04
6.98475000000000e+00 2.43859221081980e-02 2.96072153482498e-04
7.01825000000000e+00 2.41759127212727e-02 2.94225461225107e-04
7.05175000000000e+00 2.39677119164631e-02 2.92386956320520e-04
7.08525000000000e+00 2.37613041184211e-02 2.90556660745024e-04
7.11875000000000e+00 2.35566738859323e-02 2.88734595026773e-04
7.15225000000000e+00 2.33538059107607e-02 2.86920778278546e-04
7.18575000000000e+00 2.31526850165034e-02 2.85115228229817e-04
7.21925000000000e+00 2.29532961574553e-02 2.83317961258189e-04
7.25275000000000e+00 2.27556244174837e-02 2.81528992420164e-04
7.28625000000000e+00 2.25596550089121e-02 2.79748335481261e-04
7.31975000000000e+00 2.23653732714143e-02 2.77976002945558e-04
7.35325000000000e+00 2.21727646709175e-02 2.76212006084570e-04
7.38675000000000e+00 2.19818147985150e-02 2.74456354965560e-04
7.42025000000000e+00 2.17925093693885e-02 2.72709058479303e-04
7.45375000000000e+00 2.16048342217389e-02 2.70970124367209e-04
7.48725000000000e+00 2.14187753157275e-02 2.69239559247921e-04
7.52075000000000e+00 2.12343187324256e-02 2.67517368643421e-04
7.55425000000000e+00 2.10514506727727e-02 2.65803557004541e-04
7.58775000000000e+00 2.08701574565450e-02 2.64098127735953e-04
7.62125000000000e+00 2.06904255213311e-02 2.62401083220696e-04
7.65475000000000e+00 2.05122414215182e-02 2.60712424844176e-04
7.68825000000000e+00 2.03355918272858e-02 2.59032153017660e-04
7.72175000000000e+00 2.01604635236088e-02 2.57360267201355e-04
7.75525000000000e+00 1.99868434092684e-02 2.55696765926931e-04
7.78875000000000e+00 1.98147184958726e-02 2.54041646819665e-04
7.82225000000000e+00 1.96440759068841e-02 2.52394906620136e-04
7.85575000000000e+00 1.94749028766574e-02 2.50756541205431e-04
7.88925000000000e+00 1.93071867494834e-02 2.49126545609948e-04
7.92275000000000e+00 1.91409149786429e-02 2.47504914045788e-04
7.95625000000000e+00 1.89760751254679e-02 2.45891639922720e-04
7.98975000000000e+00 1.88126548584111e-02 2.44286715867758e-04
8.02325000000000e+00 1.86506419521236e-02 2.42690133744367e-04
8.05675000000000e+00 1.84900242865398e-02 2.41101884671258e-04
8.09025000000000e+00 1.83307898459712e-02 2.39521959040772e-04
8.12375000000000e+00 1.81729267182073e-02 2.37950346536943e-04
8.15725000000000e+00 1.80164230936245e-02 2.36387036153194e-04
8.19075000000000e+00 1.78612672643026e-02 2.34832016209666e-04
8.22425000000000e+00 1.77074476231490e-02 2.33285274370239e-04
8.25775000000000e+00 1.75549526630303e-02 2.31746797659138e-04
8.29125000000000e+00 1.74037709759116e-02 2.30216572477240e-04
8.32475000000000e+00 1.72538912520028e-02 2.28694584618097e-04
8.35825000000000e+00 1.71053022789130e-02 2.27180819283594e-04
8.39175000000000e+00 1.69579929408111e-02 2.25675261099323e-04
8.42525000000000e+00 1.68119522175946e-02 2.24177894129589e-04
8.45875000000000e+00 1.66671691840654e-02 2.22688701892184e-04
8.49225000000000e+00 1.65236330091120e-02 2.21207667372860e-04
8.52575000000000e+00 1.63813329548994e-02 2.19734773039481e-04
8.55925000000000e+00 1.62402583760661e-02 2.18270000855916e-04
8.59275000000000e+00 1.61003987189274e-02 2.16813332295616e-04
8.62625000000000e+00 1.59617435206859e-02 2.15364748354987e-04
8.65975000000000e+00 1.58242824086491e-02 2.13924229566462e-04
8.69325000000000e+00 1.56880050994530e-02 2.12491756011277e-04
8.72675000000000e+00 1.55529013982931e-02 2.11067307332054e-04
8.76025000000000e+00 1.54189611981616e-02 2.09650862745100e-04
8.79375000000000e+00 1.52861744790914e-02 2.08242401052458e-04
8.82725000000000e+00 1.51545313074064e-02 2.06841900653733e-04
8.86075000000000e+00 1.50240218349786e-02 2.05449339557656e-04
8.89425000000000e+00 1.48946362984910e-02 2.04064695393451e-04
8.92775000000000e+00 1.47663650187075e-02 2.02687945421965e-04
8.96125000000000e+00 1.46391983997487e-02 2.01319066546545e-04
8.99475000000000e+00 1.45131269283740e-02 1.99958035323751e-04
9.02825000000000e+00 1.43881411732702e-02 1.98604827973802e-04
9.06175000000000e+00 1.42642317843456e-02 1.97259420390838e-04
9.09525000000000e+00 1.41413894920304e-02 1.95921788152978e-04
9.12875000000000e+00 1.40196051065840e-02 1.94591906532179e-04
9.16225000000000e+00 1.38988695174066e-02 1.93269750503895e-04
9.19575000000000e+00 1.37791736923583e-02 1.91955294756518e-04
9.22925000000000e+00 1.36605086770832e-02 1.90648513700653e-04
9.26275000000000e+00 1.35428655943393e-02 1.89349381478223e-04
9.29625000000000e+00 1.34262356433348e-02 1.88057871971354e-04
9.32975000000000e+00 1.33106100990696e-02 1.86773958811086e-04
9.36325000000000e+00 1.31959803116823e-02 1.85497615385952e-04
9.39675000000000e+00 1.30823377058035e-02 1.84228814850328e-04
9.43025000000000e+00 1.29696737799140e-02 1.82967530132639e-04
9.46375000000000e+00 1.28579801057091e-02 1.81713733943405e-04
9.49725000000000e+00 1.27472483274677e-02 1.80467398783102e-04
9.53075000000000e+00 1.26374701614276e-02 1.79228496949903e-04
9.56425000000000e+00 1.25286373951655e-02 1.77997000547222e-04
9.59775000000000e+00 1.24207418869828e-02 1.76772881491103e-04
9.63125000000000e+00 1.23137755652966e-02 1.75556111517511e-04
9.66475000000000e+00 1.22077304280354e-02 1.74346662189413e-04
9.69825000000000e+00 1.21025985420413e-02 1.73144504903735e-04
9.73175000000000e+00 1.19983720424758e-02 1.71949610898199e-04
9.76525000000000e+00 1.18950431322315e-02 1.70761951257992e-04
9.79875000000000e+00 1.17926040813494e-02 1.69581496922312e-04
9.83225000000000e+00 1.16910472264399e-02 1.68408218690766e-04
9.86575000000000e+00 1.15903649701100e-02 1.67242087229663e-04
9.89925000000000e+00 1.14905497803947e-02 1.66083073078145e-04
9.93275000000000e+00 1.13915941901936e-02 1.64931146654210e-04
9.96625000000000e+00 1.12934907967123e-02 1.63786278260597e-04
9.99975000000000e+00 1.11962322609088e-02 1.62648438090572e-04
1.00332500000000e+01 1.10998113069439e-02 1.61517596233581e-04
1.00667500000000e+01 1.10042207216376e-02 1.60393722680763e-04
1.01002500000000e+01 1.09094533539290e-02 1.59276787330385e-04
1.01337500000000e+01 1.08155021143415e-02 1.58166759993142e-04
1.01672500000000e+01 1.07223599744526e-02 1.57063610397350e-04
1.02007500000000e+01 1.06300199663678e-02 1.55967308194038e-04
1.02342500000000e+01 1.05384751821996e-02 1.54877822961900e-04
1.02677500000000e+01 1.04477187735503e-02 1.53795124212194e-04
1.03012500000000e+01 1.03577439510004e-02 1.52719181393492e-04
1.03347500000000e+01 1.02685439836001e-02 1.51649963896342e-04
1.03682500000000e+01 1.01801121983659e-02 1.50587441057868e-04
1.04017500000000e+01 1.00924419797815e-02 1.49531582166201e-04
1.04352500000000e+01 1.00055267693027e-02 1.48482356464862e-04
1.04687500000000e+01 9.91936006486720e-03 1.47439733157054e-04
1.05022500000000e+01 9.83393542040758e-03 1.46403681409844e-04
1.05357500000000e+01 9.74924644536950e-03 1.45374170358255e-04
1.05692500000000e+01 9.66528680423350e-03 1.44351169109271e-04
