Energy (eV)          EEDF (eV^-(3/2))     First Anisotropy
2.54687500000000e-04 3.88913223463140e+01 1.55808522076113e-02
7.64062500000000e-04 3.86816991546439e+01 2.57456295631971e-02
1.27343750000000e-03 3.84732058264632e+01 3.40327818339616e-02
1.78281250000000e-03 3.82658362717854e+01 4.03564489847648e-02
2.29218750000000e-03 3.80595844334912e+01 4.56535737573422e-02
2.80156250000000e-03 3.78544442871156e+01 5.02776384743888e-02
3.31093750000000e-03 3.76504098406674e+01 5.44111968302861e-02
3.82031250000000e-03 3.74474751344525e+01 5.81642678459348e-02
4.32968750000000e-03 3.72456342408999e+01 6.16096742133907e-02
4.83906250000000e-03 3.70448812643882e+01 6.47987845286812e-02
5.34843750000000e-03 3.68452103410733e+01 6.77695500725860e-02
5.85781250000000e-03 3.66466156387173e+01 7.05510169108422e-02
6.36718750000000e-03 3.64490913565177e+01 7.31660441748070e-02
6.87656250000000e-03 3.62526317249383e+01 7.56330335555398e-02
7.38593750000000e-03 3.60572310055406e+01 7.79670787709955e-02
7.89531250000000e-03 3.58628834908161e+01 8.01807573399287e-02
8.40468750000000e-03 3.56695835040196e+01 8.22846925056961e-02
8.91406250000000e-03 3.54773253990034e+01 8.42879622751771e-02
9.42343750000000e-03 3.52861035600526e+01 8.61984037335408e-02
9.93281250000000e-03 3.50959124017205e+01 8.80228437827423e-02
1.04421875000000e-02 3.49067463686661e+01 8.97672770320773e-02
1.09515625000000e-02 3.47185999354915e+01 9.14370049835696e-02
1.14609375000000e-02 3.45314676065804e+01 9.30367463765110e-02
1.19703125000000e-02 3.43453439159379e+01 9.45707257073377e-02
1.24796875000000e-02 3.41602234270306e+01 9.60427450033959e-02
1.29890625000000e-02 3.39761007326277e+01 9.74562425850923e-02
1.34984375000000e-02 3.37929704546436e+01 9.88143416021409e-02
1.40078125000000e-02 3.36108272439801e+01 1.00119890449083e-01
1.45171875000000e-02 3.34296657803707e+01 1.01375496669997e-01
1.50265625000000e-02 3.32494807722249e+01 1.02583555597036e-01
1.55359375000000e-02 3.30702669564737e+01 1.03746274694876e-01
1.60453125000000e-02 3.28920190984161e+01 1.04865694377229e-01
1.65546875000000e-02 3.27147319915657e+01 1.05943705904606e-01
1.70640625000000e-02 3.25384004574991e+01 1.06982066851562e-01
1.75734375000000e-02 3.23630193457045e+01 1.07982414537663e-01
1.80828125000000e-02 3.21885835334312e+01 1.08946277742691e-01
1.85921875000000e-02 3.20150879255399e+01 1.09875086968486e-01
1.91015625000000e-02 3.18425274543540e+01 1.10770183463484e-01
1.96109375000000e-02 3.16708970795117e+01 1.11632827188859e-01
2.01203125000000e-02 3.15001917878183e+01 1.12464203875351e-01
2.06296875000000e-02 3.13304065931004e+01 1.13265431295477e-01
2.11390625000000e-02 3.11615365360597e+01 1.14037564856097e-01
2.16484375000000e-02 3.09935766841286e+01 1.14781602600020e-01
2.21578125000000e-02 3.08265221313257e+01 1.15498489691826e-01
2.26671875000000e-02 3.06603679981129e+01 1.16189122452101e-01
2.31765625000000e-02 3.04951094312525e+01 1.16854351994986e-01
2.36859375000000e-02 3.03307416036658e+01 1.17494987516095e-01
2.41953125000000e-02 3.01672597142919e+01 1.18111799271456e-01
2.47046875000000e-02 3.00046589879472e+01 1.18705521282621e-01
2.52140625000000e-02 2.98429346751866e+01 1.19276853798412e-01
2.57234375000000e-02 2.96820820521643e+01 1.19826465539821e-01
2.62328125000000e-02 2.95220964204957e+01 1.20354995751254e-01
2.67421875000000e-02 2.93629731071205e+01 1.20863056078340e-01
2.72515625000000e-02 2.92047074641661e+01 1.21351232290164e-01
2.77609375000000e-02 2.90472948688117e+01 1.21820085861580e-01
2.82703125000000e-02 2.88907307231536e+01 1.22270155429381e-01
2.87796875000000e-02 2.87350104540704e+01 1.22701958134635e-01
2.92890625000000e-02 2.85801295130900e+01 1.23115990861960e-01
2.97984375000000e-02 2.84260833762561e+01 1.23512731385396e-01
3.03078125000000e-02 2.82728675439967e+01 1.23892639429514e-01
3.08171875000000e-02 2.81204775409922e+01 1.24256157653319e-01
3.13265625000000e-02 2.79689089160449e+01 1.24603712563839e-01
3.18359375000000e-02 2.78181572419490e+01 1.24935715365609e-01
3.23453125000000e-02 2.76682181153612e+01 1.25252562751439e-01
3.28546875000000e-02 2.75190871566720e+01 1.25554637639507e-01
3.33640625000000e-02 2.73707600098780e+01 1.25842309861204e-01
3.38734375000000e-02 2.72232323424545e+01 1.26115936803764e-01
3.43828125000000e-02 2.70764998452290e+01 1.26375864011327e-01
3.48921875000000e-02 2.69305582322552e+01 1.26622425747735e-01
3.54015625000000e-02 2.67854032406881e+01 1.26855945524049e-01
3.59109375000000e-02 2.66410306306594e+01 1.27076736593480e-01
3.64203125000000e-02 2.64974361851533e+01 1.27285102416248e-01
3.69296875000000e-02 2.63546157098837e+01 1.27481337096584e-01
3.74390625000000e-02 2.62125650331718e+01 1.27665725793941e-01
3.79484375000000e-02 2.60712800058239e+01 1.27838545110265e-01
3.84578125000000e-02 2.59307565010101e+01 1.28000063455086e-01
3.89671875000000e-02 2.57909904141444e+01 1.28150541389945e-01
3.94765625000000e-02 2.56519776627642e+01 1.28290231953637e-01
3.99859375000000e-02 2.55137141864114e+01 1.28419380969580e-01
4.04953125000000e-02 2.53761959465133e+01 1.28538227336490e-01
4.10046875000000e-02 2.52394189262655e+01 1.28647003303529e-01
4.15140625000000e-02 2.51033791305137e+01 1.28745934730922e-01
4.20234375000000e-02 2.49680725856375e+01 1.28835241336989e-01
4.25328125000000e-02 2.48334953394343e+01 1.28915136932500e-01
4.30421875000000e-02 2.46996434610036e+01 1.28985829643121e-01
4.35515625000000e-02 2.45665130406324e+01 1.29047522120708e-01
4.40609375000000e-02 2.44341001896811e+01 1.29100411744163e-01
4.45703125000000e-02 2.43024010404695e+01 1.29144690810484e-01
4.50796875000000e-02 2.41714117461643e+01 1.29180546716567e-01
4.55890625000000e-02 2.40411284806665e+01 1.29208162132364e-01
4.60984375000000e-02 2.39115474384996e+01 1.29227715165897e-01
4.66078125000000e-02 2.37826648346985e+01 1.29239379520567e-01
4.71171875000000e-02 2.36544769046991e+01 1.29243324645252e-01
4.76265625000000e-02 2.35269799042280e+01 1.29239715877594e-01
4.81359375000000e-02 2.34001701091936e+01 1.29228714580831e-01
4.86453125000000e-02 2.32740438155768e+01 1.29210478274560e-01
4.91546875000000e-02 2.31485973393231e+01 1.29185160759761e-01
4.96640625000000e-02 2.30238270162352e+01 1.29152912238419e-01
5.01734375000000e-02 2.28997292018654e+01 1.29113879427993e-01
5.06828125000000e-02 2.27763002714097e+01 1.29068205671024e-01
5.11921875000000e-02 2.26535366196015e+01 1.29016031040173e-01
5.17015625000000e-02 2.25314346606068e+01 1.28957492438847e-01
5.22109375000000e-02 2.24099908279188e+01 1.28892723697761e-01
5.27203125000000e-02 2.22892015742543e+01 1.28821855667543e-01
5.32296875000000e-02 2.21690633714498e+01 1.28745016307593e-01
5.37390625000000e-02 2.20495727103584e+01 1.28662330771455e-01
5.42484375000000e-02 2.19307261007477e+01 1.28573921488800e-01
5.47578125000000e-02 2.18125200711973e+01 1.28479908244235e-01
5.52671875000000e-02 2.16949511689977e+01 1.28380408253074e-01
5.57765625000000e-02 2.15780159600495e+01 1.28275536234186e-01
5.62859375000000e-02 2.14617110287628e+01 1.28165404480124e-01
5.67953125000000e-02 2.13460329779580e+01 1.28050122924613e-01
5.73046875000000e-02 2.12309784287659e+01 1.27929799207580e-01
5.78140625000000e-02 2.11165440205295e+01 1.27804538737745e-01
5.83234375000000e-02 2.10027264107054e+01 1.27674444752957e-01
5.88328125000000e-02 2.08895222747667e+01 1.27539618378388e-01
5.93421875000000e-02 2.07769283061055e+01 1.27400158682611e-01
5.98515625000000e-02 2.06649412159364e+01 1.27256162731732e-01
6.03609375000000e-02 2.05535577332004e+01 1.27107725641635e-01
6.08703125000000e-02 2.04427746044698e+01 1.26954940628389e-01
6.13796875000000e-02 2.03325885938522e+01 1.26797899056940e-01
6.18890625000000e-02 2.02229964828970e+01 1.26636690488158e-01
6.23984375000000e-02 2.01139950705008e+01 1.26471402724283e-01
6.29078125000000e-02 2.00055811728142e+01 1.26302121852879e-01
6.34171875000000e-02 1.98977516231484e+01 1.26128932289307e-01
6.39265625000000e-02 1.97905032718833e+01 1.25951916817822e-01
6.44359375000000e-02 1.96838329863749e+01 1.25771156631324e-01
6.49453125000000e-02 1.95777376508642e+01 1.25586731369850e-01
6.54546875000000e-02 1.94722141663860e+01 1.25398719157823e-01
6.59640625000000e-02 1.93672594506784e+01 1.25207196640110e-01
6.64734375000000e-02 1.92628704380931e+01 1.25012239016974e-01
6.69828125000000e-02 1.91590440795051e+01 1.24813920077921e-01
6.74921875000000e-02 1.90557773422245e+01 1.24612312234518e-01
6.80015625000000e-02 1.89530672099073e+01 1.24407486552183e-01
6.85109375000000e-02 1.88509106824675e+01 1.24199512781039e-01
6.90203125000000e-02 1.87493047759897e+01 1.23988459385814e-01
6.95296875000000e-02 1.86482465226414e+01 1.23774393574880e-01
7.00390625000000e-02 1.85477329705870e+01 1.23557381328406e-01
7.05484375000000e-02 1.84477611839010e+01 1.23337487425682e-01
7.10578125000000e-02 1.83483282424824e+01 1.23114775471680e-01
7.15671875000000e-02 1.82494312419697e+01 1.22889307922810e-01
7.20765625000000e-02 1.81510672936555e+01 1.22661146111949e-01
7.25859375000000e-02 1.80532335244028e+01 1.22430350272771e-01
7.30953125000000e-02 1.79559270765605e+01 1.22196979563391e-01
7.36046875000000e-02 1.78591451078803e+01 1.21961092089330e-01
7.41140625000000e-02 1.77628847914335e+01 1.21722744925854e-01
7.46234375000000e-02 1.76671433155284e+01 1.21481994139689e-01
7.51328125000000e-02 1.75719178836283e+01 1.21238894810144e-01
7.56421875000000e-02 1.74772057142698e+01 1.20993501049675e-01
7.61515625000000e-02 1.73830040409815e+01 1.20745866023871e-01
7.66609375000000e-02 1.72893101122031e+01 1.20496041970916e-01
7.71703125000000e-02 1.71961211912052e+01 1.20244080220538e-01
7.76796875000000e-02 1.71034345560094e+01 1.19990031212460e-01
7.81890625000000e-02 1.70112474993085e+01 1.19733944514351e-01
7.86984375000000e-02 1.69195573283879e+01 1.19475868839335e-01
7.92078125000000e-02 1.68283613650463e+01 1.19215852063027e-01
7.97171875000000e-02 1.67376569455181e+01 1.18953941240137e-01
8.02265625000000e-02 1.66474414203952e+01 1.18690182620658e-01
8.07359375000000e-02 1.65577121545497e+01 1.18424621665646e-01
8.12453125000000e-02 1.64684665270573e+01 1.18157303062598e-01
8.17546875000000e-02 1.63797019311199e+01 1.17888270740447e-01
8.22640625000000e-02 1.62914157739903e+01 1.17617567884183e-01
8.27734375000000e-02 1.62036054768961e+01 1.17345236949128e-01
8.32828125000000e-02 1.61162684749644e+01 1.17071319674853e-01
8.37921875000000e-02 1.60294022171469e+01 1.16795857098749e-01
8.43015625000000e-02 1.59430041661453e+01 1.16518889569277e-01
8.48109375000000e-02 1.58570717983373e+01 1.16240456758917e-01
8.53203125000000e-02 1.57716026037030e+01 1.15960597676784e-01
8.58296875000000e-02 1.56865940857513e+01 1.15679350680965e-01
8.63390625000000e-02 1.56020437614471e+01 1.15396753490541e-01
8.68484375000000e-02 1.55179491611388e+01 1.15112843197374e-01
8.73578125000000e-02 1.54343078284863e+01 1.14827656277573e-01
8.78671875000000e-02 1.53511173203890e+01 1.14541228602710e-01
8.83765625000000e-02 1.52683752069146e+01 1.14253595450800e-01
8.88859375000000e-02 1.51860790712279e+01 1.13964791517016e-01
8.93953125000000e-02 1.51042265095205e+01 1.13674850924143e-01
8.99046875000000e-02 1.50228151309406e+01 1.13383807232828e-01
9.04140625000000e-02 1.49418425575229e+01 1.13091693451593e-01
9.09234375000000e-02 1.48613064241191e+01 1.12798542046613e-01
9.14328125000000e-02 1.47812043783292e+01 1.12504384951296e-01
9.19421875000000e-02 1.47015340804326e+01 1.12209253575625e-01
9.24515625000000e-02 1.46222932033197e+01 1.11913178815319e-01
9.29609375000000e-02 1.45434794324237e+01 1.11616191060802e-01
9.34703125000000e-02 1.44650904656537e+01 1.11318320205965e-01
9.39796875000000e-02 1.43871240133266e+01 1.11019595656728e-01
9.44890625000000e-02 1.43095777981010e+01 1.10720046339460e-01
9.49984375000000e-02 1.42324495549099e+01 1.10419700709159e-01
9.55078125000000e-02 1.41557370308953e+01 1.10118586757516e-01
9.60171875000000e-02 1.40794379853418e+01 1.09816732020799e-01
9.65265625000000e-02 1.40035501896116e+01 1.09514163587528e-01
9.70359375000000e-02 1.39280714270791e+01 1.09210908106049e-01
9.75453125000000e-02 1.38529994930663e+01 1.08906991791940e-01
9.80546875000000e-02 1.37783321947782e+01 1.08602440435225e-01
9.85640625000000e-02 1.37040673512391e+01 1.08297279407494e-01
9.90734375000000e-02 1.36302027932286e+01 1.07991533668828e-01
9.95828125000000e-02 1.35567363632184e+01 1.07685227774622e-01
1.00092187500000e-01 1.34836659153091e+01 1.07378385882276e-01
1.00601562500000e-01 1.34109893151678e+01 1.07071031757704e-01
1.01110937500000e-01 1.33387044399655e+01 1.06763188781768e-01
1.01620312500000e-01 1.32668091783152e+01 1.06454879956551e-01
1.02129687500000e-01 1.31953014302102e+01 1.06146127911530e-01
1.02639062500000e-01 1.31241791069629e+01 1.05836954909593e-01
1.03148437500000e-01 1.30534401311436e+01 1.05527382852972e-01
1.03657812500000e-01 1.29830824365197e+01 1.05217433289058e-01
1.04167187500000e-01 1.29131039679959e+01 1.04907127416096e-01
1.04676562500000e-01 1.28435026815535e+01 1.04596486088756e-01
1.05185937500000e-01 1.27742765441911e+01 1.04285529823626e-01
1.05695312500000e-01 1.27054235338653e+01 1.03974278804588e-01
1.06204687500000e-01 1.26369416394312e+01 1.03662752888089e-01
1.06714062500000e-01 1.25688288605841e+01 1.03350971608315e-01
1.07223437500000e-01 1.25010832078008e+01 1.03038954182266e-01
1.07732812500000e-01 1.24337027022815e+01 1.02726719514736e-01
1.08242187500000e-01 1.23666853758923e+01 1.02414286203216e-01
1.08751562500000e-01 1.23000292711073e+01 1.02101672542690e-01
1.09260937500000e-01 1.22337324409517e+01 1.01788896530330e-01
1.09770312500000e-01 1.21677929489447e+01 1.01475975870156e-01
1.10279687500000e-01 1.21022088690434e+01 1.01162927977549e-01
1.10789062500000e-01 1.20369782855859e+01 1.00849769983714e-01
1.11298437500000e-01 1.19720992932358e+01 1.00536518740067e-01
1.11807812500000e-01 1.19075699969263e+01 1.00223190822535e-01
1.12317187500000e-01 1.18433885118052e+01 9.99098025357801e-02
1.12826562500000e-01 1.17795529631795e+01 9.95963699173342e-02
1.13335937500000e-01 1.17160614864605e+01 9.92829087416851e-02
1.13845312500000e-01 1.16529122271099e+01 9.89694345242720e-02
1.14354687500000e-01 1.15901033405852e+01 9.86559625254173e-02
1.14864062500000e-01 1.15276329922860e+01 9.83425077541969e-02
1.15373437500000e-01 1.14654993575002e+01 9.80290849722345e-02
1.15882812500000e-01 1.14037006213509e+01 9.77157086974202e-02
1.16392187500000e-01 1.13422349787434e+01 9.74023932075902e-02
1.16901562500000e-01 1.12811006343124e+01 9.70891525441169e-02
1.17410937500000e-01 1.12202958023696e+01 9.67760005154428e-02
1.17920312500000e-01 1.11598187068513e+01 9.64629507005780e-02
1.18429687500000e-01 1.10996675812671e+01 9.61500164525161e-02
1.18939062500000e-01 1.10398406686477e+01 9.58372109015868e-02
1.19448437500000e-01 1.09803362214937e+01 9.55245469587611e-02
1.19957812500000e-01 1.09211525017250e+01 9.52120373189101e-02
1.20467187500000e-01 1.08622877806295e+01 9.48996944639959e-02
1.20976562500000e-01 1.08037403388128e+01 9.45875306662148e-02
1.21485937500000e-01 1.07455084661480e+01 9.42755579910787e-02
1.21995312500000e-01 1.06875904617259e+01 9.39637883004590e-02
1.22504687500000e-01 1.06299846338050e+01 9.36522332555762e-02
1.23014062500000e-01 1.05726892997622e+01 9.33409043199354e-02
1.23523437500000e-01 1.05157027860438e+01 9.30298127622153e-02
1.24032812500000e-01 1.04590234281165e+01 9.27189696591207e-02
1.24542187500000e-01 1.04026495704187e+01 9.24083858981705e-02
1.25051562500000e-01 1.03465795663124e+01 9.20980721804466e-02
1.25560937500000e-01 1.02908117780348e+01 9.17880390233138e-02
1.26070312500000e-01 1.02353445766506e+01 9.14782967630727e-02
1.26579687500000e-01 1.01801763420045e+01 9.11688555575742e-02
1.27089062500000e-01 1.01253054626737e+01 9.08597253888165e-02
1.27598437500000e-01 1.00707303359210e+01 9.05509160654708e-02
1.28107812500000e-01 1.00164493676478e+01 9.02424372253688e-02
1.28617187500000e-01 9.96246097234788e+00 8.99342983379890e-02
1.29126562500000e-01 9.90876357306059e+00 8.96265087068517e-02
1.29635937500000e-01 9.85535560132521e+00 8.93190774719031e-02
1.30145312500000e-01 9.80223549713495e+00 8.90120136118595e-02
1.30654687500000e-01 9.74940170889139e+00 8.87053259465205e-02
1.31164062500000e-01 9.69685269335922e+00 8.83990231390411e-02
1.31673437500000e-01 9.64458691562111e+00 8.80931136981510e-02
1.32182812500000e-01 9.59260284903290e+00 8.77876059803804e-02
1.32692187500000e-01 9.54089897517898e+00 8.74825081922038e-02
1.33201562500000e-01 9.48947378382798e+00 8.71778283921727e-02
1.33710937500000e-01 9.43832577288863e+00 8.68735744930414e-02
1.34220312500000e-01 9.38745344836590e+00 8.65697542638114e-02
1.34729687500000e-01 9.33685532431735e+00 8.62663753317827e-02
1.35239062500000e-01 9.28652992280972e+00 8.59634451845475e-02
1.35748437500000e-01 9.23647577387578e+00 8.56609711719751e-02
1.36257812500000e-01 9.18669141547139e+00 8.53589605081574e-02
1.36767187500000e-01 9.13717539343277e+00 8.50574202733132e-02
1.37276562500000e-01 9.08792626143406e+00 8.47563574156960e-02
1.37785937500000e-01 9.03894258094505e+00 8.44557787534379e-02
1.38295312500000e-01 8.99022292118919e+00 8.41556909763843e-02
1.38804687500000e-01 8.94176585910174e+00 8.38561006478975e-02
1.39314062500000e-01 8.89356997928828e+00 8.35570142066390e-02
1.39823437500000e-01 8.84563387398329e+00 8.32584379683229e-02
1.40332812500000e-01 8.79795614300911e+00 8.29603781274224e-02
1.40842187500000e-01 8.75053539373496e+00 8.26628407588847e-02
1.41351562500000e-01 8.70337024103632e+00 8.23658318198097e-02
1.41860937500000e-01 8.65645930725448e+00 8.20693571510810e-02
1.42370312500000e-01 8.60980122215623e+00 8.17734224790156e-02
1.42879687500000e-01 8.56339462289390e+00 8.14780334169506e-02
1.43389062500000e-01 8.51723815396554e+00 8.11831954668212e-02
1.43898437500000e-01 8.47133046717531e+00 8.08889140207255e-02
1.44407812500000e-01 8.42567022159411e+00 8.05951943624511e-02
1.44917187500000e-01 8.38025608352042e+00 8.03020416689817e-02
1.45426562500000e-01 8.33508672644132e+00 8.00094610120011e-02
1.45935937500000e-01 8.29016083099379e+00 7.97174573593586e-02
1.46445312500000e-01 8.24547708492609e+00 7.94260355764985e-02
1.46954687500000e-01 8.20103418305953e+00 7.91352004278982e-02
1.47464062500000e-01 8.15683082725028e+00 7.88449565784747e-02
1.47973437500000e-01 8.11286572635147e+00 7.85553085949681e-02
1.48482812500000e-01 8.06913759617548e+00 7.82662609473111e-02
1.48992187500000e-01 8.02564515945642e+00 7.79778180099778e-02
1.49501562500000e-01 7.98238714581284e+00 7.76899840632982e-02
1.50010937500000e-01 7.93936229171061e+00 7.74027632947748e-02
1.50520312500000e-01 7.89656934042602e+00 7.71161598003831e-02
1.51029687500000e-01 7.85400704200904e+00 7.68301775858325e-02
1.51539062500000e-01 7.81167415324686e+00 7.65448205678119e-02
1.52048437500000e-01 7.76956943762757e+00 7.62600925752390e-02
1.52557812500000e-01 7.72769166530398e+00 7.59759973504872e-02
1.53067187500000e-01 7.68603961305780e+00 7.56925385505738e-02
1.53576562500000e-01 7.64461206426380e+00 7.54097197483522e-02
1.54085937500000e-01 7.60340780885436e+00 7.51275444336778e-02
1.54595312500000e-01 7.56242564328410e+00 7.48460160145643e-02
1.55104687500000e-01 7.52166437049467e+00 7.45651378183190e-02
1.55614062500000e-01 7.48112279987990e+00 7.42849130926634e-02
1.56123437500000e-01 7.44079974725090e+00 7.40053450068508e-02
1.56632812500000e-01 7.40069403480155e+00 7.37264366527383e-02
1.57142187500000e-01 7.36080449107408e+00 7.34481910458723e-02
1.57651562500000e-01 7.32112995092482e+00 7.31706111265533e-02
1.58160937500000e-01 7.28166925549022e+00 7.28936997608766e-02
1.58670312500000e-01 7.24242125215296e+00 7.26174597417638e-02
1.59179687500000e-01 7.20338479450831e+00 7.23418937899873e-02
1.59689062500000e-01 7.16455874233061e+00 7.20670045551719e-02
1.60198437500000e-01 7.12594196154000e+00 7.17927946167787e-02
1.60707812500000e-01 7.08753332416928e+00 7.15192664850938e-02
