Energy (eV)          EEDF (eV^-(3/2))     First Anisotropy
5.87179487179487e-04 2.32323675114196e+01 1.25230762360068e-02
1.76153846153846e-03 2.30277085552414e+01 2.06575212763457e-02
2.93589743589744e-03 2.28248524836044e+01 2.72130089490903e-02
4.11025641025641e-03 2.26237834152878e+01 3.21585517368486e-02
5.28461538461538e-03 2.24244856077139e+01 3.62545683501764e-02
6.45897435897436e-03 2.22269434578354e+01 3.97893873225328e-02
7.63333333333333e-03 2.20311414993936e+01 4.29126250480362e-02
8.80769230769231e-03 2.18370644029127e+01 4.57148701923631e-02
9.98205128205128e-03 2.16446969736677e+01 4.82563600059320e-02
1.11564102564103e-02 2.14540241502065e+01 5.05797791839014e-02
1.23307692307692e-02 2.12650310059479e+01 5.27168065033358e-02
1.35051282051282e-02 2.10777027428971e+01 5.46917967978034e-02
1.46794871794872e-02 2.08920246948006e+01 5.65240030054973e-02
1.58538461538462e-02 2.07079823245846e+01 5.82289927315441e-02
1.70282051282051e-02 2.05255612241520e+01 5.98195914031368e-02
1.82025641025641e-02 2.03447471104721e+01 6.13065329020366e-02
1.93769230769231e-02 2.01655258272733e+01 6.26989221134327e-02
2.05512820512820e-02 1.99878833429844e+01 6.40045724275384e-02
2.17256410256410e-02 1.98118057503240e+01 6.52302572794869e-02
2.29000000000000e-02 1.96372792631392e+01 6.63819010538924e-02
2.40743589743590e-02 1.94642902174190e+01 6.74647265128695e-02
2.52487179487179e-02 1.92928250695210e+01 6.84833705331102e-02
2.64230769230769e-02 1.91228703956485e+01 6.94419760253753e-02
2.75974358974359e-02 1.89544128891698e+01 7.03442656652730e-02
2.87717948717949e-02 1.87874393612213e+01 7.11936017736125e-02
2.99461538461538e-02 1.86219367391243e+01 7.19930355903828e-02
3.11205128205128e-02 1.84578920657970e+01 7.27453480464601e-02
3.22948717948718e-02 1.82952924974134e+01 7.34530836480613e-02
3.34692307692308e-02 1.81341253037367e+01 7.41185789468289e-02
3.46435897435897e-02 1.79743778666754e+01 7.47439867760852e-02
3.58179487179487e-02 1.78160376796581e+01 7.53312968884819e-02
3.69923076923077e-02 1.76590923455473e+01 7.58823535191119e-02
3.81666666666667e-02 1.75035295767855e+01 7.63988705077326e-02
3.93410256410256e-02 1.73493371940611e+01 7.68824445221676e-02
4.05153846153846e-02 1.71965031256631e+01 7.73345665590146e-02
4.16897435897436e-02 1.70450154055938e+01 7.77566318870975e-02
4.28641025641026e-02 1.68948621735820e+01 7.81499487683264e-02
4.40384615384615e-02 1.67460316738384e+01 7.85157462604505e-02
4.52128205128205e-02 1.65985122544007e+01 7.88551811140789e-02
4.63871794871795e-02 1.64522923654087e+01 7.91693437953945e-02
4.75615384615385e-02 1.63073605590193e+01 7.94592638198493e-02
4.87358974358974e-02 1.61637054884777e+01 7.97259147482037e-02
4.99102564102564e-02 1.60213159065001e+01 7.99702184444463e-02
5.10846153846154e-02 1.58801806651275e+01 8.01930489226476e-02
5.22589743589744e-02 1.57402887146037e+01 8.03952359140354e-02
5.34333333333333e-02 1.56016291027245e+01 8.05775680856021e-02
5.46076923076923e-02 1.54641909733400e+01 8.07407958702197e-02
5.57820512820513e-02 1.53279635661490e+01 8.08856340318621e-02
5.69564102564103e-02 1.51929362156395e+01 8.10127640928503e-02
5.81307692307692e-02 1.50590983504419e+01 8.11228365430760e-02
5.93051282051282e-02 1.49264394919345e+01 8.12164727795438e-02
6.04794871794872e-02 1.47949492539943e+01 8.12942668785377e-02
6.16538461538461e-02 1.46646173419913e+01 8.13567873077903e-02
6.28282051282051e-02 1.45354335521507e+01 8.14045784959345e-02
6.40025641025641e-02 1.44073877702478e+01 8.14381622034542e-02
6.51769230769231e-02 1.42804699713262e+01 8.14580387836735e-02
6.63512820512820e-02 1.41546702187409e+01 8.14646884281175e-02
6.75256410256410e-02 1.40299786635316e+01 8.14585723146705e-02
6.87000000000000e-02 1.39063855431968e+01 8.14401336022207e-02
6.98743589743590e-02 1.37838811813873e+01 8.14097983506306e-02
7.10487179487179e-02 1.36624559869949e+01 8.13679764508075e-02
7.22230769230769e-02 1.35421004535371e+01 8.13150624862360e-02
7.33974358974359e-02 1.34228051580030e+01 8.12514364708419e-02
7.45717948717949e-02 1.33045607605284e+01 8.11774645346303e-02
7.57461538461538e-02 1.31873580035260e+01 8.10934996344646e-02
7.69205128205128e-02 1.30711877110833e+01 8.09998822150188e-02
7.80948717948718e-02 1.29560407878733e+01 8.08969407667049e-02
7.92692307692308e-02 1.28419082188156e+01 8.07849923461289e-02
8.04435897435897e-02 1.27287810682462e+01 8.06643431304018e-02
8.16179487179487e-02 1.26166504793285e+01 8.05352889341822e-02
8.27923076923077e-02 1.25055076730232e+01 8.03981156385806e-02
8.39666666666667e-02 1.23953439477400e+01 8.02530995925832e-02
8.51410256410256e-02 1.22861506785434e+01 8.01005080531485e-02
8.63153846153846e-02 1.21779193165783e+01 7.99405995966938e-02
8.74897435897436e-02 1.20706413880935e+01 7.97736244536320e-02
8.86641025641026e-02 1.19643084940875e+01 7.95998248222989e-02
8.98384615384615e-02 1.18589123095480e+01 7.94194352239610e-02
9.10128205128205e-02 1.17544445828927e+01 7.92326828354165e-02
9.21871794871795e-02 1.16508971350412e+01 7.90397877532014e-02
9.33615384615385e-02 1.15482618590590e+01 7.88409632295171e-02
9.45358974358974e-02 1.14465307195143e+01 7.86364160132058e-02
9.57102564102564e-02 1.13456957515861e+01 7.84263465591818e-02
9.68846153846154e-02 1.12457490607054e+01 7.82109492386783e-02
9.80589743589744e-02 1.11466828218479e+01 7.79904125910478e-02
9.92333333333333e-02 1.10484892790018e+01 7.77649195602279e-02
1.00407692307692e-01 1.09511607443186e+01 7.75346476975828e-02
1.01582051282051e-01 1.08546895976004e+01 7.72997692610844e-02
1.02756410256410e-01 1.07590682860890e+01 7.70604514841990e-02
1.03930769230769e-01 1.06642893234028e+01 7.68168567878418e-02
1.05105128205128e-01 1.05703452891093e+01 7.65691428764070e-02
1.06279487179487e-01 1.04772288281440e+01 7.63174629229252e-02
1.07453846153846e-01 1.03849326502349e+01 7.60619657227773e-02
1.08628205128205e-01 1.02934495293316e+01 7.58027958406760e-02
1.09802564102564e-01 1.02027723030393e+01 7.55400937512933e-02
1.10976923076923e-01 1.01128938720584e+01 7.52739959738739e-02
1.12151282051282e-01 1.00238071996286e+01 7.50046352011647e-02
1.13325641025641e-01 9.93550531097790e+00 7.47321404229605e-02
1.14500000000000e-01 9.84798129277644e+00 7.44566369476758e-02
1.15674358974359e-01 9.76122829319996e+00 7.41782468090819e-02
1.16848717948718e-01 9.67523951956326e+00 7.38970886787634e-02
1.18023076923077e-01 9.59000823963522e+00 7.36132777704118e-02
1.19197435897436e-01 9.50552778049038e+00 7.33269262427216e-02
1.20371794871795e-01 9.42179152798653e+00 7.30381431943469e-02
1.21546153846154e-01 9.33879292624683e+00 7.27470347567851e-02
1.22720512820513e-01 9.25652547714654e+00 7.24537041836971e-02
1.23894871794872e-01 9.17498273980430e+00 7.21582519368451e-02
1.25069230769231e-01 9.09415833007789e+00 7.18607757688342e-02
1.26243589743590e-01 9.01404592006429e+00 7.15613708027581e-02
1.27417948717949e-01 8.93463923760438e+00 7.12601296089202e-02
1.28592307692308e-01 8.85593206579182e+00 7.09571422787912e-02
1.29766666666667e-01 8.77791824248632e+00 7.06524964962855e-02
1.30941025641026e-01 8.70059165983121e+00 7.03462776064956e-02
1.32115384615385e-01 8.62394626377523e+00 7.00385686819943e-02
1.33289743589744e-01 8.54797605359857e+00 6.97294505868313e-02
1.34464102564103e-01 8.47267508144301e+00 6.94190020383092e-02
1.35638461538462e-01 8.39803745184633e+00 6.91072996666241e-02
1.36812820512821e-01 8.32405732128067e+00 6.87944180724900e-02
1.37987179487179e-01 8.25072889769508e+00 6.84804298828378e-02
1.39161538461538e-01 8.17804644006186e+00 6.81654058045772e-02
1.40335897435897e-01 8.10600425792743e+00 6.78494146766287e-02
1.41510256410256e-01 8.03459671096663e+00 6.75325235202974e-02
1.42684615384615e-01 7.96381820854112e+00 6.72147975879294e-02
1.43858974358974e-01 7.89366320926172e+00 6.68963004100190e-02
1.45033333333333e-01 7.82412622055450e+00 6.65770938408085e-02
1.46207692307692e-01 7.75520179823083e+00 6.62572381024409e-02
1.47382051282051e-01 7.68688454606107e+00 6.59367918277121e-02
1.48556410256410e-01 7.61916911535217e+00 6.56158121015013e-02
1.49730769230769e-01 7.55205020452882e+00 6.52943545009123e-02
1.50905128205128e-01 7.48552255871846e+00 6.49724731341625e-02
1.52079487179487e-01 7.41958096933981e+00 6.46502206783031e-02
1.53253846153846e-01 7.35422027369511e+00 6.43276484157960e-02
1.54428205128205e-01 7.28943535456592e+00 6.40048062699775e-02
1.55602564102564e-01 7.22522113981247e+00 6.36817428394720e-02
1.56776923076923e-01 7.16157260197656e+00 6.33585054315859e-02
1.57951282051282e-01 7.09848475788797e+00 6.30351400947175e-02
1.59125641025641e-01 7.03595266827426e+00 6.27116916498134e-02
1.60300000000000e-01 6.97397143737414e+00 6.23882036629339e-02
1.61474358974359e-01 6.91253621286030e+00 6.20647186502495e-02
1.62648717948718e-01 6.85164218453344e+00 6.17412779895742e-02
1.63823076923077e-01 6.79128458487946e+00 6.14179218280914e-02
1.64997435897436e-01 6.73145868838228e+00 6.10946892906127e-02
1.66171794871795e-01 6.67215981115393e+00 6.07716184452062e-02
1.67346153846154e-01 6.61338331056780e+00 6.04487463288983e-02
1.68520512820513e-01 6.55512458489519e+00 6.01261089726772e-02
1.69694871794872e-01 6.49737907294500e+00 5.98037414258056e-02
1.70869230769231e-01 6.44014225370666e+00 5.94816777794659e-02
1.72043589743590e-01 6.38340964599614e+00 5.91599511897637e-02
1.73217948717949e-01 6.32717680810515e+00 5.88385939001125e-02
1.74392307692308e-01 6.27143933745333e+00 5.85176372630154e-02
1.75566666666667e-01 6.21619287024362e+00 5.81971117612665e-02
1.76741025641026e-01 6.16143308112059e+00 5.78770470285856e-02
1.77915384615385e-01 6.10715568283177e+00 5.75574718697127e-02
1.79089743589744e-01 6.05335642589204e+00 5.72384142799772e-02
1.80264102564103e-01 6.00003109825092e+00 5.69199014643546e-02
1.81438461538462e-01 5.94717552496276e+00 5.66019598560276e-02
1.82612820512820e-01 5.89478556785993e+00 5.62846151344662e-02
1.83787179487179e-01 5.84285712522881e+00 5.59678922430634e-02
1.84961538461538e-01 5.79138613148859e+00 5.56518154062794e-02
1.86135897435897e-01 5.74036855687310e+00 5.53364081463772e-02
1.87310256410256e-01 5.68980040711524e+00 5.50216932997504e-02
1.88484615384615e-01 5.63967772313429e+00 5.47076930328138e-02
1.89658974358974e-01 5.58999658072591e+00 5.43944288575119e-02
1.90833333333333e-01 5.54075309025491e+00 5.40819216464299e-02
1.92007692307692e-01 5.49194339635077e+00 5.37701916475386e-02
1.93182051282051e-01 5.44356367760573e+00 5.34592584985773e-02
1.94356410256410e-01 5.39561014627564e+00 5.31491412410698e-02
1.95530769230769e-01 5.34807904798342e+00 5.28398583340153e-02
1.96705128205128e-01 5.30096666142508e+00 5.25314276672412e-02
1.97879487179487e-01 5.25426929807841e+00 5.22238665744228e-02
1.99053846153846e-01 5.20798330191421e+00 5.19171918458033e-02
2.00228205128205e-01 5.16210504911001e+00 5.16114197406021e-02
2.01402564102564e-01 5.11663094776636e+00 5.13065659991243e-02
2.02576923076923e-01 5.07155743762565e+00 5.10026458545865e-02
2.03751282051282e-01 5.02688098979334e+00 5.06996740446596e-02
2.04925641025641e-01 4.98259810646168e+00 5.03976648227398e-02
2.06100000000000e-01 4.93870532063587e+00 5.00966319327380e-02
2.07274358974359e-01 4.89519919603137e+00 4.97965887292874e-02
2.08448717948718e-01 4.85207632629470e+00 4.94975481151189e-02
2.09623076923077e-01 4.80933333525086e+00 4.91995224760725e-02
2.10797435897436e-01 4.76696687646632e+00 4.89025238042222e-02
2.11971794871795e-01 4.72497363298701e+00 4.86065636696804e-02
2.13146153846154e-01 4.68335031707861e+00 4.83116532301527e-02
2.14320512820513e-01 4.64209366996916e+00 4.80178032402846e-02
2.15494871794872e-01 4.60120046159394e+00 4.77250240607884e-02
2.16669230769231e-01 4.56066749034254e+00 4.74333256673622e-02
2.17843589743590e-01 4.52049158280827e+00 4.71427176594171e-02
2.19017948717949e-01 4.48066959353961e+00 4.68532092685910e-02
2.20192307692308e-01 4.44119840479405e+00 4.65648093670801e-02
2.21366666666667e-01 4.40207492629391e+00 4.62775264757866e-02
2.22541025641026e-01 4.36329609498445e+00 4.59913687722732e-02
2.23715384615385e-01 4.32485887479403e+00 4.57063440985492e-02
2.24889743589744e-01 4.28676025639645e+00 4.54224599686854e-02
2.26064102564103e-01 4.24899725697527e+00 4.51397235762489e-02
2.27238461538462e-01 4.21156691999035e+00 4.48581418015815e-02
2.28412820512820e-01 4.17446631494635e+00 4.45777212189187e-02
2.29587179487179e-01 4.13769253716328e+00 4.42984681033550e-02
2.30761538461538e-01 4.10124270754910e+00 4.40203884376402e-02
2.31935897435897e-01 4.06511397237433e+00 4.37434879188377e-02
2.33110256410256e-01 4.02930350304859e+00 4.34677719648487e-02
2.34284615384615e-01 3.99380849589919e+00 4.31932457207753e-02
2.35458974358974e-01 3.95862617195158e+00 4.29199140651605e-02
2.36633333333333e-01 3.92375377671181e+00 4.26477816160828e-02
2.37807692307692e-01 3.88918857995086e+00 4.23768527371230e-02
2.38982051282051e-01 3.85492787549086e+00 4.21071315432038e-02
2.40156410256410e-01 3.82096898099330e+00 4.18386219063017e-02
2.41330769230769e-01 3.78730923774891e+00 4.15713274610402e-02
2.42505128205128e-01 3.75394601046960e+00 4.13052516101574e-02
2.43679487179487e-01 3.72087668708209e+00 4.10403975298576e-02
2.44853846153846e-01 3.68809867852342e+00 4.07767681750541e-02
2.46028205128205e-01 3.65560941853825e+00 4.05143662845005e-02
2.47202564102564e-01 3.62340636347792e+00 4.02531943858061e-02
2.48376923076923e-01 3.59148699210134e+00 3.99932548003494e-02
2.49551282051282e-01 3.55984880537758e+00 3.97345496480890e-02
2.50725641025641e-01 3.52848932629018e+00 3.94770808522697e-02
2.51900000000000e-01 3.49740609964329e+00 3.92208501208298e-02
2.53074358974359e-01 3.46659669196723e+00 3.89658590210138e-02
2.54248717948718e-01 3.43605869103231e+00 3.87121089370042e-02
2.55423076923077e-01 3.40578970595786e+00 3.84596010259953e-02
2.56597435897436e-01 3.37578736692497e+00 3.82083362948906e-02
2.57771794871795e-01 3.34604932499099e+00 3.79583155801218e-02
2.58946153846154e-01 3.31657325190561e+00 3.77095395517084e-02
2.60120512820513e-01 3.28735683992858e+00 3.74620087172308e-02
2.61294871794872e-01 3.25839780164904e+00 3.72157234257217e-02
2.62469230769231e-01 3.22969386980642e+00 3.69706838714806e-02
2.63643589743590e-01 3.20124279711292e+00 3.67268900978002e-02
2.64817948717949e-01 3.17304235607761e+00 3.64843420006228e-02
2.65992307692308e-01 3.14509033883201e+00 3.62430393321213e-02
2.67166666666667e-01 3.11738455695719e+00 3.60029817041996e-02
2.68341025641026e-01 3.08992284131254e+00 3.57641685919275e-02
2.69515384615385e-01 3.06270304186581e+00 3.55265993369056e-02
2.70689743589744e-01 3.03572302752490e+00 3.52902731505524e-02
2.71864102564103e-01 3.00898068597093e+00 3.50551891173279e-02
2.73038461538462e-01 2.98247392349291e+00 3.48213461978963e-02
2.74212820512820e-01 2.95620066482380e+00 3.45887432322180e-02
2.75387179487179e-01 2.93015885297803e+00 3.43573789425807e-02
2.76561538461538e-01 2.90434644909044e+00 3.41272519365600e-02
2.77735897435897e-01 2.87876143225670e+00 3.38983607099284e-02
2.78910256410256e-01 2.85340179937507e+00 3.36707036495105e-02
2.80084615384615e-01 2.82826556498954e+00 3.34442790359620e-02
2.81258974358974e-01 2.80335076113444e+00 3.32190850465060e-02
2.82433333333333e-01 2.77865543718032e+00 3.29951197576114e-02
2.83607692307692e-01 2.75417765968123e+00 3.27723811476074e-02
2.84782051282051e-01 2.72991551222340e+00 3.25508670992547e-02
2.85956410256410e-01 2.70586709527514e+00 3.23305754022624e-02
2.87130769230769e-01 2.68203052603814e+00 3.21115037557465e-02
2.88305128205128e-01 2.65840393830008e+00 3.18936497706470e-02
2.89479487179487e-01 2.63498548228851e+00 3.16770109720934e-02
2.90653846153846e-01 2.61177332452600e+00 3.14615848017157e-02
2.91828205128205e-01 2.58876564768665e+00 3.12473686199169e-02
2.93002564102564e-01 2.56596065045377e+00 3.10343597080951e-02
2.94176923076923e-01 2.54335654737883e+00 3.08225552708177e-02
2.95351282051282e-01 2.52095156874175e+00 3.06119524379586e-02
2.96525641025641e-01 2.49874396041225e+00 3.04025482667818e-02
2.97700000000000e-01 2.47673198371260e+00 3.01943397288778e-02
2.98874358974359e-01 2.45491391534007e+00 2.99873237578251e-02
3.00048717948718e-01 2.43328804705487e+00 2.97814972206955e-02
3.01223076923077e-01 2.41185268572486e+00 2.95768568885333e-02
3.02397435897436e-01 2.39060615313304e+00 2.93733994854443e-02
3.03571794871795e-01 2.36954678584622e+00 2.91711216745951e-02
3.04746153846154e-01 2.34867293508474e+00 2.89700200600232e-02
3.05920512820513e-01 2.32798296659337e+00 2.87700911884105e-02
3.07094871794872e-01 2.30747526051343e+00 2.85713315508139e-02
3.08269230769231e-01 2.28714821125590e+00 2.83737375843656e-02
3.09443589743590e-01 2.26700022737574e+00 2.81773056739416e-02
3.10617948717949e-01 2.24702973144730e+00 2.79820321537883e-02
3.11792307692308e-01 2.22723515994082e+00 2.77879133091226e-02
3.12966666666667e-01 2.20761496309999e+00 2.75949453776961e-02
3.14141025641026e-01 2.18816760482066e+00 2.74031245513250e-02
3.15315384615385e-01 2.16889156253055e+00 2.72124469773934e-02
3.16489743589744e-01 2.14978532707004e+00 2.70229087603237e-02
3.17664102564103e-01 2.13084740257402e+00 2.68345059630154e-02
3.18838461538462e-01 2.11207630635480e+00 2.66472346082556e-02
3.20012820512820e-01 2.09347056878598e+00 2.64610906801011e-02
3.21187179487179e-01 2.07502873318743e+00 2.62760701252317e-02
3.22361538461538e-01 2.05674935571123e+00 2.60921688542706e-02
3.23535897435897e-01 2.03863100522863e+00 2.59093827430832e-02
3.24710256410256e-01 2.02067226321798e+00 2.57277076340526e-02
3.25884615384615e-01 2.00287172365374e+00 2.55471393373192e-02
3.27058974358974e-01 1.98522799289631e+00 2.53676736319979e-02
3.28233333333333e-01 1.96773968958299e+00 2.51893062673756e-02
3.29407692307692e-01 1.95040544451978e+00 2.50120329640754e-02
3.30582051282051e-01 1.93322390057422e+00 2.48358494152008e-02
3.31756410256410e-01 1.91619371256914e+00 2.46607512874599e-02
3.32930769230769e-01 1.89931354717728e+00 2.44867342222572e-02
3.34105128205128e-01 1.88258208281700e+00 2.43137938367675e-02
3.35279487179487e-01 1.86599800954872e+00 2.41419257249889e-02
3.36453846153846e-01 1.84956002897242e+00 2.39711254587706e-02
3.37628205128205e-01 1.83326685412596e+00 2.38013885888206e-02
3.38802564102564e-01 1.81711720938433e+00 2.36327106456902e-02
3.39976923076923e-01 1.80110983035977e+00 2.34650871407404e-02
3.41151282051282e-01 1.78524346380280e+00 2.32985135670875e-02
3.42325641025641e-01 1.76951686750407e+00 2.31329854005265e-02
3.43500000000000e-01 1.75392881019713e+00 2.29684980904706e-02
3.44674358974359e-01 1.73847807149802e+00 2.28050470909359e-02
3.45848717948718e-01 1.72316344170097e+00 2.26426278413413e-02
3.47023076923077e-01 1.70798372179321e+00 2.24812357466093e-02
3.48197435897436e-01 1.69293772332434e+00 2.23208662091248e-02
3.49371794871795e-01 1.67802426831327e+00 2.21615146190982e-02
3.50546153846154e-01 1.66324218915599e+00 2.20031763553619e-02
3.51720512820513e-01 1.64859032853419e+00 2.18458467861472e-02
3.52894871794872e-01 1.63406753932460e+00 2.16895212698443e-02
3.54069230769231e-01 1.61967268450924e+00 2.15341951557466e-02
3.55243589743590e-01 1.60540463708632e+00 2.13798637847795e-02
3.56417948717949e-01 1.59126227998210e+00 2.12265224902116e-02
3.57592307692308e-01 1.57724450596337e+00 2.10741665983510e-02
3.58766666666667e-01 1.56335021755075e+00 2.09227914292262e-02
3.59941025641026e-01 1.54957832693283e+00 2.07723922972509e-02
3.61115384615385e-01 1.53592775588095e+00 2.06229645118774e-02
3.62289743589744e-01 1.52239743566479e+00 2.04745033782316e-02
3.63464102564103e-01 1.50898630696872e+00 2.03270041977370e-02
3.64638461538462e-01 1.49569331980884e+00 2.01804622687231e-02
3.65812820512820e-01 1.48251743345081e+00 2.00348728870168e-02
3.66987179487179e-01 1.46945761632831e+00 1.98902313465302e-02
3.68161538461538e-01 1.45651284596232e+00 1.97465329398240e-02
3.69335897435897e-01 1.44368210888108e+00 1.96037729586637e-02
3.70510256410256e-01 1.43096440054069e+00 1.94619466945658e-02
