Energy (eV)          EEDF (eV^-(3/2))     First Anisotropy
7.15833333333333e-02 2.79198869308029e-01 4.15393601738946e-04
2.14750000000000e-01 2.63583264213159e-01 6.68999819710246e-04
3.57916666666667e-01 2.48841040667941e-01 8.39404470536610e-04
5.01083333333333e-01 2.34923350321714e-01 9.44796155401688e-04
6.44250000000000e-01 2.21784076999414e-01 1.01449823505878e-03
7.87416666666667e-01 2.09379683825718e-01 1.06048060634591e-03
9.30583333333333e-01 1.97669068902813e-01 1.08935011346427e-03
1.07375000000000e+00 1.86613429147790e-01 1.10531690812008e-03
1.21691666666667e+00 1.76176131876804e-01 1.11129869301267e-03
1.36008333333333e+00 1.66322593074379e-01 1.10943048517796e-03
1.50325000000000e+00 1.57020163107900e-01 1.10133434217667e-03
1.64641666666667e+00 1.48238018497765e-01 1.08827637418676e-03
1.78958333333333e+00 1.39947059605084e-01 1.07126481802389e-03
1.93275000000000e+00 1.32119814393511e-01 1.05111475096171e-03
2.07591666666667e+00 1.24730347376329e-01 1.02849270903750e-03
2.21908333333333e+00 1.17754173563114e-01 1.00394854112200e-03
2.36225000000000e+00 1.11168177448343e-01 9.77938836063122e-04
2.50541666666667e+00 1.04950536403382e-01 9.50844592510595e-04
2.64858333333333e+00 9.90806482876120e-02 9.22984810633570e-04
2.79175000000000e+00 9.35390632654570e-02 8.94627141288209e-04
2.93491666666667e+00 8.83074193497072e-02 8.65996366341262e-04
3.07808333333333e+00 8.33683815025556e-02 8.37281228361550e-04
3.22125000000000e+00 7.87055842544522e-02 8.08639999786897e-04
3.36441666666667e+00 7.43035774705274e-02 7.80205075956969e-04
3.50758333333333e+00 7.01477751154345e-02 7.52086785561244e-04
3.65075000000000e+00 6.62244069651707e-02 7.24376580471214e-04
3.79391666666667e+00 6.25204729747890e-02 6.97149728784220e-04
3.93708333333333e+00 5.90237001722518e-02 6.70467593238271e-04
4.08025000000000e+00 5.57225020236019e-02 6.44379572389131e-04
4.22341666666667e+00 5.26059400376213e-02 6.18924765769524e-04
4.36658333333333e+00 4.96636874982071e-02 5.94133401040172e-04
4.50975000000000e+00 4.68859952706379e-02 5.70028064313772e-04
4.65291666666667e+00 4.42636594953433e-02 5.46624767031015e-04
4.79608333333333e+00 4.17879910734730e-02 5.23933867959912e-04
4.93925000000000e+00 3.94507868937199e-02 5.01960874143988e-04
5.08241666666667e+00 3.72443026494652e-02 4.80707140442115e-04
5.22558333333333e+00 3.51612271646296e-02 4.60170476984902e-04
5.36875000000000e+00 3.31946581820396e-02 4.40345679262953e-04
5.51191666666667e+00 3.13380794914051e-02 4.21224993118072e-04
5.65508333333333e+00 2.95853393274995e-02 4.02798519310751e-04
5.79825000000000e+00 2.79306299970857e-02 3.85054567228671e-04
5.94141666666667e+00 2.63684686340626e-02 3.67979965769575e-04
6.08458333333333e+00 2.48936790239244e-02 3.51560333640455e-04
6.22775000000000e+00 2.35013744607905e-02 3.35780315542893e-04
6.37091666666667e+00 2.21869415544889e-02 3.20623789700376e-04
6.51408333333333e+00 2.09460249377751e-02 3.06074047670171e-04
6.65725000000000e+00 1.97745128414181e-02 2.92113950954807e-04
6.80041666666667e+00 1.86685234692209e-02 2.78726068226722e-04
6.94358333333333e+00 1.76243921307228e-02 2.65892793410994e-04
7.08675000000000e+00 1.66386591034404e-02 2.53596447854900e-04
7.22991666666667e+00 1.57080581685853e-02 2.41819369311075e-04
7.37308333333333e+00 1.48295057845250e-02 2.30543987610987e-04
7.51625000000000e+00 1.40000908735731e-02 2.19752889382373e-04
7.65941666666667e+00 1.32170651757493e-02 2.09428873795525e-04
7.80258333333333e+00 1.24778341393085e-02 1.99554999030895e-04
7.94575000000000e+00 1.17799483269521e-02 1.90114621210015e-04
8.08891666666667e+00 1.11210952993153e-02 1.81091427255131e-04
8.23208333333333e+00 1.04990919502244e-02 1.72469461289458e-04
8.37525000000000e+00 9.91187727556815e-03 1.64233145882925e-04
8.51841666666667e+00 9.35750554392311e-03 1.56367299237525e-04
8.66158333333333e+00 8.83413984739718e-03 1.48857147901749e-04
8.80475000000000e+00 8.34004601710693e-03 1.41688336000917e-04
8.94791666666667e+00 7.87358687682054e-03 1.34846931807660e-04
9.09108333333333e+00 7.43321681659432e-03 1.28319431251461e-04
9.23425000000000e+00 7.01747667305263e-03 1.22092759119324e-04
9.37741666666667e+00 6.62498889430045e-03 1.16154268572869e-04
9.52058333333333e+00 6.25445297413808e-03 1.10491738606863e-04
9.66375000000000e+00 5.90464114416478e-03 1.05093370025823e-04
9.80691666666667e+00 5.57439430544913e-03 9.99477804157482e-05
9.95008333333333e+00 5.26261818683639e-03 9.50439978324337e-05
1.00932500000000e+01 4.96827971929467e-03 9.03714532132981e-05
1.02364166666667e+01 4.69040361700411e-03 8.59199731148855e-05
1.03795833333333e+01 4.42806913646563e-03 8.16797708444423e-05
1.05227500000000e+01 4.18040703419091e-03 7.76414366601861e-05
1.06659166666667e+01 3.94659668565453e-03 7.37959294893839e-05
1.08090833333333e+01 3.72586335949200e-03 7.01345665523125e-05
1.09522500000000e+01 3.51747565734726e-03 6.66490128232654e-05
1.10954166666667e+01 3.32074308973334e-03 6.33312718497901e-05
1.12385833333333e+01 3.13501378270978e-03 6.01736750077481e-05
1.13817500000000e+01 2.95967232349280e-03 5.71688707718251e-05
1.15249166666667e+01 2.79413772076067e-03 5.43098152449017e-05
1.16680833333333e+01 2.63786147517886e-03 5.15897615249244e-05
1.18112500000000e+01 2.49032576647731e-03 4.90022492030487e-05
1.19544166666667e+01 2.35104173722981e-03 4.65410950107523e-05
1.20975833333333e+01 2.21954786949004e-03 4.42003826088011e-05
1.22407500000000e+01 2.09540845922480e-03 4.19744525789429e-05
1.23839166666667e+01 1.97821217226675e-03 3.98578934522542e-05
1.25270833333333e+01 1.86757067848887e-03 3.78455321096567e-05
1.26702500000000e+01 1.76311736805482e-03 3.59324244254130e-05
1.28134166666667e+01 1.66450613638042e-03 3.41138468376374e-05
1.29565833333333e+01 1.57141023498348e-03 3.23852874648868e-05
1.30997500000000e+01 1.48352119122703e-03 3.07424374842857e-05
1.32429166666667e+01 1.40054778597088e-03 2.91811833327980e-05
1.33860833333333e+01 1.32221508671872e-03 2.76975985854702e-05
1.35292500000000e+01 1.24826353860245e-03 2.62879360989473e-05
1.36724166666667e+01 1.17844810416494e-03 2.49486208817561e-05
1.38155833333333e+01 1.11253744988202e-03 2.36762427396320e-05
1.39587500000000e+01 1.05031318124649e-03 2.24675491800120e-05
1.41019166666667e+01 9.91569118969800e-04 2.13194389551998e-05
1.42450833333333e+01 9.36110614546017e-04 2.02289554536324e-05
1.43882500000000e+01 8.83753906595047e-04 1.91932803379176e-05
1.45314166666667e+01 8.34325511848875e-04 1.82097277419407e-05
1.46745833333333e+01 7.87661649285447e-04 1.72757383700857e-05
1.48177500000000e+01 7.43607698510531e-04 1.63888738270787e-05
1.49609166666667e+01 7.02017687324950e-04 1.55468114356118e-05
1.51040833333333e+01 6.62753807204789e-04 1.47473389956228e-05
1.52472500000000e+01 6.25685957547323e-04 1.39883497560875e-05
1.53904166666667e+01 5.90691314502709e-04 1.32678378111975e-05
1.55335833333333e+01 5.57653923309573e-04 1.25838934667765e-05
1.56767500000000e+01 5.26464314794010e-04 1.19346988003751e-05
1.58199166666667e+01 4.97019142578222e-04 1.13185235897049e-05
1.59630833333333e+01 4.69220840079636e-04 1.07337212316200e-05
1.61062500000000e+01 4.42977297809269e-04 1.01787248360672e-05
1.62494166666667e+01 4.18201558113640e-04 9.65204363905678e-06
1.63925833333333e+01 3.94811526579808e-04 9.15225942028202e-06
1.65357500000000e+01 3.72729700494847e-04 8.67802307767204e-06
1.66789166666667e+01 3.51882911997046e-04 8.22805147774214e-06
1.68220833333333e+01 3.32202085256579e-04 7.80112432006115e-06
1.69652500000000e+01 3.13622007985592e-04 7.39608114163904e-06
1.71084166666667e+01 2.96081115321644e-04 7.01181855935800e-06
1.72515833333333e+01 2.79521285522866e-04 6.64728753256133e-06
1.73947500000000e+01 2.63887647703760e-04 6.30149074976974e-06
1.75379166666667e+01 2.49128399991343e-04 5.97348022055830e-06
1.76810833333333e+01 2.35194637625524e-04 5.66235489112288e-06
1.78242500000000e+01 2.22040191177596e-04 5.36725836949426e-06
1.79674166666667e+01 2.09621473543930e-04 5.08737682734450e-06
1.81105833333333e+01 1.97897335311455e-04 4.82193692720167e-06
1.82537500000000e+01 1.86828928626203e-04 4.57020384616594e-06
1.83969166666667e+01 1.76379578451353e-04 4.33147945145182e-06
1.85400833333333e+01 1.66514660873068e-04 4.10510050177221e-06
1.86832500000000e+01 1.57201488552565e-04 3.89043693338234e-06
1.88264166666667e+01 1.48409202400536e-04 3.68689027652066e-06
1.89695833333333e+01 1.40108669184646e-04 3.49389209723560e-06
1.91127500000000e+01 1.32272385143228e-04 3.31090251327592e-06
1.92559166666667e+01 1.24874384838379e-04 3.13740882186753e-06
1.93990833333333e+01 1.17890155003578e-04 2.97292415182602e-06
1.95422500000000e+01 1.11296553439619e-04 2.81698618030304e-06
1.96854166666667e+01 1.05071732322096e-04 2.66915594545332e-06
1.98285833333333e+01 9.91950657132631e-05 2.52901668201236e-06
1.99717500000000e+01 9.36470813172747e-05 2.39617271315511e-06
2.01149166666667e+01 8.84093959498239e-05 2.27024842452306e-06
2.02580833333333e+01 8.34646545469440e-05 2.15088725952175e-06
2.04012500000000e+01 7.87964727407480e-05 2.03775076352997e-06
2.05444166666667e+01 7.43893825625033e-05 1.93051769844587e-06
2.06875833333333e+01 7.02287811248433e-05 1.82888317676426e-06
2.08307500000000e+01 6.63008823024369e-05 1.73255783808609e-06
2.09739166666667e+01 6.25926710456373e-05 1.64126708579714e-06
2.11170833333333e+01 5.90918602018231e-05 1.55475034152075e-06
2.12602500000000e+01 5.57868498574089e-05 1.47276033632354e-06
2.14034166666667e+01 5.26666888965743e-05 1.39506245336050e-06
2.15465833333333e+01 4.97210386708076e-05 1.32143408657623e-06
2.16897500000000e+01 4.69401387875446e-05 1.25166403119388e-06
2.18329166666667e+01 4.43147747650247e-05 1.18555191815558e-06
2.19760833333333e+01 4.18362474638735e-05 1.12290766297713e-06
2.21192500000000e+01 3.94963443002382e-05 1.06355094206009e-06
2.22624166666667e+01 3.72873120300280e-05 1.00731070653746e-06
2.24055833333333e+01 3.52018310286464e-05 9.54024708991661e-07
2.25487500000000e+01 3.32329910685495e-05 9.03539053861043e-07
2.26919166666667e+01 3.13742684194362e-05 8.55707779883464e-07
2.28350833333333e+01 2.96195042071945e-05 8.10392453983209e-07
2.29782500000000e+01 2.79628840321716e-05 7.67461785572275e-07
2.31214166666667e+01 2.63989187008755e-05 7.26791268184778e-07
2.32645833333333e+01 2.49224260171615e-05 6.88262831244153e-07
2.34077500000000e+01 2.35285136322458e-05 6.51764509405488e-07
2.35509166666667e+01 2.22125628320224e-05 6.17190135207602e-07
2.36940833333333e+01 2.09702132161297e-05 5.84439040666574e-07
2.38372500000000e+01 1.97973482672910e-05 5.53415773985944e-07
2.39804166666667e+01 1.86900817096802e-05 5.24029836137496e-07
2.41235833333333e+01 1.76447446178453e-05 4.96195425308244e-07
2.42667500000000e+01 1.66578732742071e-05 4.69831194338289e-07
2.44099166666667e+01 1.57261976907476e-05 4.44860025091122e-07
2.45530833333333e+01 1.48466307624151e-05 4.21208809725472e-07
2.46962500000000e+01 1.40162580499733e-05 3.98808243122217e-07
2.48394166666667e+01 1.32323281219468e-05 3.77592629734962e-07
2.49825833333333e+01 1.24922434282541e-05 3.57499696481106e-07
2.51257500000000e+01 1.17935517031235e-05 3.38470415204501e-07
2.52689166666667e+01 1.11339378386351e-05 3.20448837420566e-07
2.54120833333333e+01 1.05112162057553e-05 3.03381934336822e-07
2.55552500000000e+01 9.92332342044104e-06 2.87219445080561e-07
2.56984166666667e+01 9.36831150589371e-06 2.71913735382357e-07
2.58415833333333e+01 8.84434143143964e-06 2.57419660857767e-07
2.59847500000000e+01 8.34967702567437e-06 2.43694437321670e-07
2.61279166666667e+01 7.88267922306116e-06 2.30697520000801e-07
2.62710833333333e+01 7.44180062750991e-06 2.18390486747051e-07
2.64142500000000e+01 7.02558039068480e-06 2.06736927273342e-07
2.65574166666667e+01 6.63263937098922e-06 1.95702339959942e-07
2.67005833333333e+01 6.26167555932925e-06 1.85254032136093e-07
2.68437500000000e+01 5.91145976954575e-06 1.75361025516285e-07
2.69869166666667e+01 5.58083156509747e-06 1.65993968075618e-07
2.71300833333333e+01 5.26869541026955e-06 1.57125048939541e-07
2.72732500000000e+01 4.97401704395721e-06 1.48727917683029e-07
2.74164166666667e+01 4.69582005230355e-06 1.40777609105181e-07
2.75595833333333e+01 4.43318263030060e-06 1.33250470614824e-07
2.77027500000000e+01 4.18523453056973e-06 1.26124093386198e-07
2.78459166666667e+01 3.95115417951726e-06 1.19377248169453e-07
2.79890833333333e+01 3.73016595252259e-06 1.12989823359959e-07
2.81322500000000e+01 3.52153760654139e-06 1.06942766289490e-07
2.82754166666667e+01 3.32457785358679e-06 1.01218028473706e-07
2.84185833333333e+01 3.13863406805230e-06 9.57985128114737e-08
2.85617500000000e+01 2.96309012642047e-06 9.06680235363458e-08
2.87049166666667e+01 2.79736436554608e-06 8.58112195299030e-08
2.88480833333333e+01 2.64090765357955e-06 8.12135693198740e-08
2.89912500000000e+01 2.49320157222841e-06 7.68613084281832e-08
2.91344166666667e+01 2.35375669881961e-06 7.27413995751287e-08
2.92775833333333e+01 2.22211098315875e-06 6.88414943363782e-08
2.94207500000000e+01 2.09782821802704e-06 6.51498968056422e-08
2.95639166666667e+01 1.98049659367731e-06 6.16555296833363e-08
2.97070833333333e+01 1.86972733210950e-06 5.83479016168761e-08
2.98502500000000e+01 1.76515340009874e-06 5.52170762521777e-08
2.99934166666667e+01 1.66642829292194e-06 5.22536433453916e-08
3.01365833333333e+01 1.57322488522511e-06 4.94486909520109e-08
3.02797500000000e+01 1.48523434812524e-06 4.67937790754218e-08
3.04229166666667e+01 1.40216512581553e-06 4.42809150647499e-08
3.05660833333333e+01 1.32374196867475e-06 4.19025299393406e-08
3.07092500000000e+01 1.24970502208340e-06 3.96514559575264e-08
3.08524166666667e+01 1.17980896532067e-06 3.75209056704209e-08
3.09955833333333e+01 1.11382219801348e-06 3.55044517720918e-08
3.11387500000000e+01 1.05152607343874e-06 3.35960080102426e-08
3.12819166666667e+01 9.92714173975385e-07 3.17898113573577e-08
3.14250833333333e+01 9.37191626574793e-07 3.00804048657970e-08
3.15682500000000e+01 8.84774457638126e-07 2.84626214264836e-08
3.17114166666667e+01 8.35288983368421e-07 2.69315685972747e-08
3.18545833333333e+01 7.88571233800542e-07 2.54826140183353e-08
3.19977500000000e+01 7.44466409975753e-07 2.41113715971745e-08
3.21409166666667e+01 7.02828370972734e-07 2.28136886013229e-08
3.22840833333333e+01 6.63519149280506e-07 2.15856332544888e-08
3.24272500000000e+01 6.26408494049072e-07 2.04234829881146e-08
3.25704166666667e+01 5.91373439467859e-07 1.93237134629594e-08
3.27135833333333e+01 5.58297896995429e-07 1.82829880222694e-08
3.28567500000000e+01 5.27072271037191e-07 1.72981477028959e-08
3.29999166666667e+01 4.97593095771056e-07 1.63662018995956e-08
3.31430833333333e+01 4.69762692045157e-07 1.54843193990852e-08
3.32862500000000e+01 4.43488843997919e-07 1.46498198889597e-08
3.34294166666667e+01 4.18684493476450e-07 1.38601660206007e-08
3.35725833333333e+01 3.95267451346541e-07 1.31129557886977e-08
3.37157500000000e+01 3.73160125391480e-07 1.24059153148194e-08
3.38589166666667e+01 3.52289263190037e-07 1.17368921007846e-08
3.40020833333333e+01 3.32585709209480e-07 1.11038485530054e-08
3.41452500000000e+01 3.13984175851870e-07 1.05048558505461e-08
3.42884166666667e+01 2.96423027106835e-07 9.93808821153250e-09
3.44315833333333e+01 2.79844074166878e-07 9.40181739136342e-09
3.45747500000000e+01 2.64192382779247e-07 8.89440747324578e-09
3.47179166666667e+01 2.49416091207363e-07 8.41430999645478e-09
3.48610833333333e+01 2.35466238259182e-07 7.96005928279896e-09
3.50042500000000e+01 2.22296601187649e-07 7.53026801164631e-09
3.51474166666667e+01 2.09863542520060e-07 7.12362308124242e-09
3.52905833333333e+01 1.98125865359106e-07 6.73888163943315e-09
3.54337500000000e+01 1.87044676987797e-07 6.37486732569280e-09
3.55769166666667e+01 1.76583259988839e-07 6.03046675581549e-09
3.57200833333333e+01 1.66706950493207e-07 5.70462615133690e-09
3.58632500000000e+01 1.57383023413554e-07 5.39634814855355e-09
3.60064166666667e+01 1.48580584001653e-07 5.10468881320181e-09
3.61495833333333e+01 1.40270465405276e-07 4.82875477873904e-09
3.62927500000000e+01 1.32425132100430e-07 4.56770053724266e-09
3.64359166666667e+01 1.25018588645764e-07 4.32072590458897e-09
3.65790833333333e+01 1.18026293485675e-07 4.08707359115096e-09
3.67222500000000e+01 1.11425077695552e-07 3.86602690216339e-09
3.68654166666667e+01 1.05193068206038e-07 3.65690758575975e-09
3.70085833333333e+01 9.93096152758812e-08 3.45907377105912e-09
3.71517500000000e+01 9.37552241219896e-08 3.27191801640069e-09
3.72949166666667e+01 8.85114903188856e-08 3.09486548269197e-09
3.74380833333333e+01 8.35610387734549e-08 2.92737218357959e-09
3.75812500000000e+01 7.88874661966273e-08 2.76892332917040e-09
3.77244166666667e+01 7.44752867472744e-08 2.61903177574317e-09
3.78675833333333e+01 7.03098806847829e-08 2.47723654097755e-09
3.80107500000000e+01 6.63774459631886e-08 2.34310139862363e-09
3.81539166666667e+01 6.26649524949343e-08 2.21621356295298e-09
3.82970833333333e+01 5.91600989464826e-08 2.09618242906838e-09
3.84402500000000e+01 5.58512720083331e-08 1.98263838066124e-09
3.85834166666667e+01 5.27275079116916e-08 1.87523167381344e-09
3.87265833333333e+01 4.97784560757352e-08 1.77363136840880e-09
3.88697500000000e+01 4.69943448363278e-08 1.67752431680106e-09
3.90129166666667e+01 4.43659490654250e-08 1.58661421688517e-09
3.91560833333333e+01 4.18845595834023e-08 1.50062070573575e-09
3.92992500000000e+01 3.95419543222970e-08 1.41927850184352e-09
3.94424166666667e+01 3.73303710801673e-08 1.34233660189100e-09
3.95855833333333e+01 3.52424817842181e-08 1.26955751208537e-09
3.97287500000000e+01 3.32713682267988e-08 1.20071652073408e-09
3.98719166666667e+01 3.14104991404100e-08 1.13560101700242e-09
4.00150833333333e+01 2.96537085423512e-08 1.07400983910103e-09
4.01582500000000e+01 2.79951753183586e-08 1.01575265746907e-09
4.03014166666667e+01 2.64294039330853e-08 9.60649397059560e-10
4.04445833333333e+01 2.49512062089934e-08 9.08529684681679e-10
4.05877500000000e+01 2.35556841474997e-08 8.59232326033976e-10
4.07309166666667e+01 2.22382136984108e-08 8.12604815842465e-10
4.08740833333333e+01 2.09944294284330e-08 7.68502869327494e-10
4.10172500000000e+01 1.98202100664430e-08 7.26789978857439e-10
4.11604166666667e+01 1.87116648467849e-08 6.87336998627620e-10
4.13035833333333e+01 1.76651206091427e-08 6.50021747490302e-10
4.14467500000000e+01 1.66771096359613e-08 6.14728633147960e-10
4.15899166666667e+01 1.57443581614394e-08 5.81348300069724e-10
4.17330833333333e+01 1.48637755171826e-08 5.49777292851161e-10
4.18762500000000e+01 1.40324438982995e-08 5.19917737691983e-10
4.20194166666667e+01 1.32476086946523e-08 4.91677043953742e-10
4.21625833333333e+01 1.25066693578562e-08 4.64967618854243e-10
4.23057500000000e+01 1.18071707902142e-08 4.39706597525668e-10
4.24489166666667e+01 1.11467952092486e-08 4.15815590067766e-10
4.25920833333333e+01 1.05233544630650e-08 3.93220439773333e-10
4.27352500000000e+01 9.93478278478506e-09 3.71850994380347e-10
4.28784166666667e+01 9.37912994720971e-09 3.51640891707143e-10
4.30215833333333e+01 8.85455479685712e-09 3.32527354787311e-10
4.31647500000000e+01 8.35931915736018e-09 3.14450998048451e-10
4.33079166666667e+01 7.89178206967135e-09 2.97355645662535e-10
4.34510833333333e+01 7.45039435150893e-09 2.81188157972256e-10
4.35942500000000e+01 7.03369346752362e-09 2.65898267279205e-10
4.37374166666667e+01 6.64029868289808e-09 2.51438423931542e-10
4.38805833333333e+01 6.26890648558626e-09 2.37763649276018e-10
4.40237500000000e+01 5.91828626994397e-09 2.24831396545105e-10
4.41669166666667e+01 5.58727625887603e-09 2.12601420458900e-10
4.43100833333333e+01 5.27477965204169e-09 2.01035652660454e-10
4.44532500000000e+01 4.97976099395458e-09 1.90098083876239e-10
4.45964166666667e+01 4.70124274280015e-09 1.79754653449999e-10
4.47395833333333e+01 4.43830202947929e-09 1.69973143833084e-10
4.48827500000000e+01 4.19006760163805e-09 1.60723080773862e-10
4.50259166666667e+01 3.95571693660578e-09 1.51975639745205e-10
4.51690833333333e+01 3.73447351440652e-09 1.43703556582638e-10
