Energy (eV)          EEDF (eV^-(3/2))     First Anisotropy
5.08125000000000e-03 9.66999230876499e+00 1.19041840823483e-02
1.52437500000000e-02 9.26121086548295e+00 1.93066103732010e-02
2.54062500000000e-02 8.86970991871308e+00 2.45747312300939e-02
3.55687500000000e-02 8.49475896670590e+00 2.80603499592331e-02
4.57312500000000e-02 8.13565838835230e+00 3.05663603436275e-02
5.58937500000000e-02 7.79173813776067e+00 3.24140002162523e-02
6.60562500000000e-02 7.46235649401814e+00 3.37780714159176e-02
7.62187500000000e-02 7.14689886380331e+00 3.47689557627886e-02
8.63812500000000e-02 6.84477663461635e+00 3.54628067133461e-02
9.65437500000000e-02 6.55542607648677e+00 3.59153301684689e-02
1.06706250000000e-01 6.27830729010945e+00 3.61689929494404e-02
1.16868750000000e-01 6.01290319944637e+00 3.62571700521016e-02
1.27031250000000e-01 5.75871858691422e+00 3.62067056526178e-02
1.37193750000000e-01 5.51527916935779e+00 3.60395838218333e-02
1.47356250000000e-01 5.28213071308480e+00 3.57740674035766e-02
1.57518750000000e-01 5.05883818631117e+00 3.54255028245828e-02
1.67681250000000e-01 4.84498494743502e+00 3.50069061877294e-02
1.77843750000000e-01 4.64017196762499e+00 3.45294010972005e-02
1.88006250000000e-01 4.44401708627219e+00 3.40025529415554e-02
1.98168750000000e-01 4.25615429791658e+00 3.34346289878703e-02
2.08331250000000e-01 4.07623306931729e+00 3.28328041129243e-02
2.18493750000000e-01 3.90391768539250e+00 3.22033259038999e-02
2.28656250000000e-01 3.73888662280858e+00 3.15516488544405e-02
2.38818750000000e-01 3.58083195004954e+00 3.08825446822039e-02
2.48981250000000e-01 3.42945875284758e+00 3.02001939348312e-02
2.59143750000000e-01 3.28448458390239e+00 2.95082627454972e-02
2.69306250000000e-01 3.14563893586270e+00 2.88099676657815e-02
2.79468750000000e-01 3.01266273658646e+00 2.81081308255111e-02
2.89631250000000e-01 2.88530786573808e+00 2.74052271693314e-02
2.99793750000000e-01 2.76333669182060e+00 2.67034251462398e-02
3.09956250000000e-01 2.64652162877900e+00 2.60046219457425e-02
3.20118750000000e-01 2.53464471134732e+00 2.53104741580474e-02
3.30281250000000e-01 2.42749718834715e+00 2.46224245684623e-02
3.40443750000000e-01 2.32487913317876e+00 2.39417256655322e-02
3.50606250000000e-01 2.22659907077803e+00 2.32694603394695e-02
3.60768750000000e-01 2.13247362034299e+00 2.26065601655404e-02
3.70931250000000e-01 2.04232715316357e+00 2.19538216014405e-02
3.81093750000000e-01 1.95599146491591e+00 2.13119203746784e-02
3.91256250000000e-01 1.87330546180985e+00 2.06814242928646e-02
4.01418750000000e-01 1.79411486000399e+00 2.00628046744957e-02
4.11581250000000e-01 1.71827189772741e+00 1.94564465687194e-02
4.21743750000000e-01 1.64563505957094e+00 1.88626579084494e-02
4.31906250000000e-01 1.57606881243347e+00 1.82816777210822e-02
4.42068750000000e-01 1.50944335263073e+00 1.77136835042139e-02
4.52231250000000e-01 1.44563436369457e+00 1.71587978595532e-02
4.62393750000000e-01 1.38452278441076e+00 1.66170944662094e-02
4.72556250000000e-01 1.32599458666265e+00 1.60886034643087e-02
4.82718750000000e-01 1.26994056266612e+00 1.55733163111687e-02
4.92881250000000e-01 1.21625612119867e+00 1.50711901647706e-02
5.03043750000000e-01 1.16484109244264e+00 1.45821518428290e-02
5.13206250000000e-01 1.11559954107834e+00 1.41061014001881e-02
5.23368750000000e-01 1.06843958727830e+00 1.36429153624482e-02
5.33531250000000e-01 1.02327323526861e+00 1.31924496495225e-02
5.43693750000000e-01 9.80016209137667e-01 1.27545422191606e-02
5.53856250000000e-01 9.38587795585651e-01 1.23290154572637e-02
5.64018750000000e-01 8.98910693321587e-01 1.19156783389993e-02
5.74181250000000e-01 8.60910868826823e-01 1.15143283822407e-02
5.84343750000000e-01 8.24517418215873e-01 1.11247534126683e-02
5.94506250000000e-01 7.89662434936828e-01 1.07467331579297e-02
6.04668750000000e-01 7.56280883064497e-01 1.03800406865376e-02
6.14831250000000e-01 7.24310475949855e-01 1.00244437056554e-02
6.24993750000000e-01 6.93691559999361e-01 9.67970573055922e-03
6.35156250000000e-01 6.64367003367299e-01 9.34558713734823e-03
6.45318750000000e-01 6.36282089353447e-01 9.02184610939014e-03
6.55481250000000e-01 6.09384414307164e-01 8.70823948701165e-03
6.65643750000000e-01 5.83623789847408e-01 8.40452352907024e-03
6.75806250000000e-01 5.58952149216211e-01 8.11045459425751e-03
6.85968750000000e-01 5.35323457590903e-01 7.82578974927460e-03
6.96131250000000e-01 5.12693626187722e-01 7.55028731038235e-03
7.06293750000000e-01 4.91020429996531e-01 7.28370732425148e-03
7.16456250000000e-01 4.70263428993166e-01 7.02581199351574e-03
7.26618750000000e-01 4.50383892682374e-01 6.77636605195821e-03
7.36781250000000e-01 4.31344727830570e-01 6.53513709383293e-03
7.46943750000000e-01 4.13110409253563e-01 6.30189586143491e-03
7.57106250000000e-01 3.95646913530102e-01 6.07641649467678e-03
7.67268750000000e-01 3.78921655517557e-01 5.85847674610972e-03
7.77431250000000e-01 3.62903427551298e-01 5.64785816453364e-03
7.87593750000000e-01 3.47562341214300e-01 5.44434625007368e-03
7.97756250000000e-01 3.32869771568332e-01 5.24773058335727e-03
8.07918750000000e-01 3.18798303742680e-01 5.05780493120342e-03
8.18081250000000e-01 3.05321681780729e-01 4.87436733103287e-03
8.28243750000000e-01 2.92414759648962e-01 4.69722015602222e-03
8.38406250000000e-01 2.80053454316972e-01 4.52617016285462e-03
8.48568750000000e-01 2.68214700820922e-01 4.36102852376471e-03
8.58731250000000e-01 2.56876409226626e-01 4.20161084443309e-03
8.68893750000000e-01 2.46017423411931e-01 4.04773716915437e-03
8.79056250000000e-01 2.35617481591500e-01 3.89923197458355e-03
8.89218750000000e-01 2.25657178510343e-01 3.75592415325582e-03
8.99381250000000e-01 2.16117929235544e-01 3.61764698797348e-03
9.09543750000000e-01 2.06981934478627e-01 3.48423811806184e-03
9.19706250000000e-01 1.98232147383858e-01 3.35553949841035e-03
9.29868750000000e-01 1.89852241720513e-01 3.23139735213717e-03
9.40031250000000e-01 1.81826581419756e-01 3.11166211764441e-03
9.50193750000000e-01 1.74140191399293e-01 2.99618839076388e-03
9.60356250000000e-01 1.66778729621365e-01 2.88483486263391e-03
9.70518750000000e-01 1.59728460331928e-01 2.77746425389120e-03
9.80681250000000e-01 1.52976228431110e-01 2.67394324571060e-03
9.90843750000000e-01 1.46509434927105e-01 2.57414240817869e-03
1.00100625000000e+00 1.40316013427706e-01 2.47793612644332e-03
1.01116875000000e+00 1.34384407625626e-01 2.38520252504144e-03
1.02133125000000e+00 1.28703549735576e-01 2.29582339077123e-03
1.03149375000000e+00 1.23262839842880e-01 2.20968409444001e-03
1.04165625000000e+00 1.18052126125093e-01 2.12667351178897e-03
1.05181875000000e+00 1.13061685909713e-01 2.04668394386703e-03
1.06198125000000e+00 1.08282207532639e-01 1.96961103709953e-03
1.07214375000000e+00 1.03704772963536e-01 1.89535370327386e-03
1.08230625000000e+00 9.93208411656819e-02 1.82381403964143e-03
1.09246875000000e+00 9.51222321592384e-02 1.75489724931529e-03
1.10263125000000e+00 9.11011117582285e-02 1.68851156212378e-03
1.11279375000000e+00 8.72499769527243e-02 1.62456815606353e-03
1.12295625000000e+00 8.35616419089785e-02 1.56298107947920e-03
1.13311875000000e+00 8.00292245613748e-02 1.50366717408300e-03
1.14328125000000e+00 7.66461337711794e-02 1.44654599891359e-03
1.15344375000000e+00 7.34060570281328e-02 1.39153975532175e-03
1.16360625000000e+00 7.03029486719350e-02 1.33857321305936e-03
1.17376875000000e+00 6.73310186116455e-02 1.28757363753764e-03
1.18393125000000e+00 6.44847215219512e-02 1.23847071831142e-03
1.19409375000000e+00 6.17587464961414e-02 1.19119649883770e-03
1.20425625000000e+00 5.91480071364856e-02 1.14568530754902e-03
1.21441875000000e+00 5.66476320635222e-02 1.10187369027489e-03
1.22458125000000e+00 5.42529558265494e-02 1.05970034403806e-03
1.23474375000000e+00 5.19595101983600e-02 1.01910605224674e-03
1.24490625000000e+00 4.97630158379739e-02 9.80033621298449e-04
1.25506875000000e+00 4.76593743058148e-02 9.42427818605994e-04
1.26523125000000e+00 4.56446604164303e-02 9.06235312052132e-04
1.27539375000000e+00 4.37151149144869e-02 8.71404610875334e-04
1.28555625000000e+00 4.18671374603743e-02 8.37886007985327e-04
1.29571875000000e+00 4.00972799123306e-02 8.05631523704063e-04
1.30588125000000e+00 3.84022398925532e-02 7.74594850924762e-04
1.31604375000000e+00 3.67788546252908e-02 7.44731301679116e-04
1.32620625000000e+00 3.52240950354196e-02 7.15997755100409e-04
1.33636875000000e+00 3.37350600964904e-02 6.88352606768289e-04
1.34653125000000e+00 3.23089714177029e-02 6.61755719419019e-04
1.35669375000000e+00 3.09431680597047e-02 6.36168375003478e-04
1.36685625000000e+00 2.96351015695443e-02 6.11553228073839e-04
1.37701875000000e+00 2.83823312255115e-02 5.87874260478509e-04
1.38718125000000e+00 2.71825194829941e-02 5.65096737343919e-04
1.39734375000000e+00 2.60334276128523e-02 5.43187164320866e-04
1.40750625000000e+00 2.49329115241738e-02 5.22113246072291e-04
1.41766875000000e+00 2.38789177636132e-02 5.01843845978789e-04
1.42783125000000e+00 2.28694796838533e-02 4.82348947037605e-04
1.43799375000000e+00 2.19027137740365e-02 4.63599613930454e-04
1.44815625000000e+00 2.09768161453221e-02 4.45567956235215e-04
1.45831875000000e+00 2.00900591650088e-02 4.28227092756292e-04
1.46848125000000e+00 1.92407882329445e-02 4.11551116948270e-04
1.47864375000000e+00 1.84274186942073e-02 3.95515063407500e-04
1.48880625000000e+00 1.76484328822976e-02 3.80094875406173e-04
1.49896875000000e+00 1.69023772873231e-02 3.65267373443483e-04
1.50913125000000e+00 1.61878598438947e-02 3.51010224788638e-04
1.51929375000000e+00 1.55035473336709e-02 3.37301913990579e-04
1.52945625000000e+00 1.48481628977056e-02 3.24121714329517e-04
1.53961875000000e+00 1.42204836539560e-02 3.11449660185584e-04
1.54978125000000e+00 1.36193384155071e-02 2.99266520300161e-04
1.55994375000000e+00 1.30436055052535e-02 2.87553771905786e-04
1.57010625000000e+00 1.24922106629616e-02 2.76293575700853e-04
1.58026875000000e+00 1.19641250408069e-02 2.65468751645613e-04
1.59043125000000e+00 1.14583632836471e-02 2.55062755556445e-04
1.60059375000000e+00 1.09739816904468e-02 2.45059656475666e-04
1.61075625000000e+00 1.05100764534262e-02 2.35444114794594e-04
1.62091875000000e+00 1.00657819716451e-02 2.26201361107998e-04
1.63108125000000e+00 9.64026923587850e-03 2.17317175778450e-04
1.64124375000000e+00 9.23274428176760e-03 2.08777869189567e-04
1.65140625000000e+00 8.84244670836148e-03 2.00570262667551e-04
1.66156875000000e+00 8.46864825928479e-03 1.92681670050871e-04
1.67173125000000e+00 8.11065146388388e-03 1.85099879888399e-04
1.68189375000000e+00 7.76778833581611e-03 1.77813138246734e-04
1.69205625000000e+00 7.43941912665385e-03 1.70810132107920e-04
1.70221875000000e+00 7.12493113217772e-03 1.64079973339202e-04
1.71238125000000e+00 6.82373754913154e-03 1.57612183216916e-04
1.72254375000000e+00 6.53527638030596e-03 1.51396677487038e-04
1.73270625000000e+00 6.25900938590769e-03 1.45423751945400e-04
1.74286875000000e+00 5.99442107925763e-03 1.39684068520970e-04
1.75303125000000e+00 5.74101776494414e-03 1.34168641846070e-04
1.76319375000000e+00 5.49832661763662e-03 1.28868826297803e-04
1.77335625000000e+00 5.26589479984050e-03 1.23776303495425e-04
1.78351875000000e+00 5.04328861694770e-03 1.18883070238763e-04
1.79368125000000e+00 4.83009270800560e-03 1.14181426873236e-04
1.80384375000000e+00 4.62590927069499e-03 1.09663966067440e-04
1.81400625000000e+00 4.43035731907054e-03 1.05323561989617e-04
1.82416875000000e+00 4.24307197267900e-03 1.01153359869779e-04
1.83433125000000e+00 4.06370377572867e-03 9.71467659345836e-05
1.84449375000000e+00 3.89191804503966e-03 9.32974377024930e-05
1.85465625000000e+00 3.72739424555849e-03 8.95992746270638e-05
1.86481875000000e+00 3.56982539227158e-03 8.60464090766184e-05
1.87498125000000e+00 3.41891747740183e-03 8.26331976388750e-05
1.88514375000000e+00 3.27438892181941e-03 7.93542127394825e-05
1.89530625000000e+00 3.13597004964316e-03 7.62042345637307e-05
1.90546875000000e+00 3.00340258505227e-03 7.31782432710308e-05
1.91563125000000e+00 2.87643917036933e-03 7.02714114921067e-05
1.92579375000000e+00 2.75484290451559e-03 6.74790970991344e-05
1.93595625000000e+00 2.63838690097710e-03 6.47968362393724e-05
1.94611875000000e+00 2.52685386445714e-03 6.22203366231381e-05
1.95628125000000e+00 2.42003568542482e-03 5.97454710572669e-05
1.96644375000000e+00 2.31773305180345e-03 5.73682712154796e-05
1.97660625000000e+00 2.21975507707405e-03 5.50849216373548e-05
1.98676875000000e+00 2.12591894410015e-03 5.28917539478748e-05
1.99693125000000e+00 2.03604956400924e-03 5.07852412897793e-05
2.00709375000000e+00 1.94997924949434e-03 4.87619929612061e-05
2.01725625000000e+00 1.86754740192624e-03 4.68187492513532e-05
2.02741875000000e+00 1.78860021169244e-03 4.49523764671333e-05
2.03758125000000e+00 1.71299037120376e-03 4.31598621440237e-05
2.04774375000000e+00 1.64057680003304e-03 4.14383104345453e-05
2.05790625000000e+00 1.57122438167313e-03 3.97849376680200e-05
2.06806875000000e+00 1.50480371142295e-03 3.81970680754719e-05
2.07823125000000e+00 1.44119085493122e-03 3.66721296737433e-05
2.08839375000000e+00 1.38026711694732e-03 3.52076503030959e-05
2.09855625000000e+00 1.32191881984777e-03 3.38012538127680e-05
2.10871875000000e+00 1.26603709152509e-03 3.24506563891387e-05
2.11888125000000e+00 1.21251766224336e-03 3.11536630213411e-05
2.12904375000000e+00 1.16126067008122e-03 2.99081640993397e-05
2.13920625000000e+00 1.11217047459951e-03 2.87121321396567e-05
2.14936875000000e+00 1.06515547838573e-03 2.75636186341040e-05
2.15953125000000e+00 1.02012795614241e-03 2.64607510170366e-05
2.16969375000000e+00 9.77003891000435e-04 2.54017297467953e-05
2.17985625000000e+00 9.35702817751952e-04 2.43848254971623e-05
2.19001875000000e+00 8.96147672710296e-04 2.34083764547984e-05
2.20018125000000e+00 8.58264649916839e-04 2.24707857187706e-05
2.21034375000000e+00 8.21983063426429e-04 2.15705187984170e-05
2.22050625000000e+00 7.87235215414458e-04 2.07061012059256e-05
2.23066875000000e+00 7.53956269859467e-04 1.98761161401369e-05
2.24083125000000e+00 7.22084131565593e-04 1.90792022581991e-05
2.25099375000000e+00 6.91559330299122e-04 1.83140515318261e-05
2.26115625000000e+00 6.62324909822956e-04 1.75794071850234e-05
2.27131875000000e+00 6.34326321621959e-04 1.68740617102627e-05
2.28148125000000e+00 6.07511323120855e-04 1.61968549601877e-05
2.29164375000000e+00 5.81829880204794e-04 1.55466723120427e-05
2.30180625000000e+00 5.57234073860678e-04 1.49224429021160e-05
2.31196875000000e+00 5.33678010765060e-04 1.43231379275855e-05
2.32213125000000e+00 5.11117737651774e-04 1.37477690132505e-05
2.33229375000000e+00 4.89511159299523e-04 1.31953866407233e-05
2.34245625000000e+00 4.68817959986389e-04 1.26650786377421e-05
2.35261875000000e+00 4.48999528264715e-04 1.21559687253514e-05
2.36278125000000e+00 4.30018884915990e-04 1.16672151207804e-05
2.37294375000000e+00 4.11840613951316e-04 1.11980091939238e-05
2.38310625000000e+00 3.94430796528700e-04 1.07475741754115e-05
2.39326875000000e+00 3.77756947663872e-04 1.03151639143236e-05
2.40343125000000e+00 3.61787955616550e-04 9.90006168367951e-06
2.41359375000000e+00 3.46494023839024e-04 9.50157903189841e-06
2.42375625000000e+00 3.31846615378774e-04 9.11905467849418e-06
2.43391875000000e+00 3.17818399631357e-04 8.75185345233285e-06
2.44408125000000e+00 3.04383201344224e-04 8.39936527084061e-06
2.45424375000000e+00 2.91515951776310e-04 8.06100415861138e-06
2.46440625000000e+00 2.79192641922256e-04 7.73620730391890e-06
2.47456875000000e+00 2.67390277714002e-04 7.42443415169516e-06
2.48473125000000e+00 2.56086837116145e-04 7.12516553158868e-06
2.49489375000000e+00 2.45261229035019e-04 6.83790281976870e-06
2.50505625000000e+00 2.34893253964811e-04 6.56216713319029e-06
2.51521875000000e+00 2.24963566297302e-04 6.29749855508359e-06
2.52538125000000e+00 2.15453638224886e-04 6.04345539047637e-06
2.53554375000000e+00 2.06345725169528e-04 5.79961345060307e-06
2.54570625000000e+00 1.97622832673152e-04 5.56556536509714e-06
2.55586875000000e+00 1.89268684687673e-04 5.34091992090399e-06
2.56603125000000e+00 1.81267693205515e-04 5.12530142689196e-06
2.57619375000000e+00 1.73604929173942e-04 4.91834910317726e-06
2.58635625000000e+00 1.66266094638935e-04 4.71971649421516e-06
2.59651875000000e+00 1.59237496066630e-04 4.52907090474601e-06
2.60668125000000e+00 1.52506018792554e-04 4.34609285771851e-06
2.61684375000000e+00 1.46059102550966e-04 4.17047557334562e-06
2.62700625000000e+00 1.39884718038650e-04 4.00192446848098e-06
2.63716875000000e+00 1.33971344469440e-04 3.84015667553333e-06
2.64733125000000e+00 1.28307948077574e-04 3.68490058016696e-06
2.65749375000000e+00 1.22883961529795e-04 3.53589537706414e-06
2.66765625000000e+00 1.17689264207752e-04 3.39289064305282e-06
2.67781875000000e+00 1.12714163323939e-04 3.25564592692968e-06
2.68798125000000e+00 1.07949375835921e-04 3.12393035533364e-06
2.69814375000000e+00 1.03386011125099e-04 2.99752225404963e-06
2.70830625000000e+00 9.90155544077015e-05 2.87620878414587e-06
2.71846875000000e+00 9.48298508470492e-05 2.75978559237081e-06
2.72863125000000e+00 9.08210903374403e-05 2.64805647525737e-06
2.73879375000000e+00 8.69817929312725e-05 2.54083305640348e-06
2.74895625000000e+00 8.33047948822061e-05 2.43793447641808e-06
2.75911875000000e+00 7.97832352783269e-05 2.33918709504121e-06
2.76928125000000e+00 7.64105432403688e-05 2.24442420496557e-06
2.77944375000000e+00 7.31804256611078e-05 2.15348575690508e-06
2.78960625000000e+00 7.00868554630508e-05 2.06621809547327e-06
2.79976875000000e+00 6.71240603525101e-05 1.98247370545111e-06
2.80993125000000e+00 6.42865120490782e-05 1.90211096804007e-06
2.82009375000000e+00 6.15689159704078e-05 1.82499392671161e-06
2.83025625000000e+00 5.89662013530487e-05 1.75099206227916e-06
2.84041875000000e+00 5.64735117909086e-05 1.67998007683338e-06
2.85058125000000e+00 5.40861961736831e-05 1.61183768619466e-06
2.86074375000000e+00 5.17998000083477e-05 1.54644942055087e-06
2.87090625000000e+00 4.96100571075177e-05 1.48370443296054e-06
2.88106875000000e+00 4.75128816291673e-05 1.42349631541435e-06
2.89123125000000e+00 4.55043604528562e-05 1.36572292215942e-06
2.90139375000000e+00 4.35807458782363e-05 1.31028620000256e-06
2.91155625000000e+00 4.17384486322167e-05 1.25709202531931e-06
2.92171875000000e+00 3.99740311717376e-05 1.20605004750622e-06
2.93188125000000e+00 3.82842012696575e-05 1.15707353862429e-06
2.94204375000000e+00 3.66658058717859e-05 1.11007924899067e-06
2.95220625000000e+00 3.51158252135977e-05 1.06498726848569e-06
2.96236875000000e+00 3.36313671856542e-05 1.02172089335089e-06
2.97253125000000e+00 3.22096619372145e-05 9.80206498262795e-07
2.98269375000000e+00 3.08480567079706e-05 9.40373413474978e-07
2.99285625000000e+00 2.95440108782610e-05 9.02153806829760e-07
3.00301875000000e+00 2.82950912285270e-05 8.65482570447936e-07
3.01318125000000e+00 2.70989673991681e-05 8.30297211912683e-07
3.02334375000000e+00 2.59534075423233e-05 7.96537749770939e-07
3.03350625000000e+00 2.48562741574648e-05 7.64146613182373e-07
3.04366875000000e+00 2.38055201030356e-05 7.33068545552612e-07
3.05383125000000e+00 2.27991847766871e-05 7.03250511993931e-07
3.06399375000000e+00 2.18353904569906e-05 6.74641610462539e-07
3.07415625000000e+00 2.09123387997961e-05 6.47192986427568e-07
3.08431875000000e+00 2.00283074827017e-05 6.20857750932544e-07
3.09448125000000e+00 1.91816469913713e-05 5.95590901915473e-07
3.10464375000000e+00 1.83707775417052e-05 5.71349248658976e-07
3.11480625000000e+00 1.75941861321207e-05 5.48091339246890e-07
3.12496875000000e+00 1.68504237204418e-05 5.25777390908630e-07
3.13513125000000e+00 1.61381025201309e-05 5.04369223137178e-07
3.14529375000000e+00 1.54558934108171e-05 4.83830193471100e-07
3.15545625000000e+00 1.48025234582909e-05 4.64125135835224e-07
3.16561875000000e+00 1.41767735393349e-05 4.45220301338822e-07
3.17578125000000e+00 1.35774760669618e-05 4.27083301434015e-07
3.18594375000000e+00 1.30035128118136e-05 4.09683053340980e-07
3.19610625000000e+00 1.24538128156566e-05 3.92989727650190e-07
3.20626875000000e+00 1.19273503930805e-05 3.76974698015475e-07
