Energy (eV)          EEDF (eV^-(3/2))     First Anisotropy
4.25714285714286e-03 1.39871792114794e+00 8.73039752402694e-04
1.27714285714286e-02 1.38499743838457e+00 1.43940502884954e-03
2.12857142857143e-02 1.37141154434985e+00 1.89427464798543e-03
2.98000000000000e-02 1.35795891880667e+00 2.23627104407315e-03
3.83142857142857e-02 1.34463825444154e+00 2.51855983458106e-03
4.68285714285714e-02 1.33144825685140e+00 2.76133032139943e-03
5.53428571428571e-02 1.31838764427906e+00 2.97507396510622e-03
6.38571428571428e-02 1.30545514754244e+00 3.16615193857344e-03
7.23714285714286e-02 1.29264950990961e+00 3.33879993573504e-03
8.08857142857143e-02 1.27996948697749e+00 3.49602348624467e-03
8.94000000000000e-02 1.26741384654989e+00 3.64005614334412e-03
9.79142857142857e-02 1.25498136850501e+00 3.77261733604349e-03
1.06428571428571e-01 1.24267084466691e+00 3.89506805854215e-03
1.14942857142857e-01 1.23048107887601e+00 4.00851019715939e-03
1.23457142857143e-01 1.21841088646638e+00 4.11385266642168e-03
1.31971428571429e-01 1.20645909450505e+00 4.21185704844706e-03
1.40485714285714e-01 1.19462454165190e+00 4.30317012994832e-03
1.49000000000000e-01 1.18290607778490e+00 4.38834758247992e-03
1.57514285714286e-01 1.17130256415117e+00 4.46787162321354e-03
1.66028571428571e-01 1.15981287316808e+00 4.54216446530620e-03
1.74542857142857e-01 1.14843588837997e+00 4.61159871148381e-03
1.83057142857143e-01 1.13717050414870e+00 4.67650548377582e-03
1.91571428571429e-01 1.12601562574856e+00 4.73718087535660e-03
2.00085714285714e-01 1.11497016924823e+00 4.79389119112384e-03
2.08600000000000e-01 1.10403306123737e+00 4.84687715953710e-03
2.17114285714286e-01 1.09320323889116e+00 4.89635739229362e-03
2.25628571428571e-01 1.08247964981032e+00 4.94253127141941e-03
2.34142857142857e-01 1.07186125196436e+00 4.98558135853755e-03
2.42657142857143e-01 1.06134701345252e+00 5.02567540302952e-03
2.51171428571429e-01 1.05093591254220e+00 5.06296803606415e-03
2.59685714285714e-01 1.04062693756301e+00 5.09760225713070e-03
2.68200000000000e-01 1.03041908668889e+00 5.12971066854083e-03
2.76714285714286e-01 1.02031136796097e+00 5.15941654253667e-03
2.85228571428571e-01 1.01030279915080e+00 5.18683476444390e-03
2.93742857142857e-01 1.00039240769848e+00 5.21207265303953e-03
3.02257142857143e-01 9.90579230516547e-01 5.23523066270735e-03
3.10771428571429e-01 9.80862313998664e-01 5.25640299495680e-03
3.19285714285714e-01 9.71240713922650e-01 5.27567817368334e-03
3.27800000000000e-01 9.61713495268554e-01 5.29313952033369e-03
3.36314285714286e-01 9.52279732218482e-01 5.30886557874110e-03
3.44828571428571e-01 9.42938508036178e-01 5.32293050947535e-03
3.53342857142857e-01 9.33688915003850e-01 5.33540444169488e-03
3.61857142857143e-01 9.24530054255583e-01 5.34635377550583e-03
3.70371428571429e-01 9.15461035768872e-01 5.35584144964385e-03
3.78885714285714e-01 9.06480978275170e-01 5.36392721373826e-03
3.87400000000000e-01 8.97589009103616e-01 5.37066784509689e-03
3.95914285714286e-01 8.88784264167276e-01 5.37611734774345e-03
4.04428571428571e-01 8.80065887855314e-01 5.38032714678561e-03
4.12942857142857e-01 8.71433032970476e-01 5.38334626473709e-03
4.21457142857143e-01 8.62884860584405e-01 5.38522147095629e-03
4.29971428571429e-01 8.54420540018872e-01 5.38599741472800e-03
4.38485714285714e-01 8.46039248762874e-01 5.38571677397561e-03
4.47000000000000e-01 8.37740172335930e-01 5.38442036612414e-03
4.55514285714286e-01 8.29522504266046e-01 5.38214725237424e-03
4.64028571428571e-01 8.21385445992171e-01 5.37893484555185e-03
4.72542857142857e-01 8.13328206803365e-01 5.37481900902420e-03
4.81057142857143e-01 8.05350003711260e-01 5.36983413806764e-03
4.89571428571429e-01 7.97450061424997e-01 5.36401323213679e-03
4.98085714285714e-01 7.89627612274238e-01 5.35738798531198e-03
5.06600000000000e-01 7.81881896088013e-01 5.34998884770601e-03
5.15114285714286e-01 7.74212160167686e-01 5.34184508465801e-03
5.23628571428571e-01 7.66617659198080e-01 5.33298484219007e-03
5.32142857142857e-01 7.59097655188927e-01 5.32343520747085e-03
5.40657142857143e-01 7.51651417361224e-01 5.31322225636250e-03
5.49171428571429e-01 7.44278222118412e-01 5.30237109520342e-03
5.57685714285714e-01 7.36977352974772e-01 5.29090592057579e-03
5.66200000000000e-01 7.29748100447067e-01 5.27885005530383e-03
5.74714285714286e-01 7.22589762024563e-01 5.26622598410883e-03
5.83228571428571e-01 7.15501642087681e-01 5.25305539622148e-03
5.91742857142857e-01 7.08483051852020e-01 5.23935922491553e-03
6.00257142857143e-01 7.01533309266300e-01 5.22515767679538e-03
6.08771428571429e-01 6.94651738981433e-01 5.21047025705067e-03
6.17285714285714e-01 6.87837672283861e-01 5.19531581159173e-03
6.25800000000000e-01 6.81090446997967e-01 5.17971254901272e-03
6.34314285714286e-01 6.74409407454534e-01 5.16367806304338e-03
6.42828571428571e-01 6.67793904416018e-01 5.14722936188629e-03
6.51342857142857e-01 6.61243295023298e-01 5.13038289549851e-03
6.59857142857143e-01 6.54756942703463e-01 5.11315457436172e-03
6.68371428571429e-01 6.48334217137883e-01 5.09555978521753e-03
6.76885714285714e-01 6.41974494200125e-01 5.07761342232208e-03
6.85400000000000e-01 6.35677155867570e-01 5.05932990120543e-03
6.93914285714286e-01 6.29441590189259e-01 5.04072317328808e-03
7.02428571428571e-01 6.23267191217059e-01 5.02180674701434e-03
7.10942857142857e-01 6.17153358955180e-01 5.00259370752052e-03
7.19457142857143e-01 6.11099499276479e-01 4.98309672902984e-03
7.27971428571428e-01 6.05105023890280e-01 4.96332808483769e-03
7.36485714285714e-01 5.99169350284519e-01 4.94329967143944e-03
7.45000000000000e-01 5.93291901645379e-01 4.92302301727986e-03
7.53514285714286e-01 5.87472106825145e-01 4.90250929250394e-03
7.62028571428571e-01 5.81709400278673e-01 4.88176932475294e-03
7.70542857142857e-01 5.76003222015667e-01 4.86081361386168e-03
7.79057142857143e-01 5.70353017524410e-01 4.83965234022420e-03
7.87571428571428e-01 5.64758237739873e-01 4.81829537117441e-03
7.96085714285714e-01 5.59218338989773e-01 4.79675228020639e-03
8.04600000000000e-01 5.53732782921256e-01 4.77503235255466e-03
8.13114285714286e-01 5.48301036469202e-01 4.75314459181198e-03
8.21628571428571e-01 5.42922571797498e-01 4.73109773209828e-03
8.30142857142857e-01 5.37596866254006e-01 4.70890024937305e-03
8.38657142857143e-01 5.32323402300863e-01 4.68656036716727e-03
8.47171428571429e-01 5.27101667483222e-01 4.66408606063562e-03
8.55685714285714e-01 5.21931154378965e-01 4.64148507225366e-03
8.64200000000000e-01 5.16811360531616e-01 4.61876491533652e-03
8.72714285714286e-01 5.11741788419403e-01 4.59593287857693e-03
8.81228571428571e-01 5.06721945400910e-01 4.57299603565855e-03
8.89742857142857e-01 5.01751343672645e-01 4.54996125417718e-03
8.98257142857143e-01 4.96829500205186e-01 4.52683519960352e-03
9.06771428571429e-01 4.91955936712801e-01 4.50362433779726e-03
9.15285714285714e-01 4.87130179606557e-01 4.48033494808018e-03
9.23800000000000e-01 4.82351759932796e-01 4.45697312538697e-03
9.32314285714286e-01 4.77620213343164e-01 4.43354478338936e-03
9.40828571428571e-01 4.72935080044251e-01 4.41005566224789e-03
9.49342857142857e-01 4.68295904757674e-01 4.38651133579311e-03
9.57857142857143e-01 4.63702236661445e-01 4.36291721427118e-03
9.66371428571429e-01 4.59153629360643e-01 4.33927854582354e-03
9.74885714285714e-01 4.54649640843682e-01 4.31560042754895e-03
9.83400000000000e-01 4.50189833425776e-01 4.29188780672996e-03
9.91914285714286e-01 4.45773773720074e-01 4.26814548297587e-03
1.00042857142857e+00 4.41401032590960e-01 4.24437811070741e-03
1.00894285714286e+00 4.37071185133062e-01 4.22059022057715e-03
1.01745714285714e+00 4.32783810551033e-01 4.19678620576292e-03
1.02597142857143e+00 4.28538492214922e-01 4.17297030627031e-03
1.03448571428571e+00 4.24334817621411e-01 4.14914666397403e-03
1.04300000000000e+00 4.20172378233770e-01 4.12531928899086e-03
1.05151428571429e+00 4.16050769600965e-01 4.10149207114888e-03
1.06002857142857e+00 4.11969591162670e-01 4.07766878521103e-03
1.06854285714286e+00 4.07928446362979e-01 4.05385309213829e-03
1.07705714285714e+00 4.03926942462211e-01 4.03004855263680e-03
1.08557142857143e+00 3.99964690610153e-01 4.00625859384392e-03
1.09408571428571e+00 3.96041305806023e-01 3.98248656537105e-03
1.10260000000000e+00 3.92156406755269e-01 3.95873570748626e-03
1.11111428571429e+00 3.88309615972607e-01 3.93500916117626e-03
1.11962857142857e+00 3.84500559607928e-01 3.91130997252281e-03
1.12814285714286e+00 3.80728867544761e-01 3.88764109353948e-03
1.13665714285714e+00 3.76994173232073e-01 3.86400539414154e-03
1.14517142857143e+00 3.73296113747116e-01 3.84040563158922e-03
1.15368571428571e+00 3.69634329758192e-01 3.81684450110614e-03
1.16220000000000e+00 3.66008465396157e-01 3.79332460668737e-03
1.17071428571429e+00 3.62418168343792e-01 3.76984846998754e-03
1.17922857142857e+00 3.58863089679927e-01 3.74641853402355e-03
1.18774285714286e+00 3.55342883964915e-01 3.72303716370352e-03
1.19625714285714e+00 3.51857209089888e-01 3.69970665646175e-03
1.20477142857143e+00 3.48405726330798e-01 3.67642921424110e-03
1.21328571428571e+00 3.44988100313758e-01 3.65320698931900e-03
1.22180000000000e+00 3.41603998899464e-01 3.63004205753246e-03
1.23031428571429e+00 3.38253093260884e-01 3.60693642617294e-03
1.23882857142857e+00 3.34935057743337e-01 3.58389203714555e-03
1.24734285714286e+00 3.31649569938857e-01 3.56091076727513e-03
1.25585714285714e+00 3.28396310550769e-01 3.53799443779841e-03
1.26437142857143e+00 3.25174963440218e-01 3.51514478867524e-03
1.27288571428571e+00 3.21985215593919e-01 3.49236352015905e-03
1.28140000000000e+00 3.18826757019940e-01 3.46965226824086e-03
1.28991428571429e+00 3.15699280815386e-01 3.44701261169271e-03
1.29842857142857e+00 3.12602483040510e-01 3.42444607478393e-03
1.30694285714286e+00 3.09536062783537e-01 3.40195412742481e-03
1.31545714285714e+00 3.06499722038732e-01 3.37953819366990e-03
1.32397142857143e+00 3.03493165746518e-01 3.35719962816311e-03
1.33248571428571e+00 3.00516101763449e-01 3.33493975391211e-03
1.34100000000000e+00 2.97568240768060e-01 3.31275983976433e-03
1.34951428571429e+00 2.94649296319923e-01 3.29066110671620e-03
1.35802857142857e+00 2.91758984746161e-01 3.26864473026211e-03
1.36654285714286e+00 2.88897025198044e-01 3.24671184041986e-03
1.37505714285714e+00 2.86063139540995e-01 3.22486352937337e-03
1.38357142857143e+00 2.83257052389206e-01 3.20310082986859e-03
1.39208571428571e+00 2.80478491077681e-01 3.18142474959015e-03
1.40060000000000e+00 2.77727185577017e-01 3.15983625049709e-03
1.40911428571429e+00 2.75002868545018e-01 3.13833625449140e-03
1.41762857142857e+00 2.72305275224191e-01 3.11692564546136e-03
1.42614285714286e+00 2.69634143491241e-01 3.09560526922151e-03
1.43465714285714e+00 2.66989213757656e-01 3.07437594039947e-03
1.44317142857143e+00 2.64370228999606e-01 3.05323842261576e-03
1.45168571428571e+00 2.61776934731905e-01 3.03219345980978e-03
1.46020000000000e+00 2.59209078930738e-01 3.01124175727539e-03
1.46871428571429e+00 2.56666412078846e-01 2.99038398676873e-03
1.47722857142857e+00 2.54148687072776e-01 2.96962078829347e-03
1.48574285714286e+00 2.51655659266217e-01 2.94895276997926e-03
1.49425714285714e+00 2.49187086380010e-01 2.92838051430256e-03
1.50277142857143e+00 2.46742728527976e-01 2.90790455989604e-03
1.51128571428571e+00 2.44322348192664e-01 2.88752543012833e-03
1.51980000000000e+00 2.41925710155181e-01 2.86724361569367e-03
1.52831428571429e+00 2.39552581534785e-01 2.84705957922533e-03
1.53682857142857e+00 2.37202731704838e-01 2.82697375686195e-03
1.54534285714286e+00 2.34875932330793e-01 2.80698655808196e-03
1.55385714285714e+00 2.32571957288607e-01 2.78709837133461e-03
1.56237142857143e+00 2.30290582687060e-01 2.76730954733875e-03
1.57088571428571e+00 2.28031586845165e-01 2.74762042518406e-03
1.57940000000000e+00 2.25794750228354e-01 2.72803131634215e-03
1.58791428571429e+00 2.23579855483209e-01 2.70854250884116e-03
1.59642857142857e+00 2.21386687361192e-01 2.68915426864547e-03
1.60494285714286e+00 2.19215032751978e-01 2.66986683945994e-03
1.61345714285714e+00 2.17064680609378e-01 2.65068044783548e-03
1.62197142857143e+00 2.14935421970635e-01 2.63159528782938e-03
1.63048571428571e+00 2.12827049935366e-01 2.61261154486579e-03
1.63900000000000e+00 2.10739359607464e-01 2.59372938104641e-03
1.64751428571429e+00 2.08672148125590e-01 2.57494893893536e-03
1.65602857142857e+00 2.06625214593862e-01 2.55627034277723e-03
1.66454285714286e+00 2.04598360111136e-01 2.53769369828204e-03
1.67305714285714e+00 2.02591387703659e-01 2.51921909726164e-03
1.68157142857143e+00 2.00604102341745e-01 2.50084660353467e-03
1.69008571428571e+00 1.98636310920153e-01 2.48257627475792e-03
1.69860000000000e+00 1.96687822205118e-01 2.46440814892505e-03
1.70711428571429e+00 1.94758446861146e-01 2.44634224780348e-03
1.71562857142857e+00 1.92847997387957e-01 2.42837857801373e-03
1.72414285714286e+00 1.90956288146216e-01 2.41051713080174e-03
1.73265714285714e+00 1.89083135296235e-01 2.39275788625519e-03
1.74117142857143e+00 1.87228356812380e-01 2.37510080034714e-03
1.74968571428571e+00 1.85391772464784e-01 2.35754582492602e-03
1.75820000000000e+00 1.83573203771002e-01 2.34009289530226e-03
1.76671428571429e+00 1.81772474019571e-01 2.32274193337340e-03
1.77522857142857e+00 1.79989408212577e-01 2.30549284858208e-03
1.78374285714286e+00 1.78223833088281e-01 2.28834553768240e-03
1.79225714285714e+00 1.76475577065267e-01 2.27129988857878e-03
1.80077142857143e+00 1.74744470254882e-01 2.25435576841131e-03
1.80928571428571e+00 1.73030344444180e-01 2.23751304187305e-03
1.81780000000000e+00 1.71333033051766e-01 2.22077155979285e-03
1.82631428571429e+00 1.69652371148519e-01 2.20413116197996e-03
1.83482857142857e+00 1.67988195405221e-01 2.18759167807657e-03
1.84334285714286e+00 1.66340344112467e-01 2.17115292732232e-03
1.85185714285714e+00 1.64708657129724e-01 2.15481472205298e-03
1.86037142857143e+00 1.63092975896053e-01 2.13857685674010e-03
1.86888571428571e+00 1.61493143414221e-01 2.12243912478701e-03
1.87740000000000e+00 1.59909004210310e-01 2.10640130802282e-03
1.88591428571429e+00 1.58340404351962e-01 2.09046317929537e-03
1.89442857142857e+00 1.56787191400581e-01 2.07462450323144e-03
1.90294285714286e+00 1.55249214428857e-01 2.05888503600201e-03
1.91145714285714e+00 1.53726323974251e-01 2.04324452851502e-03
1.91997142857143e+00 1.52218372048242e-01 2.02770271632848e-03
1.92848571428571e+00 1.50725212121507e-01 2.01225933506074e-03
1.93700000000000e+00 1.49246699086955e-01 1.99691411072014e-03
1.94551428571429e+00 1.47782689275793e-01 1.98166676207044e-03
1.95402857142857e+00 1.46333040413854e-01 1.96651700130999e-03
1.96254285714286e+00 1.44897611637030e-01 1.95146453384043e-03
1.97105714285714e+00 1.43476263448770e-01 1.93650906118244e-03
1.97957142857143e+00 1.42068857728029e-01 1.92165027168968e-03
1.98808571428571e+00 1.40675257715450e-01 1.90688785469567e-03
1.99660000000000e+00 1.39295327979511e-01 1.89222149160944e-03
2.00511428571429e+00 1.37928934430660e-01 1.87765085807544e-03
2.01362857142857e+00 1.36575944281397e-01 1.86317562458099e-03
2.02214285714286e+00 1.35236226059859e-01 1.84879545623033e-03
2.03065714285714e+00 1.33909649570946e-01 1.83451001540982e-03
2.03917142857143e+00 1.32596085903153e-01 1.82031895323608e-03
2.04768571428571e+00 1.31295407415684e-01 1.80622192254975e-03
2.05620000000000e+00 1.30007487707412e-01 1.79221856971362e-03
2.06471428571429e+00 1.28732201629341e-01 1.77830853658666e-03
2.07322857142857e+00 1.27469425248062e-01 1.76449146106804e-03
2.08174285714286e+00 1.26219035857732e-01 1.75076697687780e-03
2.09025714285714e+00 1.24980911944484e-01 1.73713471599489e-03
2.09877142857143e+00 1.23754933192285e-01 1.72359430077844e-03
2.10728571428571e+00 1.22540980470920e-01 1.71014535590884e-03
2.11580000000000e+00 1.21338935807517e-01 1.69678750083022e-03
2.12431428571429e+00 1.20148682397518e-01 1.68352035155571e-03
2.13282857142857e+00 1.18970104571223e-01 1.67034352115567e-03
2.14134285714286e+00 1.17803087804331e-01 1.65725661954576e-03
2.14985714285714e+00 1.16647518685348e-01 1.64425925571832e-03
2.15837142857143e+00 1.15503284920591e-01 1.63135103048208e-03
2.16688571428571e+00 1.14370275322981e-01 1.61853154744023e-03
2.17540000000000e+00 1.13248379785907e-01 1.60580040602492e-03
2.18391428571429e+00 1.12137489292886e-01 1.59315720314940e-03
2.19242857142857e+00 1.11037495886905e-01 1.58060153364600e-03
2.20094285714286e+00 1.09948292679700e-01 1.56813299006272e-03
2.20945714285714e+00 1.08869773821887e-01 1.55575116470682e-03
2.21797142857143e+00 1.07801834507224e-01 1.54345564295210e-03
2.22648571428571e+00 1.06744370962159e-01 1.53124601333630e-03
2.23500000000000e+00 1.05697280421825e-01 1.51912186113880e-03
2.24351428571429e+00 1.04660461138541e-01 1.50708276989379e-03
2.25202857142857e+00 1.03633812353702e-01 1.49512832178383e-03
2.26054285714286e+00 1.02617234305949e-01 1.48325809744492e-03
2.26905714285714e+00 1.01610628203770e-01 1.47147167783955e-03
2.27757142857143e+00 1.00613896229121e-01 1.45976863808465e-03
2.28608571428571e+00 9.96269415276788e-02 1.44814855674330e-03
2.29460000000000e+00 9.86496681867768e-02 1.43661100990168e-03
2.30311428571429e+00 9.76819812428870e-02 1.42515557255523e-03
2.31162857142857e+00 9.67237866558277e-02 1.41378181896303e-03
2.32014285714286e+00 9.57749913159543e-02 1.40248932246137e-03
2.32865714285714e+00 9.48355030190143e-02 1.39127765718102e-03
2.33717142857143e+00 9.39052304692075e-02 1.38014639235469e-03
2.34568571428571e+00 9.29840832700977e-02 1.36909510086993e-03
2.35420000000000e+00 9.20719719043177e-02 1.35812335380476e-03
2.36271428571429e+00 9.11688077401566e-02 1.34723072169881e-03
2.37122857142857e+00 9.02745030078771e-02 1.33641677487223e-03
2.37974285714286e+00 8.93889708060430e-02 1.32568108324781e-03
2.38825714285714e+00 8.85121250784276e-02 1.31502321792676e-03
2.39677142857143e+00 8.76438806165897e-02 1.30444274593626e-03
2.40528571428571e+00 8.67841530513959e-02 1.29393923810541e-03
2.41380000000000e+00 8.59328588343467e-02 1.28351226402292e-03
2.42231428571429e+00 8.50899152433700e-02 1.27316139320299e-03
2.43082857142857e+00 8.42552403610660e-02 1.26288619537267e-03
2.43934285714286e+00 8.34287530802703e-02 1.25268624030258e-03
2.44785714285714e+00 8.26103730828382e-02 1.24256109925327e-03
2.45637142857143e+00 8.18000208417984e-02 1.23251034012789e-03
2.46488571428571e+00 8.09976176134459e-02 1.22253353472700e-03
2.47340000000000e+00 8.02030854201509e-02 1.21263025409452e-03
2.48191428571429e+00 7.94163470554511e-02 1.20280006958759e-03
2.49042857142857e+00 7.86373260640559e-02 1.19304255313571e-03
2.49894285714286e+00 7.78659467467360e-02 1.18335727708005e-03
2.50745714285714e+00 7.71021341408190e-02 1.17374381550133e-03
2.51597142857143e+00 7.63458140219787e-02 1.16420173974525e-03
2.52448571428571e+00 7.55969128968590e-02 1.15473062510758e-03
2.53300000000000e+00 7.48553579872401e-02 1.14533004653723e-03
2.54151428571429e+00 7.41210772345120e-02 1.13599957961843e-03
2.55002857142857e+00 7.33939992812862e-02 1.12673880080449e-03
2.55854285714286e+00 7.26740534756894e-02 1.11754728726540e-03
2.56705714285714e+00 7.19611698534255e-02 1.10842461810777e-03
2.57557142857143e+00 7.12552791392471e-02 1.09937037024317e-03
2.58408571428571e+00 7.05563127400752e-02 1.09038412454994e-03
2.59260000000000e+00 6.98642027304102e-02 1.08146546190530e-03
2.60111428571429e+00 6.91788818562563e-02 1.07261396408724e-03
2.60962857142857e+00 6.85002835182055e-02 1.06382921398557e-03
2.61814285714286e+00 6.78283417752038e-02 1.05511079545762e-03
2.62665714285714e+00 6.71629913280454e-02 1.04645829444934e-03
2.63517142857143e+00 6.65041675205706e-02 1.03787129517925e-03
2.64368571428571e+00 6.58518063332473e-02 1.02934938581997e-03
2.65220000000000e+00 6.52058443697223e-02 1.02089215483290e-03
2.66071428571429e+00 6.45662188602622e-02 1.01249919179692e-03
2.66922857142857e+00 6.39328676461833e-02 1.00417008759902e-03
2.67774285714286e+00 6.33057291831525e-02 9.95904434297793e-04
2.68625714285714e+00 6.26847425259924e-02 9.87701826153966e-04
