Energy (eV)          EEDF (eV^-(3/2))     First Anisotropy
2.04375000000000e-01 3.78845188530502e-02 4.93539611184906e-05
6.13125000000000e-01 3.62836994527353e-02 8.00446657395202e-05
1.02187500000000e+00 3.47505230588524e-02 1.01888057141615e-04
1.43062500000000e+00 3.32821313999944e-02 1.16341786494097e-04
1.83937500000000e+00 3.18757869816959e-02 1.26734400538020e-04
2.24812500000000e+00 3.05288679829750e-02 1.34397613797945e-04
2.65687500000000e+00 2.92388633685220e-02 1.40056064226406e-04
3.06562500000000e+00 2.80033682074243e-02 1.44167330482886e-04
3.47437500000000e+00 2.68200791897001e-02 1.47047097082138e-04
3.88312500000000e+00 2.56867903322815e-02 1.48926284506152e-04
4.29187500000000e+00 2.46013888664424e-02 1.49980932440346e-04
4.70062500000000e+00 2.35618512990042e-02 1.50349392251887e-04
5.10937500000000e+00 2.25662396399764e-02 1.50142943504415e-04
5.51812500000000e+00 2.16126977895987e-02 1.49452719713389e-04
5.92687500000000e+00 2.06994480780500e-02 1.48354429365786e-04
6.33562500000000e+00 1.98247879513723e-02 1.46911692069210e-04
6.74437500000000e+00 1.89870867974322e-02 1.45178468028037e-04
7.15312500000000e+00 1.81847829060017e-02 1.43200872893212e-04
7.56187500000000e+00 1.74163805572920e-02 1.41018563396779e-04
7.97062500000000e+00 1.66804472335111e-02 1.38665815453264e-04
8.37937500000000e+00 1.59756109482493e-02 1.36172376914791e-04
8.78812500000000e+00 1.53005576887101e-02 1.33564151906106e-04
9.19687500000000e+00 1.46540289660222e-02 1.30863757056363e-04
9.60562500000000e+00 1.40348194690622e-02 1.28090978753046e-04
1.00143750000000e+01 1.34417748174164e-02 1.25263152836189e-04
1.04231250000000e+01 1.28737894092913e-02 1.22395482738173e-04
1.08318750000000e+01 1.23298043603618e-02 1.19501308205067e-04
1.12406250000000e+01 1.18088055297127e-02 1.16592333924544e-04
1.16493750000000e+01 1.13098216291959e-02 1.13678825313226e-04
1.20581250000000e+01 1.08319224126760e-02 1.10769777167983e-04
1.24668750000000e+01 1.03742169417905e-02 1.07873059714357e-04
1.28756250000000e+01 9.93585192499037e-03 1.04995545688934e-04
1.32843750000000e+01 9.51601012676492e-03 1.02143221399218e-04
1.36931250000000e+01 9.11390884408539e-03 9.93212841630895e-05
1.41018750000000e+01 8.72879844722656e-03 9.65342281030461e-05
1.45106250000000e+01 8.35996098224646e-03 9.37859199310074e-05
1.49193750000000e+01 8.00670883251857e-03 9.10796660874373e-05
1.53281250000000e+01 7.66838343682126e-03 8.84182723787695e-05
1.57368750000000e+01 7.34435406159480e-03 8.58040970784229e-05
1.61456250000000e+01 7.03401662507677e-03 8.32390983103253e-05
1.65543750000000e+01 6.73679257112401e-03 8.07248764132497e-05
1.69631250000000e+01 6.45212779062153e-03 7.82627118842932e-05
1.73718750000000e+01 6.17949158846742e-03 7.58535994164690e-05
1.77806250000000e+01 5.91837569420819e-03 7.34982784755153e-05
1.81893750000000e+01 5.66829331447983e-03 7.11972608021657e-05
1.85981250000000e+01 5.42877822548832e-03 6.89508551763186e-05
1.90068750000000e+01 5.19938390383750e-03 6.67591897371751e-05
1.94156250000000e+01 4.97968269408405e-03 6.46222321172370e-05
1.98243750000000e+01 4.76926501146763e-03 6.25398076170348e-05
2.02331250000000e+01 4.56773857832986e-03 6.05116156207526e-05
2.06418750000000e+01 4.37472769279862e-03 5.85372444298449e-05
2.10506250000000e+01 4.18987252837415e-03 5.66161846717197e-05
2.14593750000000e+01 4.01282846311150e-03 5.47478414231646e-05
2.18681250000000e+01 3.84326543714837e-03 5.29315451729928e-05
2.22768750000000e+01 3.68086733738083e-03 5.11665617350841e-05
2.26856250000000e+01 3.52533140813974e-03 4.94521012113212e-05
2.30943750000000e+01 3.37636768676912e-03 4.77873260936299e-05
2.35031250000000e+01 3.23369846305433e-03 4.61713585852659e-05
2.39118750000000e+01 3.09705776149226e-03 4.46032872134524e-05
2.43206250000000e+01 2.96619084543823e-03 4.30821727983450e-05
2.47293750000000e+01 2.84085374220540e-03 4.16070538369745e-05
2.51381250000000e+01 2.72081278823112e-03 4.01769513551712e-05
2.55468750000000e+01 2.60584419346245e-03 3.87908732754336e-05
2.59556250000000e+01 2.49573362414862e-03 3.74478183442009e-05
2.63643750000000e+01 2.39027580326274e-03 3.61467796579531e-05
2.67731250000000e+01 2.28927412780776e-03 3.48867478239311e-05
2.71818750000000e+01 2.19254030229328e-03 3.36667137880148e-05
2.75906250000000e+01 2.09989398769983e-03 3.24856713593576e-05
2.79993750000000e+01 2.01116246527635e-03 3.13426194587325e-05
2.84081250000000e+01 1.92618031454387e-03 3.02365641151483e-05
2.88168750000000e+01 1.84478910490531e-03 2.91665202331343e-05
2.92256250000000e+01 1.76683710028635e-03 2.81315131511310e-05
2.96343750000000e+01 1.69217897625675e-03 2.71305800096482e-05
3.00431250000000e+01 1.62067554910482e-03 2.61627709462404e-05
3.04518750000000e+01 1.55219351635987e-03 2.52271501328844e-05
3.08606250000000e+01 1.48660520827898e-03 2.43227966700060e-05
3.12693750000000e+01 1.42378834983473e-03 2.34488053501960e-05
3.16781250000000e+01 1.36362583276022e-03 2.26042873035438e-05
3.20868750000000e+01 1.30600549722635e-03 2.17883705355100e-05
3.24956250000000e+01 1.25081992274444e-03 2.10002003673374e-05
3.29043750000000e+01 1.19796622790420e-03 2.02389397881577e-05
3.33131250000000e+01 1.14734587857395e-03 1.95037697271824e-05
3.37218750000000e+01 1.09886450420529e-03 1.87938892536611e-05
3.41306250000000e+01 1.05243172189990e-03 1.81085157116480e-05
3.45393750000000e+01 1.00796096791044e-03 1.74468847960217e-05
3.49481250000000e+01 9.65369336261407e-04 1.68082505756679e-05
3.53568750000000e+01 9.24577424189099e-04 1.61918854692368e-05
3.57656250000000e+01 8.85509184112588e-04 1.55970801784280e-05
3.61743750000000e+01 8.48091781859653e-04 1.50231435833429e-05
3.65831250000000e+01 8.12255460883431e-04 1.44694026040574e-05
3.69918750000000e+01 7.77933412216623e-04 1.39352020322175e-05
3.74006250000000e+01 7.45061649920810e-04 1.34199043361346e-05
3.78093750000000e+01 7.13578891798702e-04 1.29228894425610e-05
3.82181250000000e+01 6.83426445146900e-04 1.24435544980534e-05
3.86268750000000e+01 6.54548097336220e-04 1.19813136125786e-05
3.90356250000000e+01 6.26890011015560e-04 1.15355975877853e-05
3.94443750000000e+01 6.00400623743961e-04 1.11058536321543e-05
3.98531250000000e+01 5.75030551863731e-04 1.06915450650419e-05
4.02618750000000e+01 5.50732498435437e-04 1.02921510114525e-05
4.06706250000000e+01 5.27461165063131e-04 9.90716608921140e-06
4.10793750000000e+01 5.05173167445413e-04 9.53610009005347e-06
4.14881250000000e+01 4.83826954494910e-04 9.17847765600820e-06
4.18968750000000e+01 4.63382730875376e-04 8.83383795232803e-06
4.23056250000000e+01 4.43802382812015e-04 8.50173433809157e-06
4.27143750000000e+01 4.25049407036693e-04 8.18173403550238e-06
4.31231250000000e+01 4.07088842735599e-04 7.87341779880487e-06
4.35318750000000e+01 3.89887206372466e-04 7.57637958364683e-06
4.39406250000000e+01 3.73412429265855e-04 7.29022621763238e-06
4.43493750000000e+01 3.57633797804130e-04 7.01457707273252e-06
4.47581250000000e+01 3.42521896186653e-04 6.74906374014862e-06
4.51668750000000e+01 3.28048551584476e-04 6.49332970815881e-06
4.55756250000000e+01 3.14186781618273e-04 6.24703004341634e-06
4.59843750000000e+01 3.00910744055605e-04 6.00983107611493e-06
4.63931250000000e+01 2.88195688633744e-04 5.78141008938536e-06
4.68018750000000e+01 2.76017910918228e-04 5.56145501324003e-06
4.72106250000000e+01 2.64354708111143e-04 5.34966412334153e-06
4.76193750000000e+01 2.53184336726723e-04 5.14574574483129e-06
4.80281250000000e+01 2.42485972055396e-04 4.94941796141989e-06
4.84368750000000e+01 2.32239669340666e-04 4.76040832990721e-06
4.88456250000000e+01 2.22426326596495e-04 4.57845360027186e-06
4.92543750000000e+01 2.13027648995828e-04 4.40329944144226e-06
4.96631250000000e+01 2.04026114763902e-04 4.23470017283726e-06
5.00718750000000e+01 1.95404942512735e-04 4.07241850174210e-06
5.04806250000000e+01 1.87148059955907e-04 3.91622526656464e-06
5.08893750000000e+01 1.79240073945299e-04 3.76589918599974e-06
5.12981250000000e+01 1.71666241773950e-04 3.62122661411221e-06
5.17068750000000e+01 1.64412443691503e-04 3.48200130133419e-06
5.21156250000000e+01 1.57465156581027e-04 3.34802416135898e-06
5.25243750000000e+01 1.50811428748132e-04 3.21910304390232e-06
5.29331250000000e+01 1.44438855775370e-04 3.09505251329019e-06
5.33418750000000e+01 1.38335557396915e-04 2.97569363282298e-06
5.37506250000000e+01 1.32490155350418e-04 2.86085375485764e-06
5.41593750000000e+01 1.26891752164720e-04 2.75036631654148e-06
5.45681250000000e+01 1.21529910843915e-04 2.64407064112446e-06
5.49768750000000e+01 1.16394635409852e-04 2.54181174477154e-06
5.53856250000000e+01 1.11476352266828e-04 2.44344014879092e-06
5.57943750000000e+01 1.06765892353713e-04 2.34881169718985e-06
5.62031250000000e+01 1.02254474050247e-04 2.25778737946607e-06
5.66118750000000e+01 9.79336868056351e-05 2.17023315853963e-06
5.70206250000000e+01 9.37954754589151e-05 2.08601980372690e-06
5.74293750000000e+01 8.98321252218775e-05 2.00502272865692e-06
5.78381250000000e+01 8.60362472965326e-05 1.92712183402816e-06
5.82468750000000e+01 8.24007651003163e-05 1.85220135510260e-06
5.86556250000000e+01 7.89189010733519e-05 1.78014971383283e-06
5.90643750000000e+01 7.55841640431758e-05 1.71085937551758e-06
5.94731250000000e+01 7.23903371233685e-05 1.64422670988068e-06
5.98818750000000e+01 6.93314661235322e-05 1.58015185646813e-06
6.02906250000000e+01 6.64018484490077e-05 1.51853859425848e-06
6.06993750000000e+01 6.35960224696364e-05 1.45929421538207e-06
6.11081250000000e+01 6.09087573377475e-05 1.40232940284509e-06
6.15168750000000e+01 5.83350432363891e-05 1.34755811215556e-06
6.19256250000000e+01 5.58700820396221e-05 1.29489745674897e-06
6.23343750000000e+01 5.35092783674659e-05 1.24426759711253e-06
6.27431250000000e+01 5.12482310188195e-05 1.19559163350838e-06
6.31518750000000e+01 4.90827247663866e-05 1.14879550219718e-06
6.35606250000000e+01 4.70087224983079e-05 1.10380787506503e-06
6.39693750000000e+01 4.50223576918507e-05 1.06056006255823e-06
6.43781250000000e+01 4.31199272051248e-05 1.01898591983195e-06
6.47868750000000e+01 4.12978843733858e-05 9.79021756020517e-07
6.51956250000000e+01 3.95528323970556e-05 9.40606246538698e-07
6.56043750000000e+01 3.78815180091345e-05 9.03680348325211e-07
6.60131250000000e+01 3.62808254101977e-05 8.68187217941356e-07
6.64218750000000e+01 3.47477704596695e-05 8.34072132439562e-07
6.68306250000000e+01 3.32794951125481e-05 8.01282412918348e-07
6.72393750000000e+01 3.18732620912060e-05 7.69767350682208e-07
6.76481250000000e+01 3.05264497823364e-05 7.39478135926634e-07
6.80568750000000e+01 2.92365473495294e-05 7.10367788870455e-07
6.84656250000000e+01 2.80011500523680e-05 6.82391093259458e-07
6.88743750000000e+01 2.68179547633160e-05 6.55504532167140e-07
6.92831250000000e+01 2.56847556740421e-05 6.29666226020254e-07
6.96918750000000e+01 2.45994401831733e-05 6.04835872778676e-07
7.01006250000000e+01 2.35599849578125e-05 5.80974690200946e-07
7.05093750000000e+01 2.25644521614778e-05 5.58045360128583e-07
7.09181250000000e+01 2.16109858414314e-05 5.36011974724084e-07
7.13268750000000e+01 2.06978084686617e-05 5.14839984599282e-07
7.17356250000000e+01 1.98232176240707e-05 4.94496148772470e-07
7.21443750000000e+01 1.89855828246861e-05 4.74948486394356e-07
7.25531250000000e+01 1.81833424839836e-05 4.56166230184694e-07
7.29618750000000e+01 1.74150010006505e-05 4.38119781522976e-07
7.33706250000000e+01 1.66791259703654e-05 4.20780667138277e-07
7.37793750000000e+01 1.59743455153936e-05 4.04121497344877e-07
7.41881250000000e+01 1.52993457270223e-05 3.88115925771903e-07
7.45968750000000e+01 1.46528682160652e-05 3.72738610536737e-07
7.50056250000000e+01 1.40337077668721e-05 3.57965176813400e-07
7.54143750000000e+01 1.34407100904681e-05 3.43772180748655e-07
7.58231250000000e+01 1.28727696726347e-05 3.30137074679968e-07
7.62318750000000e+01 1.23288277129214e-05 3.17038173610860e-07
7.66406250000000e+01 1.18078701507434e-05 3.04454622900570e-07
7.70493750000000e+01 1.13089257748885e-05 2.92366367126297e-07
7.74581250000000e+01 1.08310644129065e-05 2.80754120077543e-07
7.78668750000000e+01 1.03733951970064e-05 2.69599335843409e-07
7.82756250000000e+01 9.93506490322852e-06 2.58884180954905e-07
7.86843750000000e+01 9.51525636079577e-06 2.48591507545524e-07
7.90931250000000e+01 9.11318692867745e-06 2.38704827494557e-07
7.95018750000000e+01 8.72810703652677e-06 2.29208287518719e-07
7.99106250000000e+01 8.35929878727107e-06 2.20086645178804e-07
8.03193750000000e+01 8.00607461875016e-06 2.11325245769153e-07
8.07281250000000e+01 7.66777602190726e-06 2.02910000058769e-07
8.11368750000000e+01 7.34377231314320e-06 1.94827362853950e-07
8.15456250000000e+01 7.03345945854506e-06 1.87064312353315e-07
8.19543750000000e+01 6.73625894779730e-06 1.79608330267016e-07
8.23631250000000e+01 6.45161671567606e-06 1.72447382672921e-07
8.27718750000000e+01 6.17900210911596e-06 1.65569901583450e-07
8.31806250000000e+01 5.91790689792374e-06 1.58964767197601e-07
8.35893750000000e+01 5.66784432729447e-06 1.52621290813600e-07
8.39981250000000e+01 5.42834821036382e-06 1.46529198378411e-07
8.44068750000000e+01 5.19897205910489e-06 1.40678614651177e-07
8.48156250000000e+01 4.97928825194908e-06 1.35060047958406e-07
8.52243750000000e+01 4.76888723657937e-06 1.29664375519518e-07
8.56331250000000e+01 4.56737676640983e-06 1.24482829322079e-07
8.60418750000000e+01 4.37438116932777e-06 1.19506982526743e-07
8.64506250000000e+01 4.18954064733541e-06 1.14728736382672e-07
8.68593750000000e+01 4.01251060578540e-06 1.10140307634790e-07
8.72681250000000e+01 3.84296101095958e-06 1.05734216404950e-07
8.76768750000000e+01 3.68057577479343e-06 1.01503274529661e-07
8.80856250000000e+01 3.52505216559918e-06 9.74405743376759e-08
8.84943750000000e+01 3.37610024368887e-06 9.35394778512698e-08
8.89031250000000e+01 3.23344232084538e-06 8.97936063956771e-08
8.93118750000000e+01 3.09681244263359e-06 8.61968306016374e-08
8.97206250000000e+01 2.96595589258658e-06 8.27432607865681e-08
9.01293750000000e+01 2.84062871734267e-06 7.94272377003928e-08
9.05381250000000e+01 2.72059727184777e-06 7.62433236225360e-08
9.09468750000000e+01 2.60563778377540e-06 7.31862937970840e-08
9.13556250000000e+01 2.49553593635224e-06 7.02511281935781e-08
9.17643750000000e+01 2.39008646881146e-06 6.74330035813455e-08
9.21731250000000e+01 2.28909279372899e-06 6.47272859057146e-08
9.25818750000000e+01 2.19236663052935e-06 6.21295229548743e-08
9.29906250000000e+01 2.09972765447781e-06 5.96354373065447e-08
9.33993750000000e+01 2.01100316050438e-06 5.72409195440152e-08
9.38081250000000e+01 1.92602774123313e-06 5.49420217314848e-08
9.42168750000000e+01 1.84464297861629e-06 5.27349511390007e-08
9.46256250000000e+01 1.76669714859861e-06 5.06160642076472e-08
9.50343750000000e+01 1.69204493826103e-06 4.85818607459727e-08
9.54431250000000e+01 1.62054717491665e-06 4.66289783489730e-08
9.58518750000000e+01 1.55207056665371e-06 4.47541870312648e-08
9.62606250000000e+01 1.48648745384205e-06 4.29543840663879e-08
9.66693750000000e+01 1.42367557113968e-06 4.12265890244719e-08
9.70781250000000e+01 1.36351781955589e-06 3.95679390007830e-08
9.74868750000000e+01 1.30590204814580e-06 3.79756840279480e-08
9.78956250000000e+01 1.25072084492951e-06 3.64471826649118e-08
9.83043750000000e+01 1.19787133664603e-06 3.49798977559398e-08
9.87131250000000e+01 1.14725499696858e-06 3.35713923532298e-08
9.91218750000000e+01 1.09877746282388e-06 3.22193257969289e-08
9.95306250000000e+01 1.05234835847287e-06 3.09214499465805e-08
9.99393750000000e+01 1.00788112702495e-06 2.96756055582561e-08
1.00348125000000e+02 9.65292869071611e-07 2.84797188018261e-08
1.00756875000000e+02 9.24504188138686e-07 2.73317979130422e-08
1.01165625000000e+02 8.85439042668991e-07 2.62299299752950e-08
1.01574375000000e+02 8.48024604259521e-07 2.51722778261034e-08
1.01983125000000e+02 8.12191121888850e-07 2.41570770835781e-08
1.02391875000000e+02 7.77871791881636e-07 2.31826332882770e-08
1.02800625000000e+02 7.45002633367808e-07 2.22473191560411e-08
1.03209375000000e+02 7.13522369004253e-07 2.13495719375685e-08
1.03618125000000e+02 6.83372310736641e-07 2.04878908806378e-08
1.04026875000000e+02 6.54496250388407e-07 1.96608347910506e-08
1.04435625000000e+02 6.26840354872920e-07 1.88670196885053e-08
1.04844375000000e+02 6.00353065833497e-07 1.81051165537602e-08
1.05253125000000e+02 5.74985003524141e-07 1.73738491635828e-08
1.05661875000000e+02 5.50688874751823e-07 1.66719920101065e-08
1.06070625000000e+02 5.27419384708696e-07 1.59983683013520e-08
1.06479375000000e+02 5.05133152529841e-07 1.53518480397888e-08
1.06888125000000e+02 4.83788630419159e-07 1.47313461759294e-08
1.07296875000000e+02 4.63346026192607e-07 1.41358208340666e-08
1.07705625000000e+02 4.43767229094390e-07 1.35642716073683e-08
1.08114375000000e+02 4.25015738747809e-07 1.30157379196553e-08
1.08523125000000e+02 4.07056597108310e-07 1.24892974512847e-08
1.08931875000000e+02 3.89856323291865e-07 1.19840646266619e-08
1.09340625000000e+02 3.73382851157208e-07 1.14991891609980e-08
1.09749375000000e+02 3.57605469525533e-07 1.10338546640184e-08
1.10158125000000e+02 3.42494764926239e-07 1.05872772984186e-08
1.10566875000000e+02 3.28022566761957e-07 1.01587044909444e-08
1.10975625000000e+02 3.14161894790641e-07 9.74741369405663e-09
1.11384375000000e+02 3.00886908826823e-07 9.35271119621770e-09
1.11793125000000e+02 2.88172860568252e-07 8.97393097891187e-09
1.12201875000000e+02 2.75996047458101e-07 8.61043361858443e-09
1.12610625000000e+02 2.64333768496749e-07 8.26160523175353e-09
1.13019375000000e+02 2.53164281920742e-07 7.92685646161501e-09
1.13428125000000e+02 2.42466764670035e-07 7.60562150452603e-09
1.13836875000000e+02 2.32221273567965e-07 7.29735717481541e-09
1.14245625000000e+02 2.22408708141567e-07 7.00154200642620e-09
1.14654375000000e+02 2.13010775012925e-07 6.71767538995551e-09
1.15063125000000e+02 2.04009953795180e-07 6.44527674371088e-09
1.15471875000000e+02 1.95389464429611e-07 6.18388471745567e-09
1.15880625000000e+02 1.87133235902884e-07 5.93305642756748e-09
1.16289375000000e+02 1.79225876286181e-07 5.69236672238216e-09
1.16698125000000e+02 1.71652644040312e-07 5.46140747654341e-09
1.17106875000000e+02 1.64399420533350e-07 5.23978691322447e-09
1.17515625000000e+02 1.57452683719535e-07 5.02712895313071e-09
1.17924375000000e+02 1.50799482930384e-07 4.82307258923505e-09
1.18333125000000e+02 1.44427414731007e-07 4.62727128623854e-09
1.18741875000000e+02 1.38324599796617e-07 4.43939240378705e-09
1.19150625000000e+02 1.32479660766139e-07 4.25911664251319e-09
1.19559375000000e+02 1.26881701031609e-07 4.08613751200779e-09
1.19968125000000e+02 1.21520284423836e-07 3.92016081986084e-09
1.20376875000000e+02 1.16385415756455e-07 3.76090418094460e-09
1.20785625000000e+02 1.11467522192089e-07 3.60809654614392e-09
1.21194375000000e+02 1.06757435395892e-07 3.46147774976959e-09
1.21603125000000e+02 1.02246374443201e-07 3.32079807492041e-09
1.22011875000000e+02 9.79259294494210e-08 3.18581783608804e-09
1.22420625000000e+02 9.37880458916422e-08 3.05630697832616e-09
1.22829375000000e+02 8.98250095927458e-08 2.93204469233212e-09
1.23238125000000e+02 8.60294323400109e-08 2.81281904481421e-09
1.23646875000000e+02 8.23942381114115e-08 2.69842662354267e-09
1.24055625000000e+02 7.89126498839236e-08 2.58867219650566e-09
1.24464375000000e+02 7.55781769992512e-08 2.48336838461381e-09
1.24873125000000e+02 7.23846030634161e-08 2.38233534741930e-09
1.25281875000000e+02 6.93259743576539e-08 2.28540048133576e-09
1.25690625000000e+02 6.63965887390094e-08 2.19239812986555e-09
1.26099375000000e+02 6.35909850099415e-08 2.10316930536017e-09
1.26508125000000e+02 6.09039327371162e-08 2.01756142185828e-09
1.26916875000000e+02 5.83304225004108e-08 1.93542803856353e-09
1.27325625000000e+02 5.58656565539472e-08 1.85662861354148e-09
1.27734375000000e+02 5.35050398817461e-08 1.78102826723134e-09
1.28143125000000e+02 5.12441716313270e-08 1.70849755538451e-09
1.28551875000000e+02 4.90788369092830e-08 1.63891225105650e-09
1.28960625000000e+02 4.70049989235356e-08 1.57215313529392e-09
