Energy (eV)          EEDF (eV^-(3/2))     First Anisotropy
1.84545454545455e-02 7.89263456104593e-02 3.99026570870149e-05
5.53636363636364e-02 7.84323124899412e-02 6.59059727925685e-05
9.22727272727273e-02 7.79413717303410e-02 8.70440120857756e-05
1.29181818181818e-01 7.74535039733587e-02 1.03127523385206e-04
1.66090909090909e-01 7.69686899855802e-02 1.16561899145336e-04
2.03000000000000e-01 7.64869106521044e-02 1.28255765549253e-04
2.39909090909091e-01 7.60081469799321e-02 1.38678934683423e-04
2.76818181818182e-01 7.55323800902452e-02 1.48114874802852e-04
3.13727272727273e-01 7.50595912249855e-02 1.56751431079531e-04
3.50636363636364e-01 7.45897617434908e-02 1.64721259303747e-04
3.87545454545455e-01 7.41228731217667e-02 1.72122477487594e-04
4.24454545454545e-01 7.36589069517605e-02 1.79030265720995e-04
4.61363636363636e-01 7.31978449406261e-02 1.85503857559994e-04
4.98272727272727e-01 7.27396689100316e-02 1.91590990250108e-04
5.35181818181818e-01 7.22843607954270e-02 1.97330863772751e-04
5.72090909090909e-01 7.18319026453329e-02 2.02756179985617e-04
6.09000000000000e-01 7.13822766206341e-02 2.07894590361230e-04
6.45909090909091e-01 7.09354649945872e-02 2.12769750609404e-04
6.82818181818182e-01 7.04914501499452e-02 2.17402105279102e-04
7.19727272727273e-01 7.00502145804882e-02 2.21809482886168e-04
7.56636363636364e-01 6.96117408895734e-02 2.26007555325630e-04
7.93545454545455e-01 6.91760117894502e-02 2.30010197198155e-04
8.30454545454546e-01 6.87430101005783e-02 2.33829770877379e-04
8.67363636363636e-01 6.83127187509477e-02 2.37477355297036e-04
9.04272727272727e-01 6.78851207754123e-02 2.40962931541644e-04
9.41181818181818e-01 6.74601993150172e-02 2.44295534862678e-04
9.78090909090909e-01 6.70379376163346e-02 2.47483380297448e-04
1.01500000000000e+00 6.66183190308028e-02 2.50533967565567e-04
1.05190909090909e+00 6.62013270124240e-02 2.53454168095712e-04
1.08881818181818e+00 6.57869451225235e-02 2.56250299879153e-04
1.12572727272727e+00 6.53751570231774e-02 2.58928191094219e-04
1.16263636363636e+00 6.49659464787314e-02 2.61493233222237e-04
1.19954545454545e+00 6.45592973551597e-02 2.63950427823605e-04
1.23645454545455e+00 6.41551936194290e-02 2.66304426705442e-04
1.27336363636364e+00 6.37536193388530e-02 2.68559566812082e-04
1.31027272727273e+00 6.33545586804911e-02 2.70719900677718e-04
1.34718181818182e+00 6.29579959105092e-02 2.72789223118775e-04
1.38409090909091e+00 6.25639153935595e-02 2.74771094713479e-04
1.42100000000000e+00 6.21723015921636e-02 2.76668863013229e-04
1.45790909090909e+00 6.17831390634203e-02 2.78485679491491e-04
1.49481818181818e+00 6.13964124665443e-02 2.80224516856610e-04
1.53172727272727e+00 6.10121065539989e-02 2.81888184596865e-04
1.56863636363636e+00 6.06302061736894e-02 2.83479340564462e-04
1.60554545454545e+00 6.02506962683653e-02 2.85000503177265e-04
1.64245454545455e+00 5.98735618750271e-02 2.86454061955777e-04
1.67936363636364e+00 5.94987881243290e-02 2.87842287025222e-04
1.71627272727273e+00 5.91263602400070e-02 2.89167337711628e-04
1.75318181818182e+00 5.87562635382887e-02 2.90431270337018e-04
1.79009090909091e+00 5.83884834273142e-02 2.91636045298053e-04
1.82700000000000e+00 5.80230054065606e-02 2.92783533902452e-04
1.86390909090909e+00 5.76598150643198e-02 2.93875523072109e-04
1.90081818181818e+00 5.72988980830501e-02 2.94913721515320e-04
1.93772727272727e+00 5.69402402328213e-02 2.95899765446802e-04
1.97463636363636e+00 5.65838273727746e-02 2.96835221903930e-04
2.01154545454545e+00 5.62296454505656e-02 2.97721593307120e-04
2.04845454545455e+00 5.58776805018098e-02 2.98560321287253e-04
2.08536363636364e+00 5.55279186495279e-02 2.99352790213221e-04
2.12227272727273e+00 5.51803461036076e-02 3.00100330452378e-04
2.15918181818182e+00 5.48349491602548e-02 3.00804221388833e-04
2.19609090909091e+00 5.44917142014537e-02 3.01465694217379e-04
2.23300000000000e+00 5.41506276944296e-02 3.02085934866074e-04
2.26990909090909e+00 5.38116761896228e-02 3.02666085409950e-04
2.30681818181818e+00 5.34748463246821e-02 3.03207246982322e-04
2.34372727272727e+00 5.31401248193669e-02 3.03710482533965e-04
2.38063636363636e+00 5.28074984765631e-02 3.04176817764479e-04
2.41754545454545e+00 5.24769541817636e-02 3.04607243282057e-04
2.45445454545455e+00 5.21484789025503e-02 3.05002716304037e-04
2.49136363636364e+00 5.18220596880786e-02 3.05364162246615e-04
2.52827272727273e+00 5.14976836685715e-02 3.05692476215515e-04
2.56518181818182e+00 5.11753380548095e-02 3.05988524405320e-04
2.60209090909091e+00 5.08550101376265e-02 3.06253145411339e-04
2.63900000000000e+00 5.05366872874087e-02 3.06487151746149e-04
2.67590909090909e+00 5.02203569524160e-02 3.06691330145014e-04
2.71281818181818e+00 4.99060066618615e-02 3.06866443232968e-04
2.74972727272727e+00 4.95936240218116e-02 3.07013231131193e-04
2.78663636363636e+00 4.92831967159116e-02 3.07132411556214e-04
2.82354545454545e+00 4.89747125049004e-02 3.07224681029616e-04
2.86045454545455e+00 4.86681592261276e-02 3.07290715744950e-04
2.89736363636364e+00 4.83635247930724e-02 3.07331172386027e-04
2.93427272727273e+00 4.80607971948705e-02 3.07346688902289e-04
2.97118181818182e+00 4.77599644958390e-02 3.07337885244091e-04
3.00809090909091e+00 4.74610148350055e-02 3.07305364058285e-04
3.04500000000000e+00 4.71639364256405e-02 3.07249711594404e-04
3.08190909090909e+00 4.68687175538370e-02 3.07171497588413e-04
3.11881818181818e+00 4.65753465809407e-02 3.07071276356855e-04
3.15572727272727e+00 4.62838119401735e-02 3.06949587863909e-04
3.19263636363636e+00 4.59941021371587e-02 3.06806957502135e-04
3.22954545454545e+00 4.57062057494680e-02 3.06643896858908e-04
3.26645454545455e+00 4.54201114261708e-02 3.06460904204578e-04
3.30336363636364e+00 4.51358078873857e-02 3.06258464956571e-04
3.34027272727273e+00 4.48532839238382e-02 3.06037052122705e-04
3.37718181818182e+00 4.45725283964175e-02 3.05797126724833e-04
3.41409090909091e+00 4.42935302357373e-02 3.05539138202185e-04
3.45100000000000e+00 4.40162784416992e-02 3.05263525012746e-04
3.48790909090909e+00 4.37407620822715e-02 3.04970714350470e-04
3.52481818181818e+00 4.34669702954405e-02 3.04661122934845e-04
3.56172727272727e+00 4.31948922863800e-02 3.04335157787697e-04
3.59863636363636e+00 4.29245173278332e-02 3.03993215892081e-04
3.63554545454545e+00 4.26558347596899e-02 3.03635684724148e-04
3.67245454545455e+00 4.23888339885662e-02 3.03262942549592e-04
3.70936363636364e+00 4.21235044873854e-02 3.02875358707060e-04
3.74627272727273e+00 4.18598357949656e-02 3.02473293880480e-04
3.78318181818182e+00 4.15978175156057e-02 3.02057100360938e-04
3.82009090909091e+00 4.13374393186759e-02 3.01627122297250e-04
3.85700000000000e+00 4.10786909382101e-02 3.01183696127415e-04
3.89390909090909e+00 4.08215621718430e-02 3.00727150235045e-04
3.93081818181818e+00 4.05660428823979e-02 3.00257805557605e-04
3.96772727272727e+00 4.03121229954813e-02 2.99775976188686e-04
4.00463636363636e+00 4.00597924997596e-02 2.99281968997842e-04
4.04154545454545e+00 3.98090414465645e-02 2.98776084025305e-04
4.07845454545455e+00 3.95598599495007e-02 2.98258614673003e-04
4.11536363636364e+00 3.93122381840550e-02 2.97729847887796e-04
4.15227272727273e+00 3.90661663872112e-02 2.97190064338578e-04
4.18918181818182e+00 3.88216348570637e-02 2.96639538587373e-04
4.22609090909091e+00 3.85786339524353e-02 2.96078539253641e-04
4.26300000000000e+00 3.83371540924970e-02 2.95507329342243e-04
4.29990909090909e+00 3.80971857558344e-02 2.94926165885985e-04
4.33681818181818e+00 3.78587194817522e-02 2.94335300435818e-04
4.37372727272727e+00 3.76217458682091e-02 2.93734979548420e-04
4.41063636363636e+00 3.73862555720145e-02 2.93125444403911e-04
4.44754545454546e+00 3.71522393084614e-02 2.92506931113538e-04
4.48445454545455e+00 3.69196878509594e-02 2.91879670848691e-04
4.52136363636364e+00 3.66885920306708e-02 2.91243889965020e-04
4.55827272727273e+00 3.64589427361499e-02 2.90599810122893e-04
4.59518181818182e+00 3.62307309129837e-02 2.89947648404301e-04
4.63209090909091e+00 3.60039475634346e-02 2.89287617425412e-04
4.66900000000000e+00 3.57785837460853e-02 2.88619925596639e-04
4.70590909090909e+00 3.55546305750131e-02 2.87944776772962e-04
4.74281818181818e+00 3.53320792208708e-02 2.87262370661569e-04
4.77972727272727e+00 3.51109209090967e-02 2.86572903228561e-04
4.81663636363636e+00 3.48911469200528e-02 2.85876566331181e-04
4.85354545454546e+00 3.46727485886809e-02 2.85173547966576e-04
4.89045454545455e+00 3.44557173041613e-02 2.84464032362301e-04
4.92736363636364e+00 3.42400445095724e-02 2.83748200063655e-04
4.96427272727273e+00 3.40257217015544e-02 2.83026228018667e-04
5.00118181818182e+00 3.38127404299740e-02 2.82298289660880e-04
5.03809090909091e+00 3.36010922975904e-02 2.81564554989336e-04
5.07500000000000e+00 3.33907689597250e-02 2.80825190781365e-04
5.11190909090909e+00 3.31817621235249e-02 2.80080360260435e-04
5.14881818181818e+00 3.29740635488657e-02 2.79330223442644e-04
5.18572727272727e+00 3.27676650467882e-02 2.78574937483337e-04
5.22263636363636e+00 3.25625584795917e-02 2.77814656331123e-04
5.25954545454545e+00 3.23587357605125e-02 2.77049530934340e-04
5.29645454545455e+00 3.21561888534055e-02 2.76279709306595e-04
5.33336363636364e+00 3.19549097724269e-02 2.75505336590163e-04
5.37027272727273e+00 3.17548905817200e-02 2.74726555117836e-04
5.40718181818182e+00 3.15561233951020e-02 2.73943504473308e-04
5.44409090909091e+00 3.13586003757529e-02 2.73156321549644e-04
5.48100000000000e+00 3.11623137359070e-02 2.72365140727603e-04
5.51790909090909e+00 3.09672557361933e-02 2.71570093565073e-04
5.55481818181818e+00 3.07734186863935e-02 2.70771309096292e-04
5.59172727272727e+00 3.05807949440690e-02 2.69968914131728e-04
5.62863636363636e+00 3.03893769146182e-02 2.69163032936555e-04
5.66554545454546e+00 3.01991570509774e-02 2.68353787405465e-04
5.70245454545455e+00 3.00101278533232e-02 2.67541297111410e-04
5.73936363636364e+00 2.98222818687764e-02 2.66725679352796e-04
5.77627272727273e+00 2.96356116911090e-02 2.65907049199613e-04
5.81318181818182e+00 2.94501099604513e-02 2.65085519538682e-04
5.85009090909091e+00 2.92657693630027e-02 2.64261201117451e-04
5.88700000000000e+00 2.90825826307422e-02 2.63434202696068e-04
5.92390909090909e+00 2.89005425408370e-02 2.62604630759437e-04
5.96081818181818e+00 2.87196419162806e-02 2.61772589778816e-04
5.99772727272727e+00 2.85398736246804e-02 2.60938182474232e-04
6.03463636363636e+00 2.83612305782886e-02 2.60101509517555e-04
6.07154545454546e+00 2.81837057337225e-02 2.59262669682928e-04
6.10845454545455e+00 2.80072920916869e-02 2.58421759883691e-04
6.14536363636364e+00 2.78319826966980e-02 2.57578875208312e-04
6.18227272727273e+00 2.76577706368095e-02 2.56734108955626e-04
6.21918181818182e+00 2.74846490433397e-02 2.55887552669337e-04
6.25609090909091e+00 2.73126110906013e-02 2.55039296171545e-04
6.29300000000000e+00 2.71416499956314e-02 2.54189427694209e-04
6.32990909090909e+00 2.69717590176578e-02 2.53338033613596e-04
6.36681818181818e+00 2.68029314586391e-02 2.52485198680940e-04
6.40372727272727e+00 2.66351606621890e-02 2.51631006254053e-04
6.44063636363636e+00 2.64684400135866e-02 2.50775538024272e-04
6.47754545454545e+00 2.63027629395152e-02 2.49918874147273e-04
6.51445454545455e+00 2.61381229078033e-02 2.49061093271682e-04
6.55136363636364e+00 2.59745134271668e-02 2.48202272566905e-04
6.58827272727273e+00 2.58119280469535e-02 2.47342487750473e-04
6.62518181818182e+00 2.56503603568887e-02 2.46481813114930e-04
6.66209090909091e+00 2.54898039868219e-02 2.45620321553867e-04
6.69900000000000e+00 2.53302526064765e-02 2.44758084676775e-04
6.73590909090909e+00 2.51716999249653e-02 2.43895172564885e-04
6.77281818181818e+00 2.50141396912499e-02 2.43031653975907e-04
6.80972727272727e+00 2.48575656931824e-02 2.42167596549901e-04
6.84663636363636e+00 2.47019717574995e-02 2.41303066558661e-04
6.88354545454546e+00 2.45473517495791e-02 2.40438129020496e-04
6.92045454545455e+00 2.43936995731979e-02 2.39572847722802e-04
6.95736363636364e+00 2.42410091702917e-02 2.38707285243970e-04
6.99427272727273e+00 2.40892745207161e-02 2.37841502974848e-04
7.03118181818182e+00 2.39384896420096e-02 2.36975561140013e-04
7.06809090909091e+00 2.37886485891571e-02 2.36109518818401e-04
7.10500000000000e+00 2.36397454543563e-02 2.35243434044380e-04
7.14190909090909e+00 2.34917743665778e-02 2.34377363583652e-04
7.17881818181818e+00 2.33447294919563e-02 2.33511363115988e-04
7.21572727272727e+00 2.31986050329347e-02 2.32645487419147e-04
7.25263636363636e+00 2.30533952282449e-02 2.31779790139152e-04
7.28954545454545e+00 2.29090943526811e-02 2.30914323891776e-04
7.32645454545455e+00 2.27656967168743e-02 2.30049140280529e-04
7.36336363636364e+00 2.26231966670670e-02 2.29184289914071e-04
7.40027272727273e+00 2.24815885848915e-02 2.28319822423438e-04
7.43718181818182e+00 2.23408668871476e-02 2.27455786479023e-04
7.47409090909091e+00 2.22010260255828e-02 2.26592229807042e-04
7.51100000000000e+00 2.20620604866734e-02 2.25729199279166e-04
7.54790909090909e+00 2.19239647912253e-02 2.24866740707039e-04
7.58481818181818e+00 2.17867334947069e-02 2.24004899006049e-04
7.62172727272727e+00 2.16503611864823e-02 2.23143718360279e-04
7.65863636363636e+00 2.15148424897827e-02 2.22283242012112e-04
7.69554545454546e+00 2.13801720614951e-02 2.21423512352476e-04
7.73245454545455e+00 2.12463445919512e-02 2.20564570935305e-04
7.76936363636364e+00 2.11133548047179e-02 2.19706458491606e-04
7.80627272727273e+00 2.09811974563898e-02 2.18849214943377e-04
7.84318181818182e+00 2.08498673363821e-02 2.17992879417301e-04
7.88009090909091e+00 2.07193592667252e-02 2.17137490258083e-04
7.91700000000000e+00 2.05896681018606e-02 2.16283085108323e-04
7.95390909090909e+00 2.04607887282771e-02 2.15429700720163e-04
7.99081818181818e+00 2.03327160647949e-02 2.14577373102617e-04
8.02772727272727e+00 2.02054450618767e-02 2.13726137670025e-04
8.06463636363636e+00 2.00789707015923e-02 2.12876029049373e-04
8.10154545454546e+00 1.99532879974207e-02 2.12027081160889e-04
8.13845454545455e+00 1.98283919940539e-02 2.11179327229835e-04
8.17536363636364e+00 1.97042777672009e-02 2.10332799797966e-04
8.21227272727273e+00 1.95809404233941e-02 2.09487530734837e-04
8.24918181818182e+00 1.94583750997963e-02 2.08643551249017e-04
8.28609090909091e+00 1.93365769640086e-02 2.07800891898970e-04
8.32300000000000e+00 1.92155412138804e-02 2.06959582664548e-04
8.35990909090909e+00 1.90952630771764e-02 2.06119652774291e-04
8.39681818181818e+00 1.89757378118208e-02 2.05281130838420e-04
8.43372727272727e+00 1.88569607052755e-02 2.04444044982832e-04
8.47063636363636e+00 1.87389270745003e-02 2.03608422672574e-04
8.50754545454546e+00 1.86216322657680e-02 2.02774290784173e-04
8.54445454545455e+00 1.85050716544812e-02 2.01941675615295e-04
8.58136363636364e+00 1.83892406449895e-02 2.01110602894143e-04
8.61827272727273e+00 1.82741346704090e-02 2.00281097788751e-04
8.65518181818182e+00 1.81597491924415e-02 1.99453184916229e-04
8.69209090909091e+00 1.80460797011961e-02 1.98626888351700e-04
8.72900000000000e+00 1.79331217150112e-02 1.97802231692479e-04
8.76590909090909e+00 1.78208707801506e-02 1.96979237899828e-04
8.80281818181818e+00 1.77093224710116e-02 1.96157929419231e-04
8.83972727272727e+00 1.75984723895649e-02 1.95338328301591e-04
8.87663636363636e+00 1.74883161653100e-02 1.94520456041581e-04
8.91354545454545e+00 1.73788494551032e-02 1.93704333642666e-04
8.95045454545455e+00 1.72700679429867e-02 1.92889981625058e-04
8.98736363636364e+00 1.71619673400177e-02 1.92077420033561e-04
9.02427272727273e+00 1.70545433840998e-02 1.91266668445217e-04
9.06118181818182e+00 1.69477918398149e-02 1.90457745976970e-04
9.09809090909091e+00 1.68417084982564e-02 1.89650671293092e-04
9.13500000000000e+00 1.67362891768625e-02 1.88845462662967e-04
9.17190909090909e+00 1.66315297191388e-02 1.88042137816013e-04
9.20881818181818e+00 1.65274259948362e-02 1.87240714050676e-04
9.24572727272727e+00 1.64239738994437e-02 1.86441208344379e-04
9.28263636363636e+00 1.63211693541423e-02 1.85643637205319e-04
9.31954545454546e+00 1.62190083056440e-02 1.84848016731133e-04
9.35645454545455e+00 1.61174867260322e-02 1.84054362615562e-04
9.39336363636364e+00 1.60166006126023e-02 1.83262690154914e-04
9.43027272727273e+00 1.59163459877047e-02 1.82473014254466e-04
9.46718181818182e+00 1.58167188985875e-02 1.81685349434858e-04
9.50409090909091e+00 1.57177154172407e-02 1.80899709838221e-04
9.54100000000000e+00 1.56193316402412e-02 1.80116109280430e-04
9.57790909090909e+00 1.55215636884980e-02 1.79334561118041e-04
9.61481818181818e+00 1.54244077074046e-02 1.78555078347227e-04
9.65172727272727e+00 1.53278598663797e-02 1.77777673703646e-04
9.68863636363636e+00 1.52319163588193e-02 1.77002359526590e-04
9.72554545454546e+00 1.51365734019464e-02 1.76229147812041e-04
9.76245454545455e+00 1.50418272366619e-02 1.75458050218221e-04
9.79936363636364e+00 1.49476741273968e-02 1.74689078071002e-04
9.83627272727273e+00 1.48541103619642e-02 1.73922242369265e-04
9.87318181818182e+00 1.47611322514137e-02 1.73157553790224e-04
9.91009090909091e+00 1.46687361298854e-02 1.72395022694601e-04
9.94700000000000e+00 1.45769183544655e-02 1.71634659173916e-04
9.98390909090909e+00 1.44856753049521e-02 1.70876472761370e-04
1.00208181818182e+01 1.43950033843453e-02 1.70120473066656e-04
1.00577272727273e+01 1.43048990172578e-02 1.69366669446355e-04
1.00946363636364e+01 1.42153586511356e-02 1.68615070539399e-04
1.01315454545455e+01 1.41263787556616e-02 1.67865684912162e-04
1.01684545454545e+01 1.40379558226164e-02 1.67118520848865e-04
1.02053636363636e+01 1.39500863657395e-02 1.66373586355750e-04
1.02422727272727e+01 1.38627669205929e-02 1.65630889165579e-04
1.02791818181818e+01 1.37759940444238e-02 1.64890436742504e-04
1.03160909090909e+01 1.36897643160290e-02 1.64152236286202e-04
1.03530000000000e+01 1.36040743356203e-02 1.63416294350182e-04
1.03899090909091e+01 1.35189207255049e-02 1.62682618009316e-04
1.04268181818182e+01 1.34343001274948e-02 1.61951214086241e-04
1.04637272727273e+01 1.33502092052451e-02 1.61222088368733e-04
1.05006363636364e+01 1.32666446432943e-02 1.60495246797294e-04
1.05375454545455e+01 1.31836031469338e-02 1.59770695072774e-04
1.05744545454545e+01 1.31010814420781e-02 1.59048438660459e-04
1.06113636363636e+01 1.30190762751348e-02 1.58328482793593e-04
1.06482727272727e+01 1.29375844128779e-02 1.57610832477169e-04
1.06851818181818e+01 1.28566026423191e-02 1.56895492492024e-04
1.07220909090909e+01 1.27761277705819e-02 1.56182467398349e-04
1.07590000000000e+01 1.26961566247750e-02 1.55471761185941e-04
1.07959090909091e+01 1.26166860525998e-02 1.54763378342768e-04
1.08328181818182e+01 1.25377129200183e-02 1.54057323146450e-04
1.08697272727273e+01 1.24592341133486e-02 1.53353598947460e-04
1.09066363636364e+01 1.23812465383987e-02 1.52652209256075e-04
1.09435454545455e+01 1.23037471203444e-02 1.51953157382887e-04
1.09804545454545e+01 1.22267328036080e-02 1.51256446442268e-04
1.10173636363636e+01 1.21502005517377e-02 1.50562079355311e-04
1.10542727272727e+01 1.20741473472883e-02 1.49870058853040e-04
1.10911818181818e+01 1.19985701917023e-02 1.49180387479911e-04
1.11280909090909e+01 1.19234661051912e-02 1.48493067596749e-04
1.11650000000000e+01 1.18488321266183e-02 1.47808101060088e-04
1.12019090909091e+01 1.17746653140401e-02 1.47125490200873e-04
1.12388181818182e+01 1.17009627426054e-02 1.46445237175125e-04
1.12757272727273e+01 1.16277215064353e-02 1.45767343307013e-04
1.13126363636364e+01 1.15549387178398e-02 1.45091810084394e-04
1.13495454545455e+01 1.14826115072043e-02 1.44418638829253e-04
1.13864545454545e+01 1.14107370228763e-02 1.43747830700646e-04
1.14233636363636e+01 1.13393124310526e-02 1.43079386697168e-04
1.14602727272727e+01 1.12683349156683e-02 1.42413307659686e-04
1.14971818181818e+01 1.11978016782854e-02 1.41749594274326e-04
1.15340909090909e+01 1.11277099379824e-02 1.41088247074941e-04
1.15710000000000e+01 1.10580569312449e-02 1.40429266148937e-04
1.16079090909091e+01 1.09888399124494e-02 1.39772652034286e-04
1.16448181818182e+01 1.09200561519669e-02 1.39118405124068e-04
