Energy (eV)          EEDF (eV^-(3/2))     First Anisotropy
2.50000000000000e-03 6.15271445147221e-01 8.52788556057154e-08
7.50000000000000e-03 6.15271357113049e-01 2.61571011077001e-07
1.25000000000000e-02 6.15271132745578e-01 6.37893642951276e-07
1.75000000000000e-02 6.15270765936005e-01 1.09176898451798e-06
2.25000000000000e-02 6.15270276086045e-01 1.56645374635324e-06
2.75000000000000e-02 6.15269680052634e-01 2.06305209155926e-06
3.25000000000000e-02 6.15268980172493e-01 2.57990909963271e-06
3.75000000000000e-02 6.15268186698135e-01 3.11975626730557e-06
4.25000000000000e-02 6.15267296110122e-01 3.71233237402528e-06
4.75000000000000e-02 6.15266300915827e-01 4.36318163635687e-06
5.25000000000000e-02 6.15265195637966e-01 5.04269407081862e-06
5.75000000000000e-02 6.15263987558016e-01 5.74747984613081e-06
6.25000000000000e-02 6.15262671725054e-01 6.50377278529385e-06
6.75000000000000e-02 6.15261243195982e-01 7.31373417345219e-06
7.25000000000000e-02 6.15259696617476e-01 8.13947692571275e-06
7.75000000000000e-02 6.15258042822766e-01 8.97603392236157e-06
8.25000000000000e-02 6.15256277473839e-01 9.86076512184189e-06
8.75000000000000e-02 6.15254396249935e-01 1.07947306585674e-05
9.25000000000000e-02 6.15252394775796e-01 1.17784425310557e-05
9.75000000000000e-02 6.15250268869032e-01 1.28121911174463e-05
1.02500000000000e-01 6.15248014337602e-01 1.38433033630914e-05
1.07500000000000e-01 6.15245645452754e-01 1.48616584085001e-05
1.12500000000000e-01 6.15243160525540e-01 1.59123572514168e-05
1.17500000000000e-01 6.15240557824973e-01 1.69956441053448e-05
1.22500000000000e-01 6.15237835575737e-01 1.81117810694805e-05
1.27500000000000e-01 6.15234991963183e-01 1.92610244826846e-05
1.32500000000000e-01 6.15232025137260e-01 2.04436266656474e-05
1.37500000000000e-01 6.15228933215644e-01 2.16598372755108e-05
1.42500000000000e-01 6.15225714286219e-01 2.29099043585588e-05
1.47500000000000e-01 6.15222366409077e-01 2.41940751580967e-05
1.52500000000000e-01 6.15218887618111e-01 2.55125967451113e-05
1.57500000000000e-01 6.15215275922303e-01 2.68657165047514e-05
1.62500000000000e-01 6.15211529306756e-01 2.82536825036038e-05
1.67500000000000e-01 6.15207645733536e-01 2.96767437580687e-05
1.72500000000000e-01 6.15203623142340e-01 3.11351482366905e-05
1.77500000000000e-01 6.15199459451628e-01 3.26291117896800e-05
1.82500000000000e-01 6.15195152567170e-01 3.41586803906209e-05
1.87500000000000e-01 6.15190700417998e-01 3.57233352179175e-05
1.92500000000000e-01 6.15186101062631e-01 3.73217011175274e-05
1.97500000000000e-01 6.15181352789640e-01 3.89520677131448e-05
2.02500000000000e-01 6.15176454082297e-01 4.05060861299596e-05
2.07500000000000e-01 6.15171431482238e-01 4.19755837989082e-05
2.12500000000000e-01 6.15166284789091e-01 4.34616044762551e-05
2.17500000000000e-01 6.15161013796871e-01 4.49639549528071e-05
2.22500000000000e-01 6.15155618295073e-01 4.64824482273453e-05
2.27500000000000e-01 6.15150098068177e-01 4.80169095271441e-05
2.32500000000000e-01 6.15144452895207e-01 4.95671755533064e-05
2.37500000000000e-01 6.15138682549354e-01 5.11330937956786e-05
2.42500000000000e-01 6.15132786797646e-01 5.27145219019614e-05
2.47500000000000e-01 6.15126765400655e-01 5.43113270979564e-05
2.52500000000000e-01 6.15120618112253e-01 5.59233856539089e-05
2.57500000000000e-01 6.15114344679387e-01 5.75505823792419e-05
2.62500000000000e-01 6.15107944841894e-01 5.91928101596767e-05
2.67500000000000e-01 6.15101418332334e-01 6.08499695202444e-05
2.72500000000000e-01 6.15094764875854e-01 6.25219674954945e-05
2.77500000000000e-01 6.15087984190223e-01 6.42087071191941e-05
2.82500000000000e-01 6.15081075987908e-01 6.59100420598768e-05
2.87500000000000e-01 6.15074039985662e-01 6.76256464095391e-05
2.92500000000000e-01 6.15066875933604e-01 6.93549216644698e-05
2.97500000000000e-01 6.15059583642619e-01 7.10971761992725e-05
3.02500000000000e-01 6.15052162973689e-01 7.28738890872588e-05
3.07500000000000e-01 6.15044610821610e-01 7.48790208160131e-05
3.12500000000000e-01 6.15036887652676e-01 7.72709449568010e-05
3.17500000000000e-01 6.15028957674537e-01 8.00214139738169e-05
3.22500000000000e-01 6.15020788542318e-01 8.31038586179097e-05
3.27500000000000e-01 6.15012351090217e-01 8.64932731201691e-05
3.32500000000000e-01 6.15003619085465e-01 9.01661126182381e-05
3.37500000000000e-01 6.14994569002601e-01 9.41001982593335e-05
3.42500000000000e-01 6.14985179816179e-01 9.82746292807186e-05
3.47500000000000e-01 6.14975432810280e-01 1.02669701451733e-04
3.52500000000000e-01 6.14965311403311e-01 1.07266831331461e-04
3.57500000000000e-01 6.14954800986756e-01 1.12048485859390e-04
3.62500000000000e-01 6.14943888776669e-01 1.16998116837757e-04
3.67500000000000e-01 6.14932563676821e-01 1.22100099901851e-04
3.72500000000000e-01 6.14920816152498e-01 1.27339677266435e-04
3.77500000000000e-01 6.14908638114140e-01 1.32702899546170e-04
3.82500000000000e-01 6.14896022810828e-01 1.38176553272780e-04
3.87500000000000e-01 6.14882964735391e-01 1.43748050874137e-04
3.92500000000000e-01 6.14869459545409e-01 1.49405345130710e-04
3.97500000000000e-01 6.14855503990024e-01 1.55136983889875e-04
4.02500000000000e-01 6.14841095825713e-01 1.60873889887583e-04
4.07500000000000e-01 6.14826248038694e-01 1.66828940851760e-04
4.12500000000000e-01 6.14810920057024e-01 1.73260686194390e-04
4.17500000000000e-01 6.14795075182481e-01 1.80133678925481e-04
4.22500000000000e-01 6.14778680306534e-01 1.87414588175444e-04
4.27500000000000e-01 6.14761705646210e-01 1.95072081817917e-04
4.32500000000000e-01 6.14744124498329e-01 2.03076716406134e-04
4.37500000000000e-01 6.14725913010731e-01 2.11400833803956e-04
4.42500000000000e-01 6.14707049969249e-01 2.20018464000535e-04
4.47500000000000e-01 6.14687516599269e-01 2.28905233698733e-04
4.52500000000000e-01 6.14667296380805e-01 2.38038280278151e-04
4.57500000000000e-01 6.14646374876144e-01 2.47396170795793e-04
4.62500000000000e-01 6.14624739569120e-01 2.56958825707445e-04
4.67500000000000e-01 6.14602379715227e-01 2.66707446997231e-04
4.72500000000000e-01 6.14579286201773e-01 2.76624450190678e-04
4.77500000000000e-01 6.14555451417431e-01 2.86693397337640e-04
4.82500000000000e-01 6.14530869130983e-01 2.96898922850090e-04
4.87500000000000e-01 6.14505534380060e-01 3.07226638147384e-04
4.92500000000000e-01 6.14479443372019e-01 3.17663057534977e-04
4.97500000000000e-01 6.14452593390321e-01 3.28195611876368e-04
5.02500000000000e-01 6.14424982697501e-01 3.38701589212897e-04
5.07500000000000e-01 6.14396631677113e-01 3.49204254280892e-04
5.12500000000000e-01 6.14367534721517e-01 3.59834322838822e-04
5.17500000000000e-01 6.14337687758530e-01 3.70573823131078e-04
5.22500000000000e-01 6.14307088139094e-01 3.81405824273793e-04
5.27500000000000e-01 6.14275734531270e-01 3.92314390338232e-04
5.32500000000000e-01 6.14243626820593e-01 4.03284534132781e-04
5.37500000000000e-01 6.14210766016390e-01 4.14302173279896e-04
5.42500000000000e-01 6.14177154163690e-01 4.25354088408648e-04
5.47500000000000e-01 6.14142794260394e-01 4.36427883332285e-04
5.52500000000000e-01 6.14107690179386e-01 4.47511947118005e-04
5.57500000000000e-01 6.14071846595299e-01 4.58595417952584e-04
5.62500000000000e-01 6.14035268915634e-01 4.69668148697730e-04
5.67500000000000e-01 6.13997963216006e-01 4.80720674041285e-04
5.72500000000000e-01 6.13959936179248e-01 4.91744179003872e-04
5.77500000000000e-01 6.13921195038194e-01 5.02730466807606e-04
5.82500000000000e-01 6.13881747522220e-01 5.13671920351149e-04
5.87500000000000e-01 6.13841601808306e-01 5.24561450621173e-04
5.92500000000000e-01 6.13800766477680e-01 5.35392458434631e-04
5.97500000000000e-01 6.13759250474496e-01 5.46158857528012e-04
6.02500000000000e-01 6.13717063060021e-01 5.57485427634962e-04
6.07500000000000e-01 6.13674117513751e-01 5.70570274439112e-04
6.12500000000000e-01 6.13630241553273e-01 5.85903124573513e-04
6.17500000000000e-01 6.13585276874662e-01 6.03327068863255e-04
6.22500000000000e-01 6.13539078292152e-01 6.22693557008638e-04
6.27500000000000e-01 6.13491512929387e-01 6.43861961492578e-04
6.32500000000000e-01 6.13442459458767e-01 6.66699166946892e-04
6.37500000000000e-01 6.13391807385961e-01 6.91079180910734e-04
6.42500000000000e-01 6.13339456376888e-01 7.16882764621180e-04
6.47500000000000e-01 6.13285315624641e-01 7.43997082734106e-04
6.52500000000000e-01 6.13229303253977e-01 7.72315370970273e-04
6.57500000000000e-01 6.13171345761153e-01 8.01736620711454e-04
6.62500000000000e-01 6.13111377487013e-01 8.32165279636933e-04
6.67500000000000e-01 6.13049340121380e-01 8.63510967549922e-04
6.72500000000000e-01 6.12985182236907e-01 8.95688206427518e-04
6.77500000000000e-01 6.12918858850693e-01 9.28616162480803e-04
6.82500000000000e-01 6.12850331012263e-01 9.62218395402857e-04
6.87500000000000e-01 6.12779565417051e-01 9.96422607415580e-04
6.92500000000000e-01 6.12706534045163e-01 1.03116042080986e-03
6.97500000000000e-01 6.12631213820011e-01 1.06636720353368e-03
7.02500000000000e-01 6.12553586284046e-01 1.10293791635940e-03
7.07500000000000e-01 6.12473503347751e-01 1.14287491628703e-03
7.12500000000000e-01 6.12390662744331e-01 1.18710444667519e-03
7.17500000000000e-01 6.12304786008540e-01 1.23533486547388e-03
7.22500000000000e-01 6.12215617236132e-01 1.28728744732215e-03
7.27500000000000e-01 6.12122921903652e-01 1.34269584692757e-03
7.32500000000000e-01 6.12026485746115e-01 1.40130558064149e-03
7.37500000000000e-01 6.11926113689758e-01 1.46287352862111e-03
7.42500000000000e-01 6.11821628837245e-01 1.52716745639795e-03
7.47500000000000e-01 6.11712871502838e-01 1.59396555497842e-03
7.52500000000000e-01 6.11599698295164e-01 1.66305599872037e-03
7.57500000000000e-01 6.11481981245337e-01 1.73423652026172e-03
7.62500000000000e-01 6.11359606978301e-01 1.80731400179334e-03
7.67500000000000e-01 6.11232475925366e-01 1.88210408201310e-03
7.72500000000000e-01 6.11100501576002e-01 1.95843077792157e-03
7.77500000000000e-01 6.10963609767096e-01 2.03612611926802e-03
7.82500000000000e-01 6.10821738008168e-01 2.11502978951783e-03
7.87500000000000e-01 6.10674834841736e-01 2.19498876975318e-03
7.92500000000000e-01 6.10522859237889e-01 2.27585701151541e-03
7.97500000000000e-01 6.10365780018358e-01 2.35749518695602e-03
8.02500000000000e-01 6.10203575302018e-01 2.43923505584989e-03
8.07500000000000e-01 6.10036304297968e-01 2.51992793461820e-03
8.12500000000000e-01 6.09864099279786e-01 2.59903216333678e-03
8.17500000000000e-01 6.09687090435848e-01 2.67656143077577e-03
8.22500000000000e-01 6.09505405872738e-01 2.75252985506945e-03
8.27500000000000e-01 6.09319171617275e-01 2.82695199959647e-03
8.32500000000000e-01 6.09128511616997e-01 2.89984288847358e-03
8.37500000000000e-01 6.08933547739365e-01 2.97121801879187e-03
8.42500000000000e-01 6.08734399769924e-01 3.04109337003828e-03
8.47500000000000e-01 6.08531185409603e-01 3.10948541098878e-03
8.52500000000000e-01 6.08324020271342e-01 3.17641110431297e-03
8.57500000000000e-01 6.08113017876201e-01 3.24188790914727e-03
8.62500000000000e-01 6.07898289649095e-01 3.30593378185609e-03
8.67500000000000e-01 6.07679944914267e-01 3.36856717517916e-03
8.72500000000000e-01 6.07458090890619e-01 3.42980703575677e-03
8.77500000000000e-01 6.07232832687022e-01 3.48967279879047e-03
8.82500000000000e-01 6.07004273297888e-01 3.54818437535157e-03
8.87500000000000e-01 6.06772513599796e-01 3.60536213436335e-03
8.92500000000000e-01 6.06537652349058e-01 3.66122689990677e-03
8.97500000000000e-01 6.06299786178029e-01 3.71579998926982e-03
9.02500000000000e-01 6.06059009586446e-01 3.76957394848619e-03
9.07500000000000e-01 6.05815354445067e-01 3.82348914786655e-03
9.12500000000000e-01 6.05568793688094e-01 3.87798158538532e-03
9.17500000000000e-01 6.05319303268845e-01 3.93300667877118e-03
9.22500000000000e-01 6.05066862054657e-01 3.98852104855775e-03
9.27500000000000e-01 6.04811451723151e-01 4.04448251914512e-03
9.32500000000000e-01 6.04553056659873e-01 4.10085011862747e-03
9.37500000000000e-01 6.04291663857389e-01 4.15758407709462e-03
9.42500000000000e-01 6.04027262815871e-01 4.21464582337556e-03
9.47500000000000e-01 6.03759845445260e-01 4.27199798027838e-03
9.52500000000000e-01 6.03489405969049e-01 4.32960435839131e-03
9.57500000000000e-01 6.03215940829744e-01 4.38742994853160e-03
9.62500000000000e-01 6.02939448596043e-01 4.44544091293913e-03
9.67500000000000e-01 6.02659929871784e-01 4.50360457526076e-03
9.72500000000000e-01 6.02377387206679e-01 4.56188940879292e-03
9.77500000000000e-01 6.02091825008988e-01 4.62026501899111e-03
9.82500000000000e-01 6.01803249460702e-01 4.67870210834860e-03
9.87500000000000e-01 6.01511668437063e-01 4.73717241611498e-03
9.92500000000000e-01 6.01217091431938e-01 4.79564871926269e-03
9.97500000000000e-01 6.00919529478315e-01 4.85410494418405e-03
1.00250000000000e+00 6.00618995058882e-01 4.91761725263762e-03
1.00750000000000e+00 6.00314850224857e-01 4.99406288798051e-03
1.01250000000000e+00 6.00006143423430e-01 5.08588055111048e-03
1.01750000000000e+00 5.99691971522208e-01 5.19237668325280e-03
1.02250000000000e+00 5.99371478588340e-01 5.31287086996695e-03
1.02750000000000e+00 5.99043854673955e-01 5.44669600283952e-03
1.03250000000000e+00 5.98708334607298e-01 5.59319844551755e-03
1.03750000000000e+00 5.98364196789142e-01 5.75173820128567e-03
1.04250000000000e+00 5.98010761994215e-01 5.92168907981191e-03
1.04750000000000e+00 5.97647392177512e-01 6.10243886162328e-03
1.05250000000000e+00 5.97273489285434e-01 6.29338945911167e-03
1.05750000000000e+00 5.96888494071781e-01 6.49395707299883e-03
1.06250000000000e+00 5.96491884918664e-01 6.70357234326862e-03
1.06750000000000e+00 5.96083176662489e-01 6.92168049368167e-03
1.07250000000000e+00 5.95661919425204e-01 7.14774146911420e-03
1.07750000000000e+00 5.95227697451042e-01 7.38123006499660e-03
1.08250000000000e+00 5.94780127949041e-01 7.62163604825197e-03
1.08750000000000e+00 5.94318859941646e-01 7.86846426888307e-03
1.09250000000000e+00 5.93843573119778e-01 8.12123476004805e-03
1.09750000000000e+00 5.93353976704924e-01 8.37948282504876e-03
1.10250000000000e+00 5.92849808318819e-01 8.64672377636669e-03
1.10750000000000e+00 5.92330277056977e-01 8.92342120059653e-03
1.11250000000000e+00 5.91795062142010e-01 9.20613948483059e-03
1.11750000000000e+00 5.91243866235476e-01 9.49450664367954e-03
1.12250000000000e+00 5.90676414715200e-01 9.78816023712339e-03
1.12750000000000e+00 5.90092454959337e-01 1.00867473761895e-02
1.13250000000000e+00 5.89491755637951e-01 1.03899247144148e-02
1.13750000000000e+00 5.88874106012684e-01 1.06973584276390e-02
1.14250000000000e+00 5.88239315244952e-01 1.10087241835565e-02
1.14750000000000e+00 5.87587211713097e-01 1.13237071017458e-02
1.15250000000000e+00 5.86917642338825e-01 1.16420017047944e-02
1.15750000000000e+00 5.86230471923288e-01 1.19633118611298e-02
1.16250000000000e+00 5.85525582493080e-01 1.22873507201077e-02
1.16750000000000e+00 5.84802872656414e-01 1.26138406399248e-02
1.17250000000000e+00 5.84062256969713e-01 1.29425131089116e-02
1.17750000000000e+00 5.83303665314792e-01 1.32731086607069e-02
1.18250000000000e+00 5.82527042286824e-01 1.36053767836430e-02
1.18750000000000e+00 5.81732346593228e-01 1.39390758240339e-02
1.19250000000000e+00 5.80919550463692e-01 1.42739728797838e-02
1.19750000000000e+00 5.80088639071913e-01 1.46098436825204e-02
1.20250000000000e+00 5.79239609969446e-01 1.49552871719007e-02
1.20750000000000e+00 5.78371236099743e-01 1.53102313275638e-02
1.21250000000000e+00 5.77483510987553e-01 1.56659469503463e-02
1.21750000000000e+00 5.76576429539302e-01 1.60223995103200e-02
1.22250000000000e+00 5.75649988451649e-01 1.63795473951853e-02
1.22750000000000e+00 5.74704186603567e-01 1.67373421581630e-02
1.23250000000000e+00 5.73739025432225e-01 1.70957287607273e-02
1.23750000000000e+00 5.72754509293298e-01 1.74546458089599e-02
1.24250000000000e+00 5.71750645806098e-01 1.78140257857959e-02
1.24750000000000e+00 5.70727446183882e-01 1.81737952794218e-02
1.25250000000000e+00 5.69684925549701e-01 1.85338752077655e-02
1.25750000000000e+00 5.68623103238121e-01 1.88941810390184e-02
1.26250000000000e+00 5.67542003083196e-01 1.92546230080630e-02
1.26750000000000e+00 5.66441653693016e-01 1.96151063286657e-02
1.27250000000000e+00 5.65322088711217e-01 1.99755314013187e-02
1.27750000000000e+00 5.64183347065786e-01 2.03357940166220e-02
1.28250000000000e+00 5.63025473205534e-01 2.06957855540941e-02
1.28750000000000e+00 5.61848517324602e-01 2.10553931765324e-02
1.29250000000000e+00 5.60652535575314e-01 2.14145000209175e-02
1.29750000000000e+00 5.59437590269648e-01 2.17729853850265e-02
1.30250000000000e+00 5.58203750069713e-01 2.21281278448475e-02
1.30750000000000e+00 5.56951492613881e-01 2.24826664530161e-02
1.31250000000000e+00 5.55680582446464e-01 2.28418975506119e-02
1.31750000000000e+00 5.54390793513566e-01 2.32056568472718e-02
1.32250000000000e+00 5.53081909625539e-01 2.35737713768513e-02
1.32750000000000e+00 5.51753724869300e-01 2.39460603599219e-02
1.33250000000000e+00 5.50406043971075e-01 2.43223360627834e-02
1.33750000000000e+00 5.49038682610109e-01 2.47024046511940e-02
1.34250000000000e+00 5.47651467684069e-01 2.50860670356316e-02
1.34750000000000e+00 5.46244237526992e-01 2.54731197063050e-02
1.35250000000000e+00 5.44816842080724e-01 2.58633555565210e-02
1.35750000000000e+00 5.43369143020800e-01 2.62565646930643e-02
1.36250000000000e+00 5.41901013837829e-01 2.66525352324324e-02
1.36750000000000e+00 5.40412339875464e-01 2.70510540818378e-02
1.37250000000000e+00 5.38903018326091e-01 2.74519077040292e-02
1.37750000000000e+00 5.37372958185405e-01 2.78548828651202e-02
1.38250000000000e+00 5.35822080167070e-01 2.82597673646342e-02
1.38750000000000e+00 5.34250316578686e-01 2.86663507472248e-02
1.39250000000000e+00 5.32657611160310e-01 2.90744249954396e-02
1.39750000000000e+00 5.31043918886772e-01 2.94837852028830e-02
1.40250000000000e+00 5.29409205735103e-01 2.98944577978952e-02
1.40750000000000e+00 5.27753423381683e-01 3.03067038197317e-02
1.41250000000000e+00 5.26076508708427e-01 3.07205615573476e-02
1.41750000000000e+00 5.24378408867251e-01 3.11358413759527e-02
1.42250000000000e+00 5.22659081261526e-01 3.15523534676458e-02
1.42750000000000e+00 5.20918493507344e-01 3.19699082217255e-02
1.43250000000000e+00 5.19156623375809e-01 3.23883165740263e-02
1.43750000000000e+00 5.17373458717630e-01 3.28073903349580e-02
1.44250000000000e+00 5.15568997371263e-01 3.32269424969275e-02
1.44750000000000e+00 5.13743247055758e-01 3.36467875219297e-02
1.45250000000000e+00 5.11896225249468e-01 3.40667416100860e-02
1.45750000000000e+00 5.10027959055685e-01 3.44866229498086e-02
1.46250000000000e+00 5.08138485056242e-01 3.49062519503596e-02
1.46750000000000e+00 5.06227849154063e-01 3.53254514574901e-02
1.47250000000000e+00 5.04296106405615e-01 3.57440469528467e-02
1.47750000000000e+00 5.02343320844145e-01 3.61618667378010e-02
1.48250000000000e+00 5.00369565294578e-01 3.65787421020580e-02
1.48750000000000e+00 4.98374921180896e-01 3.69945074763548e-02
1.49250000000000e+00 4.96359478326960e-01 3.74090005634429e-02
1.49750000000000e+00 4.94323334752194e-01 3.78220624450941e-02
1.50250000000000e+00 4.92266596463321e-01 3.82451866887472e-02
1.50750000000000e+00 4.90187735284915e-01 3.86769213820099e-02
1.51250000000000e+00 4.88087003186314e-01 3.91044222610971e-02
1.51750000000000e+00 4.85964638422364e-01 3.95279189617241e-02
1.52250000000000e+00 4.83820866640733e-01 3.99476217319292e-02
1.52750000000000e+00 4.81655901952313e-01 4.03637220298749e-02
1.53250000000000e+00 4.79469947965729e-01 4.07763931088755e-02
1.53750000000000e+00 4.77263198786765e-01 4.11857905950192e-02
1.54250000000000e+00 4.75035839983149e-01 4.15920530610641e-02
1.54750000000000e+00 4.72788049515083e-01 4.19953025968335e-02
1.55250000000000e+00 4.70519998631927e-01 4.23956453757458e-02
1.55750000000000e+00 4.68231852735449e-01 4.27931722170010e-02
1.56250000000000e+00 4.65923772210079e-01 4.31879591429522e-02
1.56750000000000e+00 4.63595913220638e-01 4.35800679311769e-02
1.57250000000000e+00 4.61248428478002e-01 4.39695466607978e-02
1.57750000000000e+00 4.58881467973203e-01 4.43564302525339e-02
