Energy (eV)          EEDF (eV^-(3/2))     First Anisotropy
1.66279069767442e-02 1.33702087885122e-01 7.63717959573669e-05
4.98837209302326e-02 1.32630829090767e-01 1.26030009695899e-04
8.31395348837209e-02 1.31568153526396e-01 1.66158041784343e-04
1.16395348837209e-01 1.30513992417415e-01 1.96512564434215e-04
1.49651162790698e-01 1.29468277542982e-01 2.21720382953972e-04
1.82906976744186e-01 1.28430941230805e-01 2.43533759588550e-04
2.16162790697674e-01 1.27401916349447e-01 2.62860932027139e-04
2.49418604651163e-01 1.26381136305362e-01 2.80251207553486e-04
2.82674418604651e-01 1.25368535038580e-01 2.96069453026254e-04
3.15930232558140e-01 1.24364047018426e-01 3.10573939459196e-04
3.49186046511628e-01 1.23367607239279e-01 3.23956139906757e-04
3.82441860465116e-01 1.22379151219053e-01 3.36363105189924e-04
4.15697674418605e-01 1.21398614986695e-01 3.47910961627215e-04
4.48953488372093e-01 1.20425935086667e-01 3.58693510440751e-04
4.82209302325581e-01 1.19461048571845e-01 3.68787951891596e-04
5.15465116279070e-01 1.18503892999454e-01 3.78258832775553e-04
5.48720930232558e-01 1.17554406427022e-01 3.87160851929044e-04
5.81976744186047e-01 1.16612527408375e-01 3.95540905197813e-04
6.15232558139535e-01 1.15678194989660e-01 4.03439608912954e-04
6.48488372093023e-01 1.14751348705404e-01 4.10892456605489e-04
6.81744186046512e-01 1.13831928574596e-01 4.17930712015673e-04
7.15000000000000e-01 1.12919875096812e-01 4.24582108770505e-04
7.48255813953488e-01 1.12015129248355e-01 4.30871405853257e-04
7.81511627906977e-01 1.11117632478446e-01 4.36820833834999e-04
8.14767441860465e-01 1.10227326705431e-01 4.42450457202078e-04
8.48023255813954e-01 1.09344154313022e-01 4.47778471422549e-04
8.81279069767442e-01 1.08468058146568e-01 4.52821448670212e-04
9.14534883720930e-01 1.07598981509357e-01 4.57594542733876e-04
9.47790697674419e-01 1.06736868158947e-01 4.62111661168883e-04
9.81046511627907e-01 1.05881662303525e-01 4.66385610925515e-04
1.01430232558140e+00 1.05033308598298e-01 4.70428221997157e-04
1.04755813953488e+00 1.04191752144296e-01 4.74250455249219e-04
1.08081395348837e+00 1.03356938472875e-01 4.77862490740803e-04
1.11406976744186e+00 1.02528813566867e-01 4.81273808434932e-04
1.14732558139535e+00 1.01707323833656e-01 4.84493260343559e-04
1.18058139534884e+00 1.00892416103336e-01 4.87529124302845e-04
1.21383720930233e+00 1.00084037645984e-01 4.90389160956209e-04
1.24709302325581e+00 9.92821361405769e-02 4.93080659287094e-04
1.28034883720930e+00 9.84866596985164e-02 4.95610476586380e-04
1.31360465116279e+00 9.76975568401240e-02 4.97985078837300e-04
1.34686046511628e+00 9.69147764925430e-02 5.00210567367105e-04
1.38011627906977e+00 9.61382680038764e-02 5.02292711630325e-04
1.41337209302326e+00 9.53679811166049e-02 5.04236974332489e-04
1.44662790697674e+00 9.46038659870588e-02 5.06048533755091e-04
1.47988372093023e+00 9.38458731651724e-02 5.07732308323536e-04
1.51313953488372e+00 9.30939535922474e-02 5.09292970343533e-04
1.54639534883721e+00 9.23480586126960e-02 5.10734966625220e-04
1.57965116279070e+00 9.16081399509601e-02 5.12062533317615e-04
1.61290697674419e+00 9.08741497278605e-02 5.13279709187939e-04
1.64616279069767e+00 9.01460404429192e-02 5.14390351792527e-04
1.67941860465116e+00 8.94237649720389e-02 5.15398144522244e-04
1.71267441860465e+00 8.87072765773799e-02 5.16306610548146e-04
1.74593023255814e+00 8.79965288870766e-02 5.17119122046986e-04
1.77918604651163e+00 8.72914759091202e-02 5.17838908484776e-04
1.81244186046512e+00 8.65920720157474e-02 5.18469067967669e-04
1.84569767441860e+00 8.58982719410881e-02 5.19012570612073e-04
1.87895348837209e+00 8.52100307895454e-02 5.19472268550345e-04
1.91220930232558e+00 8.45273040178002e-02 5.19850901902491e-04
1.94546511627907e+00 8.38500474467066e-02 5.20151104133849e-04
1.97872093023256e+00 8.31782172473768e-02 5.20375410455221e-04
2.01197674418605e+00 8.25117699388326e-02 5.20526259087763e-04
2.04523255813953e+00 8.18506623951651e-02 5.20605998800712e-04
2.07848837209302e+00 8.11948518294425e-02 5.20616892898920e-04
2.11174418604651e+00 8.05442958039791e-02 5.20561122783649e-04
2.14500000000000e+00 7.98989522178373e-02 5.20440794445267e-04
2.17825581395349e+00 7.92587793045055e-02 5.20257938488250e-04
2.21151162790698e+00 7.86237356380498e-02 5.20014515472306e-04
2.24476744186047e+00 7.79937801214275e-02 5.19712420921381e-04
2.27802325581395e+00 7.73688719841876e-02 5.19353484886273e-04
2.31127906976744e+00 7.67489707880376e-02 5.18939477117120e-04
2.34453488372093e+00 7.61340364132966e-02 5.18472109259011e-04
2.37779069767442e+00 7.55240290670279e-02 5.17953036784740e-04
2.41104651162791e+00 7.49189092724295e-02 5.17383863592450e-04
2.44430232558140e+00 7.43186378665891e-02 5.16766141020252e-04
2.47755813953488e+00 7.37231760052983e-02 5.16101372108215e-04
2.51081395348837e+00 7.31324851507473e-02 5.15391013139387e-04
2.54406976744186e+00 7.25465270786503e-02 5.14636474976121e-04
2.57732558139535e+00 7.19652638685668e-02 5.13839126905627e-04
2.61058139534884e+00 7.13886579017175e-02 5.13000295329829e-04
2.64383720930233e+00 7.08166718651607e-02 5.12121267361410e-04
2.67709302325581e+00 7.02492687405660e-02 5.11203291915593e-04
2.71034883720930e+00 6.96864118104816e-02 5.10247580636944e-04
2.74360465116279e+00 6.91280646494690e-02 5.09255311183868e-04
2.77686046511628e+00 6.85741911219815e-02 5.08227625733414e-04
2.81011627906977e+00 6.80247553859972e-02 5.07165634074293e-04
2.84337209302326e+00 6.74797218827388e-02 5.06070414383675e-04
2.87662790697674e+00 6.69390553422039e-02 5.04943013867306e-04
2.90988372093023e+00 6.64027207750148e-02 5.03784451612762e-04
2.94313953488372e+00 6.58706834703627e-02 5.02595716998251e-04
2.97639534883721e+00 6.53429089991740e-02 5.01377772394928e-04
3.00965116279070e+00 6.48193632046644e-02 5.00131553718990e-04
3.04290697674419e+00 6.43000122072324e-02 4.98857970867033e-04
3.07616279069767e+00 6.37848223969463e-02 4.97557910230025e-04
3.10941860465116e+00 6.32737604315489e-02 4.96232233063556e-04
3.14267441860465e+00 6.27667932392253e-02 4.94881777878288e-04
3.17593023255814e+00 6.22638880098967e-02 4.93507360829794e-04
3.20918604651163e+00 6.17650121995614e-02 4.92109776006105e-04
3.24244186046512e+00 6.12701335233482e-02 4.90689797667769e-04
3.27569767441860e+00 6.07792199535845e-02 4.89248178616882e-04
3.30895348837209e+00 6.02922397222175e-02 4.87785652333981e-04
3.34220930232558e+00 5.98091613127685e-02 4.86302933248757e-04
3.37546511627907e+00 5.93299534641920e-02 4.84800716919727e-04
3.40872093023256e+00 5.88545851644372e-02 4.83279682048889e-04
3.44197674418605e+00 5.83830256485783e-02 4.81740488873794e-04
3.47523255813954e+00 5.79152444009347e-02 4.80183781094092e-04
3.50848837209302e+00 5.74512111476182e-02 4.78610186053999e-04
3.54174418604651e+00 5.69908958599697e-02 4.77020314842780e-04
3.57500000000000e+00 5.65342687485775e-02 4.75414764120414e-04
3.60825581395349e+00 5.60813002614708e-02 4.73794114548287e-04
3.64151162790698e+00 5.56319610859758e-02 4.72158932224329e-04
3.67476744186047e+00 5.51862221430039e-02 4.70509770059252e-04
3.70802325581395e+00 5.47440545852825e-02 4.68847166244301e-04
3.74127906976744e+00 5.43054297990526e-02 4.67171645900801e-04
3.77453488372093e+00 5.38703193974703e-02 4.65483721166908e-04
3.80779069767442e+00 5.34386952234484e-02 4.63783891214606e-04
3.84104651162791e+00 5.30105293443298e-02 4.62072643822414e-04
3.87430232558140e+00 5.25857940501824e-02 4.60350453894692e-04
3.90755813953488e+00 5.21644618552838e-02 4.58617784973512e-04
3.94081395348837e+00 5.17465054919760e-02 4.56875089282818e-04
3.97406976744186e+00 5.13318979132060e-02 4.55122807709398e-04
4.00732558139535e+00 5.09206122875506e-02 4.53361371248417e-04
4.04058139534884e+00 5.05126219975735e-02 4.51591199578337e-04
4.07383720930233e+00 5.01079006411217e-02 4.49812702452924e-04
4.10709302325581e+00 4.97064220255945e-02 4.48026279713224e-04
4.14034883720930e+00 4.93081601702159e-02 4.46232321241767e-04
4.17360465116279e+00 4.89130893013809e-02 4.44431208296601e-04
4.20686046511628e+00 4.85211838510725e-02 4.42623312144061e-04
4.24011627906977e+00 4.81324184579933e-02 4.40808995345122e-04
4.27337209302326e+00 4.77467679622111e-02 4.38988611743016e-04
4.30662790697674e+00 4.73642074071942e-02 4.37162506397884e-04
4.33988372093023e+00 4.69847120354516e-02 4.35331016821978e-04
4.37313953488372e+00 4.66082572870084e-02 4.33494471670948e-04
4.40639534883721e+00 4.62348188003916e-02 4.31653191936444e-04
4.43965116279070e+00 4.58643724076212e-02 4.29807490915334e-04
4.47290697674419e+00 4.54968941360330e-02 4.27957674129905e-04
4.50616279069767e+00 4.51323602041907e-02 4.26104040475308e-04
4.53941860465116e+00 4.47707470204159e-02 4.24246880968881e-04
4.57267441860465e+00 4.44120311836459e-02 4.22386479858574e-04
4.60593023255814e+00 4.40561894787420e-02 4.20523114578690e-04
4.63918604651163e+00 4.37031988781228e-02 4.18657055659629e-04
4.67244186046512e+00 4.33530365379257e-02 4.16788567796463e-04
4.70569767441861e+00 4.30056797965909e-02 4.14917908655287e-04
4.73895348837209e+00 4.26611061756058e-02 4.13045329905877e-04
4.77220930232558e+00 4.23192933751044e-02 4.11171077167393e-04
4.80546511627907e+00 4.19802192753315e-02 4.09295389910886e-04
4.83872093023256e+00 4.16438619330349e-02 4.07418502456600e-04
4.87197674418605e+00 4.13101995801010e-02 4.05540642835854e-04
4.90523255813954e+00 4.09792106241988e-02 4.03662033755040e-04
4.93848837209302e+00 4.06508736446481e-02 4.01782892534023e-04
4.97174418604651e+00 4.03251673937322e-02 3.99903431003940e-04
5.00500000000000e+00 4.00020707933027e-02 3.98023856439675e-04
5.03825581395349e+00 3.96815629334663e-02 3.96144370475427e-04
5.07151162790698e+00 3.93636230731384e-02 3.94265169817792e-04
5.10476744186047e+00 3.90482306367746e-02 3.92386446934676e-04
5.13802325581395e+00 3.87353652130872e-02 3.90508389005954e-04
5.17127906976744e+00 3.84250065555436e-02 3.88631178787549e-04
5.20453488372093e+00 3.81171345786336e-02 3.86754994543086e-04
5.23779069767442e+00 3.78117293589615e-02 3.84880009939027e-04
5.27104651162791e+00 3.75087711321650e-02 3.83006394881984e-04
5.30430232558140e+00 3.72082402916808e-02 3.81134314519522e-04
5.33755813953488e+00 3.69101173891692e-02 3.79263930050587e-04
5.37081395348837e+00 3.66143831309999e-02 3.77395398654136e-04
5.40406976744186e+00 3.63210183792310e-02 3.75528873383662e-04
5.43732558139535e+00 3.60300041487018e-02 3.73664503953135e-04
5.47058139534884e+00 3.57413216058460e-02 3.71802435785807e-04
5.50383720930233e+00 3.54549520690497e-02 3.69942810775284e-04
5.53709302325581e+00 3.51708770053416e-02 3.68085767212328e-04
5.57034883720930e+00 3.48890780312689e-02 3.66231439679738e-04
5.60360465116279e+00 3.46095369101531e-02 3.64379959790941e-04
5.63686046511628e+00 3.43322355509478e-02 3.62531455284726e-04
5.67011627906977e+00 3.40571560085389e-02 3.60686050740753e-04
5.70337209302326e+00 3.37842804806239e-02 3.58843867505485e-04
5.73662790697674e+00 3.35135913084952e-02 3.57005023588191e-04
5.76988372093023e+00 3.32450709744477e-02 3.55169634355689e-04
5.80313953488372e+00 3.29787021006802e-02 3.53337811670968e-04
5.83639534883721e+00 3.27144674495436e-02 3.51509664566637e-04
5.86965116279070e+00 3.24523499205963e-02 3.49685299170616e-04
5.90290697674419e+00 3.21923325513047e-02 3.47864818603693e-04
5.93616279069767e+00 3.19343985145919e-02 3.46048323633942e-04
5.96941860465116e+00 3.16785311177813e-02 3.44235911857077e-04
6.00267441860465e+00 3.14247138027983e-02 3.42427678330755e-04
6.03593023255814e+00 3.11729301433906e-02 3.40623715500784e-04
6.06918604651163e+00 3.09231638457534e-02 3.38824113100583e-04
6.10244186046512e+00 3.06753987462102e-02 3.37028958768128e-04
6.13569767441860e+00 3.04296188101971e-02 3.35238337266083e-04
6.16895348837209e+00 3.01858081324233e-02 3.33452331079760e-04
6.20220930232558e+00 2.99439509342452e-02 3.31671020344252e-04
6.23546511627907e+00 2.97040315642233e-02 3.29894482746121e-04
6.26872093023256e+00 2.94660344959274e-02 3.28122794105498e-04
6.30197674418605e+00 2.92299443269593e-02 3.26356027634074e-04
6.33523255813954e+00 2.89957457790775e-02 3.24594254499187e-04
6.36848837209302e+00 2.87634236957142e-02 3.22837543752218e-04
6.40174418604651e+00 2.85329630424714e-02 3.21085962232818e-04
6.43500000000000e+00 2.83043489050418e-02 3.19339575118422e-04
6.46825581395349e+00 2.80775664882694e-02 3.17598445218278e-04
6.50151162790698e+00 2.78526011162415e-02 3.15862633388179e-04
6.53476744186047e+00 2.76294382302792e-02 3.14132198932703e-04
6.56802325581395e+00 2.74080633880196e-02 3.12407198921860e-04
6.60127906976744e+00 2.71884622634876e-02 3.10687688704445e-04
6.63453488372093e+00 2.69706206448279e-02 3.08973721839163e-04
6.66779069767442e+00 2.67545244347111e-02 3.07265350003853e-04
6.70104651162791e+00 2.65401596484280e-02 3.05562623495916e-04
6.73430232558140e+00 2.63275124130074e-02 3.03865590582042e-04
6.76755813953488e+00 2.61165689672618e-02 3.02174297983477e-04
6.80081395348837e+00 2.59073156596398e-02 3.00488790808801e-04
6.83406976744186e+00 2.56997389485853e-02 2.98809112465969e-04
6.86732558139535e+00 2.54938254007305e-02 2.97135305135534e-04
6.90058139534884e+00 2.52895616900472e-02 2.95467409151806e-04
6.93383720930233e+00 2.50869345978695e-02 2.93805463461787e-04
6.96709302325581e+00 2.48859310108596e-02 2.92149505559721e-04
7.00034883720930e+00 2.46865379213243e-02 2.90499571402081e-04
7.03360465116279e+00 2.44887424255006e-02 2.88855695855236e-04
7.06686046511628e+00 2.42925317227399e-02 2.87217912106479e-04
7.10011627906977e+00 2.40978931155098e-02 2.85586252098307e-04
7.13337209302326e+00 2.39048140074665e-02 2.83960746464791e-04
7.16662790697674e+00 2.37132819037332e-02 2.82341424449542e-04
7.19988372093023e+00 2.35232844092721e-02 2.80728314329415e-04
7.23313953488372e+00 2.33348092281009e-02 2.79121442853899e-04
7.26639534883721e+00 2.31478441632756e-02 2.77520835656290e-04
7.29965116279070e+00 2.29623771150639e-02 2.75926517191970e-04
7.33290697674419e+00 2.27783960811880e-02 2.74338510659221e-04
7.36616279069767e+00 2.25958891552793e-02 2.72756838400523e-04
7.39941860465116e+00 2.24148445261248e-02 2.71181521368901e-04
7.43267441860465e+00 2.22352504776343e-02 2.69612579517324e-04
7.46593023255814e+00 2.20570953871075e-02 2.68050031738962e-04
7.49918604651163e+00 2.18803677254457e-02 2.66493895790849e-04
7.53244186046512e+00 2.17050560556839e-02 2.64944188674115e-04
7.56569767441860e+00 2.15311490322662e-02 2.63400926125895e-04
7.59895348837209e+00 2.13586354009990e-02 2.61864122988292e-04
7.63220930232558e+00 2.11875039974069e-02 2.60333793150633e-04
7.66546511627907e+00 2.10177437469159e-02 2.58809949475909e-04
7.69872093023256e+00 2.08493436634585e-02 2.57292604161195e-04
7.73197674418605e+00 2.06822928487771e-02 2.55781768253885e-04
7.76523255813954e+00 2.05165804923651e-02 2.54277452001412e-04
7.79848837209302e+00 2.03521958699064e-02 2.52779664795486e-04
7.83174418604651e+00 2.01891283434325e-02 2.51288415101228e-04
7.86500000000000e+00 2.00273673599971e-02 2.49803710799017e-04
7.89825581395349e+00 1.98669024510059e-02 2.48325558723807e-04
7.93151162790698e+00 1.97077232321475e-02 2.46853964921107e-04
7.96476744186047e+00 1.95498194021081e-02 2.45388934895999e-04
7.99802325581395e+00 1.93931807419176e-02 2.43930473166737e-04
8.03127906976744e+00 1.92377971148732e-02 2.42478583585194e-04
8.06453488372093e+00 1.90836584651044e-02 2.41033269284511e-04
8.09779069767442e+00 1.89307548176928e-02 2.39594532612800e-04
8.13104651162791e+00 1.87790762774495e-02 2.38162375446527e-04
8.16430232558140e+00 1.86286130282866e-02 2.36736798765387e-04
8.19755813953488e+00 1.84793553331326e-02 2.35317802956370e-04
8.23081395348837e+00 1.83312935325691e-02 2.33905387763219e-04
8.26406976744186e+00 1.81844180449308e-02 2.32499552222770e-04
8.29732558139535e+00 1.80387193651424e-02 2.31100294962363e-04
8.33058139534884e+00 1.78941880641144e-02 2.29707613794852e-04
8.36383720930233e+00 1.77508147886518e-02 2.28321506007186e-04
8.39709302325581e+00 1.76085902601578e-02 2.26941968311745e-04
8.43034883720930e+00 1.74675052747169e-02 2.25568996785194e-04
8.46360465116279e+00 1.73275507019870e-02 2.24202587150762e-04
8.49686046511628e+00 1.71887174846199e-02 2.22842734392431e-04
8.53011627906977e+00 1.70509966381628e-02 2.21489433028964e-04
8.56337209302326e+00 1.69143792498270e-02 2.20142677066989e-04
8.59662790697674e+00 1.67788564785538e-02 2.18802459942314e-04
8.62988372093023e+00 1.66444195539613e-02 2.17468774787949e-04
8.66313953488372e+00 1.65110597757861e-02 2.16141614066505e-04
8.69639534883721e+00 1.63787685137806e-02 2.14820969830454e-04
8.72965116279070e+00 1.62475372065418e-02 2.13506833676957e-04
8.76290697674419e+00 1.61173573615632e-02 2.12199196691509e-04
8.79616279069768e+00 1.59882205542312e-02 2.10898049702549e-04
8.82941860465116e+00 1.58601184272893e-02 2.09603382931179e-04
8.86267441860465e+00 1.57330426907311e-02 2.08315186238343e-04
8.89593023255814e+00 1.56069851206857e-02 2.07033449081393e-04
8.92918604651163e+00 1.54819375594572e-02 2.05758160459985e-04
8.96244186046512e+00 1.53578919145690e-02 2.04489309158017e-04
8.99569767441860e+00 1.52348401582484e-02 2.03226883409811e-04
9.02895348837209e+00 1.51127743273161e-02 2.01970871134911e-04
9.06220930232558e+00 1.49916865221263e-02 2.00721259896361e-04
9.09546511627907e+00 1.48715689065944e-02 1.99478036848788e-04
9.12872093023256e+00 1.47524137072860e-02 1.98241188968308e-04
9.16197674418605e+00 1.46342132129222e-02 1.97010702734351e-04
9.19523255813954e+00 1.45169597742665e-02 1.95786564352823e-04
9.22848837209302e+00 1.44006458031153e-02 1.94568759715998e-04
9.26174418604651e+00 1.42852637723159e-02 1.93357274352690e-04
9.29500000000000e+00 1.41708062148983e-02 1.92152093646808e-04
9.32825581395349e+00 1.40572657235996e-02 1.90953202534082e-04
9.36151162790698e+00 1.39446349507489e-02 1.89760585664953e-04
9.39476744186047e+00 1.38329066074243e-02 1.88574227563250e-04
9.42802325581395e+00 1.37220734629889e-02 1.87394112332013e-04
9.46127906976744e+00 1.36121283449737e-02 1.86220223858848e-04
9.49453488372093e+00 1.35030641381459e-02 1.85052545778461e-04
9.52779069767442e+00 1.33948737845113e-02 1.83891061426212e-04
9.56104651162791e+00 1.32875502825107e-02 1.82735754039290e-04
9.59430232558140e+00 1.31810866865738e-02 1.81586606476273e-04
9.62755813953488e+00 1.30754761070010e-02 1.80443601412425e-04
9.66081395348837e+00 1.29707117090766e-02 1.79306721303668e-04
9.69406976744186e+00 1.28667867130627e-02 1.78175948342049e-04
9.72732558139535e+00 1.27636943934335e-02 1.77051264647093e-04
9.76058139534884e+00 1.26614280784468e-02 1.75932651998381e-04
9.79383720930233e+00 1.25599811500245e-02 1.74820092021294e-04
9.82709302325581e+00 1.24593470429083e-02 1.73713566152428e-04
9.86034883720930e+00 1.23595192446468e-02 1.72613055596900e-04
9.89360465116279e+00 1.22604912948653e-02 1.71518541510348e-04
9.92686046511628e+00 1.21622567848535e-02 1.70430004743930e-04
9.96011627906977e+00 1.20648093574468e-02 1.69347426021030e-04
9.99337209302326e+00 1.19681427062208e-02 1.68270785904019e-04
1.00266279069767e+01 1.18722505754732e-02 1.67200064712995e-04
1.00598837209302e+01 1.17771267596200e-02 1.66135242740728e-04
1.00931395348837e+01 1.16827651027031e-02 1.65076300129825e-04
1.01263953488372e+01 1.15891594980874e-02 1.64023217230482e-04
1.01596511627907e+01 1.14963038871603e-02 1.62975973461190e-04
1.01929069767442e+01 1.14041922616748e-02 1.61934548107649e-04
1.02261627906977e+01 1.13128186606072e-02 1.60898921132839e-04
1.02594186046512e+01 1.12221771706952e-02 1.59869071968716e-04
1.02926744186047e+01 1.11322619260546e-02 1.58844979927264e-04
1.03259302325581e+01 1.10430671078009e-02 1.57826624204843e-04
1.03591860465116e+01 1.09545869436725e-02 1.56813984254321e-04
1.03924418604651e+01 1.08668157068192e-02 1.55807038680483e-04
1.04256976744186e+01 1.07797477179607e-02 1.54805765986358e-04
1.04589534883721e+01 1.06933773424731e-02 1.53810145330109e-04
1.04922093023256e+01 1.06076989908792e-02 1.52820155395388e-04
