Energy (eV)          EEDF (eV^-(3/2))     First Anisotropy
5.43333333333333e-04 3.87706669449487e+01 2.26176083138506e-02
1.63000000000000e-03 3.83262156663770e+01 3.72592864855620e-02
2.71666666666667e-03 3.78868593998378e+01 4.89517589418868e-02
3.80333333333333e-03 3.74525397358404e+01 5.76930675718581e-02
4.89000000000000e-03 3.70231989368719e+01 6.48672221073988e-02
5.97666666666667e-03 3.65987799279859e+01 7.10011241966519e-02
7.06333333333333e-03 3.61792262871465e+01 7.63692397640778e-02
8.15000000000000e-03 3.57644822397550e+01 8.11383717833050e-02
9.23666666666667e-03 3.53544926509716e+01 8.54198430499877e-02
1.03233333333333e-02 3.49492030172471e+01 8.92928224538033e-02
1.14100000000000e-02 3.45485594593383e+01 9.28162734255320e-02
1.24966666666667e-02 3.41525087191724e+01 9.60356847157779e-02
1.35833333333333e-02 3.37609981440886e+01 9.89871381724814e-02
1.46700000000000e-02 3.33739756875137e+01 1.01699905042130e-01
1.57566666666667e-02 3.29913899014420e+01 1.04198177823542e-01
1.68433333333333e-02 3.26131899238257e+01 1.06502266457080e-01
1.79300000000000e-02 3.22393254775582e+01 1.08629449981131e-01
1.90166666666667e-02 3.18697468634046e+01 1.10594599104669e-01
2.01033333333333e-02 3.15044049488508e+01 1.12410640363738e-01
2.11900000000000e-02 3.11432511661055e+01 1.14088909193771e-01
2.22766666666667e-02 3.07862375053732e+01 1.15639423586352e-01
2.33633333333333e-02 3.04333165047662e+01 1.17071098432008e-01
2.44500000000000e-02 3.00844412476984e+01 1.18391916006587e-01
2.55366666666667e-02 2.97395653564469e+01 1.19609063698099e-01
2.66233333333333e-02 2.93986429828902e+01 1.20729045615221e-01
2.77100000000000e-02 2.90616288055108e+01 1.21757774267458e-01
2.87966666666667e-02 2.87284780232161e+01 1.22700647006013e-01
2.98833333333333e-02 2.83991463467454e+01 1.23562609488915e-01
3.09700000000000e-02 2.80735899954221e+01 1.24348209102166e-01
3.20566666666667e-02 2.77517656912110e+01 1.25061640657685e-01
3.31433333333333e-02 2.74336306506870e+01 1.25706785000595e-01
3.42300000000000e-02 2.71191425816296e+01 1.26287242134513e-01
3.53166666666667e-02 2.68082596773002e+01 1.26806360186459e-01
3.64033333333333e-02 2.65009406088952e+01 1.27267260179649e-01
3.74900000000000e-02 2.61971445220458e+01 1.27672857618921e-01
3.85766666666667e-02 2.58968310313041e+01 1.28025881740199e-01
3.96633333333333e-02 2.55999602130196e+01 1.28328892108983e-01
4.07500000000000e-02 2.53064926017917e+01 1.28584293267783e-01
4.18366666666667e-02 2.50163891851524e+01 1.28794348040512e-01
4.29233333333333e-02 2.47296113968221e+01 1.28961189059040e-01
4.40100000000000e-02 2.44461211131462e+01 1.29086829043336e-01
4.50966666666667e-02 2.41658806479664e+01 1.29173170305860e-01
4.61833333333333e-02 2.38888527462183e+01 1.29222013000258e-01
4.72700000000000e-02 2.36150005803765e+01 1.29235062544574e-01
4.83566666666667e-02 2.33442877455071e+01 1.29213936605611e-01
4.94433333333333e-02 2.30766782531758e+01 1.29160171154932e-01
5.05300000000000e-02 2.28121365279208e+01 1.29075225961027e-01
5.16166666666667e-02 2.25506274024785e+01 1.28960489848906e-01
5.27033333333333e-02 2.22921161119770e+01 1.28817285245280e-01
5.37900000000000e-02 2.20365682904504e+01 1.28646872328245e-01
5.48766666666667e-02 2.17839499662312e+01 1.28450453073598e-01
5.59633333333333e-02 2.15342275564072e+01 1.28229174732030e-01
5.70500000000000e-02 2.12873678633880e+01 1.27984133022324e-01
5.81366666666667e-02 2.10433380704575e+01 1.27716375303482e-01
5.92233333333333e-02 2.08021057364757e+01 1.27426903279818e-01
6.03100000000000e-02 2.05636387925055e+01 1.27116675497883e-01
6.13966666666667e-02 2.03279055375185e+01 1.26786609875170e-01
6.24833333333333e-02 2.00948746333264e+01 1.26437585835853e-01
6.35700000000000e-02 1.98645151012734e+01 1.26070446291143e-01
6.46566666666667e-02 1.96367963180899e+01 1.25685999685356e-01
6.57433333333333e-02 1.94116880110391e+01 1.25285021704356e-01
6.68300000000000e-02 1.91891602546788e+01 1.24868256866080e-01
6.79166666666667e-02 1.89691834668585e+01 1.24436420198386e-01
6.90033333333333e-02 1.87517284040677e+01 1.23990198621694e-01
7.00900000000000e-02 1.85367661582707e+01 1.23530252240863e-01
7.11766666666667e-02 1.83242681530418e+01 1.23057215737713e-01
7.22633333333333e-02 1.81142061391034e+01 1.22571699501751e-01
7.33500000000000e-02 1.79065521912367e+01 1.22074290690068e-01
7.44366666666667e-02 1.77012787045490e+01 1.21565554395667e-01
7.55233333333333e-02 1.74983583901928e+01 1.21046034580889e-01
7.66100000000000e-02 1.72977642723521e+01 1.20516254954870e-01
7.76966666666667e-02 1.70994696846385e+01 1.19976719963466e-01
7.87833333333333e-02 1.69034482659802e+01 1.19427915566327e-01
7.98700000000000e-02 1.67096739576865e+01 1.18870309969261e-01
8.09566666666667e-02 1.65181209999666e+01 1.18304354470504e-01
8.20433333333333e-02 1.63287639279814e+01 1.17730484112597e-01
8.31300000000000e-02 1.61415775689847e+01 1.17149118298174e-01
8.42166666666667e-02 1.59565370389619e+01 1.16560661519304e-01
8.53033333333333e-02 1.57736177388352e+01 1.15965503908102e-01
8.63900000000000e-02 1.55927953516828e+01 1.15364021757985e-01
8.74766666666667e-02 1.54140458394922e+01 1.14756578156918e-01
8.85633333333333e-02 1.52373454395122e+01 1.14143523455413e-01
8.96500000000000e-02 1.50626706615489e+01 1.13525195710415e-01
9.07366666666667e-02 1.48899982848300e+01 1.12901921238831e-01
9.18233333333333e-02 1.47193053544969e+01 1.12274015017588e-01
9.29100000000000e-02 1.45505691789766e+01 1.11641781063742e-01
9.39966666666667e-02 1.43837673269529e+01 1.11005512921279e-01
9.50833333333333e-02 1.42188776239925e+01 1.10365494004883e-01
9.61700000000000e-02 1.40558781499916e+01 1.09721997927064e-01
9.72566666666667e-02 1.38947472362507e+01 1.09075288928688e-01
9.83433333333333e-02 1.37354634622284e+01 1.08425622175777e-01
9.94300000000000e-02 1.35780056530617e+01 1.07773244042306e-01
1.00516666666667e-01 1.34223528767409e+01 1.07118392492966e-01
1.01603333333333e-01 1.32684844409849e+01 1.06461297374962e-01
1.02690000000000e-01 1.31163798905101e+01 1.05802180491650e-01
1.03776666666667e-01 1.29660190059169e+01 1.05141256251364e-01
1.04863333333333e-01 1.28173817974675e+01 1.04478731760990e-01
1.05950000000000e-01 1.26704485056439e+01 1.03814806690769e-01
1.07036666666667e-01 1.25251995984349e+01 1.03149674193915e-01
1.08123333333333e-01 1.23816157657463e+01 1.02483520801321e-01
1.09210000000000e-01 1.22396779198447e+01 1.01816526311799e-01
1.10296666666667e-01 1.20993671927404e+01 1.01148864651352e-01
1.11383333333333e-01 1.19606649308733e+01 1.00480703758387e-01
1.12470000000000e-01 1.18235526954554e+01 9.98122054652978e-02
1.13556666666667e-01 1.16880122599453e+01 9.91435263030369e-02
1.14643333333333e-01 1.15540256049937e+01 9.84748173794188e-02
1.15730000000000e-01 1.14215749186954e+01 9.78062242544809e-02
1.16816666666667e-01 1.12906425941516e+01 9.71378876952587e-02
1.17903333333333e-01 1.11612112246596e+01 9.64699435492567e-02
1.18990000000000e-01 1.10332636038839e+01 9.58025226155469e-02
1.20076666666667e-01 1.09067827235040e+01 9.51357513540102e-02
1.21163333333333e-01 1.07817517686330e+01 9.44697517556600e-02
1.22250000000000e-01 1.06581541179168e+01 9.38046412110549e-02
1.23336666666667e-01 1.05359733412647e+01 9.31405331777578e-02
1.24423333333333e-01 1.04151931954830e+01 9.24775370488843e-02
1.25510000000000e-01 1.02957976243111e+01 9.18157580200723e-02
1.26596666666667e-01 1.01777707562309e+01 9.11552977185018e-02
1.27683333333333e-01 1.00610969003038e+01 9.04962540707297e-02
1.28770000000000e-01 9.94576054615063e+00 8.98387211692576e-02
1.29856666666667e-01 9.83174636183705e+00 8.91827898660567e-02
1.30943333333333e-01 9.71903918990252e+00 8.85285476405689e-02
1.32030000000000e-01 9.60762404729032e+00 8.78760784666976e-02
1.33116666666667e-01 9.49748612330654e+00 8.72254633734558e-02
1.34203333333333e-01 9.38861077583009e+00 8.65767803138556e-02
1.35290000000000e-01 9.28098353119881e+00 8.59301040329632e-02
1.36376666666667e-01 9.17459008223927e+00 8.52855065980435e-02
1.37463333333333e-01 9.06941628464807e+00 8.46430572688893e-02
1.38550000000000e-01 8.96544815683922e+00 8.40028223674806e-02
1.39636666666667e-01 8.86267187804219e+00 8.33648657797426e-02
1.40723333333333e-01 8.76107378484533e+00 8.27292488277577e-02
1.41810000000000e-01 8.66064037100917e+00 8.20960301414437e-02
1.42896666666667e-01 8.56135828563037e+00 8.14652661338615e-02
1.43983333333333e-01 8.46321432983864e+00 8.08370108756586e-02
1.45070000000000e-01 8.36619545658018e+00 8.02113159690825e-02
1.46156666666667e-01 8.27028876884524e+00 7.95882309985911e-02
1.47243333333333e-01 8.17548151651044e+00 7.89678034077983e-02
1.48330000000000e-01 8.08176109609627e+00 7.83500783760806e-02
1.49416666666667e-01 7.98911504905587e+00 7.77350992460755e-02
1.50503333333333e-01 7.89753105875545e+00 7.71229074033357e-02
1.51590000000000e-01 7.80699695020912e+00 7.65135421557209e-02
1.52676666666667e-01 7.71750068842684e+00 7.59070411392444e-02
1.53763333333333e-01 7.62903037552580e+00 7.53034402005942e-02
1.54850000000000e-01 7.54157425044581e+00 7.47027732794452e-02
1.55936666666667e-01 7.45512068735425e+00 7.41050727939820e-02
1.57023333333333e-01 7.36965819288188e+00 7.35103695264018e-02
1.58110000000000e-01 7.28517540582154e+00 7.29186925082508e-02
1.59196666666667e-01 7.20166109558812e+00 7.23300693868514e-02
1.60283333333333e-01 7.11910415957264e+00 7.17445263138567e-02
1.61370000000000e-01 7.03749362282677e+00 7.11620878336767e-02
1.62456666666667e-01 6.95681863657585e+00 7.05827772319421e-02
1.63543333333333e-01 6.87706847568547e+00 7.00066164271561e-02
1.64630000000000e-01 6.79823253833410e+00 6.94336258622464e-02
1.65716666666667e-01 6.72030034457727e+00 6.88638248361131e-02
1.66803333333333e-01 6.64326153392122e+00 6.82972313983914e-02
1.67890000000000e-01 6.56710586498559e+00 6.77338622441464e-02
1.68976666666667e-01 6.49182321411714e+00 6.71737330294776e-02
1.70063333333333e-01 6.41740357306516e+00 6.66168582693950e-02
1.71150000000000e-01 6.34383704863621e+00 6.60632512356441e-02
1.72236666666667e-01 6.27111386135549e+00 6.55129242572606e-02
1.73323333333333e-01 6.19922434323933e+00 6.49658886215490e-02
1.74410000000000e-01 6.12815893744354e+00 6.44221544750322e-02
1.75496666666667e-01 6.05790819697077e+00 6.38817311097735e-02
1.76583333333333e-01 5.98846278253557e+00 6.33446268674268e-02
1.77670000000000e-01 5.91981346220776e+00 6.28108490432774e-02
1.78756666666667e-01 5.85195111016429e+00 6.22804041591210e-02
1.79843333333333e-01 5.78486670464240e+00 6.17532978703472e-02
1.80930000000000e-01 5.71855132757952e+00 6.12295348730143e-02
1.82016666666667e-01 5.65299616340794e+00 6.07091191640207e-02
1.83103333333333e-01 5.58819249709210e+00 6.01920539511588e-02
1.84190000000000e-01 5.52413171376612e+00 5.96783415631856e-02
1.85276666666667e-01 5.46080529756989e+00 5.91679836979573e-02
1.86363333333333e-01 5.39820482976661e+00 5.86609813354060e-02
1.87450000000000e-01 5.33632198837901e+00 5.81573346505458e-02
1.88536666666667e-01 5.27514854706540e+00 5.76570432501934e-02
1.89623333333333e-01 5.21467637331383e+00 5.71601060888159e-02
1.90710000000000e-01 5.15489742807802e+00 5.66665213844109e-02
1.91796666666667e-01 5.09580376469194e+00 5.61762868444081e-02
1.92883333333333e-01 5.03738752713713e+00 5.56893995843164e-02
1.93970000000000e-01 4.97964094967916e+00 5.52058560464069e-02
1.95056666666667e-01 4.92255635581949e+00 5.47256522153572e-02
1.96143333333333e-01 4.86612615663267e+00 5.42487835396383e-02
1.97230000000000e-01 4.81034285040407e+00 5.37752448529299e-02
1.98316666666667e-01 4.75519902161772e+00 5.33050305800199e-02
1.99403333333333e-01 4.70068733936025e+00 5.28381346608596e-02
2.00490000000000e-01 4.64680055696071e+00 5.23745504746474e-02
2.01576666666667e-01 4.59353151101301e+00 5.19142710364747e-02
2.02663333333333e-01 4.54087311984375e+00 5.14572889239737e-02
2.03750000000000e-01 4.48881838315465e+00 5.10035962039964e-02
2.04836666666667e-01 4.43736038107847e+00 5.05531846204721e-02
2.05923333333333e-01 4.38649227270791e+00 5.01060455235785e-02
2.07010000000000e-01 4.33620729574117e+00 4.96621697989351e-02
2.08096666666667e-01 4.28649876557019e+00 4.92215480471097e-02
2.09183333333333e-01 4.23736007386801e+00 4.87841705152380e-02
2.10270000000000e-01 4.18878468823788e+00 4.83500270286616e-02
2.11356666666667e-01 4.14076615133278e+00 4.79191071624940e-02
2.12443333333333e-01 4.09329807949861e+00 4.74914001756117e-02
2.13530000000000e-01 4.04637416242737e+00 4.70668949446705e-02
2.14616666666667e-01 3.99998816230678e+00 4.66455801281098e-02
2.15703333333333e-01 3.95413391251702e+00 4.62274441024448e-02
2.16790000000000e-01 3.90880531728823e+00 4.58124748985906e-02
2.17876666666667e-01 3.86399635087932e+00 4.54006603586673e-02
2.18963333333333e-01 3.81970105632580e+00 4.49919880745268e-02
2.20050000000000e-01 3.77591354510212e+00 4.45864453263065e-02
2.21136666666667e-01 3.73262799632847e+00 4.41840192323813e-02
2.22223333333333e-01 3.68983865556772e+00 4.37846966900540e-02
2.23310000000000e-01 3.64753983449268e+00 4.33884643162707e-02
2.24396666666667e-01 3.60572591012011e+00 4.29953085910478e-02
2.25483333333333e-01 3.56439132365455e+00 4.26052158002519e-02
2.26570000000000e-01 3.52353058016085e+00 4.22181719784034e-02
2.27656666666667e-01 3.48313824782432e+00 4.18341630458920e-02
2.28743333333333e-01 3.44320895683964e+00 4.14531747537783e-02
2.29830000000000e-01 3.40373739908872e+00 4.10751926286215e-02
2.30916666666667e-01 3.36471832742622e+00 4.07002021037635e-02
2.32003333333333e-01 3.32614655461152e+00 4.03281884660908e-02
2.33090000000000e-01 3.28801695299218e+00 3.99591368028204e-02
2.34176666666667e-01 3.25032445381392e+00 3.95930321271333e-02
2.35263333333333e-01 3.21306404619386e+00 3.92298593268276e-02
2.36350000000000e-01 3.17623077680976e+00 3.88696031129906e-02
2.37436666666667e-01 3.13981974923351e+00 3.85122481402509e-02
2.38523333333333e-01 3.10382612294409e+00 3.81577789572573e-02
2.39610000000000e-01 3.06824511302253e+00 3.78061799571784e-02
2.40696666666667e-01 3.03307198950829e+00 3.74574354928139e-02
2.41783333333333e-01 2.99830207645009e+00 3.71115298288377e-02
2.42870000000000e-01 2.96393075160688e+00 3.67684470940658e-02
2.43956666666667e-01 2.92995344582617e+00 3.64281713916622e-02
2.45043333333333e-01 2.89636564213132e+00 3.60906867530884e-02
2.46130000000000e-01 2.86316287542846e+00 3.57559770920744e-02
2.47216666666667e-01 2.83034073190607e+00 3.54240263101429e-02
2.48303333333333e-01 2.79789484815722e+00 3.50948182522078e-02
2.49390000000000e-01 2.76582091089254e+00 3.47683366621901e-02
2.50476666666667e-01 2.73411465636027e+00 3.44445652840729e-02
2.51563333333333e-01 2.70277186950204e+00 3.41234878190906e-02
2.52650000000000e-01 2.67178838367191e+00 3.38050878829341e-02
2.53736666666667e-01 2.64116008007623e+00 3.34893491025393e-02
2.54823333333333e-01 2.61088288696156e+00 3.31762550748073e-02
2.55910000000000e-01 2.58095277933978e+00 3.28657893253430e-02
2.56996666666667e-01 2.55136577844713e+00 3.25579354011730e-02
2.58083333333333e-01 2.52211795096294e+00 3.22526768309453e-02
2.59170000000000e-01 2.49320540874084e+00 3.19499970851461e-02
2.60256666666667e-01 2.46462430828626e+00 3.16498796649202e-02
2.61343333333333e-01 2.43637085000480e+00 3.13523080637058e-02
2.62430000000000e-01 2.40844127793949e+00 3.10572657288789e-02
2.63516666666667e-01 2.38083187926611e+00 3.07647361468516e-02
2.64603333333333e-01 2.35353898357006e+00 3.04747028060844e-02
2.65690000000000e-01 2.32655896258957e+00 3.01871491601067e-02
2.66776666666667e-01 2.29988822972830e+00 2.99020587090653e-02
2.67863333333333e-01 2.27352323935951e+00 2.96194149640630e-02
2.68950000000000e-01 2.24746048657527e+00 2.93392014115080e-02
2.70036666666667e-01 2.22169650671566e+00 2.90614015912625e-02
2.71123333333333e-01 2.19622787469920e+00 2.87859990622650e-02
2.72210000000000e-01 2.17105120477800e+00 2.85129773681638e-02
2.73296666666667e-01 2.14616315008303e+00 2.82423201122115e-02
2.74383333333333e-01 2.12156040197971e+00 2.79740109241282e-02
2.75470000000000e-01 2.09723968982898e+00 2.77080334269690e-02
2.76556666666667e-01 2.07319778054808e+00 2.74443713089121e-02
2.77643333333333e-01 2.04943147799033e+00 2.71830082913148e-02
2.78730000000000e-01 2.02593762271200e+00 2.69239280967714e-02
2.79816666666667e-01 2.00271309154815e+00 2.66671145179345e-02
2.80903333333333e-01 1.97975479701557e+00 2.64125513867162e-02
2.81990000000000e-01 1.95705968708548e+00 2.61602225434961e-02
2.83076666666667e-01 1.93462474477376e+00 2.59101119031025e-02
2.84163333333333e-01 1.91244698756632e+00 2.56622034251212e-02
2.85250000000000e-01 1.89052346719738e+00 2.54164810842113e-02
2.86336666666667e-01 1.86885126925380e+00 2.51729289333681e-02
2.87423333333333e-01 1.84742751262176e+00 2.49315310753000e-02
2.88510000000000e-01 1.82624934927082e+00 2.46922716338135e-02
2.89596666666667e-01 1.80531396387156e+00 2.44551348144745e-02
2.90683333333333e-01 1.78461857326307e+00 2.42201048770167e-02
2.91770000000000e-01 1.76416042624235e+00 2.39871661077553e-02
2.92856666666667e-01 1.74393680319515e+00 2.37563028777574e-02
2.93943333333333e-01 1.72394501558317e+00 2.35274996162451e-02
2.95030000000000e-01 1.70418240573897e+00 2.33007407840027e-02
2.96116666666667e-01 1.68464634650933e+00 2.30760109291650e-02
2.97203333333333e-01 1.66533424076158e+00 2.28532946615765e-02
2.98290000000000e-01 1.64624352118376e+00 2.26325766271572e-02
2.99376666666667e-01 1.62737164994027e+00 2.24138415614088e-02
3.00463333333333e-01 1.60871611819637e+00 2.21970742646981e-02
3.01550000000000e-01 1.59027444592374e+00 2.19822595775442e-02
3.02636666666667e-01 1.57204418156773e+00 2.17693824319400e-02
3.03723333333333e-01 1.55402290158960e+00 2.15584278275287e-02
3.04810000000000e-01 1.53620821027714e+00 2.13493808077791e-02
3.05896666666667e-01 1.51859773942335e+00 2.11422265092166e-02
3.06983333333333e-01 1.50118914788554e+00 2.09369501384565e-02
3.08070000000000e-01 1.48398012140105e+00 2.07335369492366e-02
3.09156666666667e-01 1.46696837227686e+00 2.05319722896478e-02
3.10243333333333e-01 1.45015163896502e+00 2.03322415799917e-02
3.11330000000000e-01 1.43352768588327e+00 2.01343302906403e-02
3.12416666666667e-01 1.41709430311532e+00 1.99382239873496e-02
3.13503333333333e-01 1.40084930600182e+00 1.97439083099150e-02
3.14590000000000e-01 1.38479053496599e+00 1.95513689508257e-02
3.15676666666667e-01 1.36891585522397e+00 1.93605916987428e-02
3.16763333333333e-01 1.35322315639098e+00 1.91715624179223e-02
3.17850000000000e-01 1.33771035231163e+00 1.89842670276371e-02
3.18936666666667e-01 1.32237538078020e+00 1.87986915438963e-02
3.20023333333333e-01 1.30721620316124e+00 1.86148220596070e-02
3.21110000000000e-01 1.29223080422459e+00 1.84326447247377e-02
3.22196666666667e-01 1.27741719187515e+00 1.82521457863518e-02
3.23283333333333e-01 1.26277339678747e+00 1.80733115694823e-02
3.24370000000000e-01 1.24829747224526e+00 1.78961284580089e-02
3.25456666666667e-01 1.23398749388048e+00 1.77205829330759e-02
3.26543333333333e-01 1.21984155932122e+00 1.75466615546563e-02
3.27630000000000e-01 1.20585778803575e+00 1.73743509431148e-02
3.28716666666667e-01 1.19203432108048e+00 1.72036378160772e-02
3.29803333333333e-01 1.17836932076077e+00 1.70345089706576e-02
3.30890000000000e-01 1.16486097047929e+00 1.68669512656848e-02
3.31976666666667e-01 1.15150747449264e+00 1.67009516570898e-02
3.33063333333333e-01 1.13830705758447e+00 1.65364971807706e-02
3.34150000000000e-01 1.12525796491827e+00 1.63735749354552e-02
3.35236666666667e-01 1.11235846180211e+00 1.62121721166707e-02
3.36323333333333e-01 1.09960683337384e+00 1.60522760002220e-02
3.37410000000000e-01 1.08700138445794e+00 1.58938739256689e-02
3.38496666666667e-01 1.07454043933839e+00 1.57369533289365e-02
3.39583333333333e-01 1.06222234145527e+00 1.55815017263847e-02
3.40670000000000e-01 1.05004545326573e+00 1.54275066988793e-02
3.41756666666667e-01 1.03800815602457e+00 1.52749559230942e-02
3.42843333333333e-01 1.02610884949195e+00 1.51238371561550e-02
