Energy (eV)          EEDF (eV^-(3/2))     First Anisotropy
3.85416666666667e-02 3.20636486632929e-02 1.73621983569479e-05
1.15625000000000e-01 3.18337670417406e-02 2.86635103956709e-05
1.92708333333333e-01 3.16055335649067e-02 3.78220940426661e-05
2.69791666666667e-01 3.13789364180068e-02 4.47696114063523e-05
3.46875000000000e-01 3.11539638686936e-02 5.05553846659800e-05
4.23958333333333e-01 3.09306042687124e-02 5.55763178961222e-05
5.01041666666667e-01 3.07088460546146e-02 6.00378923089446e-05
5.78125000000000e-01 3.04886777450947e-02 6.40642408446699e-05
6.55208333333333e-01 3.02700879408933e-02 6.77377224871221e-05
7.32291666666667e-01 3.00530653252345e-02 7.11165692164997e-05
8.09375000000000e-01 2.98375986620531e-02 7.42439038796430e-05
8.86458333333333e-01 2.96236767956231e-02 7.71528076802954e-05
9.63541666666667e-01 2.94112886507274e-02 7.98693759965670e-05
1.04062500000000e+00 2.92004232318573e-02 8.24146647467216e-05
1.11770833333333e+00 2.89910696197689e-02 8.48059842911870e-05
1.19479166666667e+00 2.87832169775208e-02 8.70577922752678e-05
1.27187500000000e+00 2.85768545436994e-02 8.91823282319918e-05
1.34895833333333e+00 2.83719716325940e-02 9.11900743932755e-05
1.42604166666667e+00 2.81685576383205e-02 9.30901002485798e-05
1.50312500000000e+00 2.79666020293181e-02 9.48903240715071e-05
1.58020833333333e+00 2.77660943483078e-02 9.65977133694175e-05
1.65729166666667e+00 2.75670242156466e-02 9.82184431604129e-05
1.73437500000000e+00 2.73693813246995e-02 9.97580215960616e-05
1.81145833333333e+00 2.71731554416732e-02 1.01221389582117e-04
1.88854166666667e+00 2.69783364084042e-02 1.02613002825435e-04
1.96562500000000e+00 2.67849141383701e-02 1.03936899090321e-04
2.04270833333333e+00 2.65928786164480e-02 1.05196752649140e-04
2.11979166666667e+00 2.64022199012680e-02 1.06395920777087e-04
2.19687500000000e+00 2.62129281217149e-02 1.07537482809935e-04
2.27395833333333e+00 2.60249934766365e-02 1.08624272094258e-04
2.35104166666667e+00 2.58384062368575e-02 1.09658904210207e-04
2.42812500000000e+00 2.56531567420661e-02 1.10643801140407e-04
2.50520833333333e+00 2.54692354004911e-02 1.11581211068503e-04
2.58229166666667e+00 2.52866326906413e-02 1.12473226477413e-04
2.65937500000000e+00 2.51053391585045e-02 1.13321799890533e-04
2.73645833333333e+00 2.49253454172041e-02 1.14128756676340e-04
2.81354166666667e+00 2.47466421485133e-02 1.14895807188979e-04
2.89062500000000e+00 2.45692201003128e-02 1.15624557463920e-04
2.96770833333333e+00 2.43930700862333e-02 1.16316517784938e-04
3.04479166666667e+00 2.42181829869835e-02 1.16973111141995e-04
3.12187500000000e+00 2.40445497480245e-02 1.17595680763132e-04
3.19895833333333e+00 2.38721613792040e-02 1.18185496003080e-04
3.27604166666667e+00 2.37010089559267e-02 1.18743758429026e-04
3.35312500000000e+00 2.35310836170142e-02 1.19271607289987e-04
3.43020833333333e+00 2.33623765643339e-02 1.19770123651798e-04
3.50729166666667e+00 2.31948790638359e-02 1.20240334900514e-04
3.58437500000000e+00 2.30285824435723e-02 1.20683218821814e-04
3.66145833333333e+00 2.28634780933247e-02 1.21099706553057e-04
3.73854166666667e+00 2.26995574655249e-02 1.21490685998879e-04
3.81562500000000e+00 2.25368120734142e-02 1.21857004946465e-04
3.89270833333333e+00 2.23752334906707e-02 1.22199473199171e-04
3.96979166666667e+00 2.22148133522304e-02 1.22518865224279e-04
4.04687500000000e+00 2.20555433525689e-02 1.22815922582536e-04
4.12395833333333e+00 2.18974152453301e-02 1.23091355483036e-04
4.20104166666667e+00 2.17404208440602e-02 1.23345844876260e-04
4.27812500000000e+00 2.15845520205988e-02 1.23580044384879e-04
4.35520833333333e+00 2.14298007047096e-02 1.23794581441606e-04
4.43229166666667e+00 2.12761588847379e-02 1.23990058973168e-04
4.50937500000000e+00 2.11236186060994e-02 1.24167056961058e-04
4.58645833333333e+00 2.09721719709139e-02 1.24326133274001e-04
4.66354166666667e+00 2.08218111385959e-02 1.24467825044568e-04
4.74062500000000e+00 2.06725283244300e-02 1.24592649950409e-04
4.81770833333333e+00 2.05243157992099e-02 1.24701106819946e-04
4.89479166666667e+00 2.03771658897676e-02 1.24793676774131e-04
4.97187500000000e+00 2.02310709776296e-02 1.24870824293101e-04
5.04895833333333e+00 2.00860234986592e-02 1.24932997651411e-04
5.12604166666667e+00 1.99420159435329e-02 1.24980629877567e-04
5.20312500000000e+00 1.97990408564688e-02 1.25014139653502e-04
5.28020833333333e+00 1.96570908348731e-02 1.25033931620370e-04
5.35729166666667e+00 1.95161585297698e-02 1.25040397194706e-04
5.43437500000000e+00 1.93762366445939e-02 1.25033915335813e-04
5.51145833333333e+00 1.92373179348439e-02 1.25014852752429e-04
5.58854166666667e+00 1.90993952084682e-02 1.24983564604608e-04
5.66562500000000e+00 1.89624613247186e-02 1.24940395165462e-04
5.74270833333333e+00 1.88265091938087e-02 1.24885677951347e-04
5.81979166666667e+00 1.86915317772612e-02 1.24819736331580e-04
5.89687500000000e+00 1.85575220868175e-02 1.24742884104689e-04
5.97395833333333e+00 1.84244731841013e-02 1.24655425569227e-04
6.05104166666667e+00 1.82923781809312e-02 1.24557656058329e-04
6.12812500000000e+00 1.81612302382817e-02 1.24449862446021e-04
6.20520833333333e+00 1.80310225659521e-02 1.24332323171811e-04
6.28229166666667e+00 1.79017484228485e-02 1.24205308713264e-04
6.35937500000000e+00 1.77734011159916e-02 1.24069082034533e-04
6.43645833333333e+00 1.76459740001914e-02 1.23923898574816e-04
6.51354166666667e+00 1.75194604783011e-02 1.23770006669365e-04
6.59062500000000e+00 1.73938540002685e-02 1.23607647949828e-04
6.66770833333333e+00 1.72691480628175e-02 1.23437057304429e-04
6.74479166666667e+00 1.71453362096748e-02 1.23258463255690e-04
6.82187500000000e+00 1.70224120306634e-02 1.23072088320197e-04
6.89895833333333e+00 1.69003691613894e-02 1.22878148946680e-04
6.97604166666667e+00 1.67792012834456e-02 1.22676855857076e-04
7.05312500000000e+00 1.66589021235433e-02 1.22468414371862e-04
7.13020833333333e+00 1.65394654532045e-02 1.22253024330908e-04
7.20729166666667e+00 1.64208850889443e-02 1.22030880403233e-04
7.28437500000000e+00 1.63031548914390e-02 1.21802172382888e-04
7.36145833333333e+00 1.61862687652235e-02 1.21567085096449e-04
7.43854166666667e+00 1.60702206588549e-02 1.21325798685841e-04
7.51562500000000e+00 1.59550045641134e-02 1.21078488878862e-04
7.59270833333333e+00 1.58406145157061e-02 1.20825326886382e-04
7.66979166666667e+00 1.57270445914125e-02 1.20566479661854e-04
7.74687500000000e+00 1.56142889113171e-02 1.20302110149804e-04
7.82395833333333e+00 1.55023416375191e-02 1.20032377175236e-04
7.90104166666667e+00 1.53911969742612e-02 1.19757435682805e-04
7.97812500000000e+00 1.52808491671923e-02 1.19477436966079e-04
8.05520833333333e+00 1.51712925030829e-02 1.19192528551119e-04
8.13229166666667e+00 1.50625213099387e-02 1.18902854417799e-04
8.20937500000000e+00 1.49545299562916e-02 1.18608555212165e-04
8.28645833333333e+00 1.48473128509207e-02 1.18309768125840e-04
8.36354166666667e+00 1.47408644429520e-02 1.18006627101563e-04
8.44062500000000e+00 1.46351792211765e-02 1.17699263030607e-04
8.51770833333333e+00 1.45302517137759e-02 1.17387803629291e-04
8.59479166666667e+00 1.44260764884104e-02 1.17072373630514e-04
8.67187500000000e+00 1.43226481515619e-02 1.16753094967905e-04
8.74895833333333e+00 1.42199613482647e-02 1.16430086650482e-04
8.82604166666667e+00 1.41180107621824e-02 1.16103464941711e-04
8.90312500000000e+00 1.40167911149741e-02 1.15773343531793e-04
8.98020833333333e+00 1.39162971660315e-02 1.15439833411319e-04
9.05729166666667e+00 1.38165237125441e-02 1.15103043039153e-04
9.13437500000000e+00 1.37174655888891e-02 1.14763078504050e-04
9.21145833333333e+00 1.36191176663731e-02 1.14420043398018e-04
9.28854166666667e+00 1.35214748532876e-02 1.14074038974121e-04
9.36562500000000e+00 1.34245320943207e-02 1.13725164298487e-04
9.44270833333333e+00 1.33282843703035e-02 1.13373516123952e-04
9.51979166666667e+00 1.32327266982575e-02 1.13019189038719e-04
9.59687500000000e+00 1.31378541308257e-02 1.12662275609654e-04
9.67395833333333e+00 1.30436617560251e-02 1.12302866256680e-04
9.75104166666667e+00 1.29501446972851e-02 1.11941049393140e-04
9.82812500000000e+00 1.28572981128985e-02 1.11576911561178e-04
9.90520833333333e+00 1.27651171957789e-02 1.11210537307218e-04
9.98229166666667e+00 1.26735971734914e-02 1.10842009233701e-04
1.00593750000000e+01 1.25827333079916e-02 1.10471408533176e-04
1.01364583333333e+01 1.24925208940417e-02 1.10098814134310e-04
1.02135416666667e+01 1.24029552619277e-02 1.09724303151840e-04
1.02906250000000e+01 1.23140317745093e-02 1.09347951818035e-04
1.03677083333333e+01 1.22257458270478e-02 1.08969833909495e-04
1.04447916666667e+01 1.21380928495301e-02 1.08590021593925e-04
1.05218750000000e+01 1.20510683038415e-02 1.08208586246536e-04
1.05989583333333e+01 1.19646676835950e-02 1.07825596925538e-04
1.06760416666667e+01 1.18788865163507e-02 1.07441121189478e-04
1.07531250000000e+01 1.17937203609047e-02 1.07055225885633e-04
1.08302083333333e+01 1.17091648071202e-02 1.06667975672524e-04
1.09072916666667e+01 1.16252154780479e-02 1.06279433809194e-04
1.09843750000000e+01 1.15418680273252e-02 1.05889662916881e-04
1.10614583333333e+01 1.14591181390092e-02 1.05498723546907e-04
1.11385416666667e+01 1.13769615296032e-02 1.05106674943165e-04
1.12156250000000e+01 1.12953939455605e-02 1.04713575778283e-04
1.12927083333333e+01 1.12144111631192e-02 1.04319482765312e-04
1.13697916666667e+01 1.11340089902408e-02 1.03924451394610e-04
1.14468750000000e+01 1.10541832642124e-02 1.03528536645625e-04
1.15239583333333e+01 1.09749298514840e-02 1.03131791640850e-04
1.16010416666667e+01 1.08962446495226e-02 1.02734268358251e-04
1.16781250000000e+01 1.08181235845097e-02 1.02336018319676e-04
1.17552083333333e+01 1.07405626111797e-02 1.01937091285640e-04
1.18322916666667e+01 1.06635577145948e-02 1.01537535944332e-04
1.19093750000000e+01 1.05871049079324e-02 1.01137400577644e-04
1.19864583333333e+01 1.05112002323252e-02 1.00736731795379e-04
1.20635416666667e+01 1.04358397585609e-02 1.00335575201814e-04
1.21406250000000e+01 1.03610195849549e-02 9.99339760402763e-05
1.22177083333333e+01 1.02867358371926e-02 9.95319779654126e-05
1.22947916666667e+01 1.02129846699573e-02 9.91296236882429e-05
1.23718750000000e+01 1.01397622648841e-02 9.87269556001707e-05
1.24489583333333e+01 1.00670648304048e-02 9.83240145819860e-05
1.25260416666667e+01 9.99488860330740e-03 9.79208406282827e-05
1.26031250000000e+01 9.92322984676764e-03 9.75174734517165e-05
1.26802083333333e+01 9.85208485019598e-03 9.71139513275276e-05
1.27572916666667e+01 9.78144993073236e-03 9.67103116981316e-05
1.28343750000000e+01 9.71132143135186e-03 9.63065917584004e-05
1.29114583333333e+01 9.64169572071370e-03 9.59028273344752e-05
1.29885416666667e+01 9.57256919459453e-03 9.54990534693286e-05
1.30656250000000e+01 9.50393827406461e-03 9.50953049898051e-05
1.31427083333333e+01 9.43579940533904e-03 9.46916154185770e-05
1.32197916666667e+01 9.36814906115248e-03 9.42880175414062e-05
1.32968750000000e+01 9.30098373900262e-03 9.38845439566243e-05
1.33739583333333e+01 9.23429996100377e-03 9.34812260191481e-05
1.34510416666667e+01 9.16809427520566e-03 9.30780943901211e-05
1.35281250000000e+01 9.10236325390135e-03 9.26751795695069e-05
1.36052083333333e+01 9.03710349348302e-03 9.22725108710741e-05
1.36822916666667e+01 8.97231161570764e-03 9.18701169550976e-05
1.37593750000000e+01 8.90798426606638e-03 9.14680263446910e-05
1.38364583333333e+01 8.84411811364265e-03 9.10662664307274e-05
1.39135416666667e+01 8.78070985232714e-03 9.06648639882457e-05
1.39906250000000e+01 8.71775619924595e-03 9.02638456770924e-05
1.40677083333333e+01 8.65525389462103e-03 8.98632370758205e-05
1.41447916666667e+01 8.59319970293676e-03 8.94630631823734e-05
1.42218750000000e+01 8.53159041142448e-03 8.90633488996112e-05
1.42989583333333e+01 8.47042282992507e-03 8.86641180972445e-05
1.43760416666667e+01 8.40969379200954e-03 8.82653940973607e-05
1.44531250000000e+01 8.34940015351733e-03 8.78672001453878e-05
1.45302083333333e+01 8.28953879242123e-03 8.74695584991359e-05
1.46072916666667e+01 8.23010660990389e-03 8.70724908997077e-05
1.46843750000000e+01 8.17110052894775e-03 8.66760190284244e-05
1.47614583333333e+01 8.11251749420218e-03 8.62801636220797e-05
1.48385416666667e+01 8.05435447301802e-03 8.58849449297758e-05
1.49156250000000e+01 7.99660845408686e-03 8.54903831562814e-05
1.49927083333333e+01 7.93927644731048e-03 8.50964976026678e-05
1.50697916666667e+01 7.88235548479522e-03 8.47033071095629e-05
1.51468750000000e+01 7.82584261953862e-03 8.43108304874125e-05
1.52239583333333e+01 7.76973492530112e-03 8.39190856816916e-05
1.53010416666667e+01 7.71402949756200e-03 8.35280902030170e-05
1.53781250000000e+01 7.65872345225151e-03 8.31378615447835e-05
1.54552083333333e+01 7.60381392562475e-03 8.27484163721526e-05
1.55322916666667e+01 7.54929807518095e-03 8.23597709395003e-05
1.56093750000000e+01 7.49517307843915e-03 8.19719414958620e-05
1.56864583333333e+01 7.44143613281428e-03 8.15849434969188e-05
1.57635416666667e+01 7.38808445650136e-03 8.11987920102221e-05
1.58406250000000e+01 7.33511528729300e-03 8.08135021088401e-05
1.59177083333333e+01 7.28252588245763e-03 8.04290881056358e-05
1.59947916666667e+01 7.23031351959020e-03 8.00455639466932e-05
1.60718750000000e+01 7.17847549546973e-03 7.96629435935367e-05
1.61489583333333e+01 7.12700912593978e-03 7.92812402790181e-05
1.62260416666667e+01 7.07591174672697e-03 7.89004668893105e-05
1.63031250000000e+01 7.02518071233711e-03 7.85206363351114e-05
1.63802083333333e+01 6.97481339593777e-03 7.81417608284547e-05
1.64572916666667e+01 6.92480719014611e-03 7.77638522536434e-05
1.65343750000000e+01 6.87515950596196e-03 7.73869225278051e-05
1.66114583333333e+01 6.82586777265256e-03 7.70109828979703e-05
1.66885416666667e+01 6.77692943851093e-03 7.66360443013258e-05
1.67656250000000e+01 6.72834196982451e-03 7.62621177154591e-05
1.68427083333333e+01 6.68010285076201e-03 7.58892134750740e-05
1.69197916666667e+01 6.63220958410355e-03 7.55173416219124e-05
1.69968750000000e+01 6.58465969024352e-03 7.51465122450244e-05
1.70739583333333e+01 6.53745070707951e-03 7.47767348165199e-05
1.71510416666667e+01 6.49058019071538e-03 7.44080185314958e-05
1.72281250000000e+01 6.44404571449703e-03 7.40403726386512e-05
1.73052083333333e+01 6.39784486890335e-03 7.36738057944819e-05
1.73822916666667e+01 6.35197526222342e-03 7.33083263935411e-05
1.74593750000000e+01 6.30643451962389e-03 7.29439428897140e-05
1.75364583333333e+01 6.26122028304191e-03 7.25806631682908e-05
1.76135416666667e+01 6.21633021183755e-03 7.22184948668635e-05
1.76906250000000e+01 6.17176198189156e-03 7.18574456875574e-05
1.77677083333333e+01 6.12751328550034e-03 7.14975227864420e-05
1.78447916666667e+01 6.08358183200448e-03 7.11387330853709e-05
1.79218750000000e+01 6.03996534691586e-03 7.07810835754341e-05
1.79989583333333e+01 5.99666157181453e-03 7.04245807231945e-05
1.80760416666667e+01 5.95366826495448e-03 7.00692307737626e-05
1.81531250000000e+01 5.91098320041882e-03 6.97150400457512e-05
1.82302083333333e+01 5.86860416801868e-03 6.93620143538141e-05
1.83072916666667e+01 5.82652897387705e-03 6.90101593032229e-05
1.83843750000000e+01 5.78475543961103e-03 6.86594805766014e-05
1.84614583333333e+01 5.74328140223276e-03 6.83099833722822e-05
1.85385416666667e+01 5.70210471471209e-03 6.79616726906569e-05
1.86156250000000e+01 5.66122324518509e-03 6.76145536129267e-05
1.86927083333333e+01 5.62063487685676e-03 6.72686307548133e-05
1.87697916666667e+01 5.58033750854357e-03 6.69239085449325e-05
1.88468750000000e+01 5.54032905390712e-03 6.65803914958211e-05
1.89239583333333e+01 5.50060744135873e-03 6.62380836725274e-05
1.90010416666667e+01 5.46117061458255e-03 6.58969889632540e-05
1.90781250000000e+01 5.42201653179355e-03 6.55571113429150e-05
1.91552083333333e+01 5.38314316564386e-03 6.52184543561641e-05
1.92322916666667e+01 5.34454850372732e-03 6.48810213805372e-05
1.93093750000000e+01 5.30623054786080e-03 6.45448158827488e-05
1.93864583333333e+01 5.26818731399240e-03 6.42098409157546e-05
1.94635416666667e+01 5.23041683268806e-03 6.38760993746254e-05
1.95406250000000e+01 5.19291714843545e-03 6.35435942457973e-05
1.96177083333333e+01 5.15568631955396e-03 6.32123281177435e-05
1.96947916666667e+01 5.11872241866407e-03 6.28823034298118e-05
1.97718750000000e+01 5.08202353201304e-03 6.25535227146460e-05
1.98489583333333e+01 5.04558775938660e-03 6.22259881220605e-05
1.99260416666667e+01 5.00941321456183e-03 6.18997016610475e-05
2.00031250000000e+01 4.97349802465378e-03 6.15746654355926e-05
2.00802083333333e+01 4.93784033002893e-03 6.12508811813578e-05
2.01572916666667e+01 4.90243828474215e-03 6.09283505010649e-05
2.02343750000000e+01 4.86729005590359e-03 6.06070750938897e-05
2.03114583333333e+01 4.83239382359378e-03 6.02870563045896e-05
2.03885416666667e+01 4.79774778128536e-03 5.99682953524789e-05
2.04656250000000e+01 4.76335013522947e-03 5.96507935545734e-05
2.05427083333333e+01 4.72919910437253e-03 5.93345518868127e-05
2.06197916666667e+01 4.69529292076327e-03 5.90195712067972e-05
2.06968750000000e+01 4.66162982895797e-03 5.87058524708902e-05
2.07739583333333e+01 4.62820808593890e-03 5.83933963071779e-05
2.08510416666667e+01 4.59502596150717e-03 5.80822032321562e-05
2.09281250000000e+01 4.56208173770621e-03 5.77722738619698e-05
2.10052083333333e+01 4.52937370874180e-03 5.74636084967603e-05
2.10822916666667e+01 4.49690018136132e-03 5.71562073314922e-05
2.11593750000000e+01 4.46465947429482e-03 5.68500706614950e-05
2.12364583333333e+01 4.43264991817662e-03 5.65451984778845e-05
2.13135416666667e+01 4.40086985591146e-03 5.62415906726880e-05
2.13906250000000e+01 4.36931764213258e-03 5.59392472388650e-05
2.14677083333333e+01 4.33799164312482e-03 5.56381678764771e-05
2.15447916666667e+01 4.30689023717825e-03 5.53383521922779e-05
2.16218750000000e+01 4.27601181406256e-03 5.50397998943784e-05
2.16989583333333e+01 4.24535477495180e-03 5.47425104088597e-05
2.17760416666667e+01 4.21491753276571e-03 5.44464830740030e-05
2.18531250000000e+01 4.18469851166017e-03 5.41517173297280e-05
2.19302083333333e+01 4.15469614695323e-03 5.38582123443568e-05
2.20072916666667e+01 4.12490888545497e-03 5.35659672036467e-05
2.20843750000000e+01 4.09533518497305e-03 5.32749810951639e-05
2.21614583333333e+01 4.06597351424041e-03 5.29852529449080e-05
2.22385416666667e+01 4.03682235323372e-03 5.26967816012761e-05
2.23156250000000e+01 4.00788019269387e-03 5.24095660145317e-05
2.23927083333333e+01 3.97914553405501e-03 5.21236048830087e-05
2.24697916666667e+01 3.95061688975224e-03 5.18388968321598e-05
2.25468750000000e+01 3.92229278275635e-03 5.15554405892624e-05
2.26239583333333e+01 3.89417174650434e-03 5.12732346389238e-05
2.27010416666667e+01 3.86625232519664e-03 5.09922773973636e-05
2.27781250000000e+01 3.83853307334570e-03 5.07125673824804e-05
2.28552083333333e+01 3.81101255570790e-03 5.04341028784054e-05
2.29322916666667e+01 3.78368934757070e-03 5.01568821051534e-05
2.30093750000000e+01 3.75656203431465e-03 4.98809033841881e-05
2.30864583333333e+01 3.72962921134662e-03 4.96061648117656e-05
2.31635416666667e+01 3.70288948437733e-03 4.93326644240869e-05
2.32406250000000e+01 3.67634146899621e-03 4.90604003584887e-05
2.33177083333333e+01 3.64998379060607e-03 4.87893705353322e-05
2.33947916666667e+01 3.62381508469122e-03 4.85195728187868e-05
2.34718750000000e+01 3.59783399640491e-03 4.82510051737632e-05
2.35489583333333e+01 3.57203918050526e-03 4.79836653561199e-05
2.36260416666667e+01 3.54642930161441e-03 4.77175510691981e-05
2.37031250000000e+01 3.52100303381809e-03 4.74526601166213e-05
2.37802083333333e+01 3.49575906060283e-03 4.71889901005750e-05
2.38572916666667e+01 3.47069607510641e-03 4.69265385742209e-05
2.39343750000000e+01 3.44581277972920e-03 4.66653031904829e-05
2.40114583333333e+01 3.42110788607258e-03 4.64052814081791e-05
2.40885416666667e+01 3.39658011518109e-03 4.61464706404228e-05
2.41656250000000e+01 3.37222819716507e-03 4.58888683995065e-05
2.42427083333333e+01 3.34805087114033e-03 4.56324720106719e-05
2.43197916666667e+01 3.32404688546227e-03 4.53772787566131e-05
