Energy (eV)          EEDF (eV^-(3/2))     First Anisotropy
6.76515151515151e-05 2.70749567702093e+02 0.00000000000000e+00
2.02954545454545e-04 2.69336228881516e+02 0.00000000000000e+00
3.38257575757576e-04 2.67930267826580e+02 0.00000000000000e+00
4.73560606060606e-04 2.66531646023978e+02 0.00000000000000e+00
6.08863636363636e-04 2.65140325161979e+02 0.00000000000000e+00
7.44166666666667e-04 2.63756267128925e+02 0.00000000000000e+00
8.79469696969697e-04 2.62379434012131e+02 0.00000000000000e+00
1.01477272727273e-03 2.61009788096829e+02 0.00000000000000e+00
1.15007575757576e-03 2.59647291865127e+02 0.00000000000000e+00
1.28537878787879e-03 2.58291907994987e+02 0.00000000000000e+00
1.42068181818182e-03 2.56943599359192e+02 0.00000000000000e+00
1.55598484848485e-03 2.55602329024338e+02 0.00000000000000e+00
1.69128787878788e-03 2.54268060249813e+02 0.00000000000000e+00
1.82659090909091e-03 2.52940756486798e+02 0.00000000000000e+00
1.96189393939394e-03 2.51620381377262e+02 0.00000000000000e+00
2.09719696969697e-03 2.50306898752964e+02 0.00000000000000e+00
2.23250000000000e-03 2.49000272634469e+02 0.00000000000000e+00
2.36780303030303e-03 2.47700467230155e+02 0.00000000000000e+00
2.50310606060606e-03 2.46407446935237e+02 0.00000000000000e+00
2.63840909090909e-03 2.45121176330790e+02 0.00000000000000e+00
2.77371212121212e-03 2.43841620182780e+02 0.00000000000000e+00
2.90901515151515e-03 2.42568743441098e+02 0.00000000000000e+00
3.04431818181818e-03 2.41302511238598e+02 0.00000000000000e+00
3.17962121212121e-03 2.40042888890147e+02 0.00000000000000e+00
3.31492424242424e-03 2.38789841891669e+02 0.00000000000000e+00
3.45022727272727e-03 2.37543335919205e+02 0.00000000000000e+00
3.58553030303030e-03 2.36303336827968e+02 0.00000000000000e+00
3.72083333333333e-03 2.35069810651411e+02 0.00000000000000e+00
3.85613636363636e-03 2.33842723600298e+02 0.00000000000000e+00
3.99143939393939e-03 2.32622042061772e+02 0.00000000000000e+00
4.12674242424242e-03 2.31407732598441e+02 0.00000000000000e+00
4.26204545454545e-03 2.30199761947459e+02 0.00000000000000e+00
4.39734848484848e-03 2.28998097019615e+02 0.00000000000000e+00
4.53265151515151e-03 2.27802704898426e+02 0.00000000000000e+00
4.66795454545455e-03 2.26613552839239e+02 0.00000000000000e+00
4.80325757575758e-03 2.25430608268327e+02 0.00000000000000e+00
4.93856060606061e-03 2.24253838782005e+02 0.00000000000000e+00
5.07386363636364e-03 2.23083212145736e+02 0.00000000000000e+00
5.20916666666667e-03 2.21918696293251e+02 0.00000000000000e+00
5.34446969696970e-03 2.20760259325671e+02 0.00000000000000e+00
5.47977272727273e-03 2.19607869510630e+02 0.00000000000000e+00
5.61507575757576e-03 2.18461495281411e+02 0.00000000000000e+00
5.75037878787879e-03 2.17321105236075e+02 0.00000000000000e+00
5.88568181818182e-03 2.16186668136606e+02 0.00000000000000e+00
6.02098484848485e-03 2.15058152908055e+02 0.00000000000000e+00
6.15628787878788e-03 2.13935528637683e+02 0.00000000000000e+00
6.29159090909091e-03 2.12818764574123e+02 0.00000000000000e+00
6.42689393939394e-03 2.11707830126530e+02 0.00000000000000e+00
6.56219696969697e-03 2.10602694863747e+02 0.00000000000000e+00
6.69750000000000e-03 2.09503328513471e+02 0.00000000000000e+00
6.83280303030303e-03 2.08409700961423e+02 0.00000000000000e+00
6.96810606060606e-03 2.07321782250524e+02 0.00000000000000e+00
7.10340909090909e-03 2.06239542580074e+02 0.00000000000000e+00
7.23871212121212e-03 2.05162952304933e+02 0.00000000000000e+00
7.37401515151515e-03 2.04091981934715e+02 0.00000000000000e+00
7.50931818181818e-03 2.03026602132974e+02 0.00000000000000e+00
7.64462121212121e-03 2.01966783716404e+02 0.00000000000000e+00
7.77992424242424e-03 2.00912497654040e+02 0.00000000000000e+00
7.91522727272727e-03 1.99863715066460e+02 0.00000000000000e+00
8.05053030303030e-03 1.98820407224995e+02 0.00000000000000e+00
8.18583333333333e-03 1.97782545550943e+02 0.00000000000000e+00
8.32113636363636e-03 1.96750101614786e+02 0.00000000000000e+00
8.45643939393939e-03 1.95723047135409e+02 0.00000000000000e+00
8.59174242424242e-03 1.94701353979331e+02 0.00000000000000e+00
8.72704545454545e-03 1.93684994159926e+02 0.00000000000000e+00
8.86234848484849e-03 1.92673939836664e+02 0.00000000000000e+00
8.99765151515151e-03 1.91668163314344e+02 0.00000000000000e+00
9.13295454545454e-03 1.90667637042336e+02 0.00000000000000e+00
9.26825757575758e-03 1.89672333613829e+02 0.00000000000000e+00
9.40356060606061e-03 1.88682225765076e+02 0.00000000000000e+00
9.53886363636364e-03 1.87697286374651e+02 0.00000000000000e+00
9.67416666666667e-03 1.86717488462703e+02 0.00000000000000e+00
9.80946969696970e-03 1.85742805190219e+02 0.00000000000000e+00
9.94477272727273e-03 1.84773209858289e+02 0.00000000000000e+00
1.00800757575758e-02 1.83808675907373e+02 0.00000000000000e+00
1.02153787878788e-02 1.82849176916576e+02 0.00000000000000e+00
1.03506818181818e-02 1.81894686602919e+02 0.00000000000000e+00
1.04859848484848e-02 1.80945178820626e+02 0.00000000000000e+00
1.06212878787879e-02 1.80000627560404e+02 0.00000000000000e+00
1.07565909090909e-02 1.79061006948729e+02 0.00000000000000e+00
1.08918939393939e-02 1.78126291247142e+02 0.00000000000000e+00
1.10271969696970e-02 1.77196454851540e+02 0.00000000000000e+00
1.11625000000000e-02 1.76271472291475e+02 0.00000000000000e+00
1.12978030303030e-02 1.75351318229458e+02 0.00000000000000e+00
1.14331060606061e-02 1.74435967460264e+02 0.00000000000000e+00
1.15684090909091e-02 1.73525394910244e+02 0.00000000000000e+00
1.17037121212121e-02 1.72619575636631e+02 0.00000000000000e+00
1.18390151515152e-02 1.71718484826865e+02 0.00000000000000e+00
1.19743181818182e-02 1.70822097797911e+02 0.00000000000000e+00
1.21096212121212e-02 1.69930389995578e+02 0.00000000000000e+00
1.22449242424242e-02 1.69043336993854e+02 0.00000000000000e+00
1.23802272727273e-02 1.68160914494231e+02 0.00000000000000e+00
1.25155303030303e-02 1.67283098325041e+02 0.00000000000000e+00
1.26508333333333e-02 1.66409864440797e+02 0.00000000000000e+00
1.27861363636364e-02 1.65541188921530e+02 0.00000000000000e+00
1.29214393939394e-02 1.64677047972135e+02 0.00000000000000e+00
1.30567424242424e-02 1.63817417921721e+02 0.00000000000000e+00
1.31920454545455e-02 1.62962275222961e+02 0.00000000000000e+00
1.33273484848485e-02 1.62111596451447e+02 0.00000000000000e+00
1.34626515151515e-02 1.61265358305049e+02 0.00000000000000e+00
1.35979545454545e-02 1.60423537603277e+02 0.00000000000000e+00
1.37332575757576e-02 1.59586111286643e+02 0.00000000000000e+00
1.38685606060606e-02 1.58753056416034e+02 0.00000000000000e+00
1.40038636363636e-02 1.57924350172081e+02 0.00000000000000e+00
1.41391666666667e-02 1.57099969854534e+02 0.00000000000000e+00
1.42744696969697e-02 1.56279892881640e+02 0.00000000000000e+00
1.44097727272727e-02 1.55464096789526e+02 0.00000000000000e+00
1.45450757575758e-02 1.54652559231582e+02 0.00000000000000e+00
1.46803787878788e-02 1.53845257977850e+02 0.00000000000000e+00
1.48156818181818e-02 1.53042170914413e+02 0.00000000000000e+00
1.49509848484848e-02 1.52243276042792e+02 0.00000000000000e+00
1.50862878787879e-02 1.51448551479343e+02 0.00000000000000e+00
1.52215909090909e-02 1.50657975454654e+02 0.00000000000000e+00
1.53568939393939e-02 1.49871526312954e+02 0.00000000000000e+00
1.54921969696970e-02 1.49089182511517e+02 0.00000000000000e+00
1.56275000000000e-02 1.48310922620071e+02 0.00000000000000e+00
1.57628030303030e-02 1.47536725320212e+02 0.00000000000000e+00
1.58981060606061e-02 1.46766569404821e+02 0.00000000000000e+00
1.60334090909091e-02 1.46000433777482e+02 0.00000000000000e+00
1.61687121212121e-02 1.45238297451903e+02 0.00000000000000e+00
1.63040151515151e-02 1.44480139551346e+02 0.00000000000000e+00
1.64393181818182e-02 1.43725939308047e+02 0.00000000000000e+00
1.65746212121212e-02 1.42975676062656e+02 0.00000000000000e+00
1.67099242424242e-02 1.42229329263662e+02 0.00000000000000e+00
1.68452272727273e-02 1.41486878466841e+02 0.00000000000000e+00
1.69805303030303e-02 1.40748303334683e+02 0.00000000000000e+00
1.71158333333333e-02 1.40013583635848e+02 0.00000000000000e+00
1.72511363636364e-02 1.39282699244601e+02 0.00000000000000e+00
1.73864393939394e-02 1.38555630140267e+02 0.00000000000000e+00
1.75217424242424e-02 1.37832356406683e+02 0.00000000000000e+00
1.76570454545455e-02 1.37112858231645e+02 0.00000000000000e+00
1.77923484848485e-02 1.36397115906376e+02 0.00000000000000e+00
1.79276515151515e-02 1.35685109824978e+02 0.00000000000000e+00
1.80629545454545e-02 1.34976820483898e+02 0.00000000000000e+00
1.81982575757576e-02 1.34272228481393e+02 0.00000000000000e+00
1.83335606060606e-02 1.33571314517001e+02 0.00000000000000e+00
1.84688636363636e-02 1.32874059391008e+02 0.00000000000000e+00
1.86041666666667e-02 1.32180444003924e+02 0.00000000000000e+00
1.87394696969697e-02 1.31490449355964e+02 0.00000000000000e+00
1.88747727272727e-02 1.30804056546518e+02 0.00000000000000e+00
1.90100757575758e-02 1.30121246773645e+02 0.00000000000000e+00
1.91453787878788e-02 1.29442001333547e+02 0.00000000000000e+00
1.92806818181818e-02 1.28766301620064e+02 0.00000000000000e+00
1.94159848484848e-02 1.28094129124162e+02 0.00000000000000e+00
1.95512878787879e-02 1.27425465433425e+02 0.00000000000000e+00
1.96865909090909e-02 1.26760292231553e+02 0.00000000000000e+00
1.98218939393939e-02 1.26098591297857e+02 0.00000000000000e+00
1.99571969696970e-02 1.25440344506764e+02 0.00000000000000e+00
2.00925000000000e-02 1.24785533827315e+02 0.00000000000000e+00
2.02278030303030e-02 1.24134141322678e+02 0.00000000000000e+00
2.03631060606061e-02 1.23486149149650e+02 0.00000000000000e+00
2.04984090909091e-02 1.22841539558174e+02 0.00000000000000e+00
2.06337121212121e-02 1.22200294890847e+02 0.00000000000000e+00
2.07690151515151e-02 1.21562397582442e+02 0.00000000000000e+00
2.09043181818182e-02 1.20927830159422e+02 0.00000000000000e+00
2.10396212121212e-02 1.20296575239466e+02 0.00000000000000e+00
2.11749242424242e-02 1.19668615530988e+02 0.00000000000000e+00
2.13102272727273e-02 1.19043933832666e+02 0.00000000000000e+00
2.14455303030303e-02 1.18422513032973e+02 0.00000000000000e+00
2.15808333333333e-02 1.17804336109703e+02 0.00000000000000e+00
2.17161363636364e-02 1.17189386129509e+02 0.00000000000000e+00
2.18514393939394e-02 1.16577646247437e+02 0.00000000000000e+00
2.19867424242424e-02 1.15969099706467e+02 0.00000000000000e+00
2.21220454545455e-02 1.15363729837049e+02 0.00000000000000e+00
2.22573484848485e-02 1.14761520056652e+02 0.00000000000000e+00
2.23926515151515e-02 1.14162453869308e+02 0.00000000000000e+00
2.25279545454545e-02 1.13566514865157e+02 0.00000000000000e+00
2.26632575757576e-02 1.12973686720003e+02 0.00000000000000e+00
2.27985606060606e-02 1.12383953194861e+02 0.00000000000000e+00
2.29338636363636e-02 1.11797298135518e+02 0.00000000000000e+00
2.30691666666667e-02 1.11213705472086e+02 0.00000000000000e+00
2.32044696969697e-02 1.10633159218562e+02 0.00000000000000e+00
2.33397727272727e-02 1.10055643472393e+02 0.00000000000000e+00
2.34750757575758e-02 1.09481142414040e+02 0.00000000000000e+00
2.36103787878788e-02 1.08909640306542e+02 0.00000000000000e+00
2.37456818181818e-02 1.08341121495086e+02 0.00000000000000e+00
2.38809848484848e-02 1.07775570406579e+02 0.00000000000000e+00
2.40162878787879e-02 1.07212971549223e+02 0.00000000000000e+00
2.41515909090909e-02 1.06653309512086e+02 0.00000000000000e+00
2.42868939393939e-02 1.06096568964683e+02 0.00000000000000e+00
2.44221969696970e-02 1.05542734656558e+02 0.00000000000000e+00
2.45575000000000e-02 1.04991791416860e+02 0.00000000000000e+00
2.46928030303030e-02 1.04443724153935e+02 0.00000000000000e+00
2.48281060606061e-02 1.03898517854907e+02 0.00000000000000e+00
2.49634090909091e-02 1.03356157585268e+02 0.00000000000000e+00
2.50987121212121e-02 1.02816628488472e+02 0.00000000000000e+00
2.52340151515151e-02 1.02279915785522e+02 0.00000000000000e+00
2.53693181818182e-02 1.01746004774573e+02 0.00000000000000e+00
2.55046212121212e-02 1.01214880830521e+02 0.00000000000000e+00
2.56399242424242e-02 1.00686529404610e+02 0.00000000000000e+00
2.57752272727273e-02 1.00160936024027e+02 0.00000000000000e+00
2.59105303030303e-02 9.96380862915110e+01 0.00000000000000e+00
2.60458333333333e-02 9.91179658849540e+01 0.00000000000000e+00
2.61811363636364e-02 9.86005605570119e+01 0.00000000000000e+00
2.63164393939394e-02 9.80858561347128e+01 0.00000000000000e+00
2.64517424242424e-02 9.75738385190691e+01 0.00000000000000e+00
2.65870454545455e-02 9.70644936846914e+01 0.00000000000000e+00
2.67223484848485e-02 9.65578076794039e+01 0.00000000000000e+00
2.68576515151515e-02 9.60537666238629e+01 0.00000000000000e+00
2.69929545454545e-02 9.55523567111759e+01 0.00000000000000e+00
2.71282575757576e-02 9.50535642065238e+01 0.00000000000000e+00
2.72635606060606e-02 9.45573754467845e+01 0.00000000000000e+00
2.73988636363636e-02 9.40637768401589e+01 0.00000000000000e+00
2.75341666666667e-02 9.35727548657983e+01 0.00000000000000e+00
2.76694696969697e-02 9.30842960734340e+01 0.00000000000000e+00
2.78047727272727e-02 9.25983870830092e+01 0.00000000000000e+00
2.79400757575758e-02 9.21150145843121e+01 0.00000000000000e+00
2.80753787878788e-02 9.16341653366117e+01 0.00000000000000e+00
2.82106818181818e-02 9.11558261682948e+01 0.00000000000000e+00
2.83459848484848e-02 9.06799839765052e+01 0.00000000000000e+00
2.84812878787879e-02 9.02066257267849e+01 0.00000000000000e+00
2.86165909090909e-02 8.97357384527172e+01 0.00000000000000e+00
2.87518939393939e-02 8.92673092555712e+01 0.00000000000000e+00
2.88871969696970e-02 8.88013253039485e+01 0.00000000000000e+00
2.90225000000000e-02 8.83377738334321e+01 0.00000000000000e+00
2.91578030303030e-02 8.78766421462363e+01 0.00000000000000e+00
2.92931060606061e-02 8.74179176108591e+01 0.00000000000000e+00
2.94284090909091e-02 8.69615876617362e+01 0.00000000000000e+00
2.95637121212121e-02 8.65076397988968e+01 0.00000000000000e+00
2.96990151515151e-02 8.60560615876210e+01 0.00000000000000e+00
2.98343181818182e-02 8.56068406580994e+01 0.00000000000000e+00
2.99696212121212e-02 8.51599647050942e+01 0.00000000000000e+00
3.01049242424242e-02 8.47154214876023e+01 0.00000000000000e+00
3.02402272727273e-02 8.42731988285194e+01 0.00000000000000e+00
3.03755303030303e-02 8.38332846143073e+01 0.00000000000000e+00
3.05108333333333e-02 8.33956667946614e+01 0.00000000000000e+00
3.06461363636364e-02 8.29603333821809e+01 0.00000000000000e+00
3.07814393939394e-02 8.25272724520403e+01 0.00000000000000e+00
3.09167424242424e-02 8.20964721416631e+01 0.00000000000000e+00
3.10520454545455e-02 8.16679206503963e+01 0.00000000000000e+00
3.11873484848485e-02 8.12416062391875e+01 0.00000000000000e+00
3.13226515151515e-02 8.08175172302635e+01 0.00000000000000e+00
3.14579545454545e-02 8.03956420068099e+01 0.00000000000000e+00
3.15932575757576e-02 7.99759690126535e+01 0.00000000000000e+00
3.17285606060606e-02 7.95584867519451e+01 0.00000000000000e+00
3.18638636363636e-02 7.91431837888452e+01 0.00000000000000e+00
3.19991666666667e-02 7.87300487472104e+01 0.00000000000000e+00
3.21344696969697e-02 7.83190703102818e+01 0.00000000000000e+00
3.22697727272727e-02 7.79102372203753e+01 0.00000000000000e+00
3.24050757575758e-02 7.75035382785726e+01 0.00000000000000e+00
3.25403787878788e-02 7.70989623444152e+01 0.00000000000000e+00
3.26756818181818e-02 7.66964983355987e+01 0.00000000000000e+00
3.28109848484848e-02 7.62961352276695e+01 0.00000000000000e+00
3.29462878787879e-02 7.58978620537225e+01 0.00000000000000e+00
3.30815909090909e-02 7.55016679041010e+01 0.00000000000000e+00
3.32168939393939e-02 7.51075419260980e+01 0.00000000000000e+00
3.33521969696970e-02 7.47154733236583e+01 0.00000000000000e+00
3.34875000000000e-02 7.43254513570833e+01 0.00000000000000e+00
3.36228030303030e-02 7.39374653427367e+01 0.00000000000000e+00
3.37581060606061e-02 7.35515046527519e+01 0.00000000000000e+00
3.38934090909091e-02 7.31675587147406e+01 0.00000000000000e+00
3.40287121212121e-02 7.27856170115035e+01 0.00000000000000e+00
3.41640151515151e-02 7.24056690807419e+01 0.00000000000000e+00
3.42993181818182e-02 7.20277045147716e+01 0.00000000000000e+00
3.44346212121212e-02 7.16517129602373e+01 0.00000000000000e+00
3.45699242424242e-02 7.12776841178294e+01 0.00000000000000e+00
3.47052272727273e-02 7.09056077420015e+01 0.00000000000000e+00
3.48405303030303e-02 7.05354736406899e+01 0.00000000000000e+00
3.49758333333333e-02 7.01672716750346e+01 0.00000000000000e+00
3.51111363636364e-02 6.98009917591016e+01 0.00000000000000e+00
3.52464393939394e-02 6.94366238596060e+01 0.00000000000000e+00
3.53817424242424e-02 6.90741579956379e+01 0.00000000000000e+00
3.55170454545455e-02 6.87135842383888e+01 0.00000000000000e+00
3.56523484848485e-02 6.83548927108792e+01 0.00000000000000e+00
3.57876515151515e-02 6.79980735876887e+01 0.00000000000000e+00
3.59229545454545e-02 6.76431170946864e+01 0.00000000000000e+00
3.60582575757576e-02 6.72900135087633e+01 0.00000000000000e+00
3.61935606060606e-02 6.69387531575661e+01 0.00000000000000e+00
3.63288636363636e-02 6.65893264192319e+01 0.00000000000000e+00
3.64641666666667e-02 6.62417237221250e+01 0.00000000000000e+00
3.65994696969697e-02 6.58959355445745e+01 0.00000000000000e+00
3.67347727272727e-02 6.55519524146135e+01 0.00000000000000e+00
3.68700757575758e-02 6.52097649097199e+01 0.00000000000000e+00
3.70053787878788e-02 6.48693636565578e+01 0.00000000000000e+00
3.71406818181818e-02 6.45307393307211e+01 0.00000000000000e+00
3.72759848484848e-02 6.41938826564782e+01 0.00000000000000e+00
3.74112878787879e-02 6.38587844065174e+01 0.00000000000000e+00
3.75465909090909e-02 6.35254354016946e+01 0.00000000000000e+00
3.76818939393939e-02 6.31938265107817e+01 0.00000000000000e+00
3.78171969696970e-02 6.28639486502165e+01 0.00000000000000e+00
3.79525000000000e-02 6.25357927838540e+01 0.00000000000000e+00
3.80878030303030e-02 6.22093499227185e+01 0.00000000000000e+00
3.82231060606061e-02 6.18846111247577e+01 0.00000000000000e+00
3.83584090909091e-02 6.15615674945978e+01 0.00000000000000e+00
3.84937121212121e-02 6.12402101832996e+01 0.00000000000000e+00
3.86290151515152e-02 6.09205303881161e+01 0.00000000000000e+00
3.87643181818182e-02 6.06025193522518e+01 0.00000000000000e+00
3.88996212121212e-02 6.02861683646222e+01 0.00000000000000e+00
3.90349242424242e-02 5.99714687596158e+01 0.00000000000000e+00
3.91702272727273e-02 5.96584119168561e+01 0.00000000000000e+00
3.93055303030303e-02 5.93469892609660e+01 0.00000000000000e+00
3.94408333333333e-02 5.90371922613327e+01 0.00000000000000e+00
3.95761363636364e-02 5.87290124318739e+01 0.00000000000000e+00
3.97114393939394e-02 5.84224413308057e+01 0.00000000000000e+00
3.98467424242424e-02 5.81174705604107e+01 0.00000000000000e+00
3.99820454545455e-02 5.78140917668089e+01 0.00000000000000e+00
4.01173484848485e-02 5.75122966397280e+01 0.00000000000000e+00
4.02526515151515e-02 5.72120769122763e+01 0.00000000000000e+00
4.03879545454545e-02 5.69134243607160e+01 0.00000000000000e+00
4.05232575757576e-02 5.66163308042379e+01 0.00000000000000e+00
4.06585606060606e-02 5.63207881047376e+01 0.00000000000000e+00
4.07938636363636e-02 5.60267881665924e+01 0.00000000000000e+00
4.09291666666667e-02 5.57343229364393e+01 0.00000000000000e+00
4.10644696969697e-02 5.54433844029548e+01 0.00000000000000e+00
4.11997727272727e-02 5.51539645966353e+01 0.00000000000000e+00
4.13350757575758e-02 5.48660555895788e+01 0.00000000000000e+00
4.14703787878788e-02 5.45796494952675e+01 0.00000000000000e+00
4.16056818181818e-02 5.42947384683522e+01 0.00000000000000e+00
4.17409848484848e-02 5.40113147044371e+01 0.00000000000000e+00
4.18762878787879e-02 5.37293704398661e+01 0.00000000000000e+00
4.20115909090909e-02 5.34488979515101e+01 0.00000000000000e+00
4.21468939393939e-02 5.31698895565556e+01 0.00000000000000e+00
4.22821969696970e-02 5.28923376122939e+01 0.00000000000000e+00
4.24175000000000e-02 5.26162345159123e+01 0.00000000000000e+00
4.25528030303030e-02 5.23415727042852e+01 0.00000000000000e+00
4.26881060606061e-02 5.20683446537673e+01 0.00000000000000e+00
