Energy (eV)          EEDF (eV^-(3/2))     First Anisotropy
2.65740740740741e-02 4.70199051319268e-02 2.40171339979698e-05
7.97222222222222e-02 4.67198494380298e-02 3.96659221184503e-05
1.32870370370370e-01 4.64217085383916e-02 5.23815495007752e-05
1.86018518518518e-01 4.61254702133705e-02 6.20527010052360e-05
2.39166666666667e-01 4.58311223203421e-02 7.01276648763718e-05
2.92314814814815e-01 4.55386527972965e-02 7.71536224929236e-05
3.45462962962963e-01 4.52480496573474e-02 8.34135457289331e-05
3.98611111111111e-01 4.49593009901645e-02 8.90781978708128e-05
4.51759259259259e-01 4.46723949614480e-02 9.42607566866186e-05
5.04907407407407e-01 4.43873198124531e-02 9.90411608453630e-05
5.58055555555556e-01 4.41040638594780e-02 1.03478546022661e-04
6.11203703703704e-01 4.38226154929116e-02 1.07618230402071e-04
6.64351851851852e-01 4.35429631782257e-02 1.11495925376287e-04
7.17500000000000e-01 4.32650954539704e-02 1.15140415978642e-04
7.70648148148148e-01 4.29890009318365e-02 1.18575343068099e-04
8.23796296296296e-01 4.27146682961929e-02 1.21820431693289e-04
8.76944444444444e-01 4.24420863036233e-02 1.24892363305100e-04
9.30092592592593e-01 4.21712437821640e-02 1.27805410851774e-04
9.83240740740741e-01 4.19021296317634e-02 1.30571911507107e-04
1.03638888888889e+00 4.16347328241523e-02 1.33202625950006e-04
1.08953703703704e+00 4.13690423983487e-02 1.35707014478904e-04
1.14268518518519e+00 4.11050474651958e-02 1.38093453319004e-04
1.19583333333333e+00 4.08427372050074e-02 1.40369407021872e-04
1.24898148148148e+00 4.05821008671347e-02 1.42541566117207e-04
1.30212962962963e+00 4.03231277695469e-02 1.44615958702250e-04
1.35527777777778e+00 4.00658073003163e-02 1.46598042894539e-04
1.40842592592593e+00 3.98101289112805e-02 1.48492781998979e-04
1.46157407407407e+00 3.95560821235988e-02 1.50304707042389e-04
1.51472222222222e+00 3.93036565252810e-02 1.52037970559301e-04
1.56787037037037e+00 3.90528417707969e-02 1.53696390822857e-04
1.62101851851852e+00 3.88036275821917e-02 1.55283490635184e-04
1.67416666666667e+00 3.85560037439328e-02 1.56802529403414e-04
1.72731481481481e+00 3.83099601072827e-02 1.58256530666873e-04
1.78046296296296e+00 3.80654865882590e-02 1.59648307055607e-04
1.83361111111111e+00 3.78225731672313e-02 1.60980481087658e-04
1.88675925925926e+00 3.75812098885128e-02 1.62255503328423e-04
1.93990740740741e+00 3.73413868612013e-02 1.63475669126570e-04
1.99305555555556e+00 3.71030942549695e-02 1.64643132351519e-04
2.04620370370370e+00 3.68663223035078e-02 1.65759917475339e-04
2.09935185185185e+00 3.66310613028244e-02 1.66827931309914e-04
2.15250000000000e+00 3.63973016108591e-02 1.67848972461730e-04
2.20564814814815e+00 3.61650336481444e-02 1.68824740709250e-04
2.25879629629630e+00 3.59342478941911e-02 1.69756844489631e-04
2.31194444444444e+00 3.57049348903534e-02 1.70646807577172e-04
2.36509259259259e+00 3.54770852383393e-02 1.71496076027716e-04
2.41824074074074e+00 3.52506895998355e-02 1.72306023544736e-04
2.47138888888889e+00 3.50257386970365e-02 1.73077957195412e-04
2.52453703703704e+00 3.48022233094915e-02 1.73813121762622e-04
2.57768518518519e+00 3.45801342765252e-02 1.74512703665097e-04
2.63083333333333e+00 3.43594624959180e-02 1.75177835384728e-04
2.68398148148148e+00 3.41401989235346e-02 1.75809598838102e-04
2.73712962962963e+00 3.39223345729571e-02 1.76409028467090e-04
2.79027777777778e+00 3.37058605158950e-02 1.76977114691272e-04
2.84342592592593e+00 3.34907678794542e-02 1.77514806318330e-04
2.89657407407407e+00 3.32770478481599e-02 1.78023012732995e-04
2.94972222222222e+00 3.30646916627889e-02 1.78502606692625e-04
3.00287037037037e+00 3.28536906200179e-02 1.78954426151035e-04
3.05601851851852e+00 3.26440360727525e-02 1.79379276669895e-04
3.10916666666667e+00 3.24357194276879e-02 1.79777932946049e-04
3.16231481481481e+00 3.22287321470594e-02 1.80151140203682e-04
3.21546296296296e+00 3.20230657475832e-02 1.80499616208991e-04
3.26861111111111e+00 3.18187118001121e-02 1.80824052575861e-04
3.32175925925926e+00 3.16156619292900e-02 1.81125115987839e-04
3.37490740740741e+00 3.14139078138086e-02 1.81403449864007e-04
3.42805555555556e+00 3.12134411842486e-02 1.81659675265971e-04
3.48120370370370e+00 3.10142538245730e-02 1.81894391724828e-04
3.53435185185185e+00 3.08163375711734e-02 1.82108178679176e-04
3.58750000000000e+00 3.06196843125392e-02 1.82301596175370e-04
3.64064814814815e+00 3.04242859894610e-02 1.82475186145166e-04
3.69379629629630e+00 3.02301345930731e-02 1.82629472999543e-04
3.74694444444444e+00 3.00372221661654e-02 1.82764964169325e-04
3.80009259259259e+00 2.98455408023047e-02 1.82882151232997e-04
3.85324074074074e+00 2.96550826455136e-02 1.82981510374389e-04
3.90638888888889e+00 2.94658398904323e-02 1.83063503394770e-04
3.95953703703704e+00 2.92778047805329e-02 1.83128578101236e-04
4.01268518518518e+00 2.90909696092783e-02 1.83177168657806e-04
4.06583333333333e+00 2.89053267193095e-02 1.83209696496961e-04
4.11898148148148e+00 2.87208685021321e-02 1.83226570724033e-04
4.17212962962963e+00 2.85375873978060e-02 1.83228188505860e-04
4.22527777777778e+00 2.83554758950666e-02 1.83214935865179e-04
4.27842592592593e+00 2.81745265297110e-02 1.83187187907668e-04
4.33157407407407e+00 2.79947318856079e-02 1.83145309024271e-04
4.38472222222222e+00 2.78160845939498e-02 1.83089653620879e-04
4.43787037037037e+00 2.76385773329546e-02 1.83020566286123e-04
4.49101851851852e+00 2.74622028279569e-02 1.82938382457086e-04
4.54416666666667e+00 2.72869538499219e-02 1.82843428557931e-04
4.59731481481481e+00 2.71128232163459e-02 1.82736022120244e-04
4.65046296296296e+00 2.69398037905589e-02 1.82616472403064e-04
4.70361111111111e+00 2.67678884814339e-02 1.82485080584352e-04
4.75675925925926e+00 2.65970702430955e-02 1.82342139949048e-04
4.80990740740741e+00 2.64273420749853e-02 1.82187936441261e-04
4.86305555555556e+00 2.62586970205061e-02 1.82022748730798e-04
4.91620370370370e+00 2.60911281678123e-02 1.81846848266254e-04
4.96935185185185e+00 2.59246286491656e-02 1.81660499796995e-04
5.02250000000000e+00 2.57591916406546e-02 1.81463961411496e-04
5.07564814814815e+00 2.55948103622381e-02 1.81257485018311e-04
5.12879629629630e+00 2.54314780764892e-02 1.81041316371687e-04
5.18194444444444e+00 2.52691880893040e-02 1.80815695087007e-04
5.23509259259259e+00 2.51079337492961e-02 1.80580855099627e-04
5.28824074074074e+00 2.49477084475248e-02 1.80337024669921e-04
5.34138888888889e+00 2.47885056175225e-02 1.80084426807563e-04
5.39453703703704e+00 2.46303187341254e-02 1.79823279268246e-04
5.44768518518519e+00 2.44731413141115e-02 1.79553794542082e-04
5.50083333333333e+00 2.43169669156309e-02 1.79276180261928e-04
5.55398148148148e+00 2.41617891379420e-02 1.78990639263474e-04
5.60712962962963e+00 2.40076016211497e-02 1.78697369647804e-04
5.66027777777778e+00 2.38543980462150e-02 1.78396565152145e-04
5.71342592592593e+00 2.37021721338785e-02 1.78088415122004e-04
5.76657407407407e+00 2.35509176452258e-02 1.77773104477041e-04
5.81972222222222e+00 2.34006283811555e-02 1.77450814070714e-04
5.87287037037037e+00 2.32512981821259e-02 1.77121720651906e-04
5.92601851851852e+00 2.31029209281524e-02 1.76785997199568e-04
5.97916666666667e+00 2.29554905378013e-02 1.76443812881028e-04
6.03231481481481e+00 2.28090009687005e-02 1.76095333005127e-04
6.08546296296296e+00 2.26634462170371e-02 1.75740719348683e-04
6.13861111111111e+00 2.25188203173109e-02 1.75380130176798e-04
6.19175925925926e+00 2.23751173420909e-02 1.75013720266802e-04
6.24490740740741e+00 2.22323314020001e-02 1.74641641207081e-04
6.29805555555556e+00 2.20904566447843e-02 1.74264041343958e-04
6.35120370370370e+00 2.19494872557666e-02 1.73881065724156e-04
6.40435185185185e+00 2.18094174573758e-02 1.73492856388249e-04
6.45750000000000e+00 2.16702415089107e-02 1.73099552312047e-04
6.51064814814815e+00 2.15319537065159e-02 1.72701289680473e-04
6.56379629629630e+00 2.13945483823084e-02 1.72298201828214e-04
6.61694444444444e+00 2.12580199047891e-02 1.71890419176650e-04
6.67009259259259e+00 2.11223626783956e-02 1.71478069503770e-04
6.72324074074074e+00 2.09875711432738e-02 1.71061277880657e-04
6.77638888888889e+00 2.08536397752469e-02 1.70640166923731e-04
6.82953703703704e+00 2.07205630849934e-02 1.70214856731338e-04
6.88268518518518e+00 2.05883356184215e-02 1.69785464817026e-04
6.93583333333333e+00 2.04569519562442e-02 1.69352106359108e-04
6.98898148148148e+00 2.03264067137572e-02 1.68914894193142e-04
7.04212962962963e+00 2.01966945406190e-02 1.68473938808287e-04
7.09527777777778e+00 2.00678101208123e-02 1.68029348577516e-04
7.14842592592593e+00 1.99397481718788e-02 1.67581229690995e-04
7.20157407407407e+00 1.98125034452536e-02 1.67129686086737e-04
7.25472222222222e+00 1.96860707258648e-02 1.66674819679027e-04
7.30787037037037e+00 1.95604448319207e-02 1.66216730289729e-04
7.36101851851852e+00 1.94356206148664e-02 1.65755515862377e-04
7.41416666666667e+00 1.93115929586615e-02 1.65291272394303e-04
7.46731481481481e+00 1.91883567800850e-02 1.64824093866460e-04
7.52046296296296e+00 1.90659070283537e-02 1.64354072456381e-04
7.57361111111111e+00 1.89442386849160e-02 1.63881298521725e-04
7.62675925925926e+00 1.88233467632461e-02 1.63405860587699e-04
7.67990740740741e+00 1.87032263087958e-02 1.62927845544185e-04
7.73305555555556e+00 1.85838723983198e-02 1.62447338577377e-04
7.78620370370370e+00 1.84652801401482e-02 1.61964423099291e-04
7.83935185185185e+00 1.83474446738271e-02 1.61479180944493e-04
7.89250000000000e+00 1.82303611699193e-02 1.60991692300792e-04
7.94564814814815e+00 1.81140248299530e-02 1.60502035893839e-04
7.99879629629630e+00 1.79984308857834e-02 1.60010288919143e-04
8.05194444444444e+00 1.78835745998414e-02 1.59516526972191e-04
8.10509259259259e+00 1.77694512647902e-02 1.59020824232890e-04
8.15824074074074e+00 1.76560562033328e-02 1.58523253396915e-04
8.21138888888889e+00 1.75433847681571e-02 1.58023885848897e-04
8.26453703703704e+00 1.74314323413326e-02 1.57522791595297e-04
8.31768518518519e+00 1.73201943345360e-02 1.57020039195481e-04
8.37083333333333e+00 1.72096661887243e-02 1.56515695935111e-04
8.42398148148148e+00 1.70998433739477e-02 1.56009827803854e-04
8.47712962962963e+00 1.69907213891644e-02 1.55502499476524e-04
8.53027777777778e+00 1.68822957621824e-02 1.54993774474120e-04
8.58342592592593e+00 1.67745620490939e-02 1.54483715097906e-04
8.63657407407407e+00 1.66675158344779e-02 1.53972382361970e-04
8.68972222222222e+00 1.65611527310901e-02 1.53459836154662e-04
8.74287037037037e+00 1.64554683796832e-02 1.52946135172542e-04
8.79601851851852e+00 1.63504584489476e-02 1.52431337072200e-04
8.84916666666667e+00 1.62461186349743e-02 1.51915498405755e-04
8.90231481481482e+00 1.61424446614397e-02 1.51398674554928e-04
8.95546296296296e+00 1.60394322793094e-02 1.50880919883401e-04
9.00861111111111e+00 1.59370772666640e-02 1.50362287713176e-04
9.06175925925926e+00 1.58353754285264e-02 1.49842830304068e-04
9.11490740740741e+00 1.57343225968000e-02 1.49322598995470e-04
9.16805555555555e+00 1.56339146297642e-02 1.48801644143672e-04
9.22120370370370e+00 1.55341474122408e-02 1.48280015057804e-04
9.27435185185185e+00 1.54350168553118e-02 1.47757760142376e-04
9.32750000000000e+00 1.53365188961531e-02 1.47234926834738e-04
9.38064814814815e+00 1.52386494979710e-02 1.46711561739181e-04
9.43379629629630e+00 1.51414046495236e-02 1.46187710565951e-04
9.48694444444444e+00 1.50447803652714e-02 1.45663418069018e-04
9.54009259259259e+00 1.49487726851086e-02 1.45138728180950e-04
9.59324074074074e+00 1.48533776742005e-02 1.44613683952153e-04
9.64638888888889e+00 1.47585914229205e-02 1.44088327677826e-04
9.69953703703704e+00 1.46644100463942e-02 1.43562700838758e-04
9.75268518518518e+00 1.45708296846375e-02 1.43036844040946e-04
9.80583333333333e+00 1.44778465022982e-02 1.42510797143439e-04
9.85898148148148e+00 1.43854566884996e-02 1.41984599234633e-04
9.91212962962963e+00 1.42936564566837e-02 1.41458288611277e-04
9.96527777777778e+00 1.42024420445478e-02 1.40931902897677e-04
1.00184259259259e+01 1.41118097136146e-02 1.40405478988538e-04
1.00715740740741e+01 1.40217557493560e-02 1.39879052821282e-04
1.01247222222222e+01 1.39322764613864e-02 1.39352660175157e-04
1.01778703703704e+01 1.38433681815546e-02 1.38826335632839e-04
1.02310185185185e+01 1.37550272668621e-02 1.38300113253513e-04
1.02841666666667e+01 1.36672500958333e-02 1.37774026450155e-04
1.03373148148148e+01 1.35800330718081e-02 1.37248107960658e-04
1.03904629629630e+01 1.34933726193924e-02 1.36722389899745e-04
1.04436111111111e+01 1.34072651876754e-02 1.36196903730351e-04
1.04967592592593e+01 1.33217072467575e-02 1.35671680314321e-04
1.05499074074074e+01 1.32366952908959e-02 1.35146749884104e-04
1.06030555555556e+01 1.31522258351066e-02 1.34622142092267e-04
1.06562037037037e+01 1.30682954182399e-02 1.34097885983491e-04
1.07093518518519e+01 1.29849005996560e-02 1.33574010042962e-04
1.07625000000000e+01 1.29020379622312e-02 1.33050542168641e-04
1.08156481481481e+01 1.28197041091054e-02 1.32527509718579e-04
1.08687962962963e+01 1.27378956666212e-02 1.32004939483478e-04
1.09219444444444e+01 1.26566092811410e-02 1.31482857732932e-04
1.09750925925926e+01 1.25758416219208e-02 1.30961290188331e-04
1.10282407407407e+01 1.24955893779954e-02 1.30440262068059e-04
1.10813888888889e+01 1.24158492609885e-02 1.29919798060659e-04
1.11345370370370e+01 1.23366180020644e-02 1.29399922369071e-04
1.11876851851852e+01 1.22578923546753e-02 1.28880658684150e-04
1.12408333333333e+01 1.21796690915790e-02 1.28362030227849e-04
1.12939814814815e+01 1.21019450075246e-02 1.27844059727094e-04
1.13471296296296e+01 1.20247169163335e-02 1.27326769456050e-04
1.14002777777778e+01 1.19479816535267e-02 1.26810181210242e-04
1.14534259259259e+01 1.18717360734667e-02 1.26294316347947e-04
1.15065740740741e+01 1.17959770519277e-02 1.25779195496810e-04
1.15597222222222e+01 1.17207014839463e-02 1.25264839667441e-04
1.16128703703704e+01 1.16459062837361e-02 1.24751268623779e-04
1.16660185185185e+01 1.15715883864889e-02 1.24238501967560e-04
1.17191666666667e+01 1.14977447456817e-02 1.23726558899423e-04
1.17723148148148e+01 1.14243723354921e-02 1.23215458194458e-04
1.18254629629630e+01 1.13514681481609e-02 1.22705218240288e-04
1.18786111111111e+01 1.12790291963553e-02 1.22195857012880e-04
1.19317592592593e+01 1.12070525105868e-02 1.21687392113867e-04
1.19849074074074e+01 1.11355351415230e-02 1.21179840746674e-04
1.20380555555556e+01 1.10644741574588e-02 1.20673219753004e-04
1.20912037037037e+01 1.09938666465786e-02 1.20167545589310e-04
1.21443518518519e+01 1.09237097144801e-02 1.19662834362538e-04
1.21975000000000e+01 1.08540004863877e-02 1.19159101806875e-04
1.22506481481481e+01 1.07847361047267e-02 1.18656363318758e-04
1.23037962962963e+01 1.07159137312904e-02 1.18154633933937e-04
1.23569444444444e+01 1.06475305448634e-02 1.17653928361778e-04
1.24100925925926e+01 1.05795837433427e-02 1.17154260962603e-04
1.24632407407407e+01 1.05120705414093e-02 1.16655645781296e-04
1.25163888888889e+01 1.04449881726048e-02 1.16158096524955e-04
1.25695370370370e+01 1.03783338870500e-02 1.15661626595819e-04
1.26226851851852e+01 1.03121049534774e-02 1.15166249069205e-04
1.26758333333333e+01 1.02462986569968e-02 1.14671976725779e-04
1.27289814814815e+01 1.01809123010840e-02 1.14178822029795e-04
1.27821296296296e+01 1.01159432053923e-02 1.13686797160706e-04
1.28352777777778e+01 1.00513887076995e-02 1.13195913991716e-04
1.28884259259259e+01 9.98724616176245e-03 1.12706184120742e-04
1.29415740740741e+01 9.92351293922434e-03 1.12217618636767e-04
1.29947222222222e+01 9.86018642799739e-03 1.11730229001559e-04
1.30478703703704e+01 9.79726403218551e-03 1.11244025755855e-04
1.31010185185185e+01 9.73474317342108e-03 1.10759019378413e-04
1.31541666666667e+01 9.67262128883718e-03 1.10275220095036e-04
1.32073148148148e+01 9.61089583286505e-03 1.09792637858292e-04
1.32604629629630e+01 9.54956427524665e-03 1.09311282376242e-04
1.33136111111111e+01 9.48862410279493e-03 1.08831163092453e-04
1.33667592592593e+01 9.42807281744575e-03 1.08352289214122e-04
1.34199074074074e+01 9.36790793798191e-03 1.07874669692392e-04
1.34730555555556e+01 9.30812699812349e-03 1.07398313249952e-04
1.35262037037037e+01 9.24872754821650e-03 1.06923228361575e-04
1.35793518518519e+01 9.18970715336081e-03 1.06449423281211e-04
1.36325000000000e+01 9.13106339506416e-03 1.05976906022813e-04
1.36856481481481e+01 9.07279386940691e-03 1.05505684386885e-04
1.37387962962963e+01 9.01489618866217e-03 1.05035765941582e-04
1.37919444444444e+01 8.95736797949655e-03 1.04567158048747e-04
1.38450925925926e+01 8.90020688455722e-03 1.04099867845270e-04
1.38982407407407e+01 8.84341056070782e-03 1.03633902268644e-04
1.39513888888889e+01 8.78697668058327e-03 1.03169268038564e-04
1.40045370370370e+01 8.73090293085997e-03 1.02705971682010e-04
1.40576851851852e+01 8.67518701377916e-03 1.02244019515132e-04
1.41108333333333e+01 8.61982664545065e-03 1.01783417667822e-04
1.41639814814815e+01 8.56481955734538e-03 1.01324172065838e-04
1.42171296296296e+01 8.51016349463206e-03 1.00866288454944e-04
1.42702777777778e+01 8.45585621763955e-03 1.00409772383299e-04
1.43234259259259e+01 8.40189550022569e-03 9.99546292251186e-05
1.43765740740741e+01 8.34827913121019e-03 9.95008639936940e-05
1.44297222222222e+01 8.29500491314254e-03 9.90484820442073e-05
1.44828703703704e+01 8.24207066223332e-03 9.85974880404610e-05
1.45360185185185e+01 8.18947420935851e-03 9.81478866398569e-05
1.45891666666667e+01 8.13721339851378e-03 9.76996823401038e-05
1.46423148148148e+01 8.08528608816867e-03 9.72528794626008e-05
1.46954629629630e+01 8.03369014975041e-03 9.68074821744621e-05
1.47486111111111e+01 7.98242346897109e-03 9.63634944721243e-05
1.48017592592593e+01 7.93148394434043e-03 9.59209202029797e-05
1.48549074074074e+01 7.88086948846659e-03 9.54797630492286e-05
1.49080555555556e+01 7.83057802659716e-03 9.50400265491070e-05
1.49612037037037e+01 7.78060749789422e-03 9.46017140809437e-05
1.50143518518519e+01 7.73095585400304e-03 9.41648288840278e-05
1.50675000000000e+01 7.68162106030184e-03 9.37293740428982e-05
1.51206481481481e+01 7.63260109449768e-03 9.32953525077965e-05
1.51737962962963e+01 7.58389394785148e-03 9.28627670792056e-05
1.52269444444444e+01 7.53549762380042e-03 9.24316204279509e-05
1.52800925925926e+01 7.48741013915889e-03 9.20019150799162e-05
1.53332407407407e+01 7.43962952276684e-03 9.15736534357864e-05
1.53863888888889e+01 7.39215381666705e-03 9.11468377560007e-05
1.54395370370370e+01 7.34498107477900e-03 9.07214701801321e-05
1.54926851851852e+01 7.29810936405299e-03 9.02975527120691e-05
1.55458333333333e+01 7.25153676316891e-03 8.98750872390253e-05
1.55989814814815e+01 7.20526136366773e-03 8.94540755169408e-05
1.56521296296296e+01 7.15928126867467e-03 8.90345191891575e-05
1.57052777777778e+01 7.11359459400862e-03 8.86164197720079e-05
1.57584259259259e+01 7.06819946692907e-03 8.81997786731644e-05
1.58115740740741e+01 7.02309402722398e-03 8.77845970413869e-05
1.58647222222222e+01 6.97827642626129e-03 8.73708763297211e-05
1.59178703703704e+01 6.93374482692882e-03 8.69586174662567e-05
1.59710185185185e+01 6.88949740439629e-03 8.65478214032315e-05
1.60241666666667e+01 6.84553234492540e-03 8.61384889935289e-05
1.60773148148148e+01 6.80184784689996e-03 8.57306209770598e-05
1.61304629629630e+01 6.75844211965812e-03 8.53242179979195e-05
1.61836111111111e+01 6.71531338450256e-03 8.49192805909815e-05
1.62367592592593e+01 6.67245987355420e-03 8.45158091987170e-05
1.62899074074074e+01 6.62987983074302e-03 8.41138041580020e-05
1.63430555555556e+01 6.58757151068290e-03 8.37132657166494e-05
1.63962037037037e+01 6.54553317964327e-03 8.33141940203832e-05
1.64493518518519e+01 6.50376311444471e-03 8.29165891290833e-05
1.65025000000000e+01 6.46225960341199e-03 8.25204510039582e-05
1.65556481481481e+01 6.42102094528986e-03 8.21257795235042e-05
1.66087962962963e+01 6.38004545017781e-03 8.17325744708545e-05
1.66619444444444e+01 6.33933143846581e-03 8.13408355494690e-05
1.67150925925926e+01 6.29887724175113e-03 8.09505623706584e-05
1.67682407407407e+01 6.25868120179352e-03 8.05617544689993e-05
