Energy (eV)          EEDF (eV^-(3/2))     First Anisotropy
9.59016393442623e-03 1.81280340047481e-01 8.70447466316260e-05
2.87704918032787e-02 1.80253738659548e-01 1.43812093499346e-04
4.79508196721311e-02 1.79232950980792e-01 1.90050966542897e-04
6.71311475409836e-02 1.78217944083139e-01 2.25302659994026e-04
8.63114754098361e-02 1.77208685229714e-01 2.54805556738825e-04
1.05491803278689e-01 1.76205141870244e-01 2.80536727543051e-04
1.24672131147541e-01 1.75207281637962e-01 3.03517597312482e-04
1.43852459016393e-01 1.74215072346657e-01 3.24363967418778e-04
1.63032786885246e-01 1.73228481994904e-01 3.43483588591537e-04
1.82213114754098e-01 1.72247478762438e-01 3.61164187765901e-04
2.01393442622951e-01 1.71272031009238e-01 3.77618414092361e-04
2.20573770491803e-01 1.70302107274416e-01 3.93009076317870e-04
2.39754098360656e-01 1.69337676279416e-01 4.07464350549976e-04
2.58934426229508e-01 1.68378706914097e-01 4.21087455760948e-04
2.78114754098361e-01 1.67425168249010e-01 4.33963084989006e-04
2.97295081967213e-01 1.66477029529845e-01 4.46161837821857e-04
3.16475409836066e-01 1.65534260176415e-01 4.57743365161575e-04
3.35655737704918e-01 1.64596829781728e-01 4.68758659027642e-04
3.54836065573771e-01 1.63664708110988e-01 4.79251756356872e-04
3.74016393442623e-01 1.62737865100613e-01 4.89261030716986e-04
3.93196721311475e-01 1.61816270859672e-01 4.98820189513937e-04
4.12377049180328e-01 1.60899895661587e-01 5.07959052934970e-04
4.31557377049180e-01 1.59988709950638e-01 5.16704171441888e-04
4.50737704918033e-01 1.59082684338477e-01 5.25079322703234e-04
4.69918032786885e-01 1.58181789603166e-01 5.33105913442463e-04
4.89098360655738e-01 1.57285996688269e-01 5.40803308758439e-04
5.08278688524590e-01 1.56395276701893e-01 5.48189103918220e-04
5.27459016393443e-01 1.55509600917458e-01 5.55279351708547e-04
5.46639344262295e-01 1.54628940767607e-01 5.62088751998583e-04
5.65819672131148e-01 1.53753267848521e-01 5.68630811801127e-04
5.85000000000000e-01 1.52882553917232e-01 5.74917982609391e-04
6.04180327868852e-01 1.52016770890704e-01 5.80961776890147e-04
6.23360655737705e-01 1.51155890844941e-01 5.86772868489482e-04
6.42540983606557e-01 1.50299886014082e-01 5.92361179419456e-04
6.61721311475410e-01 1.49448728789508e-01 5.97735955010681e-04
6.80901639344262e-01 1.48602391720198e-01 6.02905830326728e-04
7.00081967213115e-01 1.47760847508048e-01 6.07878887323636e-04
7.19262295081967e-01 1.46924069010831e-01 6.12662705070976e-04
7.38442622950820e-01 1.46092029240031e-01 6.17264405158867e-04
7.57622950819672e-01 1.45264701359960e-01 6.21690691102077e-04
7.76803278688525e-01 1.44442058686909e-01 6.25947883571106e-04
7.95983606557377e-01 1.43624074688279e-01 6.30041951621174e-04
8.15163934426229e-01 1.42810722982727e-01 6.33978541373208e-04
8.34344262295082e-01 1.42001977336283e-01 6.37763000834799e-04
8.53524590163934e-01 1.41197811664568e-01 6.41400402185761e-04
8.72704918032787e-01 1.40398200030917e-01 6.44895562815865e-04
8.91885245901639e-01 1.39603116645549e-01 6.48253063614353e-04
9.11065573770492e-01 1.38812535864725e-01 6.51477265720995e-04
9.30245901639344e-01 1.38026432189934e-01 6.54572325741377e-04
9.49426229508197e-01 1.37244780267063e-01 6.57542209428366e-04
9.68606557377049e-01 1.36467554886384e-01 6.60390704819402e-04
9.87786885245902e-01 1.35694730979308e-01 6.63121433439528e-04
1.00696721311475e+00 1.34926283620034e-01 6.65737861016002e-04
1.02614754098361e+00 1.34162188021653e-01 6.68243304959698e-04
1.04532786885246e+00 1.33402419547991e-01 6.70640948196749e-04
1.06450819672131e+00 1.32646953686964e-01 6.72933845182098e-04
1.08368852459016e+00 1.31895766072692e-01 6.75124925416262e-04
1.10286885245902e+00 1.31148832477249e-01 6.77217005420492e-04
1.12204918032787e+00 1.30406128809930e-01 6.79212792098472e-04
1.14122950819672e+00 1.29667631122932e-01 6.81114893160223e-04
1.16040983606557e+00 1.28933315591019e-01 6.82925819700307e-04
1.17959016393443e+00 1.28203158530456e-01 6.84647988362542e-04
1.19877049180328e+00 1.27477136391597e-01 6.86283730618768e-04
1.21795081967213e+00 1.26755225758190e-01 6.87835294346639e-04
1.23713114754098e+00 1.26037403352396e-01 6.89304852144078e-04
1.25631147540984e+00 1.25323646016486e-01 6.90694502432279e-04
1.27549180327869e+00 1.24613930729770e-01 6.92006270287530e-04
1.29467213114754e+00 1.23908234601913e-01 6.93242115033615e-04
1.31385245901639e+00 1.23206534872227e-01 6.94403930725927e-04
1.33303278688525e+00 1.22508808914155e-01 6.95493553017913e-04
1.35221311475410e+00 1.21815034218714e-01 6.96512759357977e-04
1.37139344262295e+00 1.21125188409697e-01 6.97463268990752e-04
1.39057377049180e+00 1.20439249237619e-01 6.98346748145896e-04
1.40975409836066e+00 1.19757194583829e-01 6.99164814724531e-04
1.42893442622951e+00 1.19079002445209e-01 6.99919038028853e-04
1.44811475409836e+00 1.18404650948143e-01 7.00610938347163e-04
1.46729508196721e+00 1.17734118342869e-01 7.01241992627702e-04
1.48647540983607e+00 1.17067383002810e-01 7.01813633918208e-04
1.50565573770492e+00 1.16404423428257e-01 7.02327256574577e-04
1.52483606557377e+00 1.15745218232400e-01 7.02784215587095e-04
1.54401639344262e+00 1.15089746153997e-01 7.03185825802367e-04
1.56319672131148e+00 1.14437986052202e-01 7.03533366907659e-04
1.58237704918033e+00 1.13789916905901e-01 7.03828082571235e-04
1.60155737704918e+00 1.13145517817044e-01 7.04071185039037e-04
1.62073770491803e+00 1.12504767997829e-01 7.04263854209587e-04
1.63991803278689e+00 1.11867646782248e-01 7.04407236624999e-04
1.65909836065574e+00 1.11234133621323e-01 7.04502448890276e-04
1.67827868852459e+00 1.10604208086192e-01 7.04550580757827e-04
1.69745901639344e+00 1.09977849856153e-01 7.04552694080556e-04
1.71663934426230e+00 1.09355038729372e-01 7.04509821696502e-04
1.73581967213115e+00 1.08735754618407e-01 7.04422971516540e-04
1.75500000000000e+00 1.08119977549581e-01 7.04293125382486e-04
1.77418032786885e+00 1.07507687665767e-01 7.04121242865229e-04
1.79336065573770e+00 1.06898865215370e-01 7.03908260109383e-04
1.81254098360656e+00 1.06293490562128e-01 7.03655088625712e-04
1.83172131147541e+00 1.05691544180974e-01 7.03362619015286e-04
1.85090163934426e+00 1.05093006657421e-01 7.03031719755761e-04
1.87008196721311e+00 1.04497858690101e-01 7.02663240671469e-04
1.88926229508197e+00 1.03906081080562e-01 7.02258011718699e-04
1.90844262295082e+00 1.03317654742282e-01 7.01816841726435e-04
1.92762295081967e+00 1.02732560696828e-01 7.01340520936571e-04
1.94680327868852e+00 1.02150780076220e-01 7.00829823293968e-04
1.96598360655738e+00 1.01572294113345e-01 7.00285505216057e-04
1.98516393442623e+00 1.00997084150379e-01 6.99708304321992e-04
2.00434426229508e+00 1.00425131635151e-01 6.99098942639676e-04
2.02352459016393e+00 9.98564181205565e-02 6.98458125345060e-04
2.04270491803279e+00 9.92909252667156e-02 6.97786543761569e-04
2.06188524590164e+00 9.87286348320625e-02 6.97084874116736e-04
2.08106557377049e+00 9.81695286811230e-02 6.96353776267240e-04
2.10024590163934e+00 9.76135887811181e-02 6.95593896678024e-04
2.11942622950820e+00 9.70607972013965e-02 6.94805867164108e-04
2.13860655737705e+00 9.65111361154089e-02 6.93990307683124e-04
2.15778688524590e+00 9.59645877924080e-02 6.93147825096732e-04
2.17696721311475e+00 9.54211346046439e-02 6.92279011903709e-04
2.19614754098361e+00 9.48807590241921e-02 6.91384448258320e-04
2.21532786885246e+00 9.43434436248047e-02 6.90464703790217e-04
2.23450819672131e+00 9.38091710740697e-02 6.89520336385393e-04
2.25368852459016e+00 9.32779241401680e-02 6.88551890939086e-04
2.27286885245902e+00 9.27496856888606e-02 6.87559901991728e-04
2.29204918032787e+00 9.22244386829432e-02 6.86544892503640e-04
2.31122950819672e+00 9.17021661839432e-02 6.85507376329769e-04
2.33040983606557e+00 9.11828513447906e-02 6.84447857020792e-04
2.34959016393443e+00 9.06664774160943e-02 6.83366826602187e-04
2.36877049180328e+00 9.01530277433101e-02 6.82264768049948e-04
2.38795081967213e+00 8.96424857662149e-02 6.81142154093169e-04
2.40713114754098e+00 8.91348350204658e-02 6.79999449543363e-04
2.42631147540984e+00 8.86300591307370e-02 6.78837110122011e-04
2.44549180327869e+00 8.81281418165576e-02 6.77655581268531e-04
2.46467213114754e+00 8.76290668896520e-02 6.76455300474751e-04
2.48385245901639e+00 8.71328182534230e-02 6.75236696119058e-04
2.50303278688525e+00 8.66393799043920e-02 6.74000189662300e-04
2.52221311475410e+00 8.61487359257614e-02 6.72746194507577e-04
2.54139344262295e+00 8.56608704928531e-02 6.71475114839697e-04
2.56057377049180e+00 8.51757678706057e-02 6.70187347195561e-04
2.57975409836066e+00 8.46934124149266e-02 6.68883281881060e-04
2.59893442622951e+00 8.42137885665796e-02 6.67563301860868e-04
2.61811475409836e+00 8.37368808563195e-02 6.66227781630829e-04
2.63729508196721e+00 8.32626739025004e-02 6.64877089323481e-04
2.65647540983607e+00 8.27911524105869e-02 6.63511585604824e-04
2.67565573770492e+00 8.23223011744001e-02 6.62131625659575e-04
2.69483606557377e+00 8.18561050703712e-02 6.60737558114038e-04
2.71401639344262e+00 8.13925490623366e-02 6.59329723943442e-04
2.73319672131148e+00 8.09316181992815e-02 6.57908458468670e-04
2.75237704918033e+00 8.04732976148622e-02 6.56474090289038e-04
2.77155737704918e+00 8.00175725285600e-02 6.55026943164977e-04
2.79073770491803e+00 7.95644282402697e-02 6.53567334976220e-04
2.80991803278689e+00 7.91138501347849e-02 6.52095576664043e-04
2.82909836065574e+00 7.86658236796662e-02 6.50611973569081e-04
2.84827868852459e+00 7.82203344263270e-02 6.49116826639626e-04
2.86745901639344e+00 7.77773680048812e-02 6.47610431421052e-04
2.88663934426230e+00 7.73369101283891e-02 6.46093077030496e-04
2.90581967213115e+00 7.68989465908163e-02 6.44565047974171e-04
2.92500000000000e+00 7.64634632665799e-02 6.43026623145333e-04
2.94418032786885e+00 7.60304461115532e-02 6.41478077540390e-04
2.96336065573770e+00 7.55998811582037e-02 6.39919681281818e-04
2.98254098360656e+00 7.51717545195742e-02 6.38351698628329e-04
3.00172131147541e+00 7.47460523873477e-02 6.36774389704737e-04
3.02090163934426e+00 7.43227610314071e-02 6.35188009535521e-04
3.04008196721311e+00 7.39018668007660e-02 6.33592809678820e-04
3.05926229508197e+00 7.34833561189774e-02 6.31989037283597e-04
3.07844262295082e+00 7.30672154878676e-02 6.30376934134063e-04
3.09762295081967e+00 7.26534314857035e-02 6.28756737805263e-04
3.11680327868852e+00 7.22419907680720e-02 6.27128682707857e-04
3.13598360655738e+00 7.18328800634961e-02 6.25492999175274e-04
3.15516393442623e+00 7.14260861769793e-02 6.23849912538075e-04
3.17434426229508e+00 7.10215959882473e-02 6.22199644708337e-04
3.19352459016393e+00 7.06193964513277e-02 6.20542413275646e-04
3.21270491803279e+00 7.02194745953653e-02 6.18878433004783e-04
3.23188524590164e+00 6.98218175204744e-02 6.17207914954579e-04
3.25106557377049e+00 6.94264124010708e-02 6.15531065586135e-04
3.27024590163934e+00 6.90332464841997e-02 6.13848088274779e-04
3.28942622950820e+00 6.86423070891296e-02 6.12159182439130e-04
3.30860655737705e+00 6.82535816081079e-02 6.10464544971558e-04
3.32778688524590e+00 6.78670575024341e-02 6.08764369388712e-04
3.34696721311475e+00 6.74827223055930e-02 6.07058844971574e-04
3.36614754098361e+00 6.71005636216676e-02 6.05348157773283e-04
3.38532786885246e+00 6.67205691260547e-02 6.03632491531325e-04
3.40450819672131e+00 6.63427265617077e-02 6.01912026845887e-04
3.42368852459016e+00 6.59670237421166e-02 6.00186940346773e-04
3.44286885245902e+00 6.55934485497830e-02 5.98457406084799e-04
3.46204918032787e+00 6.52219889358315e-02 5.96723594718493e-04
3.48122950819672e+00 6.48526329206739e-02 5.94985674830426e-04
3.50040983606557e+00 6.44853685904463e-02 5.93243812134669e-04
3.51959016393443e+00 6.41201840998172e-02 5.91498168674880e-04
3.53877049180328e+00 6.37570676705337e-02 5.89748904154598e-04
3.55795081967213e+00 6.33960075910459e-02 5.87996175154134e-04
3.57713114754098e+00 6.30369922171240e-02 5.86240136390685e-04
3.59631147540984e+00 6.26800099684766e-02 5.84480939954386e-04
3.61549180327869e+00 6.23250493313981e-02 5.82718734535433e-04
3.63467213114754e+00 6.19720988573850e-02 5.80953666697850e-04
3.65385245901639e+00 6.16211471627683e-02 5.79185880125615e-04
3.67303278688525e+00 6.12721829292897e-02 5.77415516828401e-04
3.69221311475410e+00 6.09251949008894e-02 5.75642716406170e-04
3.71139344262295e+00 6.05801718862037e-02 5.73867615304278e-04
3.73057377049180e+00 6.02371027572463e-02 5.72090347660798e-04
3.74975409836066e+00 5.98959764499527e-02 5.70311046074580e-04
3.76893442622951e+00 5.95567819611010e-02 5.68529840892997e-04
3.78811475409836e+00 5.92195083506921e-02 5.66746859491069e-04
3.80729508196721e+00 5.88841447406795e-02 5.64962227448201e-04
3.82647540983607e+00 5.85506803146208e-02 5.63176067844388e-04
3.84565573770492e+00 5.82191043181841e-02 5.61388502375361e-04
3.86483606557377e+00 5.78894060562196e-02 5.59599650665979e-04
3.88401639344262e+00 5.75615748950085e-02 5.57809629575953e-04
3.90319672131148e+00 5.72356002610506e-02 5.56018554328015e-04
3.92237704918033e+00 5.69114716407249e-02 5.54226537830122e-04
3.94155737704918e+00 5.65891785807622e-02 5.52433691744439e-04
3.96073770491803e+00 5.62687106854584e-02 5.50640125826381e-04
3.97991803278689e+00 5.59500576188002e-02 5.48845947255297e-04
3.99909836065574e+00 5.56332091033077e-02 5.47051261384044e-04
4.01827868852459e+00 5.53181549204814e-02 5.45256172418975e-04
4.03745901639344e+00 5.50048849081268e-02 5.43460782779762e-04
4.05663934426229e+00 5.46933889623835e-02 5.41665192451569e-04
4.07581967213115e+00 5.43836570366089e-02 5.39869500029910e-04
4.09500000000000e+00 5.40756791410557e-02 5.38073802087885e-04
4.11418032786885e+00 5.37694453432883e-02 5.36278194166981e-04
4.13336065573770e+00 5.34649457656346e-02 5.34482770159926e-04
4.15254098360656e+00 5.31621705871057e-02 5.32687621686781e-04
4.17172131147541e+00 5.28611100423288e-02 5.30892839097559e-04
4.19090163934426e+00 5.25617544212337e-02 5.29098510862912e-04
4.21008196721311e+00 5.22640940694410e-02 5.27304724525346e-04
4.22926229508197e+00 5.19681193858343e-02 5.25511566104584e-04
4.24844262295082e+00 5.16738208243765e-02 5.23719119495987e-04
4.26762295081967e+00 5.13811888930905e-02 5.21927467136436e-04
4.28680327868852e+00 5.10902141544262e-02 5.20136690608656e-04
4.30598360655738e+00 5.08008872229267e-02 5.18346870065392e-04
4.32516393442623e+00 5.05131987669647e-02 5.16558083646851e-04
4.34434426229508e+00 5.02271395077574e-02 5.14770408411624e-04
4.36352459016393e+00 4.99427002190690e-02 5.12983919767407e-04
4.38270491803279e+00 4.96598717275530e-02 5.11198692354199e-04
4.40188524590164e+00 4.93786449105257e-02 5.09414799489226e-04
4.42106557377049e+00 4.90990106976115e-02 5.07632312605499e-04
4.44024590163934e+00 4.88209600698001e-02 5.05851302146029e-04
4.45942622950820e+00 4.85444840591572e-02 5.04071837015652e-04
4.47860655737705e+00 4.82695737491438e-02 5.02293985429620e-04
4.49778688524590e+00 4.79962202724918e-02 5.00517814378633e-04
4.51696721311475e+00 4.77244148127631e-02 4.98743389087649e-04
4.53614754098361e+00 4.74541486034477e-02 4.96970773609053e-04
4.55532786885246e+00 4.71854129282660e-02 4.95200031361639e-04
4.57450819672131e+00 4.69181991191243e-02 4.93431224612434e-04
4.59368852459016e+00 4.66524985576070e-02 4.91664413952267e-04
4.61286885245902e+00 4.63883026741043e-02 4.89899659127366e-04
4.63204918032787e+00 4.61256029475368e-02 4.88137018526874e-04
4.65122950819672e+00 4.58643909056382e-02 4.86376549972090e-04
4.67040983606557e+00 4.56046581230017e-02 4.84618310216776e-04
4.68959016393443e+00 4.53463962224962e-02 4.82862354441895e-04
4.70877049180328e+00 4.50895968744301e-02 4.81108737054899e-04
4.72795081967213e+00 4.48342517962837e-02 4.79357511196016e-04
4.74713114754098e+00 4.45803527529727e-02 4.77608729497353e-04
4.76631147540984e+00 4.43278915549826e-02 4.75862443601103e-04
4.78549180327869e+00 4.40768600597114e-02 4.74118703672374e-04
4.80467213114754e+00 4.38272501706690e-02 4.72377559167981e-04
4.82385245901639e+00 4.35790538372166e-02 4.70639058360883e-04
4.84303278688525e+00 4.33322630548125e-02 4.68903249070030e-04
4.86221311475410e+00 4.30868698632291e-02 4.67170178196002e-04
4.88139344262295e+00 4.28428663478280e-02 4.65439891251240e-04
4.90057377049180e+00 4.26002446387917e-02 4.63712432869695e-04
4.91975409836066e+00 4.23589969113567e-02 4.61987847270343e-04
4.93893442622951e+00 4.21191153840948e-02 4.60266177807078e-04
4.95811475409836e+00 4.18805923201348e-02 4.58547466513328e-04
4.97729508196721e+00 4.16434200264194e-02 4.56831754818242e-04
4.99647540983607e+00 4.14075908534579e-02 4.55119083101765e-04
5.01565573770492e+00 4.11730971955431e-02 4.53409491374852e-04
5.03483606557377e+00 4.09399314891077e-02 4.51703018845367e-04
5.05401639344262e+00 4.07080862138851e-02 4.49999703478960e-04
5.07319672131148e+00 4.04775538921958e-02 4.48299582688291e-04
5.09237704918033e+00 4.02483270887075e-02 4.46602692904244e-04
5.11155737704918e+00 4.00203984106370e-02 4.44909070230533e-04
5.13073770491803e+00 3.97937605061782e-02 4.43218750025125e-04
5.14991803278689e+00 3.95684060656046e-02 4.41531766476703e-04
5.16909836065574e+00 3.93443278205851e-02 4.39848153061244e-04
5.18827868852459e+00 3.91215185443756e-02 4.38167942957683e-04
5.20745901639344e+00 3.88999710503025e-02 4.36491168641995e-04
5.22663934426229e+00 3.86796781928199e-02 4.34817861476461e-04
5.24581967213115e+00 3.84606328668471e-02 4.33148052352581e-04
5.26500000000000e+00 3.82428280075404e-02 4.31481771289615e-04
5.28418032786885e+00 3.80262565904711e-02 4.29819048045408e-04
5.30336065573770e+00 3.78109116301739e-02 4.28159911724789e-04
5.32254098360656e+00 3.75967861811526e-02 4.26504390383464e-04
5.34172131147541e+00 3.73838733372432e-02 4.24852511646934e-04
5.36090163934426e+00 3.71721662313921e-02 4.23204302323577e-04
5.38008196721311e+00 3.69616580358226e-02 4.21559788992872e-04
5.39926229508197e+00 3.67523419606442e-02 4.19918997627546e-04
5.41844262295082e+00 3.65442112548094e-02 4.18281953211473e-04
5.43762295081967e+00 3.63372592055021e-02 4.16648680149579e-04
5.45680327868852e+00 3.61314791382954e-02 4.15019202641107e-04
5.47598360655738e+00 3.59268644158094e-02 4.13393544313295e-04
5.49516393442623e+00 3.57234084386287e-02 4.11771727850652e-04
5.51434426229508e+00 3.55211046447107e-02 4.10153775572799e-04
5.53352459016393e+00 3.53199465091740e-02 4.08539709072152e-04
5.55270491803279e+00 3.51199275444457e-02 4.06929549763266e-04
5.57188524590164e+00 3.49210412989746e-02 4.05323318529186e-04
5.59106557377049e+00 3.47232813581054e-02 4.03721035363795e-04
5.61024590163934e+00 3.45266413435088e-02 4.02122719928530e-04
5.62942622950820e+00 3.43311149129770e-02 4.00528391202982e-04
5.64860655737705e+00 3.41366957605598e-02 3.98938068014190e-04
5.66778688524590e+00 3.39433776153321e-02 3.97351768695349e-04
5.68696721311475e+00 3.37511542422257e-02 3.95769510740695e-04
5.70614754098361e+00 3.35600194414819e-02 3.94191311174039e-04
5.72532786885246e+00 3.33699670487807e-02 3.92617186884674e-04
5.74450819672131e+00 3.31809909340504e-02 3.91047154296399e-04
5.76368852459016e+00 3.29930850022658e-02 3.89481229032475e-04
5.78286885245902e+00 3.28062431929182e-02 3.87919426436049e-04
5.80204918032787e+00 3.26204594798196e-02 3.86361761242718e-04
5.82122950819672e+00 3.24357278712239e-02 3.84808248075157e-04
5.84040983606557e+00 3.22520424086845e-02 3.83258901123533e-04
5.85959016393443e+00 3.20693971678149e-02 3.81713733822452e-04
5.87877049180328e+00 3.18877862577787e-02 3.80172759352337e-04
5.89795081967213e+00 3.17072038210999e-02 3.78635990323527e-04
5.91713114754098e+00 3.15276440337744e-02 3.77103439253279e-04
5.93631147540984e+00 3.13491011041759e-02 3.75575118257212e-04
5.95549180327869e+00 3.11715692737793e-02 3.74051038737341e-04
5.97467213114754e+00 3.09950428166705e-02 3.72531211865636e-04
5.99385245901639e+00 3.08195160393616e-02 3.71015648279229e-04
6.01303278688525e+00 3.06449832808953e-02 3.69504358540015e-04
6.03221311475410e+00 3.04714389117944e-02 3.67997352837107e-04
6.05139344262295e+00 3.02988773347519e-02 3.66494640685563e-04
