################################
# DATA CONSIDERED FOR THE TESTS#
################################

# elastic momentum transfer constant rate coefficient = 1.000000e-12 (m3s-1)
#                                     gas temperature = 300.000000 (K)
#                           mass of the heavy species = 40.000000 (uam)
#               decades of decay ensured for the eedf = 15 
#                 number of cells for the energy grid = 7000 

E/N(Td)              Te_th(eV)            Te_sim(eV)           RelError(Te)         RelError(EEDF)
0.00000000000000e+00 2.58519910116516e-02 2.58513242315498e-02 2.57922146706857e-05 3.21359052258747e-05 
1.00000000000000e+00 3.01268347033801e-02 3.01260584288206e-02 2.57668808258778e-05 3.20725629199515e-05 
2.00000000000000e+00 4.29513657785653e-02 4.29502621661941e-02 2.56944651522607e-05 3.18918338062992e-05 
3.00000000000000e+00 6.43255842372075e-02 6.43239274160862e-02 2.57567986506742e-05 3.20473633229436e-05 
4.00000000000000e+00 9.42494900793065e-02 9.42470541706860e-02 2.58453241329572e-05 3.22689052317513e-05 
5.00000000000000e+00 1.32723083304862e-01 1.32719665391198e-01 2.57522171666084e-05 3.20359278735241e-05 
6.00000000000000e+00 1.79746363913875e-01 1.79741726641555e-01 2.57989770644337e-05 3.21528274346250e-05 
7.00000000000000e+00 2.35319331906345e-01 2.35313260877595e-01 2.57991075377135e-05 3.21531611855275e-05 
8.00000000000000e+00 2.99441987282271e-01 2.99434313954144e-01 2.56254247998230e-05 3.17200019970792e-05 
9.00000000000000e+00 3.72114330041654e-01 3.72104679385263e-01 2.59346539816582e-05 3.24932022865709e-05 
1.00000000000000e+01 4.53336360184494e-01 4.53324621118972e-01 2.58948245790111e-05 3.23931000210296e-05 
1.10000000000000e+01 5.43108077710791e-01 5.43094024349686e-01 2.58758094047943e-05 3.23453540193343e-05 
1.20000000000000e+01 6.41429482620545e-01 6.41412889079379e-01 2.58696265384132e-05 3.23298408755635e-05 
1.30000000000000e+01 7.48300574913756e-01 7.48281330100116e-01 2.57180259976454e-05 3.19505874329481e-05 
1.40000000000000e+01 8.63721354590423e-01 8.63699117864490e-01 2.57452543172334e-05 3.20185517884969e-05 
1.50000000000000e+01 9.87691821650547e-01 9.87666367129934e-01 2.57717235836621e-05 3.20846792800989e-05 
1.60000000000000e+01 1.12021197609413e+00 1.12018307789726e+00 2.57970790224923e-05 3.21480858701416e-05 
1.70000000000000e+01 1.26128181792117e+00 1.26124925015941e+00 2.58211616899973e-05 3.22083691942191e-05 
1.80000000000000e+01 1.41090134713166e+00 1.41086499871740e+00 2.57625484134158e-05 3.20617427719191e-05 
1.90000000000000e+01 1.56907056372561e+00 1.56903009400870e+00 2.57921586506189e-05 3.21357545719629e-05 
2.00000000000000e+01 1.73578946770302e+00 1.73574465079808e+00 2.58193207044718e-05 3.22037512198126e-05 
2.10000000000000e+01 1.91105805906389e+00 1.91100878389225e+00 2.57842358082228e-05 3.21159647078481e-05 
2.20000000000000e+01 2.09487633780821e+00 2.09482226369610e+00 2.58125556787551e-05 3.21868297923642e-05 
2.30000000000000e+01 2.28724430393599e+00 2.28718531979812e+00 2.57882980701216e-05 3.21261173136094e-05 
2.40000000000000e+01 2.48816195744723e+00 2.48809783740265e+00 2.57700445840199e-05 3.20804755749667e-05 
2.50000000000000e+01 2.69762929834192e+00 2.69755970173907e+00 2.57991722178674e-05 3.21533131557020e-05 
2.60000000000000e+01 2.91564632662007e+00 2.91557079776789e+00 2.59046687138598e-05 3.24178255591912e-05 
2.70000000000000e+01 3.14221304228167e+00 3.14213146996402e+00 2.59601486459328e-05 3.25573596064639e-05 
2.80000000000000e+01 3.37732944532674e+00 3.37724194872125e+00 2.59070389502818e-05 3.24237723318756e-05 
2.90000000000000e+01 3.62099553575526e+00 3.62090223327376e+00 2.57670799584732e-05 3.20730570234417e-05 
3.00000000000000e+01 3.87321131356724e+00 3.87311117548213e+00 2.58540206041874e-05 3.22907076020418e-05 
3.10000000000000e+01 4.13397677876267e+00 4.13386992366271e+00 2.58480164930750e-05 3.22756499593266e-05 
3.20000000000000e+01 4.40329193134156e+00 4.40317847773377e+00 2.57656338848672e-05 3.20694511800982e-05 
3.30000000000000e+01 4.68115677130391e+00 4.68103568964780e+00 2.58657554157796e-05 3.23201431077657e-05 
3.40000000000000e+01 4.96757129864971e+00 4.96744270741669e+00 2.58861373682769e-05 3.23712858460150e-05 
3.50000000000000e+01 5.26253551337897e+00 5.26239953140183e+00 2.58396312571508e-05 3.22546290285253e-05 
3.60000000000000e+01 5.56604941549169e+00 5.56590616097605e+00 2.57371979566108e-05 3.19984272010279e-05 
3.70000000000000e+01 5.87811300498787e+00 5.87796144874707e+00 2.57831451468541e-05 3.21132201877488e-05 
3.80000000000000e+01 6.19872628186750e+00 6.19856654218290e+00 2.57697593563832e-05 3.20797596972271e-05 
3.90000000000000e+01 6.52788924613059e+00 6.52772144127788e+00 2.57058363557012e-05 3.19201710338363e-05 
4.00000000000000e+01 6.86560189777713e+00 6.86542499892801e+00 2.57659636777114e-05 3.20702594265927e-05 
4.10000000000000e+01 7.21186423680714e+00 7.21167836216441e+00 2.57734528306116e-05 3.20889862456210e-05 
4.20000000000000e+01 7.56667626322060e+00 7.56648153113449e+00 2.57354853483423e-05 3.19941488685327e-05 
4.30000000000000e+01 7.93003797701751e+00 7.92983335845238e+00 2.58029741757160e-05 3.21628437820648e-05 
4.40000000000000e+01 8.30194937819788e+00 8.30173499138410e+00 2.58236715277387e-05 3.22146464885759e-05 
4.50000000000000e+01 8.68241046676172e+00 8.68218643024324e+00 2.58034930893796e-05 3.21641313109119e-05 
4.60000000000000e+01 9.07142124270900e+00 9.07118767478193e+00 2.57476663051158e-05 3.20245521053497e-05 
4.70000000000000e+01 9.46898170603975e+00 9.46873757766851e+00 2.57819033571538e-05 3.21101255412960e-05 
4.80000000000000e+01 9.87509185675395e+00 9.87483728623860e+00 2.57790528979061e-05 3.21030049373238e-05 
4.90000000000000e+01 1.02897516948516e+01 1.02894868004931e+01 2.57435131922629e-05 3.20141864818646e-05 
5.00000000000000e+01 1.07129612203327e+01 1.07126849731799e+01 2.57862552783950e-05 3.21210066968215e-05 
