Energy (eV)          EEDF (eV^-(3/2))     First Anisotropy
1.49206349206349e-03 2.81139613930519e+00 1.30093719337235e-03
4.47619047619048e-03 2.79599114315039e+00 2.14955790619385e-03
7.46031746031746e-03 2.78067055839088e+00 2.84121433163546e-03
1.04444444444444e-02 2.76543392252029e+00 3.36884016248881e-03
1.34285714285714e-02 2.75028077556518e+00 3.81068591501829e-03
1.64126984126984e-02 2.73521065999519e+00 4.19627711259536e-03
1.93968253968254e-02 2.72022312084719e+00 4.54086387214995e-03
2.23809523809524e-02 2.70531770564711e+00 4.85363802034791e-03
2.53650793650794e-02 2.69049396440086e+00 5.14068443131336e-03
2.83492063492063e-02 2.67575144957972e+00 5.40629582683536e-03
3.13333333333333e-02 2.66108971615403e+00 5.65364405994624e-03
3.43174603174603e-02 2.64650832143331e+00 5.88515699603813e-03
3.73015873015873e-02 2.63200682520434e+00 6.10274556941882e-03
4.02857142857143e-02 2.61758478966546e+00 6.30794827216957e-03
4.32698412698413e-02 2.60324177941376e+00 6.50202717632244e-03
4.62539682539683e-02 2.58897736143235e+00 6.68603407864159e-03
4.92380952380952e-02 2.57479110510527e+00 6.86085745783659e-03
5.22222222222222e-02 2.56068258211778e+00 7.02725664371902e-03
5.52063492063492e-02 2.54665136653195e+00 7.18588723783320e-03
5.81904761904762e-02 2.53269703474364e+00 7.33732040363712e-03
6.11746031746032e-02 2.51881916546961e+00 7.48205772814294e-03
6.41587301587302e-02 2.50501733973522e+00 7.62054285318001e-03
6.71428571428571e-02 2.49129114086157e+00 7.75317069441102e-03
7.01269841269841e-02 2.47764015447199e+00 7.88029484710081e-03
7.31111111111111e-02 2.46406396842140e+00 8.00223357955156e-03
7.60952380952381e-02 2.45056217284292e+00 8.11927473935266e-03
7.90793650793651e-02 2.43713436011537e+00 8.23167981824263e-03
8.20634920634921e-02 2.42378012485121e+00 8.33968732776054e-03
8.50476190476190e-02 2.41049906388422e+00 8.44351563129296e-03
8.80317460317460e-02 2.39729077627188e+00 8.54336534488279e-03
9.10158730158730e-02 2.38415486323899e+00 8.63942136795353e-03
9.40000000000000e-02 2.37109092821048e+00 8.73185461921378e-03
9.69841269841270e-02 2.35809857678424e+00 8.82082353988700e-03
9.99682539682540e-02 2.34517741671926e+00 8.90647537497411e-03
1.02952380952381e-01 2.33232705798293e+00 8.98894732574378e-03
1.05936507936508e-01 2.31954711255976e+00 9.06836750955469e-03
1.08920634920635e-01 2.30683719462147e+00 9.14485579831531e-03
1.11904761904762e-01 2.29419692045385e+00 9.21852460313149e-03
1.14888888888889e-01 2.28162590844528e+00 9.28947953050090e-03
1.17873015873016e-01 2.26912377907512e+00 9.35781997254185e-03
1.20857142857143e-01 2.25669015490231e+00 9.42363963162869e-03
1.23841269841270e-01 2.24432466055397e+00 9.48702698819998e-03
1.26825396825397e-01 2.23202692271405e+00 9.54806571915727e-03
1.29809523809524e-01 2.21979657011206e+00 9.60683507313981e-03
1.32793650793651e-01 2.20763323351189e+00 9.66341020803347e-03
1.35777777777778e-01 2.19553654570062e+00 9.71786249531175e-03
1.38761904761905e-01 2.18350614147750e+00 9.77025979514038e-03
1.41746031746032e-01 2.17154165764284e+00 9.82066670564279e-03
1.44730158730159e-01 2.15964273298712e+00 9.86914478926357e-03
1.47714285714286e-01 2.14780900828003e+00 9.91575277877912e-03
1.50698412698413e-01 2.13604012625969e+00 9.96054676517387e-03
1.53682539682540e-01 2.12433573162179e+00 1.00035803693173e-02
1.56666666666667e-01 2.11269547100891e+00 1.00449048991364e-02
1.59650793650794e-01 2.10111899299984e+00 1.00845694937726e-02
1.62634920634921e-01 2.08960594809899e+00 1.01226212560344e-02
1.65619047619048e-01 2.07815598872580e+00 1.01591053743028e-02
1.68603174603175e-01 2.06676876920428e+00 1.01940652349074e-02
1.71587301587302e-01 2.05544394575255e+00 1.02275425258818e-02
1.74571428571429e-01 2.04418117647250e+00 1.02595773329099e-02
1.77555555555556e-01 2.03298012133940e+00 1.02902082281738e-02
1.80539682539683e-01 2.02184044219172e+00 1.03194723527444e-02
1.83523809523810e-01 2.01076180272086e+00 1.03474054930906e-02
1.86507936507937e-01 1.99974386846101e+00 1.03740421522226e-02
1.89492063492063e-01 1.98878630677906e+00 1.03994156159269e-02
1.92476190476190e-01 1.97788878686455e+00 1.04235580144936e-02
1.95460317460317e-01 1.96705097971968e+00 1.04465003803339e-02
1.98444444444444e-01 1.95627255814942e+00 1.04682727018247e-02
2.01428571428571e-01 1.94555319675157e+00 1.04889039736572e-02
2.04412698412698e-01 1.93489257190699e+00 1.05084222439864e-02
2.07396825396825e-01 1.92429036176977e+00 1.05268546586305e-02
2.10380952380952e-01 1.91374624625759e+00 1.05442275025432e-02
2.13365079365079e-01 1.90325990704197e+00 1.05605662387656e-02
2.16349206349206e-01 1.89283102753874e+00 1.05758955450475e-02
2.19333333333333e-01 1.88245929289844e+00 1.05902393483105e-02
2.22317460317460e-01 1.87214438999679e+00 1.06036208571067e-02
2.25301587301587e-01 1.86188600742530e+00 1.06160625922178e-02
2.28285714285714e-01 1.85168383548184e+00 1.06275864155293e-02
2.31269841269841e-01 1.84153756616126e+00 1.06382135572929e-02
2.34253968253968e-01 1.83144689314614e+00 1.06479646418956e-02
2.37238095238095e-01 1.82141151179751e+00 1.06568597122305e-02
2.40222222222222e-01 1.81143111914567e+00 1.06649182527644e-02
2.43206349206349e-01 1.80150541388102e+00 1.06721592113934e-02
2.46190476190476e-01 1.79163409634500e+00 1.06786010201571e-02
2.49174603174603e-01 1.78181686852102e+00 1.06842616148925e-02
2.52158730158730e-01 1.77205343402545e+00 1.06891584538899e-02
2.55142857142857e-01 1.76234349809870e+00 1.06933085356142e-02
2.58126984126984e-01 1.75268676759632e+00 1.06967284155543e-02
2.61111111111111e-01 1.74308295098012e+00 1.06994342222465e-02
2.64095238095238e-01 1.73353175830940e+00 1.07014416725281e-02
2.67079365079365e-01 1.72403290123218e+00 1.07027660860641e-02
2.70063492063492e-01 1.71458609297649e+00 1.07034223991911e-02
2.73047619047619e-01 1.70519104834175e+00 1.07034251781195e-02
2.76031746031746e-01 1.69584748369010e+00 1.07027886315262e-02
2.79015873015873e-01 1.68655511693788e+00 1.07015266225776e-02
2.82000000000000e-01 1.67731366754711e+00 1.06996526719505e-02
2.84984126984127e-01 1.66812285654780e+00 1.06971799943427e-02
2.87968253968254e-01 1.65898240643650e+00 1.06941214918489e-02
2.90952380952381e-01 1.64989204126162e+00 1.06904897467872e-02
2.93936507936508e-01 1.64085148658364e+00 1.06862970572730e-02
2.96920634920635e-01 1.63186046946683e+00 1.06815554377180e-02
2.99904761904762e-01 1.62291871847101e+00 1.06762766276465e-02
3.02888888888889e-01 1.61402596364334e+00 1.06704721001488e-02
3.05873015873016e-01 1.60518193651019e+00 1.06641530699867e-02
3.08857142857143e-01 1.59638637006903e+00 1.06573305013690e-02
3.11841269841270e-01 1.58763899878036e+00 1.06500151154162e-02
3.14825396825397e-01 1.57893955855968e+00 1.06422173973292e-02
3.17809523809524e-01 1.57028778676957e+00 1.06339476032763e-02
3.20793650793651e-01 1.56168342221170e+00 1.06252157670109e-02
3.23777777777778e-01 1.55312620511899e+00 1.06160317062363e-02
3.26761904761905e-01 1.54461587714773e+00 1.06064050287286e-02
3.29746031746032e-01 1.53615218136982e+00 1.05963451382258e-02
3.32730158730159e-01 1.52773486226498e+00 1.05858612400998e-02
3.35714285714286e-01 1.51936366571304e+00 1.05749623468182e-02
3.38698412698413e-01 1.51103833898630e+00 1.05636572832054e-02
3.41682539682540e-01 1.50275863074186e+00 1.05519546915121e-02
3.44666666666667e-01 1.49452429101405e+00 1.05398630363061e-02
3.47650793650794e-01 1.48633507120688e+00 1.05273906091871e-02
3.50634920634921e-01 1.47819072408656e+00 1.05145455333341e-02
3.53619047619048e-01 1.47009100377397e+00 1.05013357678974e-02
3.56603174603175e-01 1.46203566573733e+00 1.04877691122366e-02
3.59587301587302e-01 1.45402446678473e+00 1.04738532100141e-02
3.62571428571429e-01 1.44605716505683e+00 1.04595955531498e-02
3.65555555555556e-01 1.43813352001958e+00 1.04450034856418e-02
3.68539682539683e-01 1.43025329245690e+00 1.04300842072620e-02
3.71523809523810e-01 1.42241624446350e+00 1.04148447771291e-02
3.74507936507937e-01 1.41462213943771e+00 1.03992921171628e-02
3.77492063492063e-01 1.40687074207428e+00 1.03834330154291e-02
3.80476190476190e-01 1.39916181835733e+00 1.03672741293741e-02
3.83460317460317e-01 1.39149513555325e+00 1.03508219889570e-02
3.86444444444444e-01 1.38387046220372e+00 1.03340829996864e-02
3.89428571428571e-01 1.37628756811866e+00 1.03170634455590e-02
3.92412698412698e-01 1.36874622436934e+00 1.02997694919045e-02
3.95396825396825e-01 1.36124620328141e+00 1.02822071881491e-02
3.98380952380952e-01 1.35378727842809e+00 1.02643824704910e-02
4.01365079365079e-01 1.34636922462327e+00 1.02463011644920e-02
4.04349206349206e-01 1.33899181791477e+00 1.02279689875967e-02
4.07333333333333e-01 1.33165483557753e+00 1.02093915515741e-02
4.10317460317460e-01 1.32435805610693e+00 1.01905743648887e-02
4.13301587301587e-01 1.31710125921207e+00 1.01715228349985e-02
4.16285714285714e-01 1.30988422580912e+00 1.01522422705895e-02
4.19269841269841e-01 1.30270673801472e+00 1.01327378837447e-02
4.22253968253968e-01 1.29556857913942e+00 1.01130147920513e-02
4.25238095238095e-01 1.28846953368109e+00 1.00930780206485e-02
4.28222222222222e-01 1.28140938731845e+00 1.00729325042150e-02
4.31206349206349e-01 1.27438792690458e+00 1.00525830889043e-02
4.34190476190476e-01 1.26740494046052e+00 1.00320345342240e-02
4.37174603174603e-01 1.26046021716881e+00 1.00112915148667e-02
4.40158730158730e-01 1.25355354736719e+00 9.99035862248646e-03
4.43142857142857e-01 1.24668472254222e+00 9.96924036742953e-03
4.46126984126984e-01 1.23985353532303e+00 9.94794118041802e-03
4.49111111111111e-01 1.23305977947500e+00 9.92646541418785e-03
4.52095238095238e-01 1.22630324989360e+00 9.90481734508674e-03
4.55079365079365e-01 1.21958374259816e+00 9.88300117462467e-03
4.58063492063492e-01 1.21290105472570e+00 9.86102103098827e-03
4.61047619047619e-01 1.20625498452485e+00 9.83888097051368e-03
4.64031746031746e-01 1.19964533134971e+00 9.81658497912141e-03
4.67015873015873e-01 1.19307189565384e+00 9.79413697371636e-03
4.70000000000000e-01 1.18653447898418e+00 9.77154079890732e-03
4.72984126984127e-01 1.18003288398822e+00 9.74880024233039e-03
4.75968253968254e-01 1.17356691436846e+00 9.72591902657940e-03
4.78952380952381e-01 1.16713637491630e+00 9.70290080102263e-03
4.81936507936508e-01 1.16074107149275e+00 9.67974915726024e-03
4.84920634920635e-01 1.15438081102260e+00 9.65646762556058e-03
4.87904761904762e-01 1.14805540148862e+00 9.63305967603108e-03
4.90888888888889e-01 1.14176465192571e+00 9.60952871976485e-03
4.93873015873016e-01 1.13550837241517e+00 9.58587810995668e-03
4.96857142857143e-01 1.12928637407895e+00 9.56211114299171e-03
4.99841269841270e-01 1.12309846907396e+00 9.53823105951087e-03
5.02825396825397e-01 1.11694447058639e+00 9.51424104544889e-03
5.05809523809524e-01 1.11082419282608e+00 9.49014423304833e-03
5.08793650793651e-01 1.10473745102088e+00 9.46594370185195e-03
5.11777777777778e-01 1.09868406141113e+00 9.44164247966885e-03
5.14761904761905e-01 1.09266384124406e+00 9.41724354352068e-03
5.17746031746032e-01 1.08667660876828e+00 9.39274982056566e-03
5.20730158730159e-01 1.08072218322832e+00 9.36816418900231e-03
5.23714285714286e-01 1.07480038485915e+00 9.34348947895116e-03
5.26698412698413e-01 1.06891103488077e+00 9.31872847331662e-03
5.29682539682540e-01 1.06305395549278e+00 9.29388390863289e-03
5.32666666666667e-01 1.05722896986905e+00 9.26895847588716e-03
5.35650793650794e-01 1.05143590215237e+00 9.24395482132584e-03
5.38634920634921e-01 1.04567457744911e+00 9.21887554724455e-03
5.41619047619048e-01 1.03994482182400e+00 9.19372321275968e-03
5.44603174603175e-01 1.03424646229483e+00 9.16850033456229e-03
5.47587301587302e-01 1.02857932682724e+00 9.14320938765784e-03
5.50571428571429e-01 1.02294324432953e+00 9.11785280609050e-03
5.53555555555556e-01 1.01733804464749e+00 9.09243298364649e-03
5.56539682539683e-01 1.01176355855929e+00 9.06695227454986e-03
5.59523809523810e-01 1.00621961777032e+00 9.04141299414147e-03
5.62507936507937e-01 1.00070605490815e+00 9.01581741953927e-03
5.65492063492063e-01 9.95222703517455e-01 8.99016779029002e-03
5.68476190476190e-01 9.89769398055019e-01 8.96446630900626e-03
5.71460317460317e-01 9.84345973884697e-01 8.93871514198779e-03
5.74444444444444e-01 9.78952267272476e-01 8.91291641983432e-03
5.77428571428571e-01 9.73588115381515e-01 8.88707223804269e-03
5.80412698412698e-01 9.68253356267237e-01 8.86118465759212e-03
5.83396825396825e-01 9.62947828872438e-01 8.83525570551969e-03
5.86380952380952e-01 9.57671373022422e-01 8.80928737548123e-03
5.89365079365079e-01 9.52423829420170e-01 8.78328162830473e-03
5.92349206349206e-01 9.47205039641526e-01 8.75724039252968e-03
5.95333333333333e-01 9.42014846130418e-01 8.73116556493702e-03
5.98317460317460e-01 9.36853092194098e-01 8.70505901106792e-03
6.01301587301587e-01 9.31719621998416e-01 8.67892256573371e-03
6.04285714285714e-01 9.26614280563108e-01 8.65275803351487e-03
6.07269841269841e-01 9.21536913757125e-01 8.62656718925023e-03
6.10253968253968e-01 9.16487368293977e-01 8.60035177851916e-03
6.13238095238095e-01 9.11465491727102e-01 8.57411351810926e-03
6.16222222222222e-01 9.06471132445267e-01 8.54785409647981e-03
6.19206349206349e-01 9.01504139667990e-01 8.52157517421633e-03
6.22190476190476e-01 8.96564363440989e-01 8.49527838447275e-03
6.25174603174603e-01 8.91651654631654e-01 8.46896533340921e-03
6.28158730158730e-01 8.86765864924542e-01 8.44263760062082e-03
6.31142857142857e-01 8.81906846816904e-01 8.41629673955470e-03
6.34126984126984e-01 8.77074453614231e-01 8.38994427792555e-03
6.37111111111111e-01 8.72268539425820e-01 8.36358171811933e-03
6.40095238095238e-01 8.67488959160376e-01 8.33721053758870e-03
6.43079365079365e-01 8.62735568521630e-01 8.31083218924571e-03
6.46063492063492e-01 8.58008224003981e-01 8.28444810184310e-03
6.49047619047619e-01 8.53306782888162e-01 8.25805968034998e-03
6.52031746031746e-01 8.48631103236938e-01 8.23166830632176e-03
6.55015873015873e-01 8.43981043890814e-01 8.20527533826244e-03
6.58000000000000e-01 8.39356464463776e-01 8.17888210920317e-03
6.60984126984127e-01 8.34757225345677e-01 8.15248993542014e-03
6.63968253968254e-01 8.30183187678048e-01 8.12610011118150e-03
6.66952380952381e-01 8.25634213369984e-01 8.09971390343392e-03
6.69936507936508e-01 8.21110165087243e-01 8.07333256063790e-03
6.72920634920635e-01 8.16610906248109e-01 8.04695731024491e-03
6.75904761904762e-01 8.12136301019258e-01 8.02058935901855e-03
6.78888888888889e-01 8.07686214311665e-01 7.99422989334795e-03
6.81873015873016e-01 8.03260511776522e-01 7.96788007955773e-03
6.84857142857143e-01 7.98859059801183e-01 7.94154106420968e-03
6.87841269841270e-01 7.94481725505131e-01 7.91521397440154e-03
6.90825396825397e-01 7.90128376735964e-01 7.88889991806188e-03
6.93809523809524e-01 7.85798882065408e-01 7.86259998423780e-03
6.96793650793651e-01 7.81493110785347e-01 7.83631524337672e-03
6.99777777777778e-01 7.77210932903879e-01 7.81004674760612e-03
7.02761904761905e-01 7.72952219141389e-01 7.78379553100701e-03
7.05746031746032e-01 7.68716840926647e-01 7.75756260988235e-03
7.08730158730159e-01 7.64504670392928e-01 7.73134898302350e-03
7.11714285714286e-01 7.60315580374151e-01 7.70515563196981e-03
7.14698412698413e-01 7.56149444401037e-01 7.67898352126376e-03
7.17682539682540e-01 7.52006136697296e-01 7.65283359870255e-03
7.20666666666667e-01 7.47885532175825e-01 7.62670679558784e-03
7.23650793650794e-01 7.43787506434934e-01 7.60060402696755e-03
7.26634920634921e-01 7.39711935754590e-01 7.57452619187498e-03
7.29619047619048e-01 7.35658697092682e-01 7.54847417356512e-03
7.32603174603175e-01 7.31627668081305e-01 7.52244883974679e-03
7.35587301587302e-01 7.27618727023069e-01 7.49645104280949e-03
7.38571428571429e-01 7.23631752887419e-01 7.47048162004881e-03
7.41555555555556e-01 7.19666625306990e-01 7.44454139388702e-03
7.44539682539683e-01 7.15723224573962e-01 7.41863117208976e-03
7.47523809523809e-01 7.11801431636457e-01 7.39275174797977e-03
7.50507936507936e-01 7.07901128094937e-01 7.36690390064781e-03
7.53492063492063e-01 7.04022196198632e-01 7.34108839515942e-03
7.56476190476190e-01 7.00164518841985e-01 7.31530598275677e-03
7.59460317460317e-01 6.96327979561118e-01 7.28955740106152e-03
7.62444444444444e-01 6.92512462530316e-01 7.26384337427232e-03
7.65428571428571e-01 6.88717852558526e-01 7.23816461335686e-03
7.68412698412698e-01 6.84944035085884e-01 7.21252181624314e-03
7.71396825396825e-01 6.81190896180255e-01 7.18691566801040e-03
7.74380952380952e-01 6.77458322533793e-01 7.16134684107241e-03
7.77365079365079e-01 6.73746201459519e-01 7.13581599535982e-03
7.80349206349206e-01 6.70054420887922e-01 7.11032377849967e-03
7.83333333333333e-01 6.66382869363574e-01 7.08487082599242e-03
7.86317460317460e-01 6.62731436041763e-01 7.05945776138688e-03
7.89301587301587e-01 6.59100010685150e-01 7.03408519645017e-03
7.92285714285714e-01 6.55488483660440e-01 7.00875373133755e-03
7.95269841269841e-01 6.51896745935071e-01 6.98346395475759e-03
7.98253968253968e-01 6.48324689073924e-01 6.95821644413697e-03
8.01238095238095e-01 6.44772205236048e-01 6.93301176578247e-03
8.04222222222222e-01 6.41239187171403e-01 6.90785047503785e-03
8.07206349206349e-01 6.37725528217625e-01 6.88273311644062e-03
8.10190476190476e-01 6.34231122296804e-01 6.85766022387669e-03
8.13174603174603e-01 6.30755863912284e-01 6.83263232073239e-03
8.16158730158730e-01 6.27299648145474e-01 6.80764992004360e-03
8.19142857142857e-01 6.23862370652683e-01 6.78271352464201e-03
8.22126984126984e-01 6.20443927661969e-01 6.75782362730141e-03
8.25111111111111e-01 6.17044215970007e-01 6.73298071088103e-03
8.28095238095238e-01 6.13663132938974e-01 6.70818524846501e-03
8.31079365079365e-01 6.10300576493447e-01 6.68343770350178e-03
8.34063492063492e-01 6.06956445117325e-01 6.65873852994027e-03
8.37047619047619e-01 6.03630637850762e-01 6.63408817236525e-03
8.40031746031746e-01 6.00323054287121e-01 6.60948706613025e-03
8.43015873015873e-01 5.97033594569938e-01 6.58493563748752e-03
8.46000000000000e-01 5.93762159389915e-01 6.56043430198478e-03
8.48984126984127e-01 5.90508649985561e-01 6.53598346981186e-03
8.51968253968254e-01 5.87272968129223e-01 6.51158354243660e-03
8.54952380952381e-01 5.84055016135163e-01 6.48723490920167e-03
8.57936507936508e-01 5.80854696852911e-01 6.46293795275087e-03
8.60920634920635e-01 5.77671913664331e-01 6.43869304737242e-03
8.63904761904762e-01 5.74506570480705e-01 6.41450055911749e-03
8.66888888888889e-01 5.71358571739830e-01 6.39036084591661e-03
8.69873015873016e-01 5.68227822403137e-01 6.36627425769472e-03
8.72857142857143e-01 5.65114227952815e-01 6.34224113648355e-03
8.75841269841270e-01 5.62017694388965e-01 6.31826181653307e-03
8.78825396825397e-01 5.58938128226759e-01 6.29433662442195e-03
8.81809523809524e-01 5.55875436493615e-01 6.27046587916608e-03
8.84793650793651e-01 5.52829526726396e-01 6.24664989232565e-03
8.87777777777778e-01 5.49800306968610e-01 6.22288896810842e-03
8.90761904761905e-01 5.46787685767645e-01 6.19918340347512e-03
8.93746031746032e-01 5.43791572171997e-01 6.17553348824287e-03
8.96730158730159e-01 5.40811875728533e-01 6.15193950518417e-03
8.99714285714286e-01 5.37848506479754e-01 6.12840173012731e-03
9.02698412698413e-01 5.34901374961082e-01 6.10492043205385e-03
9.05682539682540e-01 5.31970392198158e-01 6.08149587319603e-03
9.08666666666667e-01 5.29055469704159e-01 6.05812830913295e-03
9.11650793650794e-01 5.26156519477121e-01 6.03481798888239e-03
9.14634920634921e-01 5.23273453997286e-01 6.01156515499534e-03
9.17619047619048e-01 5.20406186224461e-01 5.98837004364813e-03
9.20603174603175e-01 5.17554629595384e-01 5.96523288473021e-03
9.23587301587302e-01 5.14718698021120e-01 5.94215390193464e-03
9.26571428571428e-01 5.11898305884453e-01 5.91913331284631e-03
9.29555555555556e-01 5.09093368037306e-01 5.89617132902759e-03
9.32539682539683e-01 5.06303799798170e-01 5.87326815610405e-03
9.35523809523810e-01 5.03529516949547e-01 5.85042399384893e-03
9.38507936507937e-01 5.00770435735407e-01 5.82763903626590e-03
9.41492063492063e-01 4.98026472858658e-01 5.80491347167053e-03
