Energy (eV)          EEDF (eV^-(3/2))     First Anisotropy
6.83018867924528e-03 3.70926709403325e-01 1.90318394607465e-04
2.04905660377359e-02 3.68515811979664e-01 3.14305071473509e-04
3.41509433962264e-02 3.66120584582666e-01 4.15011860995521e-04
4.78113207547170e-02 3.63740925346014e-01 4.91576588759538e-04
6.14716981132076e-02 3.61376733087949e-01 5.55479726773342e-04
7.51320754716981e-02 3.59027907273704e-01 6.11059487619793e-04
8.87924528301887e-02 3.56694348026859e-01 6.60559718685062e-04
1.02452830188679e-01 3.54375956122963e-01 7.05334717287996e-04
1.16113207547170e-01 3.52072632974436e-01 7.46282219239611e-04
1.29773584905660e-01 3.49784280649580e-01 7.84036405672190e-04
1.43433962264151e-01 3.47510801825086e-01 8.19066491592680e-04
1.57094339622642e-01 3.45252099845907e-01 8.51732112077091e-04
1.70754716981132e-01 3.43008078665848e-01 8.82316712675758e-04
1.84415094339623e-01 3.40778642851692e-01 9.11048794533444e-04
1.98075471698113e-01 3.38563697616470e-01 9.38116052377653e-04
2.11735849056604e-01 3.36363148775283e-01 9.63675118855891e-04
2.25396226415094e-01 3.34176902746343e-01 9.87858474517046e-04
2.39056603773585e-01 3.32004866576328e-01 1.01077948947607e-03
2.52716981132075e-01 3.29846947905352e-01 1.03253617665441e-03
2.66377358490566e-01 3.27703054966195e-01 1.05321403066720e-03
2.80037735849057e-01 3.25573096604581e-01 1.07288822667324e-03
2.93698113207547e-01 3.23456982242833e-01 1.09162533765718e-03
3.07358490566038e-01 3.21354621907217e-01 1.10948469633763e-03
3.21018867924528e-01 3.19265926200859e-01 1.12651949287848e-03
3.34679245283019e-01 3.17190806301853e-01 1.14277765700710e-03
3.48339622641509e-01 3.15129173978490e-01 1.15830258787963e-03
3.62000000000000e-01 3.13080941565801e-01 1.17313375742009e-03
3.75660377358491e-01 3.11046021963363e-01 1.18730720603070e-03
3.89320754716981e-01 3.09024328647983e-01 1.20085596539634e-03
4.02981132075472e-01 3.07015775653050e-01 1.21381041592157e-03
4.16641509433962e-01 3.05020277566080e-01 1.22619858429921e-03
4.30301886792453e-01 3.03037749539463e-01 1.23804640433999e-03
4.43962264150943e-01 3.01068107272039e-01 1.24937794145062e-03
4.57622641509434e-01 2.99111267006434e-01 1.26021558072398e-03
4.71283018867925e-01 2.97167145538284e-01 1.27058019682515e-03
4.84943396226415e-01 2.95235660195628e-01 1.28049129921669e-03
4.98603773584906e-01 2.93316728852019e-01 1.28996715927855e-03
5.12264150943396e-01 2.91410269910598e-01 1.29902492541497e-03
5.25924528301887e-01 2.89516202301318e-01 1.30768071856986e-03
5.39584905660377e-01 2.87634445488395e-01 1.31594972226346e-03
5.53245283018868e-01 2.85764919455716e-01 1.32384626271701e-03
5.66905660377359e-01 2.83907544704054e-01 1.33138387514242e-03
5.80566037735849e-01 2.82062242257523e-01 1.33857536812956e-03
5.94226415094340e-01 2.80228933650144e-01 1.34543288146724e-03
6.07886792452830e-01 2.78407540923027e-01 1.35196793327410e-03
6.21547169811321e-01 2.76597986630007e-01 1.35819146730466e-03
6.35207547169811e-01 2.74800193825210e-01 1.36411389577558e-03
6.48867924528302e-01 2.73014086060202e-01 1.36974513354880e-03
6.62528301886792e-01 2.71239587388943e-01 1.37509463421587e-03
6.76188679245283e-01 2.69476622353622e-01 1.38017142056203e-03
6.89849056603774e-01 2.67725115992167e-01 1.38498411225288e-03
7.03509433962264e-01 2.65984993827026e-01 1.38954095366376e-03
7.17169811320755e-01 2.64256181862358e-01 1.39384983455805e-03
7.30830188679245e-01 2.62538606588139e-01 1.39791831329888e-03
7.44490566037736e-01 2.60832194969637e-01 1.40175363820761e-03
7.58150943396226e-01 2.59136874444640e-01 1.40536276312433e-03
7.71811320754717e-01 2.57452572927056e-01 1.40875236579163e-03
7.85471698113208e-01 2.55779218797031e-01 1.41192886485415e-03
7.99132075471698e-01 2.54116740898185e-01 1.41489843167389e-03
8.12792452830189e-01 2.52465068540792e-01 1.41766700553497e-03
8.26452830188679e-01 2.50824131490494e-01 1.42024030570974e-03
8.40113207547170e-01 2.49193859973448e-01 1.42262384258175e-03
8.53773584905660e-01 2.47574184667275e-01 1.42482293012538e-03
8.67433962264151e-01 2.45965036698334e-01 1.42684269344020e-03
8.81094339622641e-01 2.44366347644382e-01 1.42868807938280e-03
8.94754716981132e-01 2.42778049525987e-01 1.43036386650931e-03
9.08415094339623e-01 2.41200074803858e-01 1.43187467086145e-03
9.22075471698113e-01 2.39632356381171e-01 1.43322495483219e-03
9.35735849056604e-01 2.38074827595432e-01 1.43441903547993e-03
9.49396226415094e-01 2.36527422215834e-01 1.43546108897155e-03
9.63056603773585e-01 2.34990074445310e-01 1.43635515805690e-03
9.76716981132076e-01 2.33462718912789e-01 1.43710515910065e-03
9.90377358490566e-01 2.31945290670592e-01 1.43771488548249e-03
1.00403773584906e+00 2.30437725196235e-01 1.43818801260192e-03
1.01769811320755e+00 2.28939958390832e-01 1.43852810866700e-03
1.03135849056604e+00 2.27451926556210e-01 1.43873863349496e-03
1.04501886792453e+00 2.25973566418500e-01 1.43882294054834e-03
1.05867924528302e+00 2.24504815115058e-01 1.43878428408409e-03
1.07233962264151e+00 2.23045610205380e-01 1.43862583050452e-03
1.08600000000000e+00 2.21595889627588e-01 1.43835065553936e-03
1.09966037735849e+00 2.20155591736854e-01 1.43796174110485e-03
1.11332075471698e+00 2.18724655289015e-01 1.43746198556707e-03
1.12698113207547e+00 2.17303019450536e-01 1.43685421295365e-03
1.14064150943396e+00 2.15890623758036e-01 1.43614116973344e-03
1.15430188679245e+00 2.14487408153789e-01 1.43532552132866e-03
1.16796226415094e+00 2.13093312970445e-01 1.43440986141716e-03
1.18162264150943e+00 2.11708278940136e-01 1.43339672027749e-03
1.19528301886792e+00 2.10332247156751e-01 1.43228856130944e-03
1.20894339622642e+00 2.08965159108808e-01 1.43108777448822e-03
1.22260377358491e+00 2.07606956676172e-01 1.42979669625367e-03
1.23626415094340e+00 2.06257582094323e-01 1.42841760291164e-03
1.24992452830189e+00 2.04916977985328e-01 1.42695270687912e-03
1.26358490566038e+00 2.03585087344156e-01 1.42540416462400e-03
1.27724528301887e+00 2.02261853546592e-01 1.42377408378414e-03
1.29090566037736e+00 2.00947220315792e-01 1.42206451951033e-03
1.30456603773585e+00 1.99641131751075e-01 1.42027747063105e-03
1.31822641509434e+00 1.98343532315080e-01 1.41841488700004e-03
1.33188679245283e+00 1.97054366841043e-01 1.41647867608150e-03
1.34554716981132e+00 1.95773580501446e-01 1.41447069924690e-03
1.35920754716981e+00 1.94501118834828e-01 1.41239276791563e-03
1.37286792452830e+00 1.93236927733712e-01 1.41024665039017e-03
1.38652830188679e+00 1.91980953451301e-01 1.40803407798028e-03
1.40018867924528e+00 1.90733142572047e-01 1.40575674129584e-03
1.41384905660377e+00 1.89493442036657e-01 1.40341628640148e-03
1.42750943396226e+00 1.88261799130722e-01 1.40101432120311e-03
1.44116981132075e+00 1.87038161490892e-01 1.39855242117063e-03
1.45483018867925e+00 1.85822477077199e-01 1.39603212565657e-03
1.46849056603774e+00 1.84614694196419e-01 1.39345493181236e-03
1.48215094339623e+00 1.83414761499355e-01 1.39082230971158e-03
1.49581132075472e+00 1.82222627954443e-01 1.38813569630722e-03
1.50947169811321e+00 1.81038242869906e-01 1.38539649170198e-03
1.52313207547170e+00 1.79861555883430e-01 1.38260606483830e-03
1.53679245283019e+00 1.78692516967591e-01 1.37976575859600e-03
1.55045283018868e+00 1.77531076404972e-01 1.37687688623768e-03
1.56411320754717e+00 1.76377184808911e-01 1.37394072774705e-03
1.57777358490566e+00 1.75230793113738e-01 1.37095853519655e-03
1.59143396226415e+00 1.74091852579797e-01 1.36793153755584e-03
1.60509433962264e+00 1.72960314769957e-01 1.36486093720709e-03
1.61875471698113e+00 1.71836131569071e-01 1.36174790636343e-03
1.63241509433962e+00 1.70719255174729e-01 1.35859359214415e-03
1.64607547169811e+00 1.69609638101909e-01 1.35539912112227e-03
1.65973584905660e+00 1.68507233160784e-01 1.35216559591888e-03
1.67339622641509e+00 1.67411993474986e-01 1.34889409170820e-03
1.68705660377359e+00 1.66323872472838e-01 1.34558566102753e-03
1.70071698113208e+00 1.65242823891672e-01 1.34224133808757e-03
1.71437735849057e+00 1.64168801756828e-01 1.33886213544999e-03
1.72803773584906e+00 1.63101760398827e-01 1.33544903876926e-03
1.74169811320755e+00 1.62041654451058e-01 1.33200301880018e-03
1.75535849056604e+00 1.60988438829675e-01 1.32852502619240e-03
1.76901886792453e+00 1.59942068749939e-01 1.32501598817914e-03
1.78267924528302e+00 1.58902499718190e-01 1.32147681295221e-03
1.79633962264151e+00 1.57869687535661e-01 1.31790839358312e-03
1.81000000000000e+00 1.56843588279423e-01 1.31431160488026e-03
1.82366037735849e+00 1.55824158317771e-01 1.31068730017197e-03
1.83732075471698e+00 1.54811354302592e-01 1.30703631547258e-03
1.85098113207547e+00 1.53805133172910e-01 1.30335947321695e-03
1.86464150943396e+00 1.52805452136808e-01 1.29965757920735e-03
1.87830188679245e+00 1.51812268685930e-01 1.29593141949158e-03
1.89196226415094e+00 1.50825540588217e-01 1.29218176433538e-03
1.90562264150943e+00 1.49845225891202e-01 1.28840937178395e-03
1.91928301886792e+00 1.48871282904848e-01 1.28461498469906e-03
1.93294339622642e+00 1.47903670215227e-01 1.28079932614005e-03
1.94660377358491e+00 1.46942346682478e-01 1.27696310953416e-03
1.96026415094340e+00 1.45987271424324e-01 1.27310703410762e-03
1.97392452830189e+00 1.45038403829139e-01 1.26923178194685e-03
1.98758490566038e+00 1.44095703549247e-01 1.26533802164561e-03
2.00124528301887e+00 1.43159130503858e-01 1.26142641157633e-03
2.01490566037736e+00 1.42228644863388e-01 1.25749759710069e-03
2.02856603773585e+00 1.41304207061804e-01 1.25355220772097e-03
2.04222641509434e+00 1.40385777790236e-01 1.24959086056907e-03
2.05588679245283e+00 1.39473317999702e-01 1.24561416353560e-03
2.06954716981132e+00 1.38566788886201e-01 1.24162271256737e-03
2.08320754716981e+00 1.37666151902375e-01 1.23761708890924e-03
2.09686792452830e+00 1.36771368751410e-01 1.23359786244349e-03
2.11052830188679e+00 1.35882401389579e-01 1.22956559468636e-03
2.12418867924528e+00 1.34999212012051e-01 1.22552083617061e-03
2.13784905660377e+00 1.34121763063913e-01 1.22146412377571e-03
2.15150943396226e+00 1.33250017234351e-01 1.21739598392699e-03
2.16516981132075e+00 1.32383937459023e-01 1.21331693546709e-03
2.17883018867925e+00 1.31523486906530e-01 1.20922748712200e-03
2.19249056603774e+00 1.30668628988855e-01 1.20512813359649e-03
2.20615094339623e+00 1.29819327359603e-01 1.20101936393386e-03
2.21981132075472e+00 1.28975545900974e-01 1.19690165765662e-03
2.23347169811321e+00 1.28137248733760e-01 1.19277548225825e-03
2.24713207547170e+00 1.27304400211950e-01 1.18864129616336e-03
2.26079245283019e+00 1.26476964924845e-01 1.18449955138553e-03
2.27445283018868e+00 1.25654907684631e-01 1.18035069114651e-03
2.28811320754717e+00 1.24838193535852e-01 1.17619514744980e-03
2.30177358490566e+00 1.24026787750252e-01 1.17203334392214e-03
2.31543396226415e+00 1.23220655828739e-01 1.16786569836493e-03
2.32909433962264e+00 1.22419763489538e-01 1.16369262045045e-03
2.34275471698113e+00 1.21624076677163e-01 1.15951450937500e-03
2.35641509433962e+00 1.20833561557480e-01 1.15533175658750e-03
2.37007547169811e+00 1.20048184519545e-01 1.15114474824068e-03
2.38373584905660e+00 1.19267912164286e-01 1.14695386296205e-03
2.39739622641509e+00 1.18492711313017e-01 1.14275946958389e-03
2.41105660377359e+00 1.17722549002707e-01 1.13856192976522e-03
2.42471698113208e+00 1.16957392487696e-01 1.13436160034767e-03
2.43837735849057e+00 1.16197209228884e-01 1.13015883119858e-03
2.45203773584906e+00 1.15441966901811e-01 1.12595396191233e-03
2.46569811320755e+00 1.14691633395127e-01 1.12174732875395e-03
2.47935849056604e+00 1.13946176800153e-01 1.11753926139738e-03
2.49301886792453e+00 1.13205565418641e-01 1.11333008079320e-03
2.50667924528302e+00 1.12469767758363e-01 1.10912010160726e-03
2.52033962264151e+00 1.11738752534656e-01 1.10490963441187e-03
2.53400000000000e+00 1.11012488660431e-01 1.10069898366047e-03
2.54766037735849e+00 1.10290945253549e-01 1.09648844562584e-03
2.56132075471698e+00 1.09574091632593e-01 1.09227831074587e-03
2.57498113207547e+00 1.08861897318300e-01 1.08806886573241e-03
2.58864150943396e+00 1.08154332024020e-01 1.08386039161220e-03
2.60230188679245e+00 1.07451365662710e-01 1.07965316173249e-03
2.61596226415094e+00 1.06752968342885e-01 1.07544744401914e-03
2.62962264150943e+00 1.06059110369956e-01 1.07124350300655e-03
2.64328301886792e+00 1.05369762237093e-01 1.06704159794254e-03
2.65694339622642e+00 1.04684894631882e-01 1.06284197989840e-03
2.67060377358491e+00 1.04004478434948e-01 1.05864489779469e-03
2.68426415094340e+00 1.03328484711128e-01 1.05445059554337e-03
2.69792452830189e+00 1.02656884715865e-01 1.05025931017467e-03
2.71158490566038e+00 1.01989649891431e-01 1.04607127394271e-03
2.72524528301887e+00 1.01326751868115e-01 1.04188671621949e-03
2.73890566037736e+00 1.00668162455777e-01 1.03770586171421e-03
2.75256603773585e+00 1.00013853649924e-01 1.03352892866092e-03
2.76622641509434e+00 9.93637976280808e-02 1.02935613084744e-03
2.77988679245283e+00 9.87179667509077e-02 1.02518767944054e-03
2.79354716981132e+00 9.80763335540987e-02 1.02102378126289e-03
2.80720754716981e+00 9.74388707541710e-02 1.01686463704042e-03
2.82086792452830e+00 9.68055512449753e-02 1.01271044335738e-03
2.83452830188679e+00 9.61763480987382e-02 1.00856139441565e-03
2.84818867924528e+00 9.55512345582998e-02 1.00441768036793e-03
2.86184905660377e+00 9.49301840426236e-02 1.00027948562229e-03
2.87550943396226e+00 9.43131701434431e-02 9.96146990727121e-04
2.88916981132075e+00 9.37001666262340e-02 9.92020374066959e-04
2.90283018867925e+00 9.30911474227734e-02 9.87899810250055e-04
2.91649056603774e+00 9.24860866363861e-02 9.83785467657711e-04
2.93015094339623e+00 9.18849585407447e-02 9.79677513510354e-04
2.94381132075472e+00 9.12877375726656e-02 9.75576111443795e-04
2.95747169811321e+00 9.06943983371601e-02 9.71481419915245e-04
2.97113207547170e+00 9.01049156042959e-02 9.67393593965995e-04
2.98479245283019e+00 8.95192643100665e-02 9.63312786808055e-04
2.99845283018868e+00 8.89374195494806e-02 9.59239148307891e-04
3.01211320754717e+00 8.83593565813743e-02 9.55172823444524e-04
3.02577358490566e+00 8.77850508253924e-02 9.51113954009754e-04
3.03943396226415e+00 8.72144778627992e-02 9.47062680139101e-04
3.05309433962264e+00 8.66476134298472e-02 9.43019138844669e-04
3.06675471698113e+00 8.60844334223642e-02 9.38983462523147e-04
3.08041509433962e+00 8.55249138928475e-02 9.34955780596651e-04
3.09407547169811e+00 8.49690310512209e-02 9.30936220989962e-04
3.10773584905660e+00 8.44167612584695e-02 9.26924908710738e-04
3.12139622641509e+00 8.38680810310123e-02 9.22921964406384e-04
3.13505660377358e+00 8.33229670379058e-02 9.18927505947048e-04
3.14871698113208e+00 8.27813961015495e-02 9.14941649851988e-04
3.16237735849057e+00 8.22433451915742e-02 9.10964509915403e-04
3.17603773584906e+00 8.17087914290129e-02 9.06996195123258e-04
3.18969811320755e+00 8.11777120852499e-02 9.03036813932824e-04
3.20335849056604e+00 8.06500845760964e-02 8.99086472212129e-04
3.21701886792453e+00 8.01258864658103e-02 8.95145271881404e-04
3.23067924528302e+00 7.96050954644731e-02 8.91213312396981e-04
3.24433962264151e+00 7.90876894286190e-02 8.87290692088532e-04
3.25800000000000e+00 7.85736463555445e-02 8.83377506865984e-04
3.27166037735849e+00 7.80629443871431e-02 8.79473848905037e-04
3.28532075471698e+00 7.75555618073787e-02 8.75579808080117e-04
3.29898113207547e+00 7.70514770428718e-02 8.71695473255705e-04
3.31264150943396e+00 7.65506686574313e-02 8.67820931034815e-04
3.32630188679245e+00 7.60531153557148e-02 8.63956264486898e-04
3.33996226415094e+00 7.55587959807928e-02 8.60101554531759e-04
3.35362264150943e+00 7.50676895146964e-02 8.56256881186874e-04
3.36728301886792e+00 7.45797750731597e-02 8.52422322356068e-04
3.38094339622642e+00 7.40950319091150e-02 8.48597951994820e-04
3.39460377358491e+00 7.36134394117448e-02 8.44783843864650e-04
3.40826415094340e+00 7.31349771013834e-02 8.40980069717549e-04
3.42192452830189e+00 7.26596246328876e-02 8.37186698098443e-04
3.43558490566038e+00 7.21873617933491e-02 8.33403795644084e-04
3.44924528301887e+00 7.17181685025808e-02 8.29631428254115e-04
3.46290566037736e+00 7.12520248082131e-02 8.25869659950188e-04
3.47656603773585e+00 7.07889108889136e-02 8.22118551716291e-04
3.49022641509434e+00 7.03288070521811e-02 8.18378162753935e-04
3.50388679245283e+00 6.98716937347978e-02 8.14648551613898e-04
3.51754716981132e+00 6.94175514981135e-02 8.10929775091647e-04
3.53120754716981e+00 6.89663610311202e-02 8.07221887104709e-04
3.54486792452830e+00 6.85181031483254e-02 8.03524939905790e-04
3.55852830188679e+00 6.80727587901720e-02 7.99838985176594e-04
3.57218867924528e+00 6.76303090185013e-02 7.96164072958374e-04
3.58584905660377e+00 6.71907350194911e-02 7.92500250565046e-04
3.59950943396226e+00 6.67540181016038e-02 7.88847563755637e-04
3.61316981132076e+00 6.63201396959766e-02 7.85206057791897e-04
3.62683018867925e+00 6.58890813520555e-02 7.81575776402633e-04
3.64049056603774e+00 6.54608247404036e-02 7.77956760217476e-04
3.65415094339623e+00 6.50353516518692e-02 7.74349049959190e-04
3.66781132075472e+00 6.46126439933466e-02 7.70752684893752e-04
3.68147169811321e+00 6.41926837904874e-02 7.67167701806095e-04
3.69513207547170e+00 6.37754531857694e-02 7.63594136102351e-04
3.70879245283019e+00 6.33609344388422e-02 7.60032022803833e-04
3.72245283018868e+00 6.29491099224462e-02 7.56481395571143e-04
3.73611320754717e+00 6.25399621250050e-02 7.52942285712239e-04
3.74977358490566e+00 6.21334736487608e-02 7.49414723248172e-04
3.76343396226415e+00 6.17296272100955e-02 7.45898737874483e-04
3.77709433962264e+00 6.13284056356010e-02 7.42394358015762e-04
3.79075471698113e+00 6.09297918645580e-02 7.38901609865420e-04
3.80441509433962e+00 6.05337689471362e-02 7.35420518416106e-04
3.81807547169811e+00 6.01403200446915e-02 7.31951108389604e-04
3.83173584905660e+00 5.97494284259814e-02 7.28493403321251e-04
3.84539622641509e+00 5.93610774695359e-02 7.25047424629808e-04
3.85905660377359e+00 5.89752506619198e-02 7.21613192614180e-04
3.87271698113208e+00 5.85919315980071e-02 7.18190727352906e-04
3.88637735849057e+00 5.82111039773361e-02 7.14780047817140e-04
3.90003773584906e+00 5.78327516063772e-02 7.11381170531340e-04
3.91369811320755e+00 5.74568583978020e-02 7.07994112294919e-04
3.92735849056604e+00 5.70834083669411e-02 7.04618888856293e-04
3.94101886792453e+00 5.67123856339752e-02 7.01255514035590e-04
3.95467924528302e+00 5.63437744222977e-02 6.97904000662715e-04
3.96833962264151e+00 5.59775590587562e-02 6.94564361423987e-04
3.98200000000000e+00 5.56137239702393e-02 6.91236608025706e-04
3.99566037735849e+00 5.52522536857733e-02 6.87920750344325e-04
4.00932075471698e+00 5.48931328349405e-02 6.84616797333985e-04
4.02298113207547e+00 5.45363461481016e-02 6.81324757845811e-04
4.03664150943396e+00 5.41818784531065e-02 6.78044639817491e-04
4.05030188679245e+00 5.38297146773009e-02 6.74776449450126e-04
4.06396226415094e+00 5.34798398459982e-02 6.71520192086299e-04
4.07762264150943e+00 5.31322390826838e-02 6.68275873002888e-04
4.09128301886792e+00 5.27868976058450e-02 6.65043496625931e-04
4.10494339622642e+00 5.24438007308918e-02 6.61823065345602e-04
4.11860377358491e+00 5.21029338694960e-02 6.58614581919021e-04
4.13226415094340e+00 5.17642825265092e-02 6.55418048296785e-04
4.14592452830189e+00 5.14278323018198e-02 6.52233464846423e-04
4.15958490566038e+00 5.10935688889108e-02 6.49060831179504e-04
4.17324528301887e+00 5.07614780750388e-02 6.45900146898461e-04
4.18690566037736e+00 5.04315457382616e-02 6.42751410855507e-04
4.20056603773585e+00 5.01037578492162e-02 6.39614620400037e-04
4.21422641509434e+00 4.97781004697252e-02 6.36489772179232e-04
4.22788679245283e+00 4.94545597529604e-02 6.33376862860948e-04
4.24154716981132e+00 4.91331219405767e-02 6.30275888415750e-04
4.25520754716981e+00 4.88137733644142e-02 6.27186843387626e-04
4.26886792452830e+00 4.84965004451519e-02 6.24109721668782e-04
4.28252830188679e+00 4.81812896924562e-02 6.21044517199599e-04
4.29618867924528e+00 4.78681277022172e-02 6.17991223272826e-04
4.30984905660377e+00 4.75570011581790e-02 6.14949831826903e-04
