Energy (eV)          EEDF (eV^-(3/2))     First Anisotropy
3.46969696969697e-04 2.32750291568486e+01 9.66165177090497e-03
1.04090909090909e-03 2.31536535409460e+01 1.59662093289723e-02
1.73484848484848e-03 2.30329108796162e+01 2.11092214501606e-02
2.42878787878788e-03 2.29127978726002e+01 2.50359557394585e-02
3.12272727272727e-03 2.27933112357785e+01 2.83271233348045e-02
3.81666666666667e-03 2.26744477031471e+01 3.12017554085964e-02
4.51060606060606e-03 2.25562040252263e+01 3.37729424372246e-02
5.20454545454545e-03 2.24385769693603e+01 3.61088245007383e-02
5.89848484848485e-03 2.23215633201646e+01 3.82544939103517e-02
6.59242424242424e-03 2.22051598786457e+01 4.02417512219955e-02
7.28636363636364e-03 2.20893634628296e+01 4.20940854421606e-02
7.98030303030303e-03 2.19741709071537e+01 4.38294698576540e-02
8.67424242424242e-03 2.18595790624657e+01 4.54620461320756e-02
9.36818181818182e-03 2.17455847962660e+01 4.70031957825955e-02
1.00621212121212e-02 2.16321849921734e+01 4.84622522073836e-02
1.07560606060606e-02 2.15193765503444e+01 4.98469911312402e-02
1.14500000000000e-02 2.14071563867426e+01 5.11639786253252e-02
1.21439393939394e-02 2.12955214335938e+01 5.24188243853266e-02
1.28378787878788e-02 2.11844686391216e+01 5.36163702176821e-02
1.35318181818182e-02 2.10739949674651e+01 5.47608328947621e-02
1.42257575757576e-02 2.09640973985944e+01 5.58559142921063e-02
1.49196969696970e-02 2.08547729282278e+01 5.69048875541994e-02
1.56136363636364e-02 2.07460185677501e+01 5.79106653997673e-02
1.63075757575758e-02 2.06378313441305e+01 5.88758549122823e-02
1.70015151515152e-02 2.05302082998421e+01 5.98028019083807e-02
1.76954545454545e-02 2.04231464932769e+01 6.06936274635720e-02
1.83893939393939e-02 2.03166429971540e+01 6.15502578357297e-02
1.90833333333333e-02 2.02106948999751e+01 6.23744493674456e-02
1.97772727272727e-02 2.01052993054249e+01 6.31678096236175e-02
2.04712121212121e-02 2.00004533322915e+01 6.39318150533669e-02
2.11651515151515e-02 1.98961541143877e+01 6.46678260486297e-02
2.18590909090909e-02 1.97923988004731e+01 6.53770998192965e-02
2.25530303030303e-02 1.96891845541758e+01 6.60608014620445e-02
2.32469696969697e-02 1.95865085539147e+01 6.67200135251971e-02
2.39409090909091e-02 1.94843679928222e+01 6.73557443132178e-02
2.46348484848485e-02 1.93827600786685e+01 6.79689351298671e-02
2.53287878787879e-02 1.92816820337852e+01 6.85604666223804e-02
2.60227272727273e-02 1.91811310949884e+01 6.91311643598075e-02
2.67166666666667e-02 1.90811045135041e+01 6.96818037567651e-02
2.74106060606061e-02 1.89815995548923e+01 7.02131144346976e-02
2.81045454545455e-02 1.88826134989728e+01 7.07257840978606e-02
2.87984848484849e-02 1.87841436397506e+01 7.12204619517311e-02
2.94924242424242e-02 1.86861872856123e+01 7.16977619058317e-02
3.01863636363636e-02 1.85887417584330e+01 7.21582652684749e-02
3.08803030303030e-02 1.84918043943313e+01 7.26025231641016e-02
3.15742424242424e-02 1.83953725433177e+01 7.30310588939158e-02
3.22681818181818e-02 1.82994435692220e+01 7.34443699280839e-02
3.29621212121212e-02 1.82040148496207e+01 7.38429297452375e-02
3.36560606060606e-02 1.81090837757664e+01 7.42271895027281e-02
3.43500000000000e-02 1.80146477525153e+01 7.45975795564632e-02
3.50439393939394e-02 1.79207041982569e+01 7.49545108466450e-02
3.57378787878788e-02 1.78272505448434e+01 7.52983761638410e-02
3.64318181818182e-02 1.77342842375196e+01 7.56295513079783e-02
3.71257575757576e-02 1.76418027348529e+01 7.59483961511311e-02
3.78196969696970e-02 1.75498035086638e+01 7.62552556138343e-02
3.85136363636364e-02 1.74582840439568e+01 7.65504605635015e-02
3.92075757575758e-02 1.73672418388519e+01 7.68343286424744e-02
3.99015151515152e-02 1.72766744045157e+01 7.71071650033814e-02
4.05954545454545e-02 1.71865792652737e+01 7.73692631036993e-02
4.12893939393939e-02 1.70969539579982e+01 7.76209053008101e-02
4.19833333333333e-02 1.70077960325897e+01 7.78623634000512e-02
4.26772727272727e-02 1.69191030517260e+01 7.80938993070272e-02
4.33712121212121e-02 1.68308725907948e+01 7.83157655213563e-02
4.40651515151515e-02 1.67431022378278e+01 7.85282056241032e-02
4.47590909090909e-02 1.66557895934349e+01 7.87314547320418e-02
4.54530303030303e-02 1.65689322707382e+01 7.89257399215365e-02
4.61469696969697e-02 1.64825278953072e+01 7.91112806245363e-02
4.68409090909091e-02 1.63965741050931e+01 7.92882889988094e-02
4.75348484848485e-02 1.63110685503653e+01 7.94569702746331e-02
4.82287878787879e-02 1.62260088936468e+01 7.96175230797871e-02
4.89227272727273e-02 1.61413928096497e+01 7.97701397443284e-02
4.96166666666667e-02 1.60572179852124e+01 7.99150065868253e-02
5.03106060606061e-02 1.59734821192362e+01 8.00523041834293e-02
5.10045454545455e-02 1.58901829226218e+01 8.01822076210303e-02
5.16984848484849e-02 1.58073181182076e+01 8.03048867122648e-02
5.23924242424242e-02 1.57248854408342e+01 8.04205062908180e-02
5.30863636363636e-02 1.56428826368977e+01 8.05292263758909e-02
5.37803030303030e-02 1.55613074646762e+01 8.06312023249615e-02
5.44742424242424e-02 1.54801576941378e+01 8.07265850945819e-02
5.51681818181818e-02 1.53994311068799e+01 8.08155213951357e-02
5.58621212121212e-02 1.53191254960684e+01 8.08981538600641e-02
5.65560606060606e-02 1.52392386663778e+01 8.09746212061550e-02
5.72500000000000e-02 1.51597684339306e+01 8.10450583854627e-02
5.79439393939394e-02 1.50807126262379e+01 8.11095967293750e-02
5.86378787878788e-02 1.50020690821399e+01 8.11683640853609e-02
5.93318181818182e-02 1.49238356517471e+01 8.12214849468593e-02
6.00257575757576e-02 1.48460101963813e+01 8.12690805767362e-02
6.07196969696970e-02 1.47685905885170e+01 8.13112691246737e-02
6.14136363636364e-02 1.46915747117235e+01 8.13481657388949e-02
6.21075757575758e-02 1.46149604606071e+01 8.13798826725318e-02
6.28015151515151e-02 1.45387457407532e+01 8.14065293654796e-02
6.34954545454545e-02 1.44629284687657e+01 8.14282125999076e-02
6.41893939393939e-02 1.43875065719189e+01 8.14450365528816e-02
6.48833333333333e-02 1.43124779883936e+01 8.14571028447567e-02
6.55772727272727e-02 1.42378406671231e+01 8.14645106830342e-02
6.62712121212121e-02 1.41635925677365e+01 8.14673569225529e-02
6.69651515151515e-02 1.40897316605028e+01 8.14657361422239e-02
6.76590909090909e-02 1.40162559262763e+01 8.14597407184517e-02
6.83530303030303e-02 1.39431633564404e+01 8.14494608953813e-02
6.90469696969697e-02 1.38704519528532e+01 8.14349848521596e-02
6.97409090909091e-02 1.37981197277928e+01 8.14163987673278e-02
7.04348484848485e-02 1.37261647039030e+01 8.13937868805782e-02
7.11287878787879e-02 1.36545849141392e+01 8.13672315519814e-02
7.18227272727273e-02 1.35833784017145e+01 8.13368133187566e-02
7.25166666666667e-02 1.35125432200465e+01 8.13026109497745e-02
7.32106060606061e-02 1.34420774327039e+01 8.12647014978862e-02
7.39045454545455e-02 1.33719791133535e+01 8.12231603501931e-02
7.45984848484849e-02 1.33022463457075e+01 8.11780612599591e-02
7.52924242424242e-02 1.32328772235460e+01 8.11294764424493e-02
7.59863636363636e-02 1.31638698504397e+01 8.10774765864449e-02
7.66803030303030e-02 1.30952223399242e+01 8.10221308639119e-02
7.73742424242424e-02 1.30269328153728e+01 8.09635070215975e-02
7.80681818181818e-02 1.29589994099453e+01 8.09016714039930e-02
7.87621212121212e-02 1.28914202665365e+01 8.08366889916853e-02
7.94560606060606e-02 1.28241935377259e+01 8.07686234383066e-02
8.01500000000000e-02 1.27573173857268e+01 8.06975371061596e-02
8.08439393939394e-02 1.26907899823365e+01 8.06234911005537e-02
8.15378787878788e-02 1.26246095088858e+01 8.05465453029373e-02
8.22318181818182e-02 1.25587741561899e+01 8.04667584028644e-02
8.29257575757576e-02 1.24932821244984e+01 8.03841879288571e-02
8.36196969696970e-02 1.24281316234463e+01 8.02988902782088e-02
8.43136363636364e-02 1.23633208720052e+01 8.02109207457571e-02
8.50075757575758e-02 1.22988480984344e+01 8.01203335516878e-02
8.57015151515152e-02 1.22347115402326e+01 8.00271818543699e-02
8.63954545454546e-02 1.21709094441492e+01 7.99315178187162e-02
8.70893939393939e-02 1.21074400659567e+01 7.98333926129240e-02
8.77833333333333e-02 1.20443016705835e+01 7.97328564041671e-02
8.84772727272727e-02 1.19814925320066e+01 7.96299584252681e-02
8.91712121212121e-02 1.19190109332037e+01 7.95247469829996e-02
8.98651515151515e-02 1.18568551661063e+01 7.94172694801291e-02
9.05590909090909e-02 1.17950235315536e+01 7.93075724367918e-02
9.12530303030303e-02 1.17335143392453e+01 7.91957015111565e-02
9.19469696969697e-02 1.16723259076959e+01 7.90817015195069e-02
9.26409090909091e-02 1.16114565641887e+01 7.89656164556402e-02
9.33348484848485e-02 1.15509046447298e+01 7.88474895097092e-02
9.40287878787879e-02 1.14906684940027e+01 7.87273630865213e-02
9.47227272727273e-02 1.14307464653232e+01 7.86052788232443e-02
9.54166666666667e-02 1.13711369205944e+01 7.84812776066020e-02
9.61106060606061e-02 1.13118382302618e+01 7.83553995895864e-02
9.68045454545455e-02 1.12528487732685e+01 7.82276842076452e-02
9.74984848484849e-02 1.11941669370114e+01 7.80981701823601e-02
9.81924242424242e-02 1.11357911173449e+01 7.79668955730939e-02
9.88863636363636e-02 1.10777197183920e+01 7.78338977674880e-02
9.95803030303030e-02 1.10199511526468e+01 7.76992134713238e-02
1.00274242424242e-01 1.09624838408817e+01 7.75628787479800e-02
1.00968181818182e-01 1.09053162121501e+01 7.74249291239989e-02
1.01662121212121e-01 1.08484467033350e+01 7.72853993235859e-02
1.02356060606061e-01 1.07918737602415e+01 7.71443234915364e-02
1.03050000000000e-01 1.07355958363204e+01 7.70017354938659e-02
1.03743939393939e-01 1.06796113926548e+01 7.68576682717352e-02
1.04437878787879e-01 1.06239188992276e+01 7.67121542007407e-02
1.05131818181818e-01 1.05685168335589e+01 7.65652254394941e-02
1.05825757575758e-01 1.05134036806918e+01 7.64169132662707e-02
1.06519696969697e-01 1.04585779344110e+01 7.62672485347012e-02
1.07213636363636e-01 1.04040380955229e+01 7.61162615817517e-02
1.07907575757576e-01 1.03497826734770e+01 7.59639821207608e-02
1.08601515151515e-01 1.02958101850791e+01 7.58104396875261e-02
1.09295454545455e-01 1.02421191544768e+01 7.56556630033075e-02
1.09989393939394e-01 1.01887081143079e+01 7.54996804109855e-02
1.10683333333333e-01 1.01355756040760e+01 7.53425197858915e-02
1.11377272727273e-01 1.00827201716798e+01 7.51842084323856e-02
1.12071212121212e-01 1.00301403721973e+01 7.50247735109802e-02
1.12765151515152e-01 9.97783476787021e+00 7.48642414264723e-02
1.13459090909091e-01 9.92580192918805e+00 7.47026382457001e-02
1.14153030303030e-01 9.87404043335207e+00 7.45399896112062e-02
1.14846969696970e-01 9.82254886571914e+00 7.43763206412984e-02
1.15540909090909e-01 9.77132581865163e+00 7.42116563392974e-02
1.16234848484848e-01 9.72036989150169e+00 7.40460210056317e-02
1.16928787878788e-01 9.66967969163471e+00 7.38794386382302e-02
1.17622727272727e-01 9.61925383297590e+00 7.37119328490000e-02
1.18316666666667e-01 9.56909093737456e+00 7.35435267672065e-02
1.19010606060606e-01 9.51918963351562e+00 7.33742434319565e-02
1.19704545454545e-01 9.46954855690302e+00 7.32041052271487e-02
1.20398484848485e-01 9.42016635082738e+00 7.30331342653295e-02
1.21092424242424e-01 9.37104166498940e+00 7.28613523070371e-02
1.21786363636364e-01 9.32217315679004e+00 7.26887806673991e-02
1.22480303030303e-01 9.27355949029951e+00 7.25154405927552e-02
1.23174242424242e-01 9.22519933623988e+00 7.23413527173970e-02
1.23868181818182e-01 9.17709137290078e+00 7.21665374317772e-02
1.24562121212121e-01 9.12923428483451e+00 7.19910148046763e-02
1.25256060606061e-01 9.08162676407710e+00 7.18148044929028e-02
1.25950000000000e-01 9.03426750917091e+00 7.16379261028783e-02
1.26643939393939e-01 8.98715522514671e+00 7.14603986682176e-02
1.27337878787879e-01 8.94028862439073e+00 7.12822409188638e-02
1.28031818181818e-01 8.89366642570016e+00 7.11034715434709e-02
1.28725757575758e-01 8.84728735426499e+00 7.09241086804162e-02
1.29419696969697e-01 8.80115014250502e+00 7.07441702616300e-02
1.30113636363636e-01 8.75525352887377e+00 7.05636739393458e-02
1.30807575757576e-01 8.70959625897491e+00 7.03826370011004e-02
1.31501515151515e-01 8.66417708466545e+00 7.02010767076849e-02
1.32195454545455e-01 8.61899476403760e+00 7.00190098034062e-02
1.32889393939394e-01 8.57404806221209e+00 6.98364528464728e-02
1.33583333333333e-01 8.52933575020215e+00 6.96534221381850e-02
1.34277272727273e-01 8.48485660597235e+00 6.94699336409013e-02
1.34971212121212e-01 8.44060941358646e+00 6.92860033028254e-02
1.35665151515152e-01 8.39659296318936e+00 6.91016465866378e-02
1.36359090909091e-01 8.35280605175943e+00 6.89168787870812e-02
1.37053030303030e-01 8.30924748202892e+00 6.87317149625400e-02
1.37746969696970e-01 8.26591606348881e+00 6.85461698558697e-02
1.38440909090909e-01 8.22281061157857e+00 6.83602582066538e-02
1.39134848484849e-01 8.17992994766815e+00 6.81739942974046e-02
1.39828787878788e-01 8.13727289977205e+00 6.79873922589547e-02
1.40522727272727e-01 8.09483830152258e+00 6.78004660043778e-02
1.41216666666667e-01 8.05262499312405e+00 6.76132291525122e-02
1.41910606060606e-01 8.01063182058212e+00 6.74256953283513e-02
1.42604545454545e-01 7.96885763568560e+00 6.72378777260712e-02
1.43298484848485e-01 7.92730129668470e+00 6.70497894027191e-02
1.43992424242424e-01 7.88596166731402e+00 6.68614432144494e-02
1.44686363636364e-01 7.84483761769913e+00 6.66728517426438e-02
1.45380303030303e-01 7.80392802362316e+00 6.64840275829845e-02
1.46074242424242e-01 7.76323176650843e+00 6.62949829245871e-02
1.46768181818182e-01 7.72274773406107e+00 6.61057298325207e-02
1.47462121212121e-01 7.68247481934082e+00 6.59162801862839e-02
1.48156060606061e-01 7.64241192162286e+00 6.57266456084464e-02
1.48850000000000e-01 7.60255794569938e+00 6.55368377429042e-02
1.49543939393939e-01 7.56291180186117e+00 6.53468678494221e-02
1.50237878787879e-01 7.52347240651062e+00 6.51567470102645e-02
1.50931818181818e-01 7.48423868148481e+00 6.49664863322899e-02
1.51625757575758e-01 7.44520955403707e+00 6.47760965513484e-02
1.52319696969697e-01 7.40638395743049e+00 6.45855882973543e-02
1.53013636363636e-01 7.36776083007907e+00 6.43949720363571e-02
1.53707575757576e-01 7.32933911634133e+00 6.42042580033335e-02
1.54401515151515e-01 7.29111776587494e+00 6.40134564633946e-02
1.55095454545455e-01 7.25309573361860e+00 6.38225773304894e-02
1.55789393939394e-01 7.21527198035666e+00 6.36316304227345e-02
1.56483333333333e-01 7.17764547190033e+00 6.34406254064297e-02
1.57177272727273e-01 7.14021517984320e+00 6.32495717311506e-02
1.57871212121212e-01 7.10298008094569e+00 6.30584788813758e-02
1.58565151515152e-01 7.06593915711712e+00 6.28673560089197e-02
1.59259090909091e-01 7.02909139595331e+00 6.26762121788834e-02
1.59953030303030e-01 6.99243578995538e+00 6.24850563155746e-02
1.60646969696970e-01 6.95597133724956e+00 6.22938971398603e-02
1.61340909090909e-01 6.91969704099965e+00 6.21027434115734e-02
1.62034848484849e-01 6.88361190938939e+00 6.19116035751138e-02
1.62728787878788e-01 6.84771495613446e+00 6.17204859964645e-02
1.63422727272727e-01 6.81200519973699e+00 6.15293989109217e-02
1.64116666666667e-01 6.77648166417140e+00 6.13383503625916e-02
1.64810606060606e-01 6.74114337832362e+00 6.11473484380375e-02
1.65504545454545e-01 6.70598937597357e+00 6.09564009244990e-02
1.66198484848485e-01 6.67101869628305e+00 6.07655155383014e-02
1.66892424242424e-01 6.63623038308402e+00 6.05746998743944e-02
1.67586363636364e-01 6.60162348553236e+00 6.03839613478689e-02
1.68280303030303e-01 6.56719705757244e+00 6.01933074192438e-02
1.68974242424242e-01 6.53295015791958e+00 6.00027452647854e-02
1.69668181818182e-01 6.49888185052538e+00 5.98122819966513e-02
1.70362121212121e-01 6.46499120389777e+00 5.96219246142102e-02
1.71056060606061e-01 6.43127729172458e+00 5.94316799474879e-02
1.71750000000000e-01 6.39773919236198e+00 5.92415548744314e-02
1.72443939393939e-01 6.36437598881708e+00 5.90515560028590e-02
1.73137878787879e-01 6.33118676919180e+00 5.88616898315352e-02
1.73831818181818e-01 6.29817062618597e+00 5.86719629081276e-02
1.74525757575758e-01 6.26532665708004e+00 5.84823815185179e-02
1.75219696969697e-01 6.23265396416573e+00 5.82929518940220e-02
1.75913636363636e-01 6.20015165411491e+00 5.81036801654670e-02
1.76607575757576e-01 6.16781883855686e+00 5.79145723098552e-02
1.77301515151515e-01 6.13565463360313e+00 5.77256343549461e-02
1.77995454545455e-01 6.10365815983052e+00 5.75368720794364e-02
1.78689393939394e-01 6.07182854269209e+00 5.73482912128577e-02
1.79383333333333e-01 6.04016491191366e+00 5.71598973911698e-02
1.80077272727273e-01 6.00866640204498e+00 5.69716961052648e-02
1.80771212121212e-01 5.97733215200516e+00 5.67836928983221e-02
1.81465151515152e-01 5.94616130506610e+00 5.65958930763991e-02
1.82159090909091e-01 5.91515300924469e+00 5.64083019013218e-02
1.82853030303030e-01 5.88430641672566e+00 5.62209245477693e-02
1.83546969696970e-01 5.85362068438795e+00 5.60337660534998e-02
1.84240909090909e-01 5.82309497336976e+00 5.58468315097779e-02
1.84934848484849e-01 5.79272844905224e+00 5.56601257820106e-02
1.85628787878788e-01 5.76252028143410e+00 5.54736536958834e-02
1.86322727272727e-01 5.73246964457926e+00 5.52874199958681e-02
1.87016666666667e-01 5.70257571711984e+00 5.51014292971143e-02
1.87710606060606e-01 5.67283768183982e+00 5.49156862692719e-02
1.88404545454545e-01 5.64325472565893e+00 5.47301953667432e-02
1.89098484848485e-01 5.61382603999063e+00 5.45449610083040e-02
1.89792424242424e-01 5.58455082021336e+00 5.43599875370407e-02
1.90486363636364e-01 5.55542826615119e+00 5.41752791738210e-02
1.91180303030303e-01 5.52645758167538e+00 5.39908401947614e-02
1.91874242424242e-01 5.49763797468831e+00 5.38066746707426e-02
1.92568181818182e-01 5.46896865746577e+00 5.36227866407819e-02
1.93262121212121e-01 5.44044884615054e+00 5.34391800733231e-02
1.93956060606061e-01 5.41207776121203e+00 5.32558588212456e-02
1.94650000000000e-01 5.38385462706457e+00 5.30728267932221e-02
1.95343939393939e-01 5.35577867205168e+00 5.28900877021305e-02
1.96037878787879e-01 5.32784912877325e+00 5.27076451919853e-02
1.96731818181818e-01 5.30006523371414e+00 5.25255029626198e-02
1.97425757575758e-01 5.27242622722861e+00 5.23436645236952e-02
1.98119696969697e-01 5.24493135385822e+00 5.21621333582985e-02
1.98813636363636e-01 5.21757986186005e+00 5.19809128863760e-02
1.99507575757576e-01 5.19037100363376e+00 5.18000064222178e-02
2.00201515151515e-01 5.16330403536574e+00 5.16194173361959e-02
2.00895454545455e-01 5.13637821701380e+00 5.14391488171317e-02
2.01589393939394e-01 5.10959281261125e+00 5.12592040302970e-02
2.02283333333333e-01 5.08294708981473e+00 5.10795860820386e-02
2.02977272727273e-01 5.05644032031292e+00 5.09002979786983e-02
2.03671212121212e-01 5.03007177948533e+00 5.07213427828143e-02
2.04365151515152e-01 5.00384074638739e+00 5.05427233835222e-02
2.05059090909091e-01 4.97774650404128e+00 5.03644426491861e-02
2.05753030303030e-01 4.95178833900254e+00 5.01865033931788e-02
2.06446969696970e-01 4.92596554175122e+00 5.00089083341669e-02
2.07140909090909e-01 4.90027740636475e+00 4.98316602469958e-02
2.07834848484849e-01 4.87472323050323e+00 4.96547617408333e-02
2.08528787878788e-01 4.84930231568787e+00 4.94782154066284e-02
2.09222727272727e-01 4.82401396688531e+00 4.93020237840039e-02
2.09916666666667e-01 4.79885749288223e+00 4.91261893228455e-02
2.10610606060606e-01 4.77383220597146e+00 4.89507145291024e-02
2.11304545454545e-01 4.74893742193764e+00 4.87756017503690e-02
2.11998484848485e-01 4.72417246032375e+00 4.86008533183506e-02
2.12692424242424e-01 4.69953664403238e+00 4.84264715168585e-02
2.13386363636364e-01 4.67502929968450e+00 4.82524585446359e-02
2.14080303030303e-01 4.65064975731837e+00 4.80788166562743e-02
2.14774242424242e-01 4.62639735037537e+00 4.79055479549599e-02
2.15468181818182e-01 4.60227141595531e+00 4.77326545301192e-02
2.16162121212121e-01 4.57827129443384e+00 4.75601384264890e-02
2.16856060606061e-01 4.55439632980613e+00 4.73880016081483e-02
2.17550000000000e-01 4.53064586939793e+00 4.72162460947119e-02
2.18243939393939e-01 4.50701926385173e+00 4.70448737609801e-02
2.18937878787879e-01 4.48351586737117e+00 4.68738864377520e-02
