Energy (eV)          EEDF (eV^-(3/2))     First Anisotropy
3.12500000000000e-02 4.39456691130961e-02 2.37946143968340e-05
9.37500000000000e-02 4.36304623947589e-02 3.92828200348683e-05
1.56250000000000e-01 4.33175165426248e-02 5.18343303402739e-05
2.18750000000000e-01 4.30068153402532e-02 6.13555549843728e-05
2.81250000000000e-01 4.26983426875573e-02 6.92845857487640e-05
3.43750000000000e-01 4.23920825999364e-02 7.61653806678746e-05
4.06250000000000e-01 4.20880192074435e-02 8.22795534824685e-05
4.68750000000000e-01 4.17861367539619e-02 8.77972300426925e-05
5.31250000000000e-01 4.14864195963881e-02 9.28312850102725e-05
5.93750000000000e-01 4.11888522038214e-02 9.74615268306264e-05
6.56250000000000e-01 4.08934191567586e-02 1.01747056637397e-04
7.18750000000000e-01 4.06001051462953e-02 1.05733213470740e-04
7.81250000000000e-01 4.03088949733326e-02 1.09455762257074e-04
8.43750000000000e-01 4.00197735477891e-02 1.12943560842903e-04
9.06250000000000e-01 3.97327258878195e-02 1.16220334196072e-04
9.68750000000000e-01 3.94477371190379e-02 1.19305897622068e-04
1.03125000000000e+00 3.91647924737470e-02 1.22217025674803e-04
1.09375000000000e+00 3.88838772901730e-02 1.24968085236664e-04
1.15625000000000e+00 3.86049770117059e-02 1.27571506945555e-04
1.21875000000000e+00 3.83280771861451e-02 1.30038142970457e-04
1.28125000000000e+00 3.80531634649505e-02 1.32377543097582e-04
1.34375000000000e+00 3.77802216024990e-02 1.34598170946912e-04
1.40625000000000e+00 3.75092374553461e-02 1.36707575546567e-04
1.46875000000000e+00 3.72401969814937e-02 1.38712529101763e-04
1.53125000000000e+00 3.69730862396615e-02 1.40619138806816e-04
1.59375000000000e+00 3.67078913885652e-02 1.42432938474749e-04
1.65625000000000e+00 3.64445986861994e-02 1.44158964294366e-04
1.71875000000000e+00 3.61831944891249e-02 1.45801817973590e-04
1.78125000000000e+00 3.59236652517622e-02 1.47365719762540e-04
1.84375000000000e+00 3.56659975256895e-02 1.48854553285359e-04
1.90625000000000e+00 3.54101779589455e-02 1.50271903687883e-04
1.96875000000000e+00 3.51561932953382e-02 1.51621090289954e-04
2.03125000000000e+00 3.49040303737572e-02 1.52905194688053e-04
2.09375000000000e+00 3.46536761274923e-02 1.54127085066442e-04
2.15625000000000e+00 3.44051175835561e-02 1.55289437329614e-04
2.21875000000000e+00 3.41583418620119e-02 1.56394753554422e-04
2.28125000000000e+00 3.39133361753062e-02 1.57445378170090e-04
2.34375000000000e+00 3.36700878276059e-02 1.58443512202504e-04
2.40625000000000e+00 3.34285842141411e-02 1.59391225861466e-04
2.46875000000000e+00 3.31888128205509e-02 1.60290469703179e-04
2.53125000000000e+00 3.29507612222357e-02 1.61143084562523e-04
2.59375000000000e+00 3.27144170837134e-02 1.61950810418838e-04
2.65625000000000e+00 3.24797681579795e-02 1.62715294333611e-04
2.71875000000000e+00 3.22468022858733e-02 1.63438097577715e-04
2.78125000000000e+00 3.20155073954471e-02 1.64120702048341e-04
2.84375000000000e+00 3.17858715013414e-02 1.64764516061503e-04
2.90625000000000e+00 3.15578827041632e-02 1.65370879593891e-04
2.96875000000000e+00 3.13315291898696e-02 1.65941069037601e-04
3.03125000000000e+00 3.11067992291557e-02 1.66476301522809e-04
3.09375000000000e+00 3.08836811768468e-02 1.66977738856234e-04
3.15625000000000e+00 3.06621634712949e-02 1.67446491116936e-04
3.21875000000000e+00 3.04422346337796e-02 1.67883619945772e-04
3.28125000000000e+00 3.02238832679132e-02 1.68290141560454e-04
3.34375000000000e+00 3.00070980590504e-02 1.68667029524100e-04
3.40625000000000e+00 2.97918677737017e-02 1.69015217291944e-04
3.46875000000000e+00 2.95781812589516e-02 1.69335600557964e-04
3.53125000000000e+00 2.93660274418803e-02 1.69629039420656e-04
3.59375000000000e+00 2.91553953289904e-02 1.69896360385049e-04
3.65625000000000e+00 2.89462740056367e-02 1.70138358216172e-04
3.71875000000000e+00 2.87386526354611e-02 1.70355797657495e-04
3.78125000000000e+00 2.85325204598308e-02 1.70549415026407e-04
3.84375000000000e+00 2.83278667972806e-02 1.70719919697574e-04
3.90625000000000e+00 2.81246810429602e-02 1.70867995483890e-04
3.96875000000000e+00 2.79229526680836e-02 1.70994301923699e-04
4.03125000000000e+00 2.77226712193843e-02 1.71099475482138e-04
4.09375000000000e+00 2.75238263185734e-02 1.71184130673707e-04
4.15625000000000e+00 2.73264076618018e-02 1.71248861112383e-04
4.21875000000000e+00 2.71304050191261e-02 1.71294240495072e-04
4.28125000000000e+00 2.69358082339788e-02 1.71320823523683e-04
4.34375000000000e+00 2.67426072226419e-02 1.71329146770521e-04
4.40625000000000e+00 2.65507919737241e-02 1.71319729491306e-04
4.46875000000000e+00 2.63603525476426e-02 1.71293074389744e-04
4.53125000000000e+00 2.61712790761075e-02 1.71249668337282e-04
4.59375000000000e+00 2.59835617616107e-02 1.71189983051263e-04
4.65625000000000e+00 2.57971908769180e-02 1.71114475734461e-04
4.71875000000000e+00 2.56121567645655e-02 1.71023589678754e-04
4.78125000000000e+00 2.54284498363586e-02 1.70917754835411e-04
4.84375000000000e+00 2.52460605728756e-02 1.70797388354346e-04
4.90625000000000e+00 2.50649795229741e-02 1.70662895094367e-04
4.96875000000000e+00 2.48851973033016e-02 1.70514668106387e-04
5.03125000000000e+00 2.47067045978089e-02 1.70353089091439e-04
5.09375000000000e+00 2.45294921572675e-02 1.70178528835053e-04
5.15625000000000e+00 2.43535507987904e-02 1.69991347619575e-04
5.21875000000000e+00 2.41788714053562e-02 1.69791895615802e-04
5.28125000000000e+00 2.40054449253367e-02 1.69580513255232e-04
5.34375000000000e+00 2.38332623720277e-02 1.69357531584130e-04
5.40625000000000e+00 2.36623148231836e-02 1.69123272600546e-04
5.46875000000000e+00 2.34925934205548e-02 1.68878049575257e-04
5.53125000000000e+00 2.33240893694288e-02 1.68622167357642e-04
5.59375000000000e+00 2.31567939381745e-02 1.68355922667395e-04
5.65625000000000e+00 2.29906984577897e-02 1.68079604372792e-04
5.71875000000000e+00 2.28257943214518e-02 1.67793493756421e-04
5.78125000000000e+00 2.26620729840720e-02 1.67497864769030e-04
5.84375000000000e+00 2.24995259618524e-02 1.67192984272104e-04
5.90625000000000e+00 2.23381448318461e-02 1.66879112269893e-04
5.96875000000000e+00 2.21779212315215e-02 1.66556502131411e-04
6.03125000000000e+00 2.20188468583280e-02 1.66225400802981e-04
6.09375000000000e+00 2.18609134692666e-02 1.65886049011800e-04
6.15625000000000e+00 2.17041128804621e-02 1.65538681461008e-04
6.21875000000000e+00 2.15484369667398e-02 1.65183527016756e-04
6.28125000000000e+00 2.13938776612034e-02 1.64820808887631e-04
6.34375000000000e+00 2.12404269548182e-02 1.64450744796820e-04
6.40625000000000e+00 2.10880768959949e-02 1.64073547147451e-04
6.46875000000000e+00 2.09368195901786e-02 1.63689423181409e-04
6.53125000000000e+00 2.07866471994390e-02 1.63298575131930e-04
6.59375000000000e+00 2.06375519420645e-02 1.62901200370316e-04
6.65625000000000e+00 2.04895260921590e-02 1.62497491547071e-04
6.71875000000000e+00 2.03425619792417e-02 1.62087636727679e-04
6.78125000000000e+00 2.01966519878490e-02 1.61671819523295e-04
6.84375000000000e+00 2.00517885571408e-02 1.61250219216603e-04
6.90625000000000e+00 1.99079641805080e-02 1.60823010883090e-04
6.96875000000000e+00 1.97651714051837e-02 1.60390365507878e-04
7.03125000000000e+00 1.96234028318571e-02 1.59952450098374e-04
7.09375000000000e+00 1.94826511142902e-02 1.59509427792928e-04
7.15625000000000e+00 1.93429089589367e-02 1.59061457965648e-04
7.21875000000000e+00 1.92041691245644e-02 1.58608696327537e-04
7.28125000000000e+00 1.90664244218801e-02 1.58151295024183e-04
7.34375000000000e+00 1.89296677131566e-02 1.57689402730082e-04
7.40625000000000e+00 1.87938919118632e-02 1.57223164739731e-04
7.46875000000000e+00 1.86590899822984e-02 1.56752723055708e-04
7.53125000000000e+00 1.85252549392252e-02 1.56278216473800e-04
7.59375000000000e+00 1.83923798475093e-02 1.55799780665311e-04
7.65625000000000e+00 1.82604578217596e-02 1.55317548256686e-04
7.71875000000000e+00 1.81294820259716e-02 1.54831648906584e-04
7.78125000000000e+00 1.79994456731729e-02 1.54342209380443e-04
7.84375000000000e+00 1.78703420250717e-02 1.53849353622653e-04
7.90625000000000e+00 1.77421643917077e-02 1.53353202826492e-04
7.96875000000000e+00 1.76149061311050e-02 1.52853875501875e-04
8.03125000000000e+00 1.74885606489286e-02 1.52351487540961e-04
8.09375000000000e+00 1.73631213981420e-02 1.51846152281772e-04
8.15625000000000e+00 1.72385818786687e-02 1.51337980569858e-04
8.21875000000000e+00 1.71149356370545e-02 1.50827080818110e-04
8.28125000000000e+00 1.69921762661337e-02 1.50313559064758e-04
8.34375000000000e+00 1.68702974046971e-02 1.49797519029656e-04
8.40625000000000e+00 1.67492927371620e-02 1.49279062168906e-04
8.46875000000000e+00 1.66291559932452e-02 1.48758287727867e-04
8.53125000000000e+00 1.65098809476381e-02 1.48235292792641e-04
8.59375000000000e+00 1.63914614196838e-02 1.47710172340059e-04
8.65625000000000e+00 1.62738912730572e-02 1.47183019286243e-04
8.71875000000000e+00 1.61571644154471e-02 1.46653924533793e-04
8.78125000000000e+00 1.60412747982400e-02 1.46122977017639e-04
8.84375000000000e+00 1.59262164162070e-02 1.45590263749587e-04
8.90625000000000e+00 1.58119833071926e-02 1.45055869861679e-04
8.96875000000000e+00 1.56985695518059e-02 1.44519878648315e-04
9.03125000000000e+00 1.55859692731135e-02 1.43982371607231e-04
9.09375000000000e+00 1.54741766363352e-02 1.43443428479379e-04
9.15625000000000e+00 1.53631858485416e-02 1.42903127287703e-04
9.21875000000000e+00 1.52529911583540e-02 1.42361544374896e-04
9.28125000000000e+00 1.51435868556463e-02 1.41818754440159e-04
9.34375000000000e+00 1.50349672712491e-02 1.41274830574980e-04
9.40625000000000e+00 1.49271267766558e-02 1.40729844297945e-04
9.46875000000000e+00 1.48200597837312e-02 1.40183865588692e-04
9.53125000000000e+00 1.47137607444220e-02 1.39636962920957e-04
9.59375000000000e+00 1.46082241504688e-02 1.39089203294768e-04
9.65625000000000e+00 1.45034445331211e-02 1.38540652267827e-04
9.71875000000000e+00 1.43994164628539e-02 1.37991373986080e-04
9.78125000000000e+00 1.42961345490862e-02 1.37441431213548e-04
9.84375000000000e+00 1.41935934399018e-02 1.36890885361368e-04
9.90625000000000e+00 1.40917878217717e-02 1.36339796516142e-04
9.96875000000000e+00 1.39907124192792e-02 1.35788223467578e-04
1.00312500000000e+01 1.38903619948461e-02 1.35236223735427e-04
1.00937500000000e+01 1.37907313484616e-02 1.34683853595790e-04
1.01562500000000e+01 1.36918153174128e-02 1.34131168106774e-04
1.02187500000000e+01 1.35936087760169e-02 1.33578221133546e-04
1.02812500000000e+01 1.34961066353560e-02 1.33025065372747e-04
1.03437500000000e+01 1.33993038430131e-02 1.32471752376336e-04
1.04062500000000e+01 1.33031953828105e-02 1.31918332574916e-04
1.04687500000000e+01 1.32077762745497e-02 1.31364855300435e-04
1.05312500000000e+01 1.31130415737534e-02 1.30811368808397e-04
1.05937500000000e+01 1.30189863714092e-02 1.30257920299546e-04
1.06562500000000e+01 1.29256057937154e-02 1.29704555941062e-04
1.07187500000000e+01 1.28328950018285e-02 1.29151320887222e-04
1.07812500000000e+01 1.27408491916120e-02 1.28598259299634e-04
1.08437500000000e+01 1.26494635933879e-02 1.28045414367007e-04
1.09062500000000e+01 1.25587334716896e-02 1.27492828324433e-04
1.09687500000000e+01 1.24686541250161e-02 1.26940542472262e-04
1.10312500000000e+01 1.23792208855886e-02 1.26388597194538e-04
1.10937500000000e+01 1.22904291191087e-02 1.25837031977054e-04
1.11562500000000e+01 1.22022742245183e-02 1.25285885424968e-04
1.12187500000000e+01 1.21147516337607e-02 1.24735195280054e-04
1.12812500000000e+01 1.20278568115446e-02 1.24184998437545e-04
1.13437500000000e+01 1.19415852551087e-02 1.23635330962636e-04
1.14062500000000e+01 1.18559324939882e-02 1.23086228106610e-04
1.14687500000000e+01 1.17708940897836e-02 1.22537724322627e-04
1.15312500000000e+01 1.16864656359302e-02 1.21989853281149e-04
1.15937500000000e+01 1.16026427574704e-02 1.21442647885057e-04
1.16562500000000e+01 1.15194211108262e-02 1.20896140284444e-04
1.17187500000000e+01 1.14367963835749e-02 1.20350361891056e-04
1.17812500000000e+01 1.13547642942250e-02 1.19805343392480e-04
1.18437500000000e+01 1.12733205919949e-02 1.19261114765994e-04
1.19062500000000e+01 1.11924610565921e-02 1.18717705292138e-04
1.19687500000000e+01 1.11121814979949e-02 1.18175143568006e-04
1.20312500000000e+01 1.10324777562352e-02 1.17633457520245e-04
1.20937500000000e+01 1.09533457011826e-02 1.17092674417804e-04
1.21562500000000e+01 1.08747812323310e-02 1.16552820884412e-04
1.22187500000000e+01 1.07967802785856e-02 1.16013922910781e-04
1.22812500000000e+01 1.07193387980522e-02 1.15476005866590e-04
1.23437500000000e+01 1.06424527778275e-02 1.14939094512199e-04
1.24062500000000e+01 1.05661182337915e-02 1.14403213010147e-04
1.24687500000000e+01 1.04903312104009e-02 1.13868384936398e-04
1.25312500000000e+01 1.04150877804841e-02 1.13334633291358e-04
1.25937500000000e+01 1.03403840450374e-02 1.12801980510684e-04
1.26562500000000e+01 1.02662161330239e-02 1.12270448475882e-04
1.27187500000000e+01 1.01925802011716e-02 1.11740058524672e-04
1.27812500000000e+01 1.01194724337754e-02 1.11210831461159e-04
1.28437500000000e+01 1.00468890424987e-02 1.10682787565812e-04
1.29062500000000e+01 9.97482626617734e-03 1.10155946605227e-04
1.29687500000000e+01 9.90328037062468e-03 1.09630327841703e-04
1.30312500000000e+01 9.83224764843803e-03 1.09105950042642e-04
1.30937500000000e+01 9.76172441880662e-03 1.08582831489753e-04
1.31562500000000e+01 9.69170702732081e-03 1.08060989988089e-04
1.32187500000000e+01 9.62219184578278e-03 1.07540442874896e-04
1.32812500000000e+01 9.55317527201844e-03 1.07021207028293e-04
1.33437500000000e+01 9.48465372969086e-03 1.06503298875793e-04
1.34062500000000e+01 9.41662366811490e-03 1.05986734402667e-04
1.34687500000000e+01 9.34908156207320e-03 1.05471529160115e-04
1.35312500000000e+01 9.28202391163357e-03 1.04957698273305e-04
1.35937500000000e+01 9.21544724196757e-03 1.04445256449271e-04
1.36562500000000e+01 9.14934810317048e-03 1.03934217984648e-04
1.37187500000000e+01 9.08372307008254e-03 1.03424596773249e-04
1.37812500000000e+01 9.01856874211143e-03 1.02916406313515e-04
1.38437500000000e+01 8.95388174305607e-03 1.02409659715820e-04
1.39062500000000e+01 8.88965872093169e-03 1.01904369709635e-04
1.39687500000000e+01 8.82589634779612e-03 1.01400548650572e-04
1.40312500000000e+01 8.76259131957731e-03 1.00898208527278e-04
1.40937500000000e+01 8.69974035590219e-03 1.00397360968214e-04
1.41562500000000e+01 8.63734019992662e-03 9.98980172483162e-05
1.42187500000000e+01 8.57538761816666e-03 9.94001882955075e-05
1.42812500000000e+01 8.51387940033100e-03 9.89038846971068e-05
1.43437500000000e+01 8.45281235915460e-03 9.84091167061266e-05
1.44062500000000e+01 8.39218333023357e-03 9.79158942474425e-05
1.44687500000000e+01 8.33198917186115e-03 9.74242269238537e-05
1.45312500000000e+01 8.27222676486492e-03 9.69341240220246e-05
1.45937500000000e+01 8.21289301244521e-03 9.64455945183473e-05
1.46562500000000e+01 8.15398484001457e-03 9.59586470846683e-05
1.47187500000000e+01 8.09549919503849e-03 9.54732900939141e-05
1.47812500000000e+01 8.03743304687721e-03 9.49895316256309e-05
1.48437500000000e+01 7.97978338662865e-03 9.45073794714150e-05
1.49062500000000e+01 7.92254722697256e-03 9.40268411402464e-05
1.49687500000000e+01 7.86572160201566e-03 9.35479238637230e-05
1.50312500000000e+01 7.80930356713796e-03 9.30706346012124e-05
1.50937500000000e+01 7.75329019884020e-03 9.25949800448990e-05
1.51562500000000e+01 7.69767859459234e-03 9.21209666247458e-05
1.52187500000000e+01 7.64246587268317e-03 9.16486005133741e-05
1.52812500000000e+01 7.58764917207096e-03 9.11778876308516e-05
1.53437500000000e+01 7.53322565223523e-03 9.07088336493838e-05
1.54062500000000e+01 7.47919249302953e-03 9.02414439979499e-05
1.54687500000000e+01 7.42554689453534e-03 8.97757238668403e-05
1.55312500000000e+01 7.37228607691696e-03 8.93116782121040e-05
1.55937500000000e+01 7.31940728027746e-03 8.88493117599353e-05
1.56562500000000e+01 7.26690776451568e-03 8.83886290109791e-05
1.57187500000000e+01 7.21478480918422e-03 8.79296342445605e-05
1.57812500000000e+01 7.16303571334852e-03 8.74723315228360e-05
1.58437500000000e+01 7.11165779544682e-03 8.70167246948779e-05
1.59062500000000e+01 7.06064839315130e-03 8.65628174006878e-05
1.59687500000000e+01 7.01000486323004e-03 8.61106130751361e-05
1.60312500000000e+01 6.95972458141010e-03 8.56601149518309e-05
1.60937500000000e+01 6.90980494224151e-03 8.52113260669262e-05
1.61562500000000e+01 6.86024335896228e-03 8.47642492628678e-05
1.62187500000000e+01 6.81103726336435e-03 8.43188871920641e-05
1.62812500000000e+01 6.76218410566051e-03 8.38752423204997e-05
1.63437500000000e+01 6.71368135435225e-03 8.34333169312884e-05
1.64062500000000e+01 6.66552649609861e-03 8.29931131281574e-05
1.64687500000000e+01 6.61771703558596e-03 8.25546328388805e-05
1.65312500000000e+01 6.57025049539862e-03 8.21178778186431e-05
1.65937500000000e+01 6.52312441589059e-03 8.16828496533624e-05
1.66562500000000e+01 6.47633635505800e-03 8.12495497629428e-05
1.67187500000000e+01 6.42988388841263e-03 8.08179794044724e-05
1.67812500000000e+01 6.38376460885624e-03 8.03881396753705e-05
1.68437500000000e+01 6.33797612655587e-03 7.99600315164801e-05
1.69062500000000e+01 6.29251606881997e-03 7.95336557151093e-05
1.69687500000000e+01 6.24738207997548e-03 7.91090129080169e-05
1.70312500000000e+01 6.20257182124573e-03 7.86861035843600e-05
1.70937500000000e+01 6.15808297062929e-03 7.82649280885717e-05
1.71562500000000e+01 6.11391322277961e-03 7.78454866231965e-05
1.72187500000000e+01 6.07006028888557e-03 7.74277792516960e-05
1.72812500000000e+01 6.02652189655289e-03 7.70118059011842e-05
1.73437500000000e+01 5.98329578968637e-03 7.65975663651188e-05
1.74062500000000e+01 5.94037972837296e-03 7.61850603059579e-05
1.74687500000000e+01 5.89777148876576e-03 7.57742872577757e-05
1.75312500000000e+01 5.85546886296869e-03 7.53652466288223e-05
1.75937500000000e+01 5.81346965892214e-03 7.49579377040359e-05
1.76562500000000e+01 5.77177170028938e-03 7.45523596475225e-05
1.77187500000000e+01 5.73037282634375e-03 7.41485115050017e-05
1.77812500000000e+01 5.68927089185675e-03 7.37463922061981e-05
1.78437500000000e+01 5.64846376698682e-03 7.33460005671930e-05
1.79062500000000e+01 5.60794933716899e-03 7.29473352927413e-05
1.79687500000000e+01 5.56772550300534e-03 7.25503949785526e-05
1.80312500000000e+01 5.52779018015618e-03 7.21551781135315e-05
1.80937500000000e+01 5.48814129923204e-03 7.17616830819671e-05
1.81562500000000e+01 5.44877680568645e-03 7.13699081657077e-05
1.82187500000000e+01 5.40969465970949e-03 7.09798515462922e-05
1.82812500000000e+01 5.37089283612205e-03 7.05915113070380e-05
1.83437500000000e+01 5.33236932427094e-03 7.02048854351000e-05
1.84062500000000e+01 5.29412212792464e-03 6.98199718234915e-05
1.84687500000000e+01 5.25614926516993e-03 6.94367682730835e-05
1.85312500000000e+01 5.21844876830912e-03 6.90552724945537e-05
1.85937500000000e+01 5.18101868375812e-03 6.86754821103119e-05
1.86562500000000e+01 5.14385707194524e-03 6.82973946563943e-05
1.87187500000000e+01 5.10696200721060e-03 6.79210075843205e-05
1.87812500000000e+01 5.07033157770645e-03 6.75463182629320e-05
1.88437500000000e+01 5.03396388529800e-03 6.71733239801838e-05
1.89062500000000e+01 4.99785704546514e-03 6.68020219449197e-05
1.89687500000000e+01 4.96200918720474e-03 6.64324092886045e-05
1.90312500000000e+01 4.92641845293371e-03 6.60644830670352e-05
1.90937500000000e+01 4.89108299839276e-03 6.56982402620315e-05
1.91562500000000e+01 4.85600099255081e-03 6.53336777830898e-05
1.92187500000000e+01 4.82117061751011e-03 6.49707924690109e-05
1.92812500000000e+01 4.78659006841206e-03 6.46095810894890e-05
1.93437500000000e+01 4.75225755334367e-03 6.42500403466916e-05
1.94062500000000e+01 4.71817129324471e-03 6.38921668768150e-05
1.94687500000000e+01 4.68432952181549e-03 6.35359572515978e-05
1.95312500000000e+01 4.65073048542540e-03 6.31814079798178e-05
1.95937500000000e+01 4.61737244302198e-03 6.28285155087625e-05
1.96562500000000e+01 4.58425366604073e-03 6.24772762256740e-05
1.97187500000000e+01 4.55137243831553e-03 6.21276864591820e-05
