Energy (eV)          EEDF (eV^-(3/2))     First Anisotropy
1.26666666666667e-01 1.18595121707879e-01 1.76839565779008e-04
3.80000000000000e-01 1.11962809993117e-01 2.84804595652773e-04
6.33333333333333e-01 1.05701403562764e-01 3.57351046290645e-04
8.86666666666667e-01 9.97901599336632e-02 4.02220947327112e-04
1.14000000000000e+00 9.42094966152152e-02 4.31897461037892e-04
1.39333333333333e+00 8.89409261935520e-02 4.51476213365186e-04
1.64666666666667e+00 8.39669952370364e-02 4.63769744651258e-04
1.90000000000000e+00 7.92712263247555e-02 4.70570319663407e-04
2.15333333333333e+00 7.48380635037174e-02 4.73120002704655e-04
2.40666666666667e+00 7.06528208182886e-02 4.72327669885841e-04
2.66000000000000e+00 6.67016335836000e-02 4.68883837169683e-04
2.91333333333333e+00 6.29714124723263e-02 4.63327491472026e-04
3.16666666666667e+00 5.94498001923956e-02 4.56087844742782e-04
3.42000000000000e+00 5.61251305052529e-02 4.47511885668896e-04
3.67333333333333e+00 5.29863895872752e-02 4.37883367001105e-04
3.92666666666667e+00 5.00231795700037e-02 4.27436368611642e-04
4.18000000000000e+00 4.72256840652210e-02 4.16365272677394e-04
4.43333333333333e+00 4.45846356508242e-02 4.04832280747541e-04
4.68666666666667e+00 4.20912851884509e-02 3.92973201854580e-04
4.94000000000000e+00 3.97373728196056e-02 3.80901987619773e-04
5.19333333333333e+00 3.75151006060412e-02 3.68714338556757e-04
5.44666666666667e+00 3.54171067102376e-02 3.56490613128497e-04
5.70000000000000e+00 3.34364409931477e-02 3.44298199935674e-04
5.95333333333333e+00 3.15665419922687e-02 3.32193470070480e-04
6.20666666666667e+00 2.98012151947513e-02 3.20223400539710e-04
6.46000000000000e+00 2.81346125060950e-02 3.08426933293773e-04
6.71333333333333e+00 2.65612128783513e-02 2.96836119397546e-04
6.96666666666667e+00 2.50758040274167e-02 2.85477090004489e-04
7.22000000000000e+00 2.36734651583015e-02 2.74370883616720e-04
7.47333333333333e+00 2.23495506648137e-02 2.63534153169061e-04
7.72666666666667e+00 2.10996747452173e-02 2.52979774415069e-04
7.98000000000000e+00 1.99196968673478e-02 2.42717370405547e-04
8.23333333333333e+00 1.88057080528215e-02 2.32753764253125e-04
8.48666666666667e+00 1.77540179316779e-02 2.23093372313103e-04
8.74000000000000e+00 1.67611425126788e-02 2.13738545739838e-04
8.99333333333333e+00 1.58237926422726e-02 2.04689867162241e-04
9.24666666666667e+00 1.49388631116131e-02 1.95946409834493e-04
9.50000000000000e+00 1.41034223663788e-02 1.87505963777432e-04
9.75333333333333e+00 1.33147027956805e-02 1.79365232829929e-04
1.00066666666667e+01 1.25700915661087e-02 1.71520007216088e-04
1.02600000000000e+01 1.18671219654127e-02 1.63965315066256e-04
1.05133333333333e+01 1.12034652213113e-02 1.56695553051825e-04
1.07666666666667e+01 1.05769228086175e-02 1.49704602227543e-04
1.10200000000000e+01 9.98541914566858e-03 1.42985930034858e-04
1.12733333333333e+01 9.42699472089526e-03 1.36532676120634e-04
1.15266666666667e+01 8.89979961650508e-03 1.30337730145093e-04
1.17800000000000e+01 8.40208736418846e-03 1.24393799512919e-04
1.20333333333333e+01 7.93220916139088e-03 1.18693465739209e-04
1.22866666666667e+01 7.48860842110246e-03 1.13229235743716e-04
1.25400000000000e+01 7.06981560270200e-03 1.07993586211277e-04
1.27933333333333e+01 6.67444334519485e-03 1.02978999803074e-04
1.30466666666667e+01 6.30118188061411e-03 9.81779982074010e-05
1.33000000000000e+01 5.94879468515285e-03 9.35831703988408e-05
1.35533333333333e+01 5.61611438400498e-03 8.91871950083552e-05
1.38066666666667e+01 5.30203889159169e-03 8.49828607876299e-05
1.40600000000000e+01 5.00552775274884e-03 8.09630837626238e-05
1.43133333333333e+01 4.72559869684704e-03 7.71209201097149e-05
1.45666666666667e+01 4.46132438970563e-03 7.34495779529414e-05
1.48200000000000e+01 4.21182935529709e-03 6.99424268844791e-05
1.50733333333333e+01 3.97628707621163e-03 6.65930043700901e-05
1.53266666666667e+01 3.75391726034845e-03 6.33950216191814e-05
1.55800000000000e+01 3.54398325099978e-03 6.03423679050618e-05
1.58333333333333e+01 3.34578958704183e-03 5.74291126157138e-05
1.60866666666667e+01 3.15867970283894e-03 5.46495071229760e-05
1.63400000000000e+01 2.98203374920197e-03 5.19979856148833e-05
1.65933333333333e+01 2.81526654041887e-03 4.94691642774715e-05
1.68466666666667e+01 2.65782561872486e-03 4.70578405208436e-05
1.71000000000000e+01 2.50918942093651e-03 4.47589915305939e-05
1.73533333333333e+01 2.36886555098946e-03 4.25677716237352e-05
1.76066666666667e+01 2.23638915120194e-03 4.04795097881691e-05
1.78600000000000e+01 2.11132135973573e-03 3.84897068026391e-05
1.81133333333333e+01 1.99324785703242e-03 3.65940314965830e-05
1.83666666666667e+01 1.88177749524952e-03 3.47883172742922e-05
1.86200000000000e+01 1.77654100040586e-03 3.30685583981988e-05
1.88733333333333e+01 1.67718974928951e-03 3.14309056595039e-05
1.91266666666667e+01 1.58339461614926e-03 2.98716623545473e-05
1.93800000000000e+01 1.49484488070511e-03 2.83872801441334e-05
1.96333333333333e+01 1.41124719898606e-03 2.69743544826336e-05
1.98866666666667e+01 1.33232463284303e-03 2.56296203681413e-05
2.01400000000000e+01 1.25781573116554e-03 2.43499480600717e-05
2.03933333333333e+01 1.18747366390104e-03 2.31323385007348e-05
2.06466666666667e+01 1.12106540541191e-03 2.19739190562663e-05
2.09000000000000e+01 1.05837096142159e-03 2.08719392812861e-05
2.11533333333333e+01 9.99182640342341e-04 1.98237664858423e-05
2.14066666666667e+01 9.43304366091000e-04 1.88268816093058e-05
2.16600000000000e+01 8.90551027647587e-04 1.78788751541188e-05
2.19133333333333e+01 8.40747865920442e-04 1.69774429934099e-05
2.21666666666667e+01 7.93729895500103e-04 1.61203824667752e-05
2.24200000000000e+01 7.49341357381081e-04 1.53055885577210e-05
2.26733333333333e+01 7.07435203045178e-04 1.45310499966402e-05
2.29266666666667e+01 6.67872607885131e-04 1.37948456297550e-05
2.31800000000000e+01 6.30522510725858e-04 1.30951408814558e-05
2.34333333333333e+01 5.95261179711334e-04 1.24301841790163e-05
2.36866666666667e+01 5.61971802866585e-04 1.17983036196681e-05
2.39400000000000e+01 5.30544100650702e-04 1.11979037358084e-05
2.41933333333333e+01 5.00873960676664e-04 1.06274622484307e-05
2.44466666666667e+01 4.72863093183553e-04 1.00855270392141e-05
2.47000000000000e+01 4.46418705037632e-04 9.57071322073335e-06
2.49533333333333e+01 4.21453192371110e-04 9.08170021260027e-06
2.52066666666667e+01 3.97883850674633e-04 8.61722901332711e-06
2.54600000000000e+01 3.75632600500289e-04 8.17609956716324e-06
2.57133333333333e+01 3.54625728835735e-04 7.75716814858538e-06
2.59666666666667e+01 3.34793645158144e-04 7.35934492086125e-06
2.62200000000000e+01 3.16070650638927e-04 6.98159158446343e-06
2.64733333333333e+01 2.98394720525790e-04 6.62291905049276e-06
2.67266666666667e+01 2.81707298871847e-04 6.28238526810262e-06
2.69800000000000e+01 2.65953104342583e-04 5.95909313550666e-06
2.72333333333333e+01 2.51079947103639e-04 5.65218844019572e-06
2.74866666666667e+01 2.37038556093821e-04 5.36085793479497e-06
2.77400000000000e+01 2.23782415629181e-04 5.08432748967762e-06
2.79933333333333e+01 2.11267611325311e-04 4.82186027673782e-06
2.82466666666667e+01 1.99452684754913e-04 4.57275507218356e-06
2.85000000000000e+01 1.88298495964648e-04 4.33634462910326e-06
2.87533333333333e+01 1.77768093828217e-04 4.11199408156768e-06
2.90066666666667e+01 1.67826593747043e-04 3.89909945283269e-06
2.92600000000000e+01 1.58441061970238e-04 3.69708622644887e-06
2.95133333333333e+01 1.49580406504706e-04 3.50540794821045e-06
2.97666666666667e+01 1.41215274205736e-04 3.32354491890242e-06
3.00200000000000e+01 1.33317953442243e-04 3.15100294338247e-06
3.02733333333333e+01 1.25862282304351e-04 2.98731210910298e-06
3.05266666666667e+01 1.18823562009838e-04 2.83202564363625e-06
3.07800000000000e+01 1.12178475005226e-04 2.68471882236539e-06
3.10333333333333e+01 1.05905007728147e-04 2.54498790378344e-06
3.12866666666667e+01 9.99823777429062e-05 2.41244913338635e-06
3.15400000000000e+01 9.43909648294363e-05 2.28673779202532e-06
3.17933333333333e+01 8.91122459926294e-05 2.16750726979788e-06
3.20466666666667e+01 8.41287341503668e-05 2.05442819938229e-06
3.23000000000000e+01 7.94239201506130e-05 1.94718762861397e-06
3.25533333333333e+01 7.49822180858067e-05 1.84548821643192e-06
3.28066666666667e+01 7.07889137017983e-05 1.74904748025222e-06
3.30600000000000e+01 6.68301156100082e-05 1.65759707785613e-06
3.33133333333333e+01 6.30927092728936e-05 1.57088211047787e-06
3.35666666666667e+01 5.95643135925973e-05 1.48866047031681e-06
3.38200000000000e+01 5.62332398599555e-05 1.41070221831343e-06
3.40733333333333e+01 5.30884530361394e-05 1.33678898101772e-06
3.43266666666667e+01 5.01195352241601e-05 1.26671338578108e-06
3.45800000000000e+01 4.73166511277731e-05 1.20027852241282e-06
3.48333333333333e+01 4.46705154723996e-05 1.13729742192798e-06
3.50866666666667e+01 4.21723622682363e-05 1.07759256831497e-06
3.53400000000000e+01 3.98139157466875e-05 1.02099543339021e-06
3.55933333333333e+01 3.75873629471088e-05 9.67346026874683e-07
3.58466666666667e+01 3.54853278532809e-05 9.16492474888671e-07
3.61000000000000e+01 3.35008469387217e-05 8.68290618544459e-07
3.63533333333333e+01 3.16273461001503e-05 8.22603626036098e-07
3.66066666666667e+01 2.98586188946608e-05 7.79301629162504e-07
3.68600000000000e+01 2.81888059630280e-05 7.38261377312864e-07
3.71133333333333e+01 2.66123756206642e-05 6.99365903374386e-07
3.73666666666667e+01 2.51241055453337e-05 6.62504210627627e-07
3.76200000000000e+01 2.37190654634716e-05 6.27570974788100e-07
3.78733333333333e+01 2.23926008186935e-05 5.94466256544233e-07
3.81266666666667e+01 2.11403173629691e-05 5.63095232107664e-07
3.83800000000000e+01 1.99580665885022e-05 5.33367936880575e-07
3.86333333333333e+01 1.88419319858090e-05 5.05199018336875e-07
3.88866666666667e+01 1.77882160780072e-05 4.78507504350049e-07
3.91400000000000e+01 1.67934281628651e-05 4.53216582864706e-07
3.93933333333333e+01 1.58542727498399e-05 4.29253389635089e-07
3.96466666666667e+01 1.49676386501245e-05 4.06548809200436e-07
3.99000000000000e+01 1.41305886625207e-05 3.85037285657826e-07
4.01533333333333e+01 1.33403498439348e-05 3.64656640481447e-07
4.04066666666667e+01 1.25943043292401e-05 3.45347901677419e-07
4.06600000000000e+01 1.18899806527235e-05 3.27055141390659e-07
4.09133333333333e+01 1.12250455613216e-05 3.09725319653943e-07
4.11666666666667e+01 1.05972962900328e-05 2.93308137838210e-07
4.14200000000000e+01 1.00046532595709e-05 2.77755899386383e-07
4.16733333333333e+01 9.44515318772044e-06 2.63023375891124e-07
4.19266666666667e+01 8.91694258951734e-06 2.49067681470291e-07
4.21800000000000e+01 8.41827163287435e-06 2.35848153412705e-07
4.24333333333333e+01 7.94748834222127e-06 2.23326237465414e-07
4.26866666666667e+01 7.50303312926458e-06 2.11465380214317e-07
4.29400000000000e+01 7.08343362295584e-06 2.00230926857874e-07
4.31933333333333e+01 6.68729979222151e-06 1.89590023005944e-07
4.34466666666667e+01 6.31331934389961e-06 1.79511522539388e-07
4.37000000000000e+01 5.96025337254307e-06 1.69965900104275e-07
4.39533333333333e+01 5.62693225650549e-06 1.60925167091788e-07
4.42066666666667e+01 5.31225178556075e-06 1.52362792794110e-07
4.44600000000000e+01 5.01516950053498e-06 1.44253629539981e-07
4.47133333333333e+01 4.73470124012248e-06 1.36573840844893e-07
4.49666666666667e+01 4.46991788249421e-06 1.29300833979666e-07
4.52200000000000e+01 4.21994226536805e-06 1.22413195953797e-07
4.54733333333333e+01 3.98394628037328e-06 1.15890632102929e-07
4.57266666666667e+01 3.76114813129711e-06 1.09713908446412e-07
4.59800000000000e+01 3.55080974255018e-06 1.03864796972891e-07
4.62333333333333e+01 3.35223431425835e-06 9.83260231729490e-08
4.64866666666667e+01 3.16476401523203e-06 9.30812167873688e-08
4.67400000000000e+01 2.98777780237948e-06 8.81148650644682e-08
4.69933333333333e+01 2.82068936347161e-06 8.34122679543906e-08
4.72466666666667e+01 2.66294517590655e-06 7.89594960450731e-08
4.75000000000000e+01 2.51402267190484e-06 7.47433506469775e-08
4.77533333333333e+01 2.37342850747655e-06 7.07513255459001e-08
4.80066666666667e+01 2.24069692898227e-06 6.69715710925387e-08
4.82600000000000e+01 2.11538822927802e-06 6.33928601312143e-08
4.85133333333333e+01 1.99708729116109e-06 6.00045553638616e-08
4.87666666666667e+01 1.88540221292441e-06 5.67965787049856e-08
4.90200000000000e+01 1.77996300931430e-06 5.37593822099424e-08
4.92733333333333e+01 1.68042038593258e-06 5.08839202371605e-08
4.95266666666667e+01 1.58644458271955e-06 4.81616233061667e-08
4.97800000000000e+01 1.49772428090356e-06 4.55843733008527e-08
5.00333333333333e+01 1.41396557173826e-06 4.31444797327883e-08
5.02866666666667e+01 1.33489098336023e-06 4.08346574484974e-08
5.05400000000000e+01 1.26023856106553e-06 3.86480054864124e-08
5.07933333333333e+01 1.18976099956772e-06 3.65779868438383e-08
5.10466666666667e+01 1.12322482415476e-06 3.46184094730814e-08
5.13000000000000e+01 1.06040961680771e-06 3.27634082596901e-08
5.15533333333333e+01 1.00110728605095e-06 3.10074277813778e-08
5.18066666666667e+01 9.45121377943297e-07 2.93452061129804e-08
5.20600000000000e+01 8.92266424912095e-07 2.77717594700259e-08
5.23133333333333e+01 8.42367331378696e-07 2.62823675216194e-08
5.25666666666667e+01 7.95258793997559e-07 2.48725595932819e-08
5.28200000000000e+01 7.50784753746523e-07 2.35381015855846e-08
5.30733333333333e+01 7.08797878969739e-07 2.22749834662767e-08
5.33266666666667e+01 6.69159077542734e-07 2.10794075193894e-08
5.35800000000000e+01 6.31737035845286e-07 1.99477772050703e-08
5.38333333333333e+01 5.96407783774969e-07 1.88766865105378e-08
5.40866666666667e+01 5.63054284262612e-07 1.78629099447468e-08
5.43400000000000e+01 5.31566045350643e-07 1.69033930539559e-08
5.45933333333333e+01 5.01838754179676e-07 1.59952433576497e-08
5.48466666666667e+01 4.73773931589888e-07 1.51357218317318e-08
5.51000000000000e+01 4.47278605712341e-07 1.43222348358501e-08
5.53533333333333e+01 4.22265003992022e-07 1.35523264003296e-08
5.56066666666667e+01 3.98650262555235e-07 1.28236709782827e-08
5.58600000000000e+01 3.76356151559703e-07 1.21340665762733e-08
5.61133333333333e+01 3.55308816051583e-07 1.14814281924748e-08
5.63666666666667e+01 3.35438531415285e-07 1.08637816501444e-08
5.66200000000000e+01 3.16679472274888e-07 1.02792577536546e-08
5.68733333333333e+01 2.98969494441844e-07 9.72608670734150e-09
5.71266666666667e+01 2.82249929140467e-07 9.20259287023047e-09
5.73800000000000e+01 2.66465388554688e-07 8.70718978552652e-09
5.76333333333333e+01 2.51563582350954e-07 8.23837543463812e-09
5.78866666666667e+01 2.37495144531177e-07 7.79472777652445e-09
5.81400000000000e+01 2.24213469813946e-07 7.37490052102735e-09
5.83933333333333e+01 2.11674559250243e-07 6.97761909395437e-09
5.86466666666667e+01 1.99836874530496e-07 6.60167684449470e-09
5.89000000000000e+01 1.88661200310796e-07 6.24593145183860e-09
5.91533333333333e+01 1.78110514308372e-07 5.90930149548955e-09
5.94066666666667e+01 1.68149864709655e-07 5.59076323135898e-09
5.96600000000000e+01 1.58746254327388e-07 5.28934753741030e-09
5.99133333333333e+01 1.49868531294255e-07 5.00413699899138e-09
6.01666666666667e+01 1.41487285909090e-07 4.73426316888261e-09
6.04200000000000e+01 1.33574753163138e-07 4.47890397161845e-09
6.06733333333333e+01 1.26104720765727e-07 4.23728122697194e-09
6.09266666666667e+01 1.19052442346516e-07 4.00865832175363e-09
6.11800000000000e+01 1.12394555438120e-07 3.79233800434676e-09
6.14333333333333e+01 1.06109004085580e-07 3.58766028086250e-09
6.16866666666667e+01 1.00174965811256e-07 3.39400043717773e-09
6.19400000000000e+01 9.45727826028950e-08 3.21076716536314e-09
6.21933333333333e+01 8.92838957944358e-08 3.03740077674370e-09
6.24466666666667e+01 8.42907846113589e-08 2.87337152178618e-09
6.27000000000000e+01 7.95769081019119e-08 2.71817799875386e-09
6.29533333333333e+01 7.51266503434749e-08 2.57134563619408e-09
6.32066666666667e+01 7.09252687321620e-08 2.43242526606837e-09
6.34600000000000e+01 6.69588451219616e-08 2.30099177234927e-09
6.37133333333333e+01 6.32142397193926e-08 2.17664280252277e-09
6.39666666666667e+01 5.96790475723193e-08 2.05899755599042e-09
6.42200000000000e+01 5.63415574569072e-08 1.94769563661709e-09
6.44733333333333e+01 5.31907130829229e-08 1.84239595885979e-09
6.47266666666667e+01 5.02160764816969e-08 1.74277571912782e-09
6.49800000000000e+01 4.74077934123277e-08 1.64852942165514e-09
6.52333333333333e+01 4.47565607184212e-08 1.55936794999954e-09
6.54866666666667e+01 4.22535955212738e-08 1.47501769386759e-09
6.57400000000000e+01 3.98906061115716e-08 1.39521972225675e-09
6.59933333333333e+01 3.76597644821733e-08 1.31972899544075e-09
6.62466666666667e+01 3.55536804060380e-08 1.24831362387344e-09
6.65000000000000e+01 3.35653769435889e-08 1.18075416643958e-09
6.67533333333333e+01 3.16882673308056e-08 1.11684296176585e-09
6.70066666666667e+01 2.99161331673719e-08 1.05638349931562e-09
6.72600000000000e+01 2.82431038078011e-08 9.99189823903560e-10
6.75133333333333e+01 2.66636369142438e-08 9.45085968341720e-10
6.77666666666667e+01 2.51725001031380e-08 8.93905419815742e-10
6.80200000000000e+01 2.37647536042521e-08 8.45490614641665e-10
6.82733333333333e+01 2.24357338971159e-08 7.99692456954932e-10
6.85266666666667e+01 2.11810382677927e-08 7.56369865993654e-10
6.87800000000000e+01 1.99965102176490e-08 7.15389347479212e-10
6.90333333333333e+01 1.88782256944587e-08 6.76624585352215e-10
6.92866666666667e+01 1.78224800978656e-08 6.39956057746017e-10
6.95400000000000e+01 1.68257760018602e-08 6.05270673417611e-10
6.97933333333333e+01 1.58848115691341e-08 5.72461425487980e-10
7.00466666666667e+01 1.49964696169693e-08 5.41427065724844e-10
7.03000000000000e+01 1.41578072865387e-08 5.12071796190033e-10
7.05533333333333e+01 1.33660462943275e-08 4.84304975603190e-10
7.08066666666667e+01 1.26185637317455e-08 4.58040843114251e-10
7.10600000000000e+01 1.19128833725476e-08 4.33198256813161e-10
7.13133333333333e+01 1.12466674700281e-08 4.09700444748841e-10
7.15666666666667e+01 1.06177090154571e-08 3.87474770699839e-10
7.18200000000000e+01 1.00239244238658e-08 3.66452512450561e-10
7.20733333333333e+01 9.46334663191080e-09 3.46568650698705e-10
7.23266666666667e+01 8.93411858382118e-09 3.27761670461540e-10
7.25800000000000e+01 8.43448707698441e-09 3.09973373092652e-10
7.28333333333333e+01 7.96279695424070e-09 2.93148697332126e-10
7.30866666666667e+01 7.51748562270641e-09 2.77235550945769e-10
7.33400000000000e+01 7.09707787525211e-09 2.62184651365656e-10
7.35933333333333e+01 6.70018100369026e-09 2.47949374005156e-10
7.38466666666667e+01 6.32548018670094e-09 2.34485609544146e-10
7.41000000000000e+01 5.97173413245676e-09 2.21751628849462e-10
7.43533333333333e+01 5.63777096668323e-09 2.09707954414200e-10
7.46066666666667e+01 5.32248435188112e-09 1.98317239395156e-10
7.48600000000000e+01 5.02482982089055e-09 1.87544153125920e-10
7.51133333333333e+01 4.74382131695702e-09 1.77355272166310e-10
7.53666666666667e+01 4.47852792829540e-09 1.67718977787182e-10
7.56200000000000e+01 4.22807080303217e-09 1.58605358946745e-10
7.58733333333333e+01 3.99162023789255e-09 1.49986119968063e-10
7.61266666666667e+01 3.76839293053687e-09 1.41834493666610e-10
7.63800000000000e+01 3.55764938369294e-09 1.34125159134235e-10
7.66333333333333e+01 3.35869145547283e-09 1.26834163514498e-10
7.68866666666667e+01 3.17086004738286e-09 1.19938848393237e-10
7.71400000000000e+01 2.99353292007644e-09 1.13417780136968e-10
7.73933333333333e+01 2.82612263210241e-09 1.07250683619531e-10
7.76466666666667e+01 2.66807459450797e-09 1.01418379856685e-10
7.79000000000000e+01 2.51886523294192e-09 9.59027269874197e-11
7.81533333333333e+01 2.37800025324359e-09 9.06865641311077e-11
7.84066666666667e+01 2.24501300451099e-09 8.57536585534542e-11
7.86600000000000e+01 2.11946293263466e-09 8.10886556692677e-11
7.89133333333333e+01 2.00093412090183e-09 7.66770314858148e-11
7.91666666666667e+01 1.88903391261927e-09 7.25050478474633e-11
7.94200000000000e+01 1.78339160986621e-09 6.85597100846844e-11
7.96733333333333e+01 1.68365724550621e-09 6.48287267339830e-11
7.99266666666667e+01 1.58950042420933e-09 6.13004716292635e-11
