Energy (eV)          EEDF (eV^-(3/2))     First Anisotropy
9.92222222222222e-05 2.70414745499423e+02 0.00000000000000e+00
2.97666666666667e-04 2.68346930655428e+02 0.00000000000000e+00
4.96111111111111e-04 2.66294928034435e+02 0.00000000000000e+00
6.94555555555556e-04 2.64258616723022e+02 0.00000000000000e+00
8.93000000000000e-04 2.62237876732440e+02 0.00000000000000e+00
1.09144444444444e-03 2.60232588991482e+02 0.00000000000000e+00
1.28988888888889e-03 2.58242635339464e+02 0.00000000000000e+00
1.48833333333333e-03 2.56267898519254e+02 0.00000000000000e+00
1.68677777777778e-03 2.54308262170368e+02 0.00000000000000e+00
1.88522222222222e-03 2.52363610822109e+02 0.00000000000000e+00
2.08366666666667e-03 2.50433829886767e+02 0.00000000000000e+00
2.28211111111111e-03 2.48518805652862e+02 0.00000000000000e+00
2.48055555555556e-03 2.46618425278448e+02 0.00000000000000e+00
2.67900000000000e-03 2.44732576784461e+02 0.00000000000000e+00
2.87744444444444e-03 2.42861149048121e+02 0.00000000000000e+00
3.07588888888889e-03 2.41004031796386e+02 0.00000000000000e+00
3.27433333333333e-03 2.39161115599453e+02 0.00000000000000e+00
3.47277777777778e-03 2.37332291864308e+02 0.00000000000000e+00
3.67122222222222e-03 2.35517452828331e+02 0.00000000000000e+00
3.86966666666667e-03 2.33716491552943e+02 0.00000000000000e+00
4.06811111111111e-03 2.31929301917306e+02 0.00000000000000e+00
4.26655555555556e-03 2.30155778612070e+02 0.00000000000000e+00
4.46500000000000e-03 2.28395817133168e+02 0.00000000000000e+00
4.66344444444444e-03 2.26649313775656e+02 0.00000000000000e+00
4.86188888888889e-03 2.24916165627605e+02 0.00000000000000e+00
5.06033333333333e-03 2.23196270564035e+02 0.00000000000000e+00
5.25877777777778e-03 2.21489527240899e+02 0.00000000000000e+00
5.45722222222222e-03 2.19795835089110e+02 0.00000000000000e+00
5.65566666666667e-03 2.18115094308615e+02 0.00000000000000e+00
5.85411111111111e-03 2.16447205862515e+02 0.00000000000000e+00
6.05255555555556e-03 2.14792071471230e+02 0.00000000000000e+00
6.25100000000000e-03 2.13149593606705e+02 0.00000000000000e+00
6.44944444444444e-03 2.11519675486666e+02 0.00000000000000e+00
6.64788888888889e-03 2.09902221068918e+02 0.00000000000000e+00
6.84633333333333e-03 2.08297135045683e+02 0.00000000000000e+00
7.04477777777778e-03 2.06704322837983e+02 0.00000000000000e+00
7.24322222222222e-03 2.05123690590072e+02 0.00000000000000e+00
7.44166666666667e-03 2.03555145163902e+02 0.00000000000000e+00
7.64011111111111e-03 2.01998594133634e+02 0.00000000000000e+00
7.83855555555556e-03 2.00453945780196e+02 0.00000000000000e+00
8.03700000000000e-03 1.98921109085874e+02 0.00000000000000e+00
8.23544444444444e-03 1.97399993728950e+02 0.00000000000000e+00
8.43388888888889e-03 1.95890510078384e+02 0.00000000000000e+00
8.63233333333333e-03 1.94392569188525e+02 0.00000000000000e+00
8.83077777777778e-03 1.92906082793877e+02 0.00000000000000e+00
9.02922222222222e-03 1.91430963303894e+02 0.00000000000000e+00
9.22766666666667e-03 1.89967123797818e+02 0.00000000000000e+00
9.42611111111111e-03 1.88514478019563e+02 0.00000000000000e+00
9.62455555555556e-03 1.87072940372625e+02 0.00000000000000e+00
9.82300000000000e-03 1.85642425915043e+02 0.00000000000000e+00
1.00214444444444e-02 1.84222850354392e+02 0.00000000000000e+00
1.02198888888889e-02 1.82814130042817e+02 0.00000000000000e+00
1.04183333333333e-02 1.81416181972104e+02 0.00000000000000e+00
1.06167777777778e-02 1.80028923768788e+02 0.00000000000000e+00
1.08152222222222e-02 1.78652273689299e+02 0.00000000000000e+00
1.10136666666667e-02 1.77286150615147e+02 0.00000000000000e+00
1.12121111111111e-02 1.75930474048141e+02 0.00000000000000e+00
1.14105555555556e-02 1.74585164105646e+02 0.00000000000000e+00
1.16090000000000e-02 1.73250141515874e+02 0.00000000000000e+00
1.18074444444444e-02 1.71925327613217e+02 0.00000000000000e+00
1.20058888888889e-02 1.70610644333607e+02 0.00000000000000e+00
1.22043333333333e-02 1.69306014209921e+02 0.00000000000000e+00
1.24027777777778e-02 1.68011360367412e+02 0.00000000000000e+00
1.26012222222222e-02 1.66726606519181e+02 0.00000000000000e+00
1.27996666666667e-02 1.65451676961683e+02 0.00000000000000e+00
1.29981111111111e-02 1.64186496570262e+02 0.00000000000000e+00
1.31965555555556e-02 1.62930990794730e+02 0.00000000000000e+00
1.33950000000000e-02 1.61685085654971e+02 0.00000000000000e+00
1.35934444444444e-02 1.60448707736582e+02 0.00000000000000e+00
1.37918888888889e-02 1.59221784186547e+02 0.00000000000000e+00
1.39903333333333e-02 1.58004242708944e+02 0.00000000000000e+00
1.41887777777778e-02 1.56796011560686e+02 0.00000000000000e+00
1.43872222222222e-02 1.55597019547293e+02 0.00000000000000e+00
1.45856666666667e-02 1.54407196018696e+02 0.00000000000000e+00
1.47841111111111e-02 1.53226470865077e+02 0.00000000000000e+00
1.49825555555556e-02 1.52054774512734e+02 0.00000000000000e+00
1.51810000000000e-02 1.50892037919982e+02 0.00000000000000e+00
1.53794444444444e-02 1.49738192573089e+02 0.00000000000000e+00
1.55778888888889e-02 1.48593170482234e+02 0.00000000000000e+00
1.57763333333333e-02 1.47456904177500e+02 0.00000000000000e+00
1.59747777777778e-02 1.46329326704906e+02 0.00000000000000e+00
1.61732222222222e-02 1.45210371622452e+02 0.00000000000000e+00
1.63716666666667e-02 1.44099972996210e+02 0.00000000000000e+00
1.65701111111111e-02 1.42998065396438e+02 0.00000000000000e+00
1.67685555555556e-02 1.41904583893724e+02 0.00000000000000e+00
1.69670000000000e-02 1.40819464055158e+02 0.00000000000000e+00
1.71654444444444e-02 1.39742641940540e+02 0.00000000000000e+00
1.73638888888889e-02 1.38674054098608e+02 0.00000000000000e+00
1.75623333333333e-02 1.37613637563302e+02 0.00000000000000e+00
1.77607777777778e-02 1.36561329850050e+02 0.00000000000000e+00
1.79592222222222e-02 1.35517068952092e+02 0.00000000000000e+00
1.81576666666667e-02 1.34480793336822e+02 0.00000000000000e+00
1.83561111111111e-02 1.33452441942162e+02 0.00000000000000e+00
1.85545555555556e-02 1.32431954172965e+02 0.00000000000000e+00
1.87530000000000e-02 1.31419269897447e+02 0.00000000000000e+00
1.89514444444444e-02 1.30414329443640e+02 0.00000000000000e+00
1.91498888888889e-02 1.29417073595876e+02 0.00000000000000e+00
1.93483333333333e-02 1.28427443591301e+02 0.00000000000000e+00
1.95467777777778e-02 1.27445381116410e+02 0.00000000000000e+00
1.97452222222222e-02 1.26470828303609e+02 0.00000000000000e+00
1.99436666666667e-02 1.25503727727811e+02 0.00000000000000e+00
2.01421111111111e-02 1.24544022403046e+02 0.00000000000000e+00
2.03405555555556e-02 1.23591655779107e+02 0.00000000000000e+00
2.05390000000000e-02 1.22646571738218e+02 0.00000000000000e+00
2.07374444444444e-02 1.21708714591722e+02 0.00000000000000e+00
2.09358888888889e-02 1.20778029076809e+02 0.00000000000000e+00
2.11343333333333e-02 1.19854460353248e+02 0.00000000000000e+00
2.13327777777778e-02 1.18937954000168e+02 0.00000000000000e+00
2.15312222222222e-02 1.18028456012840e+02 0.00000000000000e+00
2.17296666666667e-02 1.17125912799502e+02 0.00000000000000e+00
2.19281111111111e-02 1.16230271178200e+02 0.00000000000000e+00
2.21265555555556e-02 1.15341478373651e+02 0.00000000000000e+00
2.23250000000000e-02 1.14459482014136e+02 0.00000000000000e+00
2.25234444444444e-02 1.13584230128415e+02 0.00000000000000e+00
2.27218888888889e-02 1.12715671142662e+02 0.00000000000000e+00
2.29203333333333e-02 1.11853753877426e+02 0.00000000000000e+00
2.31187777777778e-02 1.10998427544618e+02 0.00000000000000e+00
2.33172222222222e-02 1.10149641744518e+02 0.00000000000000e+00
2.35156666666667e-02 1.09307346462800e+02 0.00000000000000e+00
2.37141111111111e-02 1.08471492067592e+02 0.00000000000000e+00
2.39125555555556e-02 1.07642029306548e+02 0.00000000000000e+00
2.41110000000000e-02 1.06818909303945e+02 0.00000000000000e+00
2.43094444444444e-02 1.06002083557805e+02 0.00000000000000e+00
2.45078888888889e-02 1.05191503937037e+02 0.00000000000000e+00
2.47063333333333e-02 1.04387122678599e+02 0.00000000000000e+00
2.49047777777778e-02 1.03588892384684e+02 0.00000000000000e+00
2.51032222222222e-02 1.02796766019931e+02 0.00000000000000e+00
2.53016666666667e-02 1.02010696908646e+02 0.00000000000000e+00
2.55001111111111e-02 1.01230638732059e+02 0.00000000000000e+00
2.56985555555556e-02 1.00456545525591e+02 0.00000000000000e+00
2.58970000000000e-02 9.96883716761459e+01 0.00000000000000e+00
2.60954444444444e-02 9.89260719194230e+01 0.00000000000000e+00
2.62938888888889e-02 9.81696013372500e+01 0.00000000000000e+00
2.64923333333333e-02 9.74189153549362e+01 0.00000000000000e+00
2.66907777777778e-02 9.66739697386457e+01 0.00000000000000e+00
2.68892222222222e-02 9.59347205927913e+01 0.00000000000000e+00
2.70876666666667e-02 9.52011243574476e+01 0.00000000000000e+00
2.72861111111111e-02 9.44731378057845e+01 0.00000000000000e+00
2.74845555555556e-02 9.37507180415200e+01 0.00000000000000e+00
2.76830000000000e-02 9.30338224963925e+01 0.00000000000000e+00
2.78814444444444e-02 9.23224089276525e+01 0.00000000000000e+00
2.80798888888889e-02 9.16164354155738e+01 0.00000000000000e+00
2.82783333333333e-02 9.09158603609827e+01 0.00000000000000e+00
2.84767777777778e-02 9.02206424828075e+01 0.00000000000000e+00
2.86752222222222e-02 8.95307408156456e+01 0.00000000000000e+00
2.88736666666667e-02 8.88461147073498e+01 0.00000000000000e+00
2.90721111111111e-02 8.81667238166328e+01 0.00000000000000e+00
2.92705555555556e-02 8.74925281106901e+01 0.00000000000000e+00
2.94690000000000e-02 8.68234878628412e+01 0.00000000000000e+00
2.96674444444444e-02 8.61595636501889e+01 0.00000000000000e+00
2.98658888888889e-02 8.55007163512956e+01 0.00000000000000e+00
3.00643333333333e-02 8.48469071438790e+01 0.00000000000000e+00
3.02627777777778e-02 8.41980975025239e+01 0.00000000000000e+00
3.04612222222222e-02 8.35542491964124e+01 0.00000000000000e+00
3.06596666666667e-02 8.29153242870708e+01 0.00000000000000e+00
3.08581111111111e-02 8.22812851261346e+01 0.00000000000000e+00
3.10565555555556e-02 8.16520943531298e+01 0.00000000000000e+00
3.12550000000000e-02 8.10277148932715e+01 0.00000000000000e+00
3.14534444444444e-02 8.04081099552792e+01 0.00000000000000e+00
3.16518888888889e-02 7.97932430292089e+01 0.00000000000000e+00
3.18503333333333e-02 7.91830778843022e+01 0.00000000000000e+00
3.20487777777778e-02 7.85775785668505e+01 0.00000000000000e+00
3.22472222222222e-02 7.79767093980774e+01 0.00000000000000e+00
3.24456666666667e-02 7.73804349720359e+01 0.00000000000000e+00
3.26441111111111e-02 7.67887201535220e+01 0.00000000000000e+00
3.28425555555556e-02 7.62015300760047e+01 0.00000000000000e+00
3.30410000000000e-02 7.56188301395711e+01 0.00000000000000e+00
3.32394444444444e-02 7.50405860088883e+01 0.00000000000000e+00
3.34378888888889e-02 7.44667636111792e+01 0.00000000000000e+00
3.36363333333333e-02 7.38973291342158e+01 0.00000000000000e+00
3.38347777777778e-02 7.33322490243261e+01 0.00000000000000e+00
3.40332222222222e-02 7.27714899844173e+01 0.00000000000000e+00
3.42316666666667e-02 7.22150189720138e+01 0.00000000000000e+00
3.44301111111111e-02 7.16628031973100e+01 0.00000000000000e+00
3.46285555555556e-02 7.11148101212382e+01 0.00000000000000e+00
3.48270000000000e-02 7.05710074535517e+01 0.00000000000000e+00
3.50254444444444e-02 7.00313631509213e+01 0.00000000000000e+00
3.52238888888889e-02 6.94958454150478e+01 0.00000000000000e+00
3.54223333333333e-02 6.89644226907882e+01 0.00000000000000e+00
3.56207777777778e-02 6.84370636642960e+01 0.00000000000000e+00
3.58192222222222e-02 6.79137372611764e+01 0.00000000000000e+00
3.60176666666667e-02 6.73944126446552e+01 0.00000000000000e+00
3.62161111111111e-02 6.68790592137616e+01 0.00000000000000e+00
3.64145555555556e-02 6.63676466015250e+01 0.00000000000000e+00
3.66130000000000e-02 6.58601446731861e+01 0.00000000000000e+00
3.68114444444444e-02 6.53565235244206e+01 0.00000000000000e+00
3.70098888888889e-02 6.48567534795775e+01 0.00000000000000e+00
3.72083333333333e-02 6.43608050899304e+01 0.00000000000000e+00
3.74067777777778e-02 6.38686491319423e+01 0.00000000000000e+00
3.76052222222222e-02 6.33802566055435e+01 0.00000000000000e+00
3.78036666666667e-02 6.28955987324226e+01 0.00000000000000e+00
3.80021111111111e-02 6.24146469543313e+01 0.00000000000000e+00
3.82005555555556e-02 6.19373729314011e+01 0.00000000000000e+00
3.83990000000000e-02 6.14637485404736e+01 0.00000000000000e+00
3.85974444444444e-02 6.09937458734434e+01 0.00000000000000e+00
3.87958888888889e-02 6.05273372356135e+01 0.00000000000000e+00
3.89943333333333e-02 6.00644951440635e+01 0.00000000000000e+00
3.91927777777778e-02 5.96051923260301e+01 0.00000000000000e+00
3.93912222222222e-02 5.91494017173002e+01 0.00000000000000e+00
3.95896666666667e-02 5.86970964606160e+01 0.00000000000000e+00
3.97881111111111e-02 5.82482499040925e+01 0.00000000000000e+00
3.99865555555556e-02 5.78028355996470e+01 0.00000000000000e+00
4.01850000000000e-02 5.73608273014409e+01 0.00000000000000e+00
4.03834444444444e-02 5.69221989643328e+01 0.00000000000000e+00
4.05818888888889e-02 5.64869247423442e+01 0.00000000000000e+00
4.07803333333333e-02 5.60549789871361e+01 0.00000000000000e+00
4.09787777777778e-02 5.56263362464981e+01 0.00000000000000e+00
4.11772222222222e-02 5.52009712628483e+01 0.00000000000000e+00
4.13756666666667e-02 5.47788589717453e+01 0.00000000000000e+00
4.15741111111111e-02 5.43599745004112e+01 0.00000000000000e+00
4.17725555555556e-02 5.39442931662657e+01 0.00000000000000e+00
4.19710000000000e-02 5.35317904754721e+01 0.00000000000000e+00
4.21694444444444e-02 5.31224421214939e+01 0.00000000000000e+00
4.23678888888889e-02 5.27162239836623e+01 0.00000000000000e+00
4.25663333333333e-02 5.23131121257552e+01 0.00000000000000e+00
4.27647777777778e-02 5.19130827945867e+01 0.00000000000000e+00
4.29632222222222e-02 5.15161124186073e+01 0.00000000000000e+00
4.31616666666667e-02 5.11221776065151e+01 0.00000000000000e+00
4.33601111111111e-02 5.07312551458775e+01 0.00000000000000e+00
4.35585555555556e-02 5.03433220017632e+01 0.00000000000000e+00
4.37570000000000e-02 4.99583553153853e+01 0.00000000000000e+00
4.39554444444444e-02 4.95763324027539e+01 0.00000000000000e+00
4.41538888888889e-02 4.91972307533397e+01 0.00000000000000e+00
4.43523333333333e-02 4.88210280287476e+01 0.00000000000000e+00
4.45507777777778e-02 4.84477020614002e+01 0.00000000000000e+00
4.47492222222222e-02 4.80772308532318e+01 0.00000000000000e+00
4.49476666666667e-02 4.77095925743923e+01 0.00000000000000e+00
4.51461111111111e-02 4.73447655619603e+01 0.00000000000000e+00
4.53445555555556e-02 4.69827283186674e+01 0.00000000000000e+00
4.55430000000000e-02 4.66234595116308e+01 0.00000000000000e+00
4.57414444444444e-02 4.62669379710968e+01 0.00000000000000e+00
4.59398888888889e-02 4.59131426891931e+01 0.00000000000000e+00
4.61383333333333e-02 4.55620528186907e+01 0.00000000000000e+00
4.63367777777778e-02 4.52136476717763e+01 0.00000000000000e+00
4.65352222222222e-02 4.48679067188322e+01 0.00000000000000e+00
4.67336666666667e-02 4.45248095872274e+01 0.00000000000000e+00
4.69321111111111e-02 4.41843360601168e+01 0.00000000000000e+00
4.71305555555556e-02 4.38464660752502e+01 0.00000000000000e+00
4.73290000000000e-02 4.35111797237898e+01 0.00000000000000e+00
4.75274444444444e-02 4.31784572491371e+01 0.00000000000000e+00
4.77258888888889e-02 4.28482790457693e+01 0.00000000000000e+00
4.79243333333333e-02 4.25206256580833e+01 0.00000000000000e+00
4.81227777777778e-02 4.21954777792497e+01 0.00000000000000e+00
4.83212222222222e-02 4.18728162500753e+01 0.00000000000000e+00
4.85196666666667e-02 4.15526220578737e+01 0.00000000000000e+00
4.87181111111111e-02 4.12348763353452e+01 0.00000000000000e+00
4.89165555555556e-02 4.09195603594654e+01 0.00000000000000e+00
4.91150000000000e-02 4.06066555503812e+01 0.00000000000000e+00
4.93134444444444e-02 4.02961434703168e+01 0.00000000000000e+00
4.95118888888889e-02 3.99880058224868e+01 0.00000000000000e+00
4.97103333333333e-02 3.96822244500179e+01 0.00000000000000e+00
4.99087777777778e-02 3.93787813348796e+01 0.00000000000000e+00
5.01072222222222e-02 3.90776585968219e+01 0.00000000000000e+00
5.03056666666667e-02 3.87788384923223e+01 0.00000000000000e+00
5.05041111111111e-02 3.84823034135397e+01 0.00000000000000e+00
5.07025555555556e-02 3.81880358872771e+01 0.00000000000000e+00
5.09010000000000e-02 3.78960185739522e+01 0.00000000000000e+00
5.10994444444444e-02 3.76062342665753e+01 0.00000000000000e+00
5.12978888888889e-02 3.73186658897358e+01 0.00000000000000e+00
5.14963333333333e-02 3.70332964985956e+01 0.00000000000000e+00
5.16947777777778e-02 3.67501092778911e+01 0.00000000000000e+00
5.18932222222222e-02 3.64690875409417e+01 0.00000000000000e+00
5.20916666666667e-02 3.61902147286674e+01 0.00000000000000e+00
5.22901111111111e-02 3.59134744086124e+01 0.00000000000000e+00
5.24885555555556e-02 3.56388502739771e+01 0.00000000000000e+00
5.26870000000000e-02 3.53663261426572e+01 0.00000000000000e+00
5.28854444444444e-02 3.50958859562900e+01 0.00000000000000e+00
5.30838888888889e-02 3.48275137793086e+01 0.00000000000000e+00
5.32823333333333e-02 3.45611937980025e+01 0.00000000000000e+00
5.34807777777778e-02 3.42969103195858e+01 0.00000000000000e+00
5.36792222222222e-02 3.40346477712727e+01 0.00000000000000e+00
5.38776666666667e-02 3.37743906993598e+01 0.00000000000000e+00
5.40761111111111e-02 3.35161237683157e+01 0.00000000000000e+00
5.42745555555556e-02 3.32598317598768e+01 0.00000000000000e+00
5.44730000000000e-02 3.30054995721512e+01 0.00000000000000e+00
5.46714444444444e-02 3.27531122187284e+01 0.00000000000000e+00
5.48698888888889e-02 3.25026548277966e+01 0.00000000000000e+00
5.50683333333333e-02 3.22541126412659e+01 0.00000000000000e+00
5.52667777777778e-02 3.20074710138991e+01 0.00000000000000e+00
5.54652222222222e-02 3.17627154124487e+01 0.00000000000000e+00
5.56636666666667e-02 3.15198314148002e+01 0.00000000000000e+00
5.58621111111111e-02 3.12788047091228e+01 0.00000000000000e+00
5.60605555555556e-02 3.10396210930256e+01 0.00000000000000e+00
5.62590000000000e-02 3.08022664727210e+01 0.00000000000000e+00
5.64574444444444e-02 3.05667268621940e+01 0.00000000000000e+00
5.66558888888889e-02 3.03329883823786e+01 0.00000000000000e+00
5.68543333333333e-02 3.01010372603392e+01 0.00000000000000e+00
5.70527777777778e-02 2.98708598284598e+01 0.00000000000000e+00
5.72512222222222e-02 2.96424425236380e+01 0.00000000000000e+00
5.74496666666667e-02 2.94157718864864e+01 0.00000000000000e+00
5.76481111111111e-02 2.91908345605390e+01 0.00000000000000e+00
5.78465555555556e-02 2.89676172914645e+01 0.00000000000000e+00
5.80450000000000e-02 2.87461069262852e+01 0.00000000000000e+00
5.82434444444444e-02 2.85262904126017e+01 0.00000000000000e+00
5.84418888888889e-02 2.83081547978243e+01 0.00000000000000e+00
5.86403333333333e-02 2.80916872284096e+01 0.00000000000000e+00
5.88387777777778e-02 2.78768749491027e+01 0.00000000000000e+00
5.90372222222222e-02 2.76637053021861e+01 0.00000000000000e+00
5.92356666666667e-02 2.74521657267338e+01 0.00000000000000e+00
5.94341111111111e-02 2.72422437578708e+01 0.00000000000000e+00
5.96325555555556e-02 2.70339270260390e+01 0.00000000000000e+00
5.98310000000000e-02 2.68272032562681e+01 0.00000000000000e+00
6.00294444444444e-02 2.66220602674525e+01 0.00000000000000e+00
6.02278888888889e-02 2.64184859716333e+01 0.00000000000000e+00
6.04263333333333e-02 2.62164683732861e+01 0.00000000000000e+00
6.06247777777778e-02 2.60159955686143e+01 0.00000000000000e+00
6.08232222222222e-02 2.58170557448475e+01 0.00000000000000e+00
6.10216666666667e-02 2.56196371795455e+01 0.00000000000000e+00
6.12201111111111e-02 2.54237282399077e+01 0.00000000000000e+00
6.14185555555556e-02 2.52293173820874e+01 0.00000000000000e+00
6.16170000000000e-02 2.50363931505118e+01 0.00000000000000e+00
6.18154444444444e-02 2.48449441772068e+01 0.00000000000000e+00
6.20138888888889e-02 2.46549591811272e+01 0.00000000000000e+00
6.22123333333333e-02 2.44664269674921e+01 0.00000000000000e+00
6.24107777777778e-02 2.42793364271251e+01 0.00000000000000e+00
6.26092222222222e-02 2.40936765357999e+01 0.00000000000000e+00
