Energy (eV)          EEDF (eV^-(3/2))     First Anisotropy
1.24200000000000e-03 1.47036804998369e+01 1.01885680360979e-02
3.72600000000000e-03 1.45018777895815e+01 1.67651296197251e-02
6.21000000000000e-03 1.43028447487238e+01 2.19758761966279e-02
8.69400000000000e-03 1.41065433645481e+01 2.58408649208985e-02
1.11780000000000e-02 1.39129361460513e+01 2.89877315750541e-02
1.36620000000000e-02 1.37219861167813e+01 3.16562650015132e-02
1.61460000000000e-02 1.35336568077747e+01 3.39717900515959e-02
1.86300000000000e-02 1.33479122505911e+01 3.60107170365049e-02
2.11140000000000e-02 1.31647169704443e+01 3.78242013064160e-02
2.35980000000000e-02 1.29840359794267e+01 3.94487334510955e-02
2.60820000000000e-02 1.28058347698270e+01 4.09115710853215e-02
2.85660000000000e-02 1.26300793075398e+01 4.22338024222536e-02
3.10500000000000e-02 1.24567360255658e+01 4.34322002936323e-02
3.35340000000000e-02 1.22857718176002e+01 4.45204071063713e-02
3.60180000000000e-02 1.21171540317106e+01 4.55097259653295e-02
3.85020000000000e-02 1.19508504641005e+01 4.64096680916510e-02
4.09860000000000e-02 1.17868293529590e+01 4.72283431044112e-02
4.34700000000000e-02 1.16250593723944e+01 4.79727444266220e-02
4.59540000000000e-02 1.14655096264517e+01 4.86489626081626e-02
4.84380000000000e-02 1.13081496432118e+01 4.92623478324273e-02
5.09220000000000e-02 1.11529493689714e+01 4.98176357980412e-02
5.34060000000000e-02 1.09998791625038e+01 5.03190466848237e-02
5.58900000000000e-02 1.08489097893972e+01 5.07703639944685e-02
5.83740000000000e-02 1.07000124164716e+01 5.11749981089592e-02
6.08580000000000e-02 1.05531586062721e+01 5.15360380818727e-02
6.33420000000000e-02 1.04083203116376e+01 5.18562942545364e-02
6.58260000000000e-02 1.02654698703439e+01 5.21383336357910e-02
6.83100000000000e-02 1.01245799998212e+01 5.23845095145272e-02
7.07940000000000e-02 9.98562379194294e+00 5.25969864316392e-02
7.32780000000000e-02 9.84857470788694e+00 5.27777613848691e-02
7.57620000000000e-02 9.71340657306674e+00 5.29286819505941e-02
7.82460000000000e-02 9.58009357213269e+00 5.30514618632748e-02
8.07300000000000e-02 9.44861024404146e+00 5.31476944836528e-02
8.32140000000000e-02 9.31893147719337e+00 5.32188645022136e-02
8.56980000000000e-02 9.19103250463639e+00 5.32663581585125e-02
8.81820000000000e-02 9.06488889933597e+00 5.32914722051552e-02
9.06660000000000e-02 8.94047656950979e+00 5.32954218042530e-02
9.31500000000000e-02 8.81777175402654e+00 5.32793475114731e-02
9.56340000000000e-02 8.69675101786789e+00 5.32443214765352e-02
9.81180000000000e-02 8.57739124765268e+00 5.31913529677802e-02
1.00602000000000e-01 8.45966964722255e+00 5.31213933111640e-02
1.03086000000000e-01 8.34356373328819e+00 5.30353403199149e-02
1.05570000000000e-01 8.22905133113535e+00 5.29340422794684e-02
1.08054000000000e-01 8.11611057038971e+00 5.28183015426771e-02
1.10538000000000e-01 8.00471988083994e+00 5.26888777823258e-02
1.13022000000000e-01 7.89485798831811e+00 5.25464909413055e-02
1.15506000000000e-01 7.78650391063654e+00 5.23918239152100e-02
1.17990000000000e-01 7.67963695358052e+00 5.22255249974204e-02
1.20474000000000e-01 7.57423670695598e+00 5.20482101127518e-02
1.22958000000000e-01 7.47028304069137e+00 5.18604648623629e-02
1.25442000000000e-01 7.36775610099314e+00 5.16628463997531e-02
1.27926000000000e-01 7.26663630655388e+00 5.14558851552063e-02
1.30410000000000e-01 7.16690434481257e+00 5.12400864239329e-02
1.32894000000000e-01 7.06854116826611e+00 5.10159318313282e-02
1.35378000000000e-01 6.97152799083152e+00 5.07838806872194e-02
1.37862000000000e-01 6.87584628425802e+00 5.05443712396041e-02
1.40346000000000e-01 6.78147777458838e+00 5.02978218371875e-02
1.42830000000000e-01 6.68840443866887e+00 5.00446320090304e-02
1.45314000000000e-01 6.59660850070702e+00 4.97851834686874e-02
1.47798000000000e-01 6.50607242887671e+00 4.95198410494491e-02
1.50282000000000e-01 6.41677893196979e+00 4.92489535766089e-02
1.52766000000000e-01 6.32871095609374e+00 4.89728546820614e-02
1.55250000000000e-01 6.24185168141452e+00 4.86918635660124e-02
1.57734000000000e-01 6.15618451894426e+00 4.84062857101054e-02
1.60218000000000e-01 6.07169310737299e+00 4.81164135458436e-02
1.62702000000000e-01 5.98836130994378e+00 4.78225270818163e-02
1.65186000000000e-01 5.90617321137088e+00 4.75248944929243e-02
1.67670000000000e-01 5.82511311480010e+00 4.72237726744766e-02
1.70154000000000e-01 5.74516553881090e+00 4.69194077637846e-02
1.72638000000000e-01 5.66631521445967e+00 4.66120356316561e-02
1.75122000000000e-01 5.58854708236353e+00 4.63018823459406e-02
1.77606000000000e-01 5.51184628982419e+00 4.59891646091280e-02
1.80090000000000e-01 5.43619818799130e+00 4.56740901718231e-02
1.82574000000000e-01 5.36158832906470e+00 4.53568582237466e-02
1.85058000000000e-01 5.28800246353505e+00 4.50376597637939e-02
1.87542000000000e-01 5.21542653746240e+00 4.47166779505560e-02
1.90026000000000e-01 5.14384668979207e+00 4.43940884345847e-02
1.92510000000000e-01 5.07324924970733e+00 4.40700596735839e-02
1.94994000000000e-01 5.00362073401849e+00 4.37447532316277e-02
1.97478000000000e-01 4.93494784458778e+00 4.34183240634140e-02
1.99962000000000e-01 4.86721746578956e+00 4.30909207844701e-02
2.02446000000000e-01 4.80041666200542e+00 4.27626859281812e-02
2.04930000000000e-01 4.73453267515367e+00 4.24337561904416e-02
2.07414000000000e-01 4.66955292225265e+00 4.21042626626621e-02
2.09898000000000e-01 4.60546499301762e+00 4.17743310538190e-02
2.12382000000000e-01 4.54225664749050e+00 4.14440819021782e-02
2.14866000000000e-01 4.47991581370222e+00 4.11136307772940e-02
2.17350000000000e-01 4.41843058536714e+00 4.07830884728277e-02
2.19834000000000e-01 4.35778921960909e+00 4.04525611906980e-02
2.22318000000000e-01 4.29798013471863e+00 4.01221507170440e-02
2.24802000000000e-01 4.23899190794112e+00 3.97919545904428e-02
2.27286000000000e-01 4.18081327329510e+00 3.94620662628051e-02
2.29770000000000e-01 4.12343311942063e+00 3.91325752533335e-02
2.32254000000000e-01 4.06684048745720e+00 3.88035672959037e-02
2.34738000000000e-01 4.01102456895068e+00 3.84751244802197e-02
2.37222000000000e-01 3.95597470378910e+00 3.81473253870558e-02
2.39706000000000e-01 3.90168037816665e+00 3.78202452178892e-02
2.42190000000000e-01 3.84813122257575e+00 3.74939559192004e-02
2.44674000000000e-01 3.79531700982654e+00 3.71685263017044e-02
2.47158000000000e-01 3.74322765309366e+00 3.68440221547703e-02
2.49642000000000e-01 3.69185320398979e+00 3.65205063562543e-02
2.52126000000000e-01 3.64118385066564e+00 3.61980389779712e-02
2.54610000000000e-01 3.59120991593601e+00 3.58766773870066e-02
2.57094000000000e-01 3.54192185543158e+00 3.55564763430667e-02
2.59578000000000e-01 3.49331025577604e+00 3.52374880920580e-02
2.62062000000000e-01 3.44536583278828e+00 3.49197624560581e-02
2.64546000000000e-01 3.39807942970925e+00 3.46033469198483e-02
2.67030000000000e-01 3.35144201545307e+00 3.42882867141650e-02
2.69514000000000e-01 3.30544468288230e+00 3.39746248958124e-02
2.71998000000000e-01 3.26007864710672e+00 3.36624024247788e-02
2.74482000000000e-01 3.21533524380557e+00 3.33516582384869e-02
2.76966000000000e-01 3.17120592757276e+00 3.30424293233015e-02
2.79450000000000e-01 3.12768227028483e+00 3.27347507834105e-02
2.81934000000000e-01 3.08475595949125e+00 3.24286559071994e-02
2.84418000000000e-01 3.04241879682690e+00 3.21241762312182e-02
2.86902000000000e-01 3.00066269644624e+00 3.18213416018414e-02
2.89386000000000e-01 2.95947968347906e+00 3.15201802347235e-02
2.91870000000000e-01 2.91886189250737e+00 3.12207187721310e-02
2.94354000000000e-01 2.87880156606318e+00 3.09229823382483e-02
2.96838000000000e-01 2.83929105314697e+00 3.06269945925333e-02
2.99322000000000e-01 2.80032280776643e+00 3.03327777811989e-02
3.01806000000000e-01 2.76188938749527e+00 3.00403527869027e-02
3.04290000000000e-01 2.72398345205179e+00 2.97497391767106e-02
3.06774000000000e-01 2.68659776189705e+00 2.94609552484031e-02
3.09258000000000e-01 2.64972517685215e+00 2.91740180751861e-02
3.11742000000000e-01 2.61335865473455e+00 2.88889435488757e-02
3.14226000000000e-01 2.57749125001316e+00 2.86057464216083e-02
3.16710000000000e-01 2.54211611248178e+00 2.83244403461344e-02
3.19194000000000e-01 2.50722648595081e+00 2.80450379147483e-02
3.21678000000000e-01 2.47281570695694e+00 2.77675506969107e-02
3.24162000000000e-01 2.43887720349047e+00 2.74919892756072e-02
3.26646000000000e-01 2.40540449374017e+00 2.72183632824890e-02
3.29130000000000e-01 2.37239118485533e+00 2.69466814318440e-02
3.31614000000000e-01 2.33983097172480e+00 2.66769515534423e-02
3.34098000000000e-01 2.30771763577283e+00 2.64091806242933e-02
3.36582000000000e-01 2.27604504377135e+00 2.61433747993524e-02
3.39066000000000e-01 2.24480714666865e+00 2.58795394412216e-02
3.41550000000000e-01 2.21399797843406e+00 2.56176791488752e-02
3.44034000000000e-01 2.18361165491855e+00 2.53577977854455e-02
3.46518000000000e-01 2.15364237273089e+00 2.50998985051018e-02
3.49002000000000e-01 2.12408440812932e+00 2.48439837790551e-02
3.51486000000000e-01 2.09493211592835e+00 2.45900554207205e-02
3.53970000000000e-01 2.06617992842063e+00 2.43381146100616e-02
3.56454000000000e-01 2.03782235431361e+00 2.40881619171500e-02
3.58938000000000e-01 2.00985397768072e+00 2.38401973249674e-02
3.61422000000000e-01 1.98226945692703e+00 2.35942202514706e-02
3.63906000000000e-01 1.95506352376908e+00 2.33502295709479e-02
3.66390000000000e-01 1.92823098222871e+00 2.31082236346926e-02
3.68874000000000e-01 1.90176670764068e+00 2.28682002910147e-02
3.71358000000000e-01 1.87566564567391e+00 2.26301569046108e-02
3.73842000000000e-01 1.84992281136623e+00 2.23940903753154e-02
3.76326000000000e-01 1.82453328817224e+00 2.21599971562573e-02
3.78810000000000e-01 1.79949222702437e+00 2.19278732714363e-02
3.81294000000000e-01 1.77479484540676e+00 2.16977143327396e-02
3.83778000000000e-01 1.75043642644183e+00 2.14695155564185e-02
3.86262000000000e-01 1.72641231798948e+00 2.12432717790427e-02
3.88746000000000e-01 1.70271793175851e+00 2.10189774729457e-02
3.91230000000000e-01 1.67934874243041e+00 2.07966267611812e-02
3.93714000000000e-01 1.65630028679498e+00 2.05762134320082e-02
3.96198000000000e-01 1.63356816289802e+00 2.03577309529129e-02
3.98682000000000e-01 1.61114802920053e+00 2.01411724841885e-02
4.01166000000000e-01 1.58903560374959e+00 1.99265308920852e-02
4.03650000000000e-01 1.56722666336051e+00 1.97137987615432e-02
4.06134000000000e-01 1.54571704281032e+00 1.95029684085211e-02
4.08618000000000e-01 1.52450263404221e+00 1.92940318919342e-02
4.11102000000000e-01 1.50357938538097e+00 1.90869810252159e-02
4.13586000000000e-01 1.48294330075918e+00 1.88818073875106e-02
4.16070000000000e-01 1.46259043895399e+00 1.86785023345128e-02
4.18554000000000e-01 1.44251691283443e+00 1.84770570089616e-02
4.21038000000000e-01 1.42271888861899e+00 1.82774623508005e-02
4.23522000000000e-01 1.40319258514342e+00 1.80797091070161e-02
4.26006000000000e-01 1.38393427313859e+00 1.78837878411628e-02
4.28490000000000e-01 1.36494027451826e+00 1.76896889425824e-02
4.30974000000000e-01 1.34620696167657e+00 1.74974026353331e-02
4.33458000000000e-01 1.32773075679527e+00 1.73069189868291e-02
4.35942000000000e-01 1.30950813116035e+00 1.71182279162065e-02
4.38426000000000e-01 1.29153560448814e+00 1.69313192024187e-02
4.40910000000000e-01 1.27380974426060e+00 1.67461824920746e-02
4.43394000000000e-01 1.25632716506976e+00 1.65628073070225e-02
4.45878000000000e-01 1.23908452797118e+00 1.63811830516906e-02
4.48362000000000e-01 1.22207853984619e+00 1.62012990201893e-02
4.50846000000000e-01 1.20530595277301e+00 1.60231444031834e-02
4.53330000000000e-01 1.18876356340640e+00 1.58467082945440e-02
4.55814000000000e-01 1.17244821236590e+00 1.56719796977799e-02
4.58298000000000e-01 1.15635678363238e+00 1.54989475322615e-02
4.60782000000000e-01 1.14048620395296e+00 1.53276006392402e-02
4.63266000000000e-01 1.12483344225405e+00 1.51579277876712e-02
4.65750000000000e-01 1.10939550906245e+00 1.49899176798441e-02
4.68234000000000e-01 1.09416945593440e+00 1.48235589568260e-02
4.70718000000000e-01 1.07915237489247e+00 1.46588402037266e-02
4.73202000000000e-01 1.06434139787017e+00 1.44957499547861e-02
4.75686000000000e-01 1.04973369616417e+00 1.43342766982939e-02
4.78170000000000e-01 1.03532647989411e+00 1.41744088813436e-02
4.80654000000000e-01 1.02111699746970e+00 1.40161349144265e-02
4.83138000000000e-01 1.00710253506524e+00 1.38594431758696e-02
4.85622000000000e-01 9.93280416101324e-01 1.37043220161231e-02
4.88106000000000e-01 9.79648000733616e-01 1.35507597619026e-02
4.90590000000000e-01 9.66202685348697e-01 1.33987447201883e-02
4.93074000000000e-01 9.52941902066803e-01 1.32482651820871e-02
4.95558000000000e-01 9.39863118251394e-01 1.30993094265599e-02
4.98042000000000e-01 9.26963836025451e-01 1.29518657240195e-02
5.00526000000000e-01 9.14241591794417e-01 1.28059223398034e-02
5.03010000000000e-01 9.01693955775683e-01 1.26614675375236e-02
5.05494000000000e-01 8.89318531534526e-01 1.25184895822973e-02
5.07978000000000e-01 8.77112955526429e-01 1.23769767438622e-02
5.10462000000000e-01 8.65074896645667e-01 1.22369172995810e-02
5.12946000000000e-01 8.53202055780104e-01 1.20982995373374e-02
5.15430000000000e-01 8.41492165372085e-01 1.19611117583251e-02
5.17914000000000e-01 8.29942988985369e-01 1.18253422797359e-02
5.20398000000000e-01 8.18552320877993e-01 1.16909794373478e-02
5.22882000000000e-01 8.07317985581008e-01 1.15580115880177e-02
5.25366000000000e-01 7.96237837482990e-01 1.14264271120792e-02
5.27850000000000e-01 7.85309760420261e-01 1.12962144156503e-02
5.30334000000000e-01 7.74531667272723e-01 1.11673619328541e-02
5.32818000000000e-01 7.63901499565250e-01 1.10398581279513e-02
5.35302000000000e-01 7.53417227074542e-01 1.09136914973917e-02
5.37786000000000e-01 7.43076847441385e-01 1.07888505717848e-02
5.40270000000000e-01 7.32878385788220e-01 1.06653239177919e-02
5.42754000000000e-01 7.22819894341971e-01 1.05431001399423e-02
5.45238000000000e-01 7.12899452062045e-01 1.04221678823759e-02
5.47722000000000e-01 7.03115164273438e-01 1.03025158305149e-02
5.50206000000000e-01 6.93465162304877e-01 1.01841327126648e-02
5.52690000000000e-01 6.83947603131927e-01 1.00670073015490e-02
5.55174000000000e-01 6.74560669025000e-01 9.95112841577824e-03
5.57658000000000e-01 6.65302567202190e-01 9.83648492125627e-03
5.60142000000000e-01 6.56171529486876e-01 9.72306573252421e-03
5.62626000000000e-01 6.47165811970023e-01 9.61085981404497e-03
5.65110000000000e-01 6.38283694677119e-01 9.49985618143001e-03
5.67594000000000e-01 6.29523481239681e-01 9.39004390260993e-03
5.70078000000000e-01 6.20883498571271e-01 9.28141209895067e-03
5.72562000000000e-01 6.12362096547961e-01 9.17394994631644e-03
5.75046000000000e-01 6.03957647693176e-01 9.06764667608181e-03
5.77530000000000e-01 5.95668546866870e-01 8.96249157609454e-03
5.80014000000000e-01 5.87493210958968e-01 8.85847399158896e-03
5.82498000000000e-01 5.79430078587007e-01 8.75558332605380e-03
5.84982000000000e-01 5.71477609797934e-01 8.65380904205353e-03
5.87466000000000e-01 5.63634285774000e-01 8.55314066200715e-03
5.89950000000000e-01 5.55898608542677e-01 8.45356776892353e-03
5.92434000000000e-01 5.48269100690574e-01 8.35508000709471e-03
5.94918000000000e-01 5.40744305081262e-01 8.25766708275130e-03
5.97402000000000e-01 5.33322784576987e-01 8.16131876467659e-03
5.99886000000000e-01 5.26003121764189e-01 8.06602488478424e-03
6.02370000000000e-01 5.18783918682801e-01 7.97177533866049e-03
6.04854000000000e-01 5.11663796559251e-01 7.87856008606944e-03
6.07338000000000e-01 5.04641395543138e-01 7.78636915142432e-03
6.09822000000000e-01 4.97715374447518e-01 7.69519262422625e-03
6.12306000000000e-01 4.90884410492752e-01 7.60502065947094e-03
6.14790000000000e-01 4.84147199053875e-01 7.51584347802357e-03
6.17274000000000e-01 4.77502453411430e-01 7.42765136696403e-03
6.19758000000000e-01 4.70948904505719e-01 7.34043467990271e-03
6.22242000000000e-01 4.64485300694432e-01 7.25418383726871e-03
6.24726000000000e-01 4.58110407513596e-01 7.16888932657031e-03
6.27210000000000e-01 4.51823007441813e-01 7.08454170262848e-03
6.29694000000000e-01 4.45621899667725e-01 7.00113158778538e-03
6.32178000000000e-01 4.39505899860679e-01 6.91864967208806e-03
6.34662000000000e-01 4.33473839944532e-01 6.83708671344861e-03
6.37146000000000e-01 4.27524567874562e-01 6.75643353777988e-03
6.39630000000000e-01 4.21656947417448e-01 6.67668103910943e-03
6.42114000000000e-01 4.15869857934262e-01 6.59782017967292e-03
6.44598000000000e-01 4.10162194166439e-01 6.51984198998513e-03
6.47082000000000e-01 4.04532866024689e-01 6.44273756889063e-03
6.49566000000000e-01 3.98980798380807e-01 6.36649808359599e-03
6.52050000000000e-01 3.93504930862331e-01 6.29111476968266e-03
6.54534000000000e-01 3.88104217650031e-01 6.21657893110134e-03
6.57018000000000e-01 3.82777627278169e-01 6.14288194014865e-03
6.59502000000000e-01 3.77524142437500e-01 6.07001523742744e-03
6.61986000000000e-01 3.72342759780982e-01 5.99797033179000e-03
6.64470000000000e-01 3.67232489732151e-01 5.92673880026560e-03
6.66954000000000e-01 3.62192356296120e-01 5.85631228797329e-03
6.69438000000000e-01 3.57221396873183e-01 5.78668250801876e-03
6.71922000000000e-01 3.52318662074965e-01 5.71784124137870e-03
6.74406000000000e-01 3.47483215543106e-01 5.64978033677008e-03
6.76890000000000e-01 3.42714133770424e-01 5.58249171050600e-03
6.79374000000000e-01 3.38010505924542e-01 5.51596734634054e-03
6.81858000000000e-01 3.33371433673929e-01 5.45019929530004e-03
6.84342000000000e-01 3.28796031016330e-01 5.38517967550264e-03
6.86826000000000e-01 3.24283424109549e-01 5.32090067196717e-03
6.89310000000000e-01 3.19832751104562e-01 5.25735453641052e-03
6.91794000000000e-01 3.15443161980910e-01 5.19453358703468e-03
6.94278000000000e-01 3.11113818384360e-01 5.13243020830409e-03
6.96762000000000e-01 3.06843893466786e-01 5.07103685071299e-03
6.99246000000000e-01 3.02632571728255e-01 5.01034603054351e-03
7.01730000000000e-01 2.98479048861278e-01 4.95035032961481e-03
7.04214000000000e-01 2.94382531597194e-01 4.89104239502409e-03
7.06698000000000e-01 2.90342237554669e-01 4.83241493887915e-03
7.09182000000000e-01 2.86357395090271e-01 4.77446073802270e-03
7.11666000000000e-01 2.82427243151095e-01 4.71717263375003e-03
7.14150000000000e-01 2.78551031129414e-01 4.66054353151896e-03
7.16634000000000e-01 2.74728018719319e-01 4.60456640065303e-03
7.19118000000000e-01 2.70957475775333e-01 4.54923427403809e-03
7.21602000000000e-01 2.67238682172965e-01 4.49454024781278e-03
7.24086000000000e-01 2.63570927671169e-01 4.44047748105307e-03
7.26570000000000e-01 2.59953511776704e-01 4.38703919545112e-03
7.29054000000000e-01 2.56385743610344e-01 4.33421867498868e-03
7.31538000000000e-01 2.52866941774933e-01 4.28200926560505e-03
7.34022000000000e-01 2.49396434225243e-01 4.23040437486067e-03
7.36506000000000e-01 2.45973558139627e-01 4.17939747159610e-03
7.38990000000000e-01 2.42597659793424e-01 4.12898208558610e-03
7.41474000000000e-01 2.39268094434108e-01 4.07915180719005e-03
7.43958000000000e-01 2.35984226158149e-01 4.02990028699811e-03
7.46442000000000e-01 2.32745427789565e-01 3.98122123547379e-03
7.48926000000000e-01 2.29551080760137e-01 3.93310842259328e-03
7.51410000000000e-01 2.26400574991271e-01 3.88555567748125e-03
7.53894000000000e-01 2.23293308777483e-01 3.83855688804352e-03
7.56378000000000e-01 2.20228688671479e-01 3.79210600059711e-03
7.58862000000000e-01 2.17206129370814e-01 3.74619701949740e-03
7.61346000000000e-01 2.14225053606109e-01 3.70082400676277e-03
7.63830000000000e-01 2.11284892030800e-01 3.65598108169724e-03
7.66314000000000e-01 2.08385083112397e-01 3.61166242051049e-03
7.68798000000000e-01 2.05525073025243e-01 3.56786225593641e-03
7.71282000000000e-01 2.02704315544736e-01 3.52457487684921e-03
7.73766000000000e-01 1.99922271943012e-01 3.48179462787846e-03
7.76250000000000e-01 1.97178410886050e-01 3.43951590902249e-03
7.78734000000000e-01 1.94472208332199e-01 3.39773317526011e-03
7.81218000000000e-01 1.91803147432090e-01 3.35644093616153e-03
7.83702000000000e-01 1.89170718429925e-01 3.31563375549806e-03
