Energy (eV)          EEDF (eV^-(3/2))     First Anisotropy
1.22714285714286e-02 2.86069327638192e-01 1.80401651081652e-04
3.68142857142857e-02 2.83261430945559e-01 2.97432328443268e-04
6.13571428571429e-02 2.80481094994127e-01 3.91422170720275e-04
8.59000000000000e-02 2.77728049269248e-01 4.62087513283783e-04
1.10442857142857e-01 2.75002025901302e-01 5.20414495045619e-04
1.34985714285714e-01 2.72302759649398e-01 5.70575069752190e-04
1.59528571428571e-01 2.69629987891347e-01 6.14737230416178e-04
1.84071428571429e-01 2.66983450570543e-01 6.54215484843058e-04
2.08614285714286e-01 2.64362890183200e-01 6.89885127109710e-04
2.33157142857143e-01 2.61768051753866e-01 7.22367246486438e-04
2.57700000000000e-01 2.59198682809898e-01 7.52123408477682e-04
2.82242857142857e-01 2.56654533347614e-01 7.79508935584761e-04
3.06785714285714e-01 2.54135355836757e-01 8.04805084007293e-04
3.31328571428571e-01 2.51640905166301e-01 8.28239564083873e-04
3.55871428571429e-01 2.49170938631163e-01 8.50000207261895e-04
3.80414285714286e-01 2.46725215908472e-01 8.70244404265661e-04
4.04957142857143e-01 2.44303499034387e-01 8.89105818444719e-04
4.29500000000000e-01 2.41905552380808e-01 9.06699284523716e-04
4.54042857142857e-01 2.39531142627175e-01 9.23124459793323e-04
4.78585714285714e-01 2.37180038754007e-01 9.38468601284994e-04
5.03128571428571e-01 2.34852012003698e-01 9.52808712181410e-04
5.27671428571429e-01 2.32546835864011e-01 9.66213222868558e-04
5.52214285714286e-01 2.30264286046002e-01 9.78743328669734e-04
5.76757142857143e-01 2.28004140462278e-01 9.90454065194141e-04
6.01300000000000e-01 2.25766179205340e-01 1.00139518280972e-03
6.25842857142857e-01 2.23550184522642e-01 1.01161186283419e-03
6.50385714285714e-01 2.21355940806263e-01 1.02114531240453e-03
6.74928571428571e-01 2.19183234560819e-01 1.03003326120633e-03
6.99471428571429e-01 2.17031854386478e-01 1.03831037732889e-03
7.24014285714286e-01 2.14901590958379e-01 1.04600862091278e-03
7.48557142857143e-01 2.12792237006303e-01 1.05315754520647e-03
7.73100000000000e-01 2.10703587294484e-01 1.05978455500977e-03
7.97642857142857e-01 2.08635438599054e-01 1.06591512819804e-03
8.22185714285714e-01 2.06587589696168e-01 1.07157300921612e-03
8.46728571428571e-01 2.04559841334373e-01 1.07678037764322e-03
8.71271428571429e-01 2.02551996217958e-01 1.08155799402321e-03
8.95814285714286e-01 2.00563858987748e-01 1.08592532920157e-03
9.20357142857143e-01 1.98595236202118e-01 1.08990067808650e-03
9.44900000000000e-01 1.96645936318164e-01 1.09350126063377e-03
9.69442857142857e-01 1.94715769671079e-01 1.09674331047501e-03
9.93985714285714e-01 1.92804548461740e-01 1.09964215445563e-03
1.01852857142857e+00 1.90912086737762e-01 1.10221228764215e-03
1.04307142857143e+00 1.89038200355565e-01 1.10446743329561e-03
1.06761428571429e+00 1.87182706990133e-01 1.10642059659671e-03
1.09215714285714e+00 1.85345426123021e-01 1.10808412807747e-03
1.11670000000000e+00 1.83526178973644e-01 1.10946976396954e-03
1.14124285714286e+00 1.81724788533323e-01 1.11058866361482e-03
1.16578571428571e+00 1.79941079530791e-01 1.11145145352967e-03
1.19032857142857e+00 1.78174878430067e-01 1.11206826700317e-03
1.21487142857143e+00 1.76426013368431e-01 1.11244877164945e-03
1.23941428571429e+00 1.74694314185130e-01 1.11260219190608e-03
1.26395714285714e+00 1.72979612403254e-01 1.11253734961036e-03
1.28850000000000e+00 1.71281741172224e-01 1.11226268207659e-03
1.31304285714286e+00 1.69600535292919e-01 1.11178626042336e-03
1.33758571428571e+00 1.67935831187717e-01 1.11111581523094e-03
1.36212857142857e+00 1.66287466896719e-01 1.11025875974195e-03
1.38667142857143e+00 1.64655282025282e-01 1.10922220377379e-03
1.41121428571429e+00 1.63039117765359e-01 1.10801296429314e-03
1.43575714285714e+00 1.61438816878851e-01 1.10663759269861e-03
1.46030000000000e+00 1.59854223648603e-01 1.10510238328550e-03
1.48484285714286e+00 1.58285183897165e-01 1.10341338266258e-03
1.50938571428571e+00 1.56731544960399e-01 1.10157640622236e-03
1.53392857142857e+00 1.55193155682674e-01 1.09959705306369e-03
1.55847142857143e+00 1.53669866371802e-01 1.09748071326673e-03
1.58301428571429e+00 1.52161528815020e-01 1.09523257269599e-03
1.60755714285714e+00 1.50667996263639e-01 1.09285763290922e-03
1.63210000000000e+00 1.49189123390720e-01 1.09036071487496e-03
1.65664285714286e+00 1.47724766305148e-01 1.08774646386029e-03
1.68118571428571e+00 1.46274782528162e-01 1.08501936082787e-03
1.70572857142857e+00 1.44839030987903e-01 1.08218373275485e-03
1.73027142857143e+00 1.43417371980259e-01 1.07924375642881e-03
1.75481428571429e+00 1.42009667180866e-01 1.07620346027797e-03
1.77935714285714e+00 1.40615779630902e-01 1.07306673976900e-03
1.80390000000000e+00 1.39235573700150e-01 1.06983735864777e-03
1.82844285714286e+00 1.37868915097562e-01 1.06651895138100e-03
1.85298571428571e+00 1.36515670850210e-01 1.06311503151354e-03
1.87752857142857e+00 1.35175709297477e-01 1.05962899921841e-03
1.90207142857143e+00 1.33848900056718e-01 1.05606414316971e-03
1.92661428571429e+00 1.32535114032237e-01 1.05242364078122e-03
1.95115714285714e+00 1.31234223402124e-01 1.04871057061772e-03
1.97570000000000e+00 1.29946101585748e-01 1.04492791230175e-03
2.00024285714286e+00 1.28670623251631e-01 1.04107854757683e-03
2.02478571428571e+00 1.27407664298480e-01 1.03716526671694e-03
2.04932857142857e+00 1.26157101849191e-01 1.03319077429967e-03
2.07387142857143e+00 1.24918814220512e-01 1.02915768997615e-03
2.09841428571429e+00 1.23692680929706e-01 1.02506854784425e-03
2.12295714285714e+00 1.22478582682325e-01 1.02092580675270e-03
2.14750000000000e+00 1.21276401343411e-01 1.01673184948353e-03
2.17204285714286e+00 1.20086019943303e-01 1.01248898301722e-03
2.19658571428571e+00 1.18907322660445e-01 1.00819944362217e-03
2.22112857142857e+00 1.17740194815358e-01 1.00386540142362e-03
2.24567142857143e+00 1.16584522843657e-01 9.99488960527208e-04
2.27021428571429e+00 1.15440194300928e-01 9.95072157926523e-04
2.29475714285714e+00 1.14307097851361e-01 9.90616972243244e-04
2.31930000000000e+00 1.13185123242091e-01 9.86125322524693e-04
2.34384285714286e+00 1.12074161307392e-01 9.81599068041355e-04
2.36838571428571e+00 1.10974103953047e-01 9.77040012438715e-04
2.39292857142857e+00 1.09884844150362e-01 9.72449907452301e-04
2.41747142857143e+00 1.08806275912061e-01 9.67830452649178e-04
2.44201428571429e+00 1.07738294295752e-01 9.63183294098287e-04
2.46655714285714e+00 1.06680795393367e-01 9.58510031901825e-04
2.49110000000000e+00 1.05633676308175e-01 9.53812218803286e-04
2.51564285714286e+00 1.04596835157729e-01 9.49091359712581e-04
2.54018571428571e+00 1.03570171059600e-01 9.44348915164960e-04
2.56472857142857e+00 1.02553584125507e-01 9.39586304406596e-04
2.58927142857143e+00 1.01546975439687e-01 9.34804904912644e-04
2.61381428571429e+00 1.00550247061257e-01 9.30006050953843e-04
2.63835714285714e+00 9.95633020143846e-02 9.25191040163882e-04
2.66290000000000e+00 9.85860442676334e-02 9.20361132072083e-04
2.68744285714286e+00 9.76183787359099e-02 9.15517547475000e-04
2.71198571428571e+00 9.66602112674223e-02 9.10661471366038e-04
2.73652857142857e+00 9.57114486379654e-02 9.05794055541390e-04
2.76107142857143e+00 9.47719985314390e-02 9.00916417992638e-04
2.78561428571429e+00 9.38417695413442e-02 8.96029641448476e-04
2.81015714285714e+00 9.29206711616342e-02 8.91134779153424e-04
2.83470000000000e+00 9.20086137680798e-02 8.86232853393435e-04
2.85924285714286e+00 9.11055086194397e-02 8.81324854786995e-04
2.88378571428571e+00 9.02112678455066e-02 8.76411744799385e-04
2.90832857142857e+00 8.93258044415821e-02 8.71494457973302e-04
2.93287142857143e+00 8.84490322508736e-02 8.66573901256714e-04
2.95741428571429e+00 8.75808659653081e-02 8.61650952566626e-04
2.98195714285714e+00 8.67212211170122e-02 8.56726465909954e-04
3.00650000000000e+00 8.58700140614530e-02 8.51801269942168e-04
3.03104285714286e+00 8.50271619779952e-02 8.46876167224012e-04
3.05558571428571e+00 8.41925828589240e-02 8.41951936401874e-04
3.08012857142857e+00 8.33661955041300e-02 8.37029334137856e-04
3.10467142857143e+00 8.25479195051606e-02 8.32109094411662e-04
3.12921428571429e+00 8.17376752454963e-02 8.27191927133637e-04
3.15375714285714e+00 8.09353838926146e-02 8.22278522708213e-04
3.17830000000000e+00 8.01409673826977e-02 8.17369550648642e-04
3.20284285714286e+00 7.93543484207075e-02 8.12465658828501e-04
3.22738571428571e+00 7.85754504702903e-02 8.07567475388542e-04
3.25192857142857e+00 7.78041977486839e-02 8.02675610421241e-04
3.27647142857143e+00 7.70405152122335e-02 7.97790655271336e-04
3.30101428571429e+00 7.62843285562463e-02 7.92913181213605e-04
3.32555714285714e+00 7.55355642075971e-02 7.88043743537725e-04
3.35010000000000e+00 7.47941493108274e-02 7.83182880231757e-04
3.37464285714286e+00 7.40600117278414e-02 7.78331111246810e-04
3.39918571428571e+00 7.33330800286107e-02 7.73488940176182e-04
3.42372857142857e+00 7.26132834863093e-02 7.68656855736185e-04
3.44827142857143e+00 7.19005520641314e-02 7.63835331080742e-04
3.47281428571429e+00 7.11948164148189e-02 7.59024822551459e-04
3.49735714285714e+00 7.04960078737691e-02 7.54225773347933e-04
3.52190000000000e+00 6.98040584463730e-02 7.49438612286082e-04
3.54644285714286e+00 6.91189008074190e-02 7.44663753086931e-04
3.57098571428571e+00 6.84404682925216e-02 7.39901595863849e-04
3.59552857142857e+00 6.77686948934886e-02 7.35152528431948e-04
3.62007142857143e+00 6.71035152463006e-02 7.30416925646209e-04
3.64461428571429e+00 6.64448646303856e-02 7.25695148227070e-04
3.66915714285714e+00 6.57926789621947e-02 7.20987546068345e-04
3.69370000000000e+00 6.51468947836479e-02 7.16294457072301e-04
3.71824285714286e+00 6.45074492613132e-02 7.11616206469331e-04
3.74278571428571e+00 6.38742801784962e-02 7.06953108141478e-04
3.76732857142857e+00 6.32473259308364e-02 7.02305465785842e-04
3.79187142857143e+00 6.26265255153293e-02 6.97673572282031e-04
3.81641428571429e+00 6.20118185294072e-02 6.93057708593357e-04
3.84095714285714e+00 6.14031451649511e-02 6.88458146755690e-04
3.86550000000000e+00 6.08004461977302e-02 6.83875148788878e-04
3.89004285714286e+00 6.02036629864115e-02 6.79308966050925e-04
3.91458571428571e+00 5.96127374652519e-02 6.74759840420426e-04
3.93912857142857e+00 5.90276121399217e-02 6.70228005334688e-04
3.96367142857143e+00 5.84482300774622e-02 6.65713685189406e-04
3.98821428571429e+00 5.78745349052233e-02 6.61217094313736e-04
4.01275714285714e+00 5.73064708052802e-02 6.56738439676968e-04
4.03730000000000e+00 5.67439825047679e-02 6.52277919873994e-04
4.06184285714286e+00 5.61870152747651e-02 6.47835724515566e-04
4.08638571428571e+00 5.56355149235389e-02 6.43412035288289e-04
4.11092857142857e+00 5.50894277925881e-02 6.39007026884211e-04
4.13547142857143e+00 5.45487007474465e-02 6.34620866434173e-04
4.16001428571429e+00 5.40132811765149e-02 6.30253712553817e-04
4.18455714285714e+00 5.34831169858552e-02 6.25905717799377e-04
4.20910000000000e+00 5.29581565903334e-02 6.21577027724031e-04
4.23364285714286e+00 5.24383489124131e-02 6.17267780304681e-04
4.25818571428571e+00 5.19236433759067e-02 6.12978106894952e-04
4.28272857142857e+00 5.14139899022325e-02 6.08708133059932e-04
4.30727142857143e+00 5.09093389019817e-02 6.04457978043447e-04
4.33181428571429e+00 5.04096412736776e-02 6.00227753881689e-04
4.35635714285714e+00 4.99148483989210e-02 5.96017567634935e-04
4.38090000000000e+00 4.94249121342642e-02 5.91827520511104e-04
4.40544285714286e+00 4.89397848099443e-02 5.87657707328608e-04
4.42998571428571e+00 4.84594192240979e-02 5.83508217375203e-04
4.45452857142857e+00 4.79837686392262e-02 5.79379135159593e-04
4.47907142857143e+00 4.75127867744530e-02 5.75270539912048e-04
4.50361428571429e+00 4.70464278042368e-02 5.71182504761749e-04
4.52815714285714e+00 4.65846463538441e-02 5.67115098767932e-04
4.55270000000000e+00 4.61273974918856e-02 5.63068386106722e-04
4.57724285714286e+00 4.56746367290133e-02 5.59042425568890e-04
4.60178571428571e+00 4.52263200125613e-02 5.55037271335612e-04
4.62632857142857e+00 4.47824037232101e-02 5.51052973656671e-04
4.65087142857143e+00 4.43428446678728e-02 5.47089578383455e-04
4.67541428571429e+00 4.39076000783805e-02 5.43147126206091e-04
4.69995714285714e+00 4.34766276072607e-02 5.39225654504251e-04
4.72450000000000e+00 4.30498853208766e-02 5.35325196593563e-04
4.74904285714286e+00 4.26273316981048e-02 5.31445781256767e-04
4.77358571428571e+00 4.22089256253702e-02 5.27587433445548e-04
4.79812857142857e+00 4.17946263934999e-02 5.23750174893989e-04
4.82267142857143e+00 4.13843936911811e-02 5.19934023682394e-04
4.84721428571429e+00 4.09781876036369e-02 5.16138993530341e-04
4.87175714285714e+00 4.05759686086888e-02 5.12365095485347e-04
4.89630000000000e+00 4.01776975704445e-02 5.08612337224501e-04
4.92084285714286e+00 3.97833357379727e-02 5.04880722617528e-04
4.94538571428571e+00 3.93928447406994e-02 5.01170252363091e-04
4.96992857142857e+00 3.90061865854448e-02 4.97480924544232e-04
4.99447142857143e+00 3.86233236504003e-02 4.93812734221682e-04
5.01901428571429e+00 3.82442186838096e-02 4.90165672779173e-04
5.04355714285714e+00 3.78688348002953e-02 4.86539729465534e-04
5.06810000000000e+00 3.74971354750467e-02 4.82934890747971e-04
5.09264285714286e+00 3.71290845425035e-02 4.79351139905210e-04
5.11718571428571e+00 3.67646461920867e-02 4.75788457605089e-04
5.14172857142857e+00 3.64037849654080e-02 4.72246822408469e-04
5.16627142857143e+00 3.60464657507226e-02 4.68726210390387e-04
5.19081428571429e+00 3.56926537816240e-02 4.65226594533847e-04
5.21535714285714e+00 3.53423146336178e-02 4.61747946139461e-04
5.23990000000000e+00 3.49954142187664e-02 4.58290234226674e-04
5.26444285714286e+00 3.46519187843910e-02 4.54853425155293e-04
5.28898571428571e+00 3.43117949091104e-02 4.51437483150481e-04
5.31352857142857e+00 3.39750095002158e-02 4.48042370760434e-04
5.33807142857143e+00 3.36415297885572e-02 4.44668048503875e-04
5.36261428571429e+00 3.33113233272613e-02 4.41314474308810e-04
5.38715714285714e+00 3.29843579885355e-02 4.37981604802152e-04
5.41170000000000e+00 3.26606019587297e-02 4.34669394755507e-04
5.43624285714286e+00 3.23400237370648e-02 4.31377796733223e-04
5.46078571428571e+00 3.20225921319557e-02 4.28106761570231e-04
5.48532857142857e+00 3.17082762585434e-02 4.24856238788244e-04
5.50987142857143e+00 3.13970455339774e-02 4.21626176267895e-04
5.53441428571429e+00 3.10888696761637e-02 4.18416519729265e-04
5.55895714285714e+00 3.07837187007837e-02 4.15227213912568e-04
5.58350000000000e+00 3.04815629167370e-02 4.12058202065192e-04
5.60804285714286e+00 3.01823729249027e-02 4.08909425614722e-04
5.63258571428571e+00 2.98861196147251e-02 4.05780824604208e-04
5.65712857142857e+00 2.95927741618946e-02 4.02672338071084e-04
5.68167142857143e+00 2.93023080239934e-02 3.99583903742379e-04
5.70621428571429e+00 2.90146929392778e-02 3.96515457553921e-04
5.73075714285714e+00 2.87299009238974e-02 3.93466934732088e-04
5.75530000000000e+00 2.84479042676881e-02 3.90438269319082e-04
5.77984285714286e+00 2.81686755329694e-02 3.87429393869199e-04
5.80438571428571e+00 2.78921875513738e-02 3.84440239845699e-04
5.82892857142857e+00 2.76184134216678e-02 3.81470737966149e-04
5.85347142857143e+00 2.73473265057313e-02 3.78520817919213e-04
5.87801428571429e+00 2.70789004273782e-02 3.75590407919642e-04
5.90255714285714e+00 2.68131090697614e-02 3.72679435700022e-04
5.92710000000000e+00 2.65499265714879e-02 3.69787828071447e-04
5.95164285714286e+00 2.62893273254549e-02 3.66915510641431e-04
5.97618571428571e+00 2.60312859759048e-02 3.64062408176117e-04
6.00072857142857e+00 2.57757774163788e-02 3.61228444915301e-04
6.02527142857143e+00 2.55227767860027e-02 3.58413544309315e-04
6.04981428571429e+00 2.52722594683476e-02 3.55617628607191e-04
6.07435714285714e+00 2.50242010890096e-02 3.52840619766403e-04
6.09890000000000e+00 2.47785775120192e-02 3.50082439046255e-04
6.12344285714286e+00 2.45353648387196e-02 3.47343006745997e-04
6.14798571428571e+00 2.42945394050300e-02 3.44622242535673e-04
6.17252857142857e+00 2.40560777795248e-02 3.41920065743689e-04
6.19707142857143e+00 2.38199567600001e-02 3.39236395112436e-04
6.22161428571429e+00 2.35861533723776e-02 3.36571148417116e-04
6.24615714285714e+00 2.33546448684464e-02 3.33924243300753e-04
6.27070000000000e+00 2.31254087225426e-02 3.31295596897812e-04
6.29524285714286e+00 2.28984226304721e-02 3.28685125591113e-04
6.31978571428571e+00 2.26736645069660e-02 3.26092745314278e-04
6.34432857142857e+00 2.24511124838789e-02 3.23518371814426e-04
6.36887142857143e+00 2.22307449070136e-02 3.20961920425229e-04
6.39341428571429e+00 2.20125403350685e-02 3.18423305714080e-04
6.41795714285714e+00 2.17964775375308e-02 3.15902442248899e-04
6.44250000000000e+00 2.15825354916056e-02 3.13399244249780e-04
6.46704285714286e+00 2.13706933811824e-02 3.10913625363314e-04
6.49158571428571e+00 2.11609305944697e-02 3.08445498939262e-04
6.51612857142857e+00 2.09532267223050e-02 3.05994778270698e-04
6.54067142857143e+00 2.07475615552172e-02 3.03561376383266e-04
6.56521428571429e+00 2.05439150824182e-02 3.01145205708607e-04
6.58975714285714e+00 2.03422674898371e-02 2.98746178788830e-04
6.61430000000000e+00 2.01425991572791e-02 2.96364207954046e-04
6.63884285714286e+00 1.99448906574357e-02 2.93999205112943e-04
6.66338571428571e+00 1.97491227536859e-02 2.91651082005974e-04
6.68792857142857e+00 1.95552763985113e-02 2.89319750425029e-04
6.71247142857143e+00 1.93633327307770e-02 2.87005122017811e-04
6.73701428571429e+00 1.91732730747679e-02 2.84707107985459e-04
6.76155714285714e+00 1.89850789383542e-02 2.82425619730063e-04
6.78610000000000e+00 1.87987320103622e-02 2.80160568556154e-04
6.81064285714286e+00 1.86142141596277e-02 2.77911865476362e-04
6.83518571428571e+00 1.84315074329521e-02 2.75679421443228e-04
6.85972857142857e+00 1.82505940536162e-02 2.73463147550275e-04
6.88427142857143e+00 1.80714564188626e-02 2.71262954850418e-04
6.90881428571429e+00 1.78940770989763e-02 2.69078754075997e-04
6.93335714285714e+00 1.77184388355728e-02 2.66910456234172e-04
6.95790000000000e+00 1.75445245391634e-02 2.64757972330550e-04
6.98244285714286e+00 1.73723172882529e-02 2.62621213188808e-04
7.00698571428571e+00 1.72018003274380e-02 2.60500089663103e-04
7.03152857142857e+00 1.70329570660145e-02 2.58394512822223e-04
7.05607142857143e+00 1.68657710756462e-02 2.56304393780955e-04
7.08061428571429e+00 1.67002260894876e-02 2.54229643440884e-04
7.10515714285714e+00 1.65363060005877e-02 2.52170173038103e-04
7.12970000000000e+00 1.63739948596342e-02 2.50125893887241e-04
7.15424285714286e+00 1.62132768740944e-02 2.48096717214104e-04
7.17878571428571e+00 1.60541364064466e-02 2.46082554350397e-04
7.20332857142857e+00 1.58965579728739e-02 2.44083316902406e-04
7.22787142857143e+00 1.57405262411058e-02 2.42098916594483e-04
7.25241428571429e+00 1.55860260295827e-02 2.40129265029003e-04
7.27695714285714e+00 1.54330423059666e-02 2.38174274190351e-04
7.30150000000000e+00 1.52815601850510e-02 2.36233856207909e-04
7.32604285714286e+00 1.51315649279444e-02 2.34307923200698e-04
7.35058571428571e+00 1.49830419404235e-02 2.32396387455976e-04
7.37512857142857e+00 1.48359767717110e-02 2.30499161583853e-04
7.39967142857143e+00 1.46903551124743e-02 2.28616158371999e-04
7.42421428571429e+00 1.45461627940321e-02 2.26747290563314e-04
7.44875714285714e+00 1.44033857869641e-02 2.24892471319867e-04
7.47330000000000e+00 1.42620101991748e-02 2.23051614003369e-04
7.49784285714286e+00 1.41220222751167e-02 2.21224632030982e-04
7.52238571428571e+00 1.39834083942593e-02 2.19411439039186e-04
7.54692857142857e+00 1.38461550699429e-02 2.17611949025584e-04
7.57147142857143e+00 1.37102489475244e-02 2.15826076213992e-04
7.59601428571429e+00 1.35756768036238e-02 2.14053734848485e-04
7.62055714285714e+00 1.34424255448270e-02 2.12294839620647e-04
7.64510000000000e+00 1.33104822058906e-02 2.10549305466193e-04
7.66964285714286e+00 1.31798339490050e-02 2.08817047431147e-04
7.69418571428572e+00 1.30504680623696e-02 2.07097980822245e-04
7.71872857142857e+00 1.29223719591195e-02 2.05392021337024e-04
7.74327142857143e+00 1.27955331756058e-02 2.03699084938571e-04
