Energy (eV)          EEDF (eV^-(3/2))     First Anisotropy
4.54166666666667e-02 1.99629119150543e-01 2.13723912203442e-04
1.36250000000000e-01 1.93940573122732e-01 3.49064097854452e-04
2.27083333333333e-01 1.88414125452791e-01 4.50703642025061e-04
3.17916666666667e-01 1.83045157089274e-01 5.22033668563562e-04
4.08750000000000e-01 1.77829180556722e-01 5.76835924291085e-04
4.99583333333333e-01 1.72761836253137e-01 6.20503652075493e-04
5.90416666666667e-01 1.67838888830604e-01 6.55918229212584e-04
6.81250000000000e-01 1.63056223615262e-01 6.84872359593443e-04
7.72083333333333e-01 1.58409843178577e-01 7.08588723878420e-04
8.62916666666667e-01 1.53895864014583e-01 7.27954332812325e-04
9.53750000000000e-01 1.49510513272385e-01 7.43641861350252e-04
1.04458333333333e+00 1.45250125607049e-01 7.56178728012693e-04
1.13541666666667e+00 1.41111140128612e-01 7.65989301457281e-04
1.22625000000000e+00 1.37090097421264e-01 7.73422140372429e-04
1.31708333333333e+00 1.33183636606654e-01 7.78768352700866e-04
1.40791666666667e+00 1.29388492639813e-01 7.82274433152042e-04
1.49875000000000e+00 1.25701493480759e-01 7.84151512510734e-04
1.58958333333333e+00 1.22119557457576e-01 7.84582180046158e-04
1.68041666666667e+00 1.18639690759784e-01 7.83725647787188e-04
1.77125000000000e+00 1.15258984861757e-01 7.81721726977682e-04
1.86208333333333e+00 1.11974614101335e-01 7.78693932036519e-04
1.95291666666667e+00 1.08783833372009e-01 7.74751957007811e-04
2.04375000000000e+00 1.05683975771036e-01 7.69993670259267e-04
2.13458333333333e+00 1.02672450377188e-01 7.64506731956707e-04
2.22541666666667e+00 9.97467401282586e-02 7.58369934835985e-04
2.31625000000000e+00 9.69043996716728e-02 7.51654319688530e-04
2.40708333333333e+00 9.41430533256272e-02 7.44424104357088e-04
2.49791666666667e+00 9.14603931283844e-02 7.36737476858631e-04
2.58875000000000e+00 8.88541768724188e-02 7.28647271438885e-04
2.67958333333333e+00 8.63222262341421e-02 7.20201542409761e-04
2.77041666666667e+00 8.38624249819484e-02 7.11444065850904e-04
2.86125000000000e+00 8.14727171772638e-02 7.02414775320427e-04
2.95208333333333e+00 7.91511054591095e-02 6.93150136725935e-04
3.04291666666667e+00 7.68956493985495e-02 6.83683482643818e-04
3.13375000000000e+00 7.47044638518462e-02 6.74045306954441e-04
3.22458333333333e+00 7.25757173871606e-02 6.64263520742156e-04
3.31541666666667e+00 7.05076307738292e-02 6.54363684436319e-04
3.40625000000000e+00 6.84984754743423e-02 6.44369214800954e-04
3.49708333333333e+00 6.65465722014771e-02 6.34301565848886e-04
3.58791666666667e+00 6.46502895316304e-02 6.24180395435186e-04
3.67875000000000e+00 6.28080425236208e-02 6.14023715204027e-04
3.76958333333333e+00 6.10182913954919e-02 6.03848022148914e-04
3.86041666666667e+00 5.92795402519077e-02 5.93668421396497e-04
3.95125000000000e+00 5.75903358189032e-02 5.83498737566921e-04
4.04208333333333e+00 5.59492662304653e-02 5.73351612658713e-04
4.13291666666667e+00 5.43549598607510e-02 5.63238598530300e-04
4.22375000000000e+00 5.28060841649001e-02 5.53170241299977e-04
4.31458333333333e+00 5.13013445663093e-02 5.43156155547296e-04
4.40541666666667e+00 4.98394833851444e-02 5.33205095220390e-04
4.49625000000000e+00 4.84192787762118e-02 5.23325018676534e-04
4.58708333333333e+00 4.70395437085857e-02 5.13523145795464e-04
4.67791666666667e+00 4.56991249825539e-02 5.03806013145401e-04
4.76875000000000e+00 4.43969022563365e-02 4.94179524795605e-04
4.85958333333333e+00 4.31317871104130e-02 4.84648996829172e-04
4.95041666666667e+00 4.19027221456638e-02 4.75219200781322e-04
5.04125000000000e+00 4.07086800914388e-02 4.65894403785966e-04
5.13208333333333e+00 3.95486629475634e-02 4.56678403623058e-04
5.22291666666667e+00 3.84217011570144e-02 4.47574563261972e-04
5.31375000000000e+00 3.73268527884915e-02 4.38585842875674e-04
5.40458333333333e+00 3.62632027496581e-02 4.29714827663973e-04
5.49541666666667e+00 3.52298620282289e-02 4.20963755546604e-04
5.58625000000000e+00 3.42259669427819e-02 4.12334542885974e-04
5.67708333333333e+00 3.32506784213257e-02 4.03828806721526e-04
5.76791666666667e+00 3.23031813051691e-02 3.95447887117425e-04
5.85875000000000e+00 3.13826836622476e-02 3.87192867957014e-04
5.94958333333333e+00 3.04884161255958e-02 3.79064594802742e-04
6.04041666666667e+00 2.96196312548289e-02 3.71063693025520e-04
6.13125000000000e+00 2.87756029067424e-02 3.63190584697051e-04
6.22208333333333e+00 2.79556256287189e-02 3.55445502991609e-04
6.31291666666667e+00 2.71590140730709e-02 3.47828506954046e-04
6.40375000000000e+00 2.63851024201184e-02 3.40339495274009e-04
6.49458333333333e+00 2.56332438219704e-02 3.32978217930528e-04
6.58541666666667e+00 2.49028098653665e-02 3.25744288259250e-04
6.67625000000000e+00 2.41931900428422e-02 3.18637194215275e-04
6.76708333333333e+00 2.35037912427039e-02 3.11656307803435e-04
6.85791666666667e+00 2.28340372563634e-02 3.04800894960034e-04
6.94875000000000e+00 2.21833682935723e-02 2.98070124779273e-04
7.03958333333333e+00 2.15512405147536e-02 2.91463077154307e-04
7.13041666666667e+00 2.09371255791549e-02 2.84978750879708e-04
7.22125000000000e+00 2.03405102004681e-02 2.78616071217112e-04
7.31208333333333e+00 1.97608957180021e-02 2.72373896083047e-04
7.40291666666667e+00 1.91977976822799e-02 2.66251022695378e-04
7.49375000000000e+00 1.86507454476715e-02 2.60246193777947e-04
7.58458333333333e+00 1.81192817791825e-02 2.54358102563049e-04
7.67541666666667e+00 1.76029624723983e-02 2.48585398241212e-04
7.76625000000000e+00 1.71013559800407e-02 2.42926691045954e-04
7.85708333333333e+00 1.66140430514154e-02 2.37380556286079e-04
7.94791666666667e+00 1.61406163838614e-02 2.31945538808415e-04
8.03875000000000e+00 1.56806802804011e-02 2.26620157158012e-04
8.12958333333333e+00 1.52338503191344e-02 2.21402906814207e-04
8.22041666666667e+00 1.47997530335860e-02 2.16292263836870e-04
8.31125000000000e+00 1.43780255988557e-02 2.11286688261238e-04
8.40208333333333e+00 1.39683155284723e-02 2.06384626679195e-04
8.49291666666667e+00 1.35702803812464e-02 2.01584515208567e-04
8.58375000000000e+00 1.31835874735446e-02 1.96884782253033e-04
8.67458333333333e+00 1.28079136013230e-02 1.92283850544249e-04
8.76541666666667e+00 1.24429447712899e-02 1.87780139548904e-04
8.85625000000000e+00 1.20883759371273e-02 1.83372067701145e-04
8.94708333333333e+00 1.17439107446119e-02 1.79058054000429e-04
9.03791666666667e+00 1.14092612850753e-02 1.74836519951076e-04
9.12875000000000e+00 1.10841478535760e-02 1.70705891356045e-04
9.21958333333333e+00 1.07682987151915e-02 1.66664599548696e-04
9.31041666666667e+00 1.04614498789280e-02 1.62711082943392e-04
9.40125000000000e+00 1.01633448760142e-02 1.58843788464309e-04
9.49208333333333e+00 9.87373454560670e-03 1.55061172475755e-04
9.58291666666667e+00 9.59237682745385e-03 1.51361702009130e-04
9.67375000000000e+00 9.31903655863647e-03 1.47743855888131e-04
9.76458333333333e+00 9.05348527707271e-03 1.44206125411182e-04
9.85541666666667e+00 8.79550103138312e-03 1.40747015309224e-04
9.94625000000000e+00 8.54486819454095e-03 1.37365044618536e-04
1.00370833333333e+01 8.30137728369891e-03 1.34058747159761e-04
1.01279166666667e+01 8.06482478582903e-03 1.30826672183014e-04
1.02187500000000e+01 7.83501298753304e-03 1.27667385477109e-04
1.03095833333333e+01 7.61174980654173e-03 1.24579468883104e-04
1.04004166666667e+01 7.39484863841464e-03 1.21561521184567e-04
1.04912500000000e+01 7.18412819389278e-03 1.18612159499909e-04
1.05820833333333e+01 6.97941234777529e-03 1.15730017876968e-04
1.06729166666667e+01 6.78052999752094e-03 1.12913748472658e-04
1.07637500000000e+01 6.58731491427218e-03 1.10162022620848e-04
1.08545833333333e+01 6.39960560427442e-03 1.07473529467346e-04
1.09454166666667e+01 6.21724517908981e-03 1.04846976948297e-04
1.10362500000000e+01 6.04008121913618e-03 1.02281092671609e-04
1.11270833333333e+01 5.86796564660860e-03 9.97746225990784e-05
1.12179166666667e+01 5.70075460635802e-03 9.73263318534266e-05
1.13087500000000e+01 5.53830834088747e-03 9.49350054411417e-05
1.13995833333333e+01 5.38049107382193e-03 9.25994469864536e-05
1.14904166666667e+01 5.22717090058051e-03 9.03184793925353e-05
1.15812500000000e+01 5.07821967386292e-03 8.80909454295981e-05
1.16720833333333e+01 4.93351289679233e-03 8.59157065237564e-05
1.17629166666667e+01 4.79292962258058e-03 8.37916432942585e-05
1.18537500000000e+01 4.65635234961995e-03 8.17176560272045e-05
1.19445833333333e+01 4.52366692349654e-03 7.96926635210528e-05
1.20354166666667e+01 4.39476244491252e-03 7.77156035185957e-05
1.21262500000000e+01 4.26953117357377e-03 7.57854330837494e-05
1.22170833333333e+01 4.14786843833769e-03 7.39011275044202e-05
1.23079166666667e+01 4.02967255271626e-03 7.20616806352583e-05
1.23987500000000e+01 3.91484472681878e-03 7.02661051924648e-05
1.24895833333333e+01 3.80328898495909e-03 6.85134317139343e-05
1.25804166666667e+01 3.69491208811816e-03 6.68027088265347e-05
1.26712500000000e+01 3.58962345326399e-03 6.51330034717247e-05
1.27620833333333e+01 3.48733507779923e-03 6.35033999222791e-05
1.28529166666667e+01 3.38796146841244e-03 6.19129999858694e-05
1.29437500000000e+01 3.29141956715476e-03 6.03609231724645e-05
1.30345833333333e+01 3.19762868216019e-03 5.88463057664521e-05
1.31254166666667e+01 3.10651042236122e-03 5.73683009766279e-05
1.32162500000000e+01 3.01798862975429e-03 5.59260790547722e-05
1.33070833333333e+01 2.93198931587218e-03 5.45188264216274e-05
1.33979166666667e+01 2.84844060188236e-03 5.31457457719542e-05
1.34887500000000e+01 2.76727265652139e-03 5.18060561523307e-05
1.35795833333333e+01 2.68841763784193e-03 5.04989921391821e-05
1.36704166666667e+01 2.61180963825159e-03 4.92238039063246e-05
1.37612500000000e+01 2.53738462764021e-03 4.79797572688680e-05
1.38520833333333e+01 2.46508039996376e-03 4.67661329113118e-05
1.39429166666667e+01 2.39483652281743e-03 4.55822264239293e-05
1.40337500000000e+01 2.32659428532011e-03 4.44273483186615e-05
1.41245833333333e+01 2.26029664913351e-03 4.33008233051660e-05
1.42154166666667e+01 2.19588820219672e-03 4.22019903014748e-05
1.43062500000000e+01 2.13331511096868e-03 4.11302024269095e-05
1.43970833333333e+01 2.07252507551451e-03 4.00848263238977e-05
1.44879166666667e+01 2.01346728705890e-03 3.90652421475439e-05
1.45787500000000e+01 1.95609238422135e-03 3.80708435398602e-05
1.46695833333333e+01 1.90035241183191e-03 3.71010369951278e-05
1.47604166666667e+01 1.84620078198916e-03 3.61552418323453e-05
1.48512500000000e+01 1.79359223395346e-03 3.52328901544276e-05
1.49420833333333e+01 1.74248279638251e-03 3.43334262548849e-05
1.50329166666667e+01 1.69282975160535e-03 3.34563065765277e-05
1.51237500000000e+01 1.64459159886708e-03 3.26009996587392e-05
1.52145833333333e+01 1.59772801970037e-03 3.17669855832711e-05
1.53054166666667e+01 1.55219984515047e-03 3.09537559220731e-05
1.53962500000000e+01 1.50796902209072e-03 3.01608136752731e-05
1.54870833333333e+01 1.46499858146967e-03 2.93876727539284e-05
1.55779166666667e+01 1.42325260824388e-03 2.86338579194115e-05
1.56687500000000e+01 1.38269621050711e-03 2.78989047143307e-05
1.57595833333333e+01 1.34329549037430e-03 2.71823589801273e-05
1.58504166666667e+01 1.30501751639890e-03 2.64837767900769e-05
1.59412500000000e+01 1.26783029528029e-03 2.58027243750285e-05
1.60320833333333e+01 1.23170274516562e-03 2.51387776738073e-05
1.61229166666667e+01 1.19660467034685e-03 2.44915222615672e-05
1.62137500000000e+01 1.16250673533058e-03 2.38605532719264e-05
1.63045833333333e+01 1.12938044035703e-03 2.32454749782102e-05
1.63954166666667e+01 1.09719809818877e-03 2.26459007186096e-05
1.64862500000000e+01 1.06593281034528e-03 2.20614528160351e-05
1.65770833333333e+01 1.03555844465504e-03 2.14917621883108e-05
1.66679166666667e+01 1.00604961396324e-03 2.09364682713581e-05
1.67587500000000e+01 9.77381654350180e-04 2.03952189378659e-05
1.68495833333333e+01 9.49530604547527e-04 1.98676701346310e-05
1.69404166666667e+01 9.22473186406723e-04 1.93534858047785e-05
1.70312500000000e+01 8.96186784935246e-04 1.88523378061572e-05
1.71220833333333e+01 8.70649429422339e-04 1.83639055741057e-05
1.72129166666667e+01 8.45839775522707e-04 1.78878760435464e-05
1.73037500000000e+01 8.21737086958706e-04 1.74239435678507e-05
1.73945833333333e+01 7.98321218213567e-04 1.69718096053959e-05
1.74854166666667e+01 7.75572598097027e-04 1.65311826422176e-05
1.75762500000000e+01 7.53472212974208e-04 1.61017781119506e-05
1.76670833333333e+01 7.32001590896172e-04 1.56833181046257e-05
1.77579166666667e+01 7.11142786525091e-04 1.52755312904380e-05
1.78487500000000e+01 6.90878365762257e-04 1.48781528412485e-05
1.79395833333333e+01 6.71191391196601e-04 1.44909241601548e-05
1.80304166666667e+01 6.52065408277105e-04 1.41135928068203e-05
1.81212500000000e+01 6.33484431223051e-04 1.37459124209231e-05
1.82120833333333e+01 6.15432929681063e-04 1.33876424711147e-05
1.83029166666667e+01 5.97895816041703e-04 1.30385481822624e-05
1.83937500000000e+01 5.80858432524865e-04 1.26984004611431e-05
1.84845833333333e+01 5.64306538944978e-04 1.23669756634857e-05
1.85754166666667e+01 5.48226301077237e-04 1.20440555233976e-05
1.86662500000000e+01 5.32604278820002e-04 1.17294270815313e-05
1.87570833333333e+01 5.17427414976134e-04 1.14228824689796e-05
1.88479166666667e+01 5.02683024582107e-04 1.11242188390926e-05
1.89387500000000e+01 4.88358784057488e-04 1.08332382982786e-05
1.90295833333333e+01 4.74442720918018e-04 1.05497477056005e-05
1.91204166666667e+01 4.60923203988011e-04 1.02735586071280e-05
1.92112500000000e+01 4.47788933454503e-04 1.00044871694868e-05
1.93020833333333e+01 4.35028931434711e-04 9.74235399407030e-06
1.93929166666667e+01 4.22632532998680e-04 9.48698405402877e-06
1.94837500000000e+01 4.10589377052593e-04 9.23820663063430e-06
1.95745833333333e+01 3.98889397689651e-04 8.99585514109205e-06
1.96654166666667e+01 3.87522815955968e-04 8.75976707822446e-06
1.97562500000000e+01 3.76480131493845e-04 8.52978394968604e-06
1.98470833333333e+01 3.65752114611008e-04 8.30575111842165e-06
1.99379166666667e+01 3.55329798728278e-04 8.08751774507218e-06
2.00287500000000e+01 3.45204472719397e-04 7.87493673004115e-06
2.01195833333333e+01 3.35367673638961e-04 7.66786456570967e-06
2.02104166666667e+01 3.25811179795477e-04 7.46616128156208e-06
2.03012500000000e+01 3.16527003729619e-04 7.26969038908265e-06
2.03920833333333e+01 3.07507385546156e-04 7.07831874489442e-06
2.04829166666667e+01 2.98744786560658e-04 6.89191649858064e-06
2.05737500000000e+01 2.90231882862920e-04 6.71035704036967e-06
2.06645833333333e+01 2.81961559202727e-04 6.53351687441994e-06
2.07554166666667e+01 2.73926903162739e-04 6.36127556929475e-06
2.08462500000000e+01 2.66121199258284e-04 6.19351570837785e-06
2.09370833333333e+01 2.58537923330950e-04 6.03012277257837e-06
2.10279166666667e+01 2.51170737204122e-04 5.87098509340156e-06
2.11187500000000e+01 2.44013483274399e-04 5.71599380602490e-06
2.12095833333333e+01 2.37060179370840e-04 5.56504274074566e-06
2.13004166666667e+01 2.30305013853213e-04 5.41802837857896e-06
2.13912500000000e+01 2.23742340654032e-04 5.27484980691427e-06
2.14820833333333e+01 2.17366674564790e-04 5.13540861907431e-06
2.15729166666667e+01 2.11172686740271e-04 4.99960887236290e-06
2.16637500000000e+01 2.05155200153638e-04 4.86735704621439e-06
2.17545833333333e+01 1.99309185274189e-04 4.73856194927555e-06
2.18454166666667e+01 1.93629755944119e-04 4.61313467981883e-06
2.19362500000000e+01 1.88112165212219e-04 4.49098858629217e-06
2.20270833333333e+01 1.82751801370641e-04 4.37203918137646e-06
2.21179166666667e+01 1.77544184173272e-04 4.25620410467497e-06
2.22087500000000e+01 1.72484961016487e-04 4.14340308556708e-06
2.22995833333333e+01 1.67569903305101e-04 4.03355786373193e-06
2.23904166666667e+01 1.62794902984073e-04 3.92659215402166e-06
2.24812500000000e+01 1.58155969037387e-04 3.82243161152071e-06
2.25720833333333e+01 1.53649224155838e-04 3.72100375806135e-06
2.26629166666667e+01 1.49270901556141e-04 3.62223794918706e-06
2.27537500000000e+01 1.45017341771404e-04 3.52606534131783e-06
2.28445833333333e+01 1.40884989595697e-04 3.43241882381691e-06
2.29354166666667e+01 1.36870391166750e-04 3.34123298794942e-06
2.30262500000000e+01 1.32970191023730e-04 3.25244409605460e-06
2.31170833333333e+01 1.29181129305595e-04 3.16599001875406e-06
2.32079166666667e+01 1.25500039075556e-04 3.08181020581097e-06
2.32987500000000e+01 1.21923843623881e-04 2.99984565721090e-06
2.33895833333333e+01 1.18449553898953e-04 2.92003886513115e-06
2.34804166666667e+01 1.15074266053478e-04 2.84233378660694e-06
2.35712500000000e+01 1.11795158971892e-04 2.76667581642383e-06
2.36620833333333e+01 1.08609491914801e-04 2.69301173349501e-06
2.37529166666667e+01 1.05514602268565e-04 2.62128967524226e-06
2.38437500000000e+01 1.02507903278590e-04 2.55145911220522e-06
2.39345833333333e+01 9.95868818894356e-05 2.48347079849862e-06
2.40254166666667e+01 9.67490966809164e-05 2.41727674781802e-06
2.41162500000000e+01 9.39921757901421e-05 2.35283020967384e-06
2.42070833333333e+01 9.13138149310210e-05 2.29008562362402e-06
2.42979166666667e+01 8.87117755014462e-05 2.22899859681692e-06
2.43887500000000e+01 8.61838826783441e-05 2.16952588176073e-06
2.44795833333333e+01 8.37280236016838e-05 2.11162533404925e-06
2.45704166666667e+01 8.13421456385681e-05 2.05525589135712e-06
2.46612500000000e+01 7.90242546368809e-05 2.00037755265810e-06
2.47520833333333e+01 7.67724132601383e-05 1.94695133918232e-06
2.48429166666667e+01 7.45847393954838e-05 1.89493927478187e-06
2.49337500000000e+01 7.24594045527243e-05 1.84430436651475e-06
2.50245833333333e+01 7.03946323374929e-05 1.79501056859090e-06
2.51154166666667e+01 6.83886969912263e-05 1.74702276402939e-06
2.52062500000000e+01 6.64399219234779e-05 1.70030674652833e-06
2.52970833333333e+01 6.45466783119054e-05 1.65482918717460e-06
2.53879166666667e+01 6.27073837632926e-05 1.61055761731699e-06
2.54787500000000e+01 6.09205009680408e-05 1.56746041164577e-06
2.55695833333333e+01 5.91845364164451e-05 1.52550675745780e-06
2.56604166666667e+01 5.74980391707323e-05 1.48466663867313e-06
2.57512500000000e+01 5.58595996315527e-05 1.44491082005139e-06
2.58420833333333e+01 5.42678483608883e-05 1.40621081881911e-06
2.59329166666667e+01 5.27214549559047e-05 1.36853888976088e-06
2.60237500000000e+01 5.12191269181176e-05 1.33186801050303e-06
2.61145833333333e+01 4.97596085740745e-05 1.29617185532428e-06
2.62054166666667e+01 4.83416800425839e-05 1.26142478125577e-06
2.62962500000000e+01 4.69641561980050e-05 1.22760181436589e-06
2.63870833333333e+01 4.56258856805832e-05 1.19467862558876e-06
2.64779166666667e+01 4.43257499493159e-05 1.16263151777054e-06
2.65687500000000e+01 4.30626623315291e-05 1.13143741289277e-06
2.66595833333333e+01 4.18355671154186e-05 1.10107382976541e-06
2.67504166666667e+01 4.06434386814551e-05 1.07151887196004e-06
2.68412500000000e+01 3.94852806310632e-05 1.04275121591232e-06
2.69320833333333e+01 3.83601249545392e-05 1.01475009033768e-06
2.70229166666667e+01 3.72670312344867e-05 9.87495264995262e-07
2.71137500000000e+01 3.62050858470102e-05 9.60967039613265e-07
2.72045833333333e+01 3.51734011987502e-05 9.35146224895923e-07
2.72954166666667e+01 3.41711149963772e-05 9.10014132065086e-07
2.73862500000000e+01 3.31973895142630e-05 8.85552562555286e-07
2.74770833333333e+01 3.22514108948920e-05 8.61743790490640e-07
2.75679166666667e+01 3.13323884789375e-05 8.38570552953656e-07
2.76587500000000e+01 3.04395541338764e-05 8.16016040399999e-07
2.77495833333333e+01 2.95721616125120e-05 7.94063880492873e-07
2.78404166666667e+01 2.87294859386105e-05 7.72698129051725e-07
2.79312500000000e+01 2.79108227913857e-05 7.51903261139427e-07
2.80220833333333e+01 2.71154879173064e-05 7.31664156150216e-07
2.81129166666667e+01 2.63428165666867e-05 7.11966089393628e-07
2.82037500000000e+01 2.55921629293896e-05 6.92794723809527e-07
2.82945833333333e+01 2.48628995954934e-05 6.74136096213563e-07
2.83854166666667e+01 2.41544170386108e-05 6.55976609474248e-07
2.84762500000000e+01 2.34661230985485e-05 6.38303024814020e-07
2.85670833333333e+01 2.27974424867732e-05 6.21102449123338e-07
2.86579166666667e+01 2.21478163125863e-05 6.04362327691297e-07
