Energy (eV)          EEDF (eV^-(3/2))     First Anisotropy
2.78571428571429e-02 1.80287034849410e-01 1.46749150962952e-04
8.35714285714286e-02 1.77337251303495e-01 2.41152859055126e-04
1.39285714285714e-01 1.74435730930513e-01 3.15260088012097e-04
1.95000000000000e-01 1.71581684054205e-01 3.69715051840307e-04
2.50714285714286e-01 1.68774333934432e-01 4.13629600422054e-04
3.06428571428571e-01 1.66012916539131e-01 4.50499532880035e-04
3.62142857142857e-01 1.63296680345353e-01 4.82159131763126e-04
4.17857142857143e-01 1.60624886107551e-01 5.09730977153456e-04
4.73571428571429e-01 1.57996806684618e-01 5.33969335474090e-04
5.29285714285714e-01 1.55411726838106e-01 5.55414109483603e-04
5.85000000000000e-01 1.52868943021084e-01 5.74469921664840e-04
6.40714285714286e-01 1.50367763203224e-01 5.91450787037656e-04
6.96428571428571e-01 1.47907506676891e-01 6.06607191313018e-04
7.52142857142857e-01 1.45487503875326e-01 6.20143424293730e-04
8.07857142857143e-01 1.43107096179932e-01 6.32229169920179e-04
8.63571428571429e-01 1.40765635751654e-01 6.43007538497797e-04
9.19285714285714e-01 1.38462485353762e-01 6.52600804220856e-04
9.75000000000000e-01 1.36197018170442e-01 6.61114605926998e-04
1.03071428571429e+00 1.33968617650576e-01 6.68641094566009e-04
1.08642857142857e+00 1.31776677309699e-01 6.75261330643738e-04
1.14214285714286e+00 1.29620600621039e-01 6.81047150261202e-04
1.19785714285714e+00 1.27499800779258e-01 6.86062632022994e-04
1.25357142857143e+00 1.25413700599288e-01 6.90365262216161e-04
1.30928571428571e+00 1.23361732356345e-01 6.94006889065241e-04
1.36500000000000e+00 1.21343337581303e-01 6.97034489260380e-04
1.42071428571429e+00 1.19357966973497e-01 6.99490805189188e-04
1.47642857142857e+00 1.17405080190740e-01 7.01414874919605e-04
1.53214285714286e+00 1.15484145758864e-01 7.02842475487847e-04
1.58785714285714e+00 1.13594640873990e-01 7.03806499571800e-04
1.64357142857143e+00 1.11736051298844e-01 7.04337269878594e-04
1.69928571428571e+00 1.09907871221093e-01 7.04462819071642e-04
1.75500000000000e+00 1.08109603081859e-01 7.04209120936537e-04
1.81071428571429e+00 1.06340757484329e-01 7.03600294972865e-04
1.86642857142857e+00 1.04600853018961e-01 7.02658784378064e-04
1.92214285714286e+00 1.02889416171835e-01 7.01405510944317e-04
1.97785714285714e+00 1.01205981158474e-01 6.99860012821599e-04
2.03357142857143e+00 9.95500898243737e-02 6.98040561285191e-04
2.08928571428571e+00 9.79212915191952e-02 6.95964272847108e-04
2.14500000000000e+00 9.63191429498521e-02 6.93647200881770e-04
2.20071428571429e+00 9.47432080915772e-02 6.91104421021484e-04
2.25642857142857e+00 9.31930580390623e-02 6.88350107464184e-04
2.31214285714286e+00 9.16682709185040e-02 6.85397600919055e-04
2.36785714285714e+00 9.01684317453408e-02 6.82259471126946e-04
2.42357142857143e+00 8.86931323314691e-02 6.78947569454172e-04
2.47928571428571e+00 8.72419711733785e-02 6.75473083628537e-04
2.53500000000000e+00 8.58145533247819e-02 6.71846580795783e-04
2.59071428571429e+00 8.44104903128431e-02 6.68078049738349e-04
2.64642857142857e+00 8.30294000097572e-02 6.64176939237693e-04
2.70214285714286e+00 8.16709065504863e-02 6.60152192690946e-04
2.75785714285714e+00 8.03346402096379e-02 6.56012280887853e-04
2.81357142857143e+00 7.90202373161795e-02 6.51765228903673e-04
2.86928571428571e+00 7.77273401538993e-02 6.47418646715891e-04
2.92500000000000e+00 7.64555968501879e-02 6.42979751878834e-04
2.98071428571429e+00 7.52046612984772e-02 6.38455392989917e-04
3.03642857142857e+00 7.39741930465598e-02 6.33852071233886e-04
3.09214285714286e+00 7.27638572207392e-02 6.29175959965097e-04
3.14785714285714e+00 7.15733244185318e-02 6.24432923735335e-04
3.20357142857143e+00 7.04022706309420e-02 6.19628533302879e-04
3.25928571428571e+00 6.92503771538583e-02 6.14768084506964e-04
3.31500000000000e+00 6.81173304904820e-02 6.09856611196288e-04
3.37071428571429e+00 6.70028222802543e-02 6.04898899422265e-04
3.42642857142857e+00 6.59065492012098e-02 5.99899500547622e-04
3.48214285714286e+00 6.48282129006528e-02 5.94862743198369e-04
3.53785714285714e+00 6.37675199012069e-02 5.89792745164398e-04
3.59357142857143e+00 6.27241815303674e-02 5.84693422311285e-04
3.64928571428571e+00 6.16979138416120e-02 5.79568501074255e-04
3.70500000000000e+00 6.06884375285270e-02 5.74421526258471e-04
3.76071428571429e+00 5.96954778601106e-02 5.69255870178459e-04
3.81642857142857e+00 5.87187645950759e-02 5.64074741122874e-04
3.87214285714286e+00 5.77580319188575e-02 5.58881191073427e-04
3.92785714285714e+00 5.68130183610723e-02 5.53678123574090e-04
3.98357142857143e+00 5.58834667319031e-02 5.48468299261080e-04
4.03928571428571e+00 5.49691240518485e-02 5.43254344582451e-04
4.09500000000000e+00 5.40697414759698e-02 5.38038756697644e-04
4.15071428571429e+00 5.31850742352643e-02 5.32823909647639e-04
4.20642857142857e+00 5.23148815612509e-02 5.27612060072070e-04
4.26214285714286e+00 5.14589266289568e-02 5.22405352411784e-04
4.31785714285714e+00 5.06169764842262e-02 5.17205824337091e-04
4.37357142857143e+00 4.97888019864217e-02 5.12015410286404e-04
4.42928571428571e+00 4.89741777458613e-02 5.06835947798802e-04
4.48500000000000e+00 4.81728820568787e-02 5.01669180678992e-04
4.54071428571429e+00 4.73846968448689e-02 4.96516763315955e-04
4.59642857142857e+00 4.66094075997858e-02 4.91380264679265e-04
4.65214285714286e+00 4.58468033246920e-02 4.86261171941773e-04
4.70785714285714e+00 4.50966764716196e-02 4.81160894347543e-04
4.76357142857143e+00 4.43588228900622e-02 4.76080765522413e-04
4.81928571428571e+00 4.36330417712525e-02 4.71022048214292e-04
4.87500000000000e+00 4.29191355889348e-02 4.65985936374863e-04
4.93071428571429e+00 4.22169100516470e-02 4.60973558267815e-04
4.98642857142857e+00 4.15261740439855e-02 4.55985979336965e-04
5.04214285714286e+00 4.08467395802747e-02 4.51024204792735e-04
5.09785714285714e+00 4.01784217478922e-02 4.46089182438448e-04
5.15357142857143e+00 3.95210386610339e-02 4.41181804195441e-04
5.20928571428571e+00 3.88744114110810e-02 4.36302909735233e-04
5.26500000000000e+00 3.82383640141424e-02 4.31453287861258e-04
5.32071428571429e+00 3.76127233681347e-02 4.26633678794788e-04
5.37642857142857e+00 3.69973192008413e-02 4.21844776275890e-04
5.43214285714286e+00 3.63919840282622e-02 4.17087229445703e-04
5.48785714285714e+00 3.57965531044778e-02 4.12361644952396e-04
5.54357142857143e+00 3.52108643801926e-02 4.07668587959682e-04
5.59928571428571e+00 3.46347584585255e-02 4.03008584980773e-04
5.65500000000000e+00 3.40680785485108e-02 3.98382124795821e-04
5.71071428571429e+00 3.35106704265468e-02 3.93789660161526e-04
5.76642857142857e+00 3.29623823904193e-02 3.89231609374487e-04
5.82214285714286e+00 3.24230652219068e-02 3.84708357661095e-04
5.87785714285714e+00 3.18925721423865e-02 3.80220258770861e-04
5.93357142857143e+00 3.13707587756980e-02 3.75767635637698e-04
5.98928571428571e+00 3.08574831087613e-02 3.71350782622805e-04
6.04500000000000e+00 3.03526054503327e-02 3.66969966117865e-04
6.10071428571429e+00 2.98559883964175e-02 3.62625425840361e-04
6.15642857142857e+00 2.93674967895384e-02 3.58317376010902e-04
6.21214285714286e+00 2.88869976851971e-02 3.54046006390678e-04
6.26785714285714e+00 2.84143603125356e-02 3.49811483501344e-04
6.32357142857143e+00 2.79494560410919e-02 3.45613951049153e-04
6.37928571428571e+00 2.74921583457193e-02 3.41453531720244e-04
6.43500000000000e+00 2.70423427699832e-02 3.37330327567949e-04
6.49071428571429e+00 2.65998868951576e-02 3.33244421004024e-04
6.54642857142857e+00 2.61646703041170e-02 3.29195875693296e-04
6.60214285714286e+00 2.57365745512813e-02 3.25184737333944e-04
6.65785714285714e+00 2.53154831277355e-02 3.21211034600084e-04
6.71357142857143e+00 2.49012814314867e-02 3.17274779402140e-04
6.76928571428571e+00 2.44938567362137e-02 3.13375968336944e-04
6.82500000000000e+00 2.40930981587690e-02 3.09514582925247e-04
6.88071428571429e+00 2.36988966314075e-02 3.05690590375894e-04
6.93642857142857e+00 2.33111448697602e-02 3.01903944270062e-04
6.99214285714286e+00 2.29297373459182e-02 2.98154585151030e-04
7.04785714285714e+00 2.25545702574899e-02 2.94442441257506e-04
7.10357142857143e+00 2.21855415010032e-02 2.90767428670289e-04
7.15928571428571e+00 2.18225506440675e-02 2.87129452492108e-04
7.21500000000000e+00 2.14654988965081e-02 2.83528406980585e-04
7.27071428571429e+00 2.11142890855074e-02 2.79964176140603e-04
7.32642857142857e+00 2.07688256271835e-02 2.76436634249761e-04
7.38214285714286e+00 2.04290145025014e-02 2.72945646305229e-04
7.43785714285714e+00 2.00947632298095e-02 2.69491068597211e-04
7.49357142857143e+00 1.97659808410653e-02 2.66072748776422e-04
7.54928571428571e+00 1.94425778570353e-02 2.62690526819799e-04
7.60500000000000e+00 1.91244662616494e-02 2.59344235090481e-04
7.66071428571429e+00 1.88115594797592e-02 2.56033698798554e-04
7.71642857142857e+00 1.85037723519066e-02 2.52758736405521e-04
7.77214285714286e+00 1.82010211127747e-02 2.49519159962827e-04
7.82785714285714e+00 1.79032233668045e-02 2.46314775561831e-04
7.88357142857143e+00 1.76102980669503e-02 2.43145383346468e-04
7.93928571428571e+00 1.73221654925865e-02 2.40010778307484e-04
7.99500000000000e+00 1.70387472267165e-02 2.36910750291709e-04
8.05071428571429e+00 1.67599661360809e-02 2.33845084361125e-04
8.10642857142857e+00 1.64857463487508e-02 2.30813561104233e-04
8.16214285714286e+00 1.62160132348589e-02 2.27815956891862e-04
8.21785714285714e+00 1.59506933849427e-02 2.24852044230970e-04
8.27357142857143e+00 1.56897145909669e-02 2.21921591739718e-04
8.32928571428571e+00 1.54330058266417e-02 2.19024364803253e-04
8.38500000000000e+00 1.51804972271628e-02 2.16160125548157e-04
8.44071428571429e+00 1.49321200714284e-02 2.13328633122335e-04
8.49642857142857e+00 1.46878067621357e-02 2.10529643934313e-04
8.55214285714286e+00 1.44474908085552e-02 2.07762911845495e-04
8.60785714285714e+00 1.42111068072920e-02 2.05028188448503e-04
8.66357142857143e+00 1.39785904253370e-02 2.02325223017020e-04
8.71928571428571e+00 1.37498783825322e-02 1.99653763049013e-04
8.77500000000000e+00 1.35249084335588e-02 1.97013554217726e-04
8.83071428571429e+00 1.33036193520435e-02 1.94404340589572e-04
8.88642857142857e+00 1.30859509128736e-02 1.91825864807331e-04
8.94214285714286e+00 1.28718438768041e-02 1.89277868233381e-04
8.99785714285714e+00 1.26612399733615e-02 1.86760091168518e-04
9.05357142857143e+00 1.24540818857101e-02 1.84272272785404e-04
9.10928571428571e+00 1.22503132350316e-02 1.81814151579751e-04
9.16500000000000e+00 1.20498785645070e-02 1.79385465306103e-04
9.22071428571429e+00 1.18527233251170e-02 1.76985951146908e-04
9.27642857142857e+00 1.16587938599240e-02 1.74615345851925e-04
9.33214285714286e+00 1.14680373903206e-02 1.72273385843498e-04
9.38785714285714e+00 1.12804020008346e-02 1.69959807388237e-04
9.44357142857143e+00 1.10958366256184e-02 1.67674346520474e-04
9.49928571428572e+00 1.09142910345331e-02 1.65416739417769e-04
9.55500000000000e+00 1.07357158189026e-02 1.63186722327423e-04
9.61071428571429e+00 1.05600623788290e-02 1.60984031697049e-04
9.66642857142857e+00 1.03872829092214e-02 1.58808404279630e-04
9.72214285714286e+00 1.02173303875132e-02 1.56659577209436e-04
9.77785714285714e+00 1.00501585601536e-02 1.54537288136214e-04
9.83357142857143e+00 9.88572193054884e-03 1.52441275143245e-04
9.88928571428571e+00 9.72397574666462e-03 1.50371277060412e-04
9.94500000000000e+00 9.56487598835395e-03 1.48327033385704e-04
1.00007142857143e+01 9.40837935602946e-03 1.46308284281381e-04
1.00564285714286e+01 9.25444325869328e-03 1.44314771035657e-04
1.01121428571429e+01 9.10302580130202e-03 1.42346235730938e-04
1.01678571428571e+01 8.95408577489695e-03 1.40402421199995e-04
1.02235714285714e+01 8.80758264476165e-03 1.38483071447524e-04
1.02792857142857e+01 8.66347653939378e-03 1.36587931556937e-04
1.03350000000000e+01 8.52172823965211e-03 1.34716747433626e-04
1.03907142857143e+01 8.38229916940784e-03 1.32869266795404e-04
1.04464285714286e+01 8.24515138102170e-03 1.31045238588708e-04
1.05021428571429e+01 8.11024754909083e-03 1.29244412381671e-04
1.05578571428571e+01 7.97755095891523e-03 1.27466539391278e-04
1.06135714285714e+01 7.84702549650436e-03 1.25711372191161e-04
1.06692857142857e+01 7.71863563875134e-03 1.23978664749814e-04
1.07250000000000e+01 7.59234644376375e-03 1.22268172196170e-04
1.07807142857143e+01 7.46812354249173e-03 1.20579651676245e-04
1.08364285714286e+01 7.34593312591913e-03 1.18912861833242e-04
1.08921428571429e+01 7.22574193936036e-03 1.17267562267597e-04
1.09478571428571e+01 7.10751727222929e-03 1.15643514426414e-04
1.10035714285714e+01 6.99122694913583e-03 1.14040481339305e-04
1.10592857142857e+01 6.87683932113158e-03 1.12458227643366e-04
1.11150000000000e+01 6.76432325709520e-03 1.10896519369744e-04
1.11707142857143e+01 6.65364813623808e-03 1.09355124685329e-04
1.12264285714286e+01 6.54478383680039e-03 1.07833813429936e-04
1.12821428571429e+01 6.43770073086042e-03 1.06332356636096e-04
1.13378571428571e+01 6.33236967525635e-03 1.04850527300008e-04
1.13935714285714e+01 6.22876200365387e-03 1.03388100143090e-04
1.14492857142857e+01 6.12684951874639e-03 1.01944851626747e-04
1.15050000000000e+01 6.02660448458013e-03 1.00520559758515e-04
1.15607142857143e+01 5.92799961984750e-03 9.91150047348276e-05
1.16164285714286e+01 5.83100808790565e-03 9.77279685291135e-05
1.16721428571429e+01 5.73560349206109e-03 9.63592344648253e-05
1.17278571428571e+01 5.64175986751218e-03 9.50085878842763e-05
1.17835714285714e+01 5.54945167428189e-03 9.36758159337013e-05
1.18392857142857e+01 5.45865379026867e-03 9.23607075702017e-05
1.18950000000000e+01 5.36934150440847e-03 9.10630533860147e-05
1.19507142857143e+01 5.28149051067508e-03 8.97826461659846e-05
1.20064285714286e+01 5.19507689926192e-03 8.85192805210905e-05
1.20621428571429e+01 5.11007715230516e-03 8.72727525088671e-05
1.21178571428571e+01 5.02646813673066e-03 8.60428602140912e-05
1.21735714285714e+01 4.94422709795744e-03 8.48294035552726e-05
1.22292857142857e+01 4.86333165370636e-03 8.36321842856543e-05
1.22850000000000e+01 4.78375978790794e-03 8.24510058341619e-05
1.23407142857143e+01 4.70548984533654e-03 8.12856737892824e-05
1.23964285714286e+01 4.62850052381612e-03 8.01359955730453e-05
1.24521428571429e+01 4.55277087034674e-03 7.90017801036050e-05
1.25078571428571e+01 4.47828027475284e-03 7.78828382997825e-05
1.25635714285714e+01 4.40500846407356e-03 7.67789829070002e-05
1.26192857142857e+01 4.33293549704650e-03 7.56900284938238e-05
1.26750000000000e+01 4.26204175868000e-03 7.46157913082106e-05
1.27307142857143e+01 4.19230795545542e-03 7.35560896978013e-05
1.27864285714286e+01 4.12371510843497e-03 7.25107438199174e-05
1.28421428571429e+01 4.05624454975791e-03 7.14795753416414e-05
1.28978571428571e+01 3.98987791699940e-03 7.04624078784845e-05
1.29535714285714e+01 3.92459714817258e-03 6.94590668379397e-05
1.30092857142857e+01 3.86038447681393e-03 6.84693794127459e-05
1.30650000000000e+01 3.79722242714750e-03 6.74931744511085e-05
1.31207142857143e+01 3.73509380979611e-03 6.65302828219928e-05
1.31764285714286e+01 3.67398171568441e-03 6.55805371571752e-05
1.32321428571429e+01 3.61386951287305e-03 6.46437715846601e-05
1.32878571428571e+01 3.55474084154766e-03 6.37198221103144e-05
1.33435714285714e+01 3.49657960956606e-03 6.28085264773363e-05
1.33992857142857e+01 3.43936998807951e-03 6.19097241571771e-05
1.34550000000000e+01 3.38309640722442e-03 6.10232562324964e-05
1.35107142857143e+01 3.32774355228916e-03 6.01489657148279e-05
1.35664285714286e+01 3.27329635831878e-03 5.92866973151562e-05
1.36221428571429e+01 3.21974000725723e-03 5.84362972069656e-05
1.36778571428571e+01 3.16705992349545e-03 5.75976133584331e-05
1.37335714285714e+01 3.11524176990418e-03 5.67704954062780e-05
1.37892857142857e+01 3.06427144393275e-03 5.59547946450676e-05
1.38450000000000e+01 3.01413507377067e-03 5.51503639217381e-05
1.39007142857143e+01 2.96481901492233e-03 5.43570579119969e-05
1.39564285714286e+01 2.91630984543094e-03 5.35747329162736e-05
1.40121428571429e+01 2.86859436330123e-03 5.28032466490961e-05
1.40678571428571e+01 2.82165958254356e-03 5.20424585284024e-05
1.41235714285714e+01 2.77549272963951e-03 5.12922295623535e-05
1.41792857142857e+01 2.73008124006597e-03 5.05524223375873e-05
1.42350000000000e+01 2.68541275487548e-03 4.98229009242414e-05
1.42907142857143e+01 2.64147511763589e-03 4.91035311165696e-05
1.43464285714286e+01 2.59825637020113e-03 4.83941802514486e-05
1.44021428571429e+01 2.55574475038873e-03 4.76947170211561e-05
1.44578571428571e+01 2.51392868846424e-03 4.70050117254605e-05
1.45135714285714e+01 2.47279680399224e-03 4.63249361701047e-05
1.45692857142857e+01 2.43233790273959e-03 4.56543636544524e-05
1.46250000000000e+01 2.39254097362860e-03 4.49931688860211e-05
1.46807142857143e+01 2.35339518600339e-03 4.43412281900404e-05
1.47364285714286e+01 2.31488988588368e-03 4.36984193480199e-05
1.47921428571429e+01 2.27701459387346e-03 4.30646214313234e-05
1.48478571428571e+01 2.23975900203632e-03 4.24397150209187e-05
1.49035714285714e+01 2.20311297108992e-03 4.18235821163549e-05
1.49592857142857e+01 2.16706652764688e-03 4.12161061231604e-05
1.50150000000000e+01 2.13160986150033e-03 4.06171717759683e-05
1.50707142857143e+01 2.09673332318227e-03 4.00266653210998e-05
1.51264285714286e+01 2.06242742064441e-03 3.94444743729763e-05
1.51821428571429e+01 2.02868281737622e-03 3.88704877661638e-05
1.52378571428571e+01 1.99549032962733e-03 3.83045957470158e-05
1.52935714285714e+01 1.96284092390800e-03 3.77466898920916e-05
1.53492857142857e+01 1.93072571453092e-03 3.71966630955511e-05
1.54050000000000e+01 1.89913596119275e-03 3.66544095000490e-05
1.54607142857143e+01 1.86806306679368e-03 3.61198246558808e-05
1.55164285714286e+01 1.83749857449586e-03 3.55928053932588e-05
1.55721428571429e+01 1.80743416603086e-03 3.50732496907667e-05
1.56278571428571e+01 1.77786165923037e-03 3.45610568425543e-05
1.56835714285714e+01 1.74877300579924e-03 3.40561273852378e-05
1.57392857142857e+01 1.72016028912536e-03 3.35583630854933e-05
1.57950000000000e+01 1.69201572212503e-03 3.30676668779591e-05
1.58507142857143e+01 1.66433164529587e-03 3.25839430040013e-05
1.59064285714286e+01 1.63710052410935e-03 3.21070968980946e-05
1.59621428571429e+01 1.61031494748942e-03 3.16370350708623e-05
1.60178571428571e+01 1.58396762561703e-03 3.11736652549937e-05
1.60735714285714e+01 1.55805138794607e-03 3.07168963397582e-05
1.61292857142857e+01 1.53255918125209e-03 3.02666383589417e-05
1.61850000000000e+01 1.50748406771261e-03 2.98228024350710e-05
1.62407142857143e+01 1.48281922316877e-03 2.93853009004474e-05
1.62964285714286e+01 1.45855793481339e-03 2.89540471960702e-05
1.63521428571429e+01 1.43469359982417e-03 2.85289557676367e-05
1.64078571428571e+01 1.41121972341151e-03 2.81099421929304e-05
1.64635714285714e+01 1.38812991705081e-03 2.76969231231706e-05
1.65192857142857e+01 1.36541789674400e-03 2.72898162713983e-05
1.65750000000000e+01 1.34307748130921e-03 2.68885403623921e-05
1.66307142857143e+01 1.32110259082887e-03 2.64930152382704e-05
1.66864285714286e+01 1.29948724459945e-03 2.61031617685676e-05
1.67421428571429e+01 1.27822555990406e-03 2.57189017577504e-05
1.67978571428571e+01 1.25731175027644e-03 2.53401580564655e-05
1.68535714285714e+01 1.23674012392604e-03 2.49668545090207e-05
1.69092857142857e+01 1.21650508218915e-03 2.45989159422900e-05
1.69650000000000e+01 1.19660111800512e-03 2.42362681207557e-05
1.70207142857143e+01 1.17702281453099e-03 2.38788378386729e-05
1.70764285714286e+01 1.15776484332299e-03 2.35265528400629e-05
1.71321428571429e+01 1.13882196323478e-03 2.31793417364650e-05
1.71878571428571e+01 1.12018901887352e-03 2.28371341041163e-05
1.72435714285714e+01 1.10186093919671e-03 2.24998604369302e-05
1.72992857142857e+01 1.08383273613230e-03 2.21674521359681e-05
1.73550000000000e+01 1.06609950322099e-03 2.18398414690953e-05
1.74107142857143e+01 1.04865641437980e-03 2.15169616514386e-05
1.74664285714286e+01 1.03149872228868e-03 2.11987467741966e-05
1.75221428571429e+01 1.01462175740198e-03 2.08851317314899e-05
1.75778571428571e+01 9.98020926575274e-04 2.05760523052768e-05
