Energy (eV)          EEDF (eV^-(3/2))     First Anisotropy
2.09433962264151e-04 6.89369558602081e+01 2.75059831891611e-02
6.28301886792453e-04 6.84895169274463e+01 4.54255068021345e-02
1.04716981132075e-03 6.80449821212083e+01 5.99808868877048e-02
1.46603773584906e-03 6.76033325920955e+01 7.10472948652620e-02
1.88490566037736e-03 6.71645496114881e+01 8.02839163182069e-02
2.30377358490566e-03 6.67286145755149e+01 8.83177118843364e-02
2.72264150943396e-03 6.62955089981703e+01 9.54729594870405e-02
3.14150943396226e-03 6.58652145157891e+01 1.01945377945770e-01
3.56037735849057e-03 6.54377128818921e+01 1.07864703770600e-01
3.97924528301887e-03 6.50129859701644e+01 1.13322584484272e-01
4.39811320754717e-03 6.45910157704085e+01 1.18386827232418e-01
4.81698113207547e-03 6.41717843906892e+01 1.23109403054639e-01
5.23584905660377e-03 6.37552740544684e+01 1.27531271786612e-01
5.65471698113208e-03 6.33414671002012e+01 1.31685453515361e-01
6.07358490566038e-03 6.29303459818903e+01 1.35599071203152e-01
6.49245283018868e-03 6.25218932665678e+01 1.39294758409580e-01
6.91132075471698e-03 6.21160916352126e+01 1.42791658936112e-01
7.33018867924528e-03 6.17129238804645e+01 1.46106154888522e-01
7.74905660377359e-03 6.13123729073527e+01 1.49252408651171e-01
8.16792452830189e-03 6.09144217311972e+01 1.52242774046678e-01
8.58679245283019e-03 6.05190534781865e+01 1.55088113511321e-01
9.00566037735849e-03 6.01262513834332e+01 1.57798046393943e-01
9.42452830188679e-03 5.97359987914287e+01 1.60381145914593e-01
9.84339622641509e-03 5.93482791544722e+01 1.62845097302418e-01
1.02622641509434e-02 5.89630760318162e+01 1.65196825966518e-01
1.06811320754717e-02 5.85803730908023e+01 1.67442602650148e-01
1.11000000000000e-02 5.82001541038080e+01 1.69588130364606e-01
1.15188679245283e-02 5.78224029465787e+01 1.71638616433589e-01
1.19377358490566e-02 5.74471036035863e+01 1.73598833432297e-01
1.23566037735849e-02 5.70742401611484e+01 1.75473170644108e-01
1.27754716981132e-02 5.67037968088766e+01 1.77265677567338e-01
1.31943396226415e-02 5.63357578373348e+01 1.78980101140955e-01
1.36132075471698e-02 5.59701076424994e+01 1.80619918036196e-01
1.40320754716981e-02 5.56068307198508e+01 1.82188362566468e-01
1.44509433962264e-02 5.52459116655028e+01 1.83688450693890e-01
1.48698113207547e-02 5.48873351741093e+01 1.85123000986387e-01
1.52886792452830e-02 5.45310860426374e+01 1.86494653229114e-01
1.57075471698113e-02 5.41771491652059e+01 1.87805884792513e-01
1.61264150943396e-02 5.38255095339771e+01 1.89059024861418e-01
1.65452830188679e-02 5.34761522372619e+01 1.90256267053988e-01
1.69641509433962e-02 5.31290624627534e+01 1.91399680868099e-01
1.73830188679245e-02 5.27842254929570e+01 1.92491221887251e-01
1.78018867924528e-02 5.24416267058993e+01 1.93532740699372e-01
1.82207547169811e-02 5.21012515733961e+01 1.94525990908394e-01
1.86396226415094e-02 5.17630856638527e+01 1.95472636550512e-01
1.90584905660377e-02 5.14271146381737e+01 1.96374258780984e-01
1.94773584905660e-02 5.10933242503277e+01 1.97232361720404e-01
1.98962264150943e-02 5.07617003457533e+01 1.98048377763083e-01
2.03150943396226e-02 5.04322288638026e+01 1.98823672592592e-01
2.07339622641509e-02 5.01048958340494e+01 1.99559549746187e-01
2.11528301886792e-02 4.97796873767382e+01 2.00257254589677e-01
2.15716981132075e-02 4.94565897013068e+01 2.00917977960241e-01
2.19905660377358e-02 4.91355891085349e+01 2.01542859682688e-01
2.24094339622642e-02 4.88166719871856e+01 2.02132991794780e-01
2.28283018867925e-02 4.84998248143617e+01 2.02689421290337e-01
2.32471698113208e-02 4.81850341549437e+01 2.03213152864965e-01
2.36660377358491e-02 4.78722866602241e+01 2.03705151239724e-01
2.40849056603774e-02 4.75615690697402e+01 2.04166343513947e-01
2.45037735849057e-02 4.72528682082781e+01 2.04597621341720e-01
2.49226415094340e-02 4.69461709861433e+01 2.04999842783164e-01
2.53415094339623e-02 4.66414643978825e+01 2.05373834030827e-01
2.57603773584906e-02 4.63387355239139e+01 2.05720391167001e-01
2.61792452830189e-02 4.60379715277675e+01 2.06040281798912e-01
2.65981132075472e-02 4.57391596562926e+01 2.06334246424948e-01
2.70169811320755e-02 4.54422872384570e+01 2.06602999717615e-01
2.74358490566038e-02 4.51473416868037e+01 2.06847231865982e-01
2.78547169811321e-02 4.48543104948966e+01 2.07067609831445e-01
2.82735849056604e-02 4.45631812374760e+01 2.07264778373880e-01
2.86924528301887e-02 4.42739415693269e+01 2.07439361021645e-01
2.91113207547170e-02 4.39865792265838e+01 2.07591961117817e-01
2.95301886792453e-02 4.37010820243592e+01 2.07723162803572e-01
2.99490566037736e-02 4.34174378568539e+01 2.07833531800511e-01
3.03679245283019e-02 4.31356346962880e+01 2.07923616155106e-01
3.07867924528302e-02 4.28556605940730e+01 2.07993947068732e-01
3.12056603773585e-02 4.25775036786027e+01 2.08045039681299e-01
3.16245283018868e-02 4.23011521553248e+01 2.08077393675468e-01
3.20433962264151e-02 4.20265943057288e+01 2.08091493855316e-01
3.24622641509434e-02 4.17538184884019e+01 2.08087810815473e-01
3.28811320754717e-02 4.14828131369638e+01 2.08066801575543e-01
3.33000000000000e-02 4.12135667601071e+01 2.08028910051849e-01
3.37188679245283e-02 4.09460679406356e+01 2.07974567512316e-01
3.41377358490566e-02 4.06803053364180e+01 2.07904193123749e-01
3.45566037735849e-02 4.04162676784527e+01 2.07818194472825e-01
3.49754716981132e-02 4.01539437708801e+01 2.07716967937828e-01
3.53943396226415e-02 3.98933224900686e+01 2.07600899049701e-01
3.58132075471698e-02 3.96343927854766e+01 2.07470362945600e-01
3.62320754716981e-02 3.93771436778352e+01 2.07325724802247e-01
3.66509433962264e-02 3.91215642591368e+01 2.07167340131250e-01
3.70698113207547e-02 3.88676436917639e+01 2.06995555068016e-01
3.74886792452830e-02 3.86153712092704e+01 2.06810706752119e-01
3.79075471698113e-02 3.83647361146707e+01 2.06613123692105e-01
3.83264150943396e-02 3.81157277804084e+01 2.06403126001554e-01
3.87452830188679e-02 3.78683356475243e+01 2.06181025631951e-01
3.91641509433962e-02 3.76225492263658e+01 2.05947126695247e-01
3.95830188679245e-02 3.73783580949730e+01 2.05701725774125e-01
4.00018867924528e-02 3.71357518990298e+01 2.05445112111787e-01
4.04207547169811e-02 3.68947203510694e+01 2.05177567800827e-01
4.08396226415094e-02 3.66552532311177e+01 2.04899368059357e-01
4.12584905660377e-02 3.64173403851696e+01 2.04610781497646e-01
4.16773584905660e-02 3.61809717251241e+01 2.04312070271288e-01
4.20962264150943e-02 3.59461372280246e+01 2.04003490235087e-01
4.25150943396226e-02 3.57128269366442e+01 2.03685291181697e-01
4.29339622641509e-02 3.54810309580428e+01 2.03357717072799e-01
4.33528301886792e-02 3.52507394634901e+01 2.03021006163057e-01
4.37716981132076e-02 3.50219426877378e+01 2.02675391126051e-01
4.41905660377358e-02 3.47946309295519e+01 2.02321099262193e-01
4.46094339622642e-02 3.45687945503453e+01 2.01958352700837e-01
4.50283018867925e-02 3.43444239740900e+01 2.01587368479553e-01
4.54471698113208e-02 3.41215096869125e+01 2.01208358733015e-01
4.58660377358491e-02 3.39000422364018e+01 2.00821530768288e-01
4.62849056603774e-02 3.36800122320799e+01 2.00427087241430e-01
4.67037735849057e-02 3.34614103441239e+01 2.00025226329844e-01
4.71226415094340e-02 3.32442273032673e+01 1.99616141809981e-01
4.75415094339623e-02 3.30284539001356e+01 1.99200023138587e-01
4.79603773584906e-02 3.28140809856749e+01 1.98777055609106e-01
4.83792452830189e-02 3.26010994699373e+01 1.98347420504799e-01
4.87981132075472e-02 3.23895003219744e+01 1.97911295161744e-01
4.92169811320755e-02 3.21792745691984e+01 1.97468853035757e-01
4.96358490566038e-02 3.19704132977737e+01 1.97020263841816e-01
5.00547169811321e-02 3.17629076514599e+01 1.96565693690932e-01
5.04735849056604e-02 3.15567488314990e+01 1.96105305141046e-01
5.08924528301887e-02 3.13519280960019e+01 1.95639257252211e-01
5.13113207547170e-02 3.11484367603039e+01 1.95167705711570e-01
5.17301886792453e-02 3.09462661958637e+01 1.94690802956423e-01
5.21490566037736e-02 3.07454078301441e+01 1.94208698215145e-01
5.25679245283019e-02 3.05458531460221e+01 1.93721537552644e-01
5.29867924528302e-02 3.03475936821129e+01 1.93229463982981e-01
5.34056603773585e-02 3.01506210317197e+01 1.92732617580576e-01
5.38245283018868e-02 2.99549268427101e+01 1.92231135512961e-01
5.42433962264151e-02 2.97605028169475e+01 1.91725152078063e-01
5.46622641509434e-02 2.95673407105872e+01 1.91214798806202e-01
5.50811320754717e-02 2.93754323330731e+01 1.90700204561109e-01
5.55000000000000e-02 2.91847695470106e+01 1.90181495565819e-01
5.59188679245283e-02 2.89953442676192e+01 1.89658795433199e-01
5.63377358490566e-02 2.88071484630013e+01 1.89132225258718e-01
5.67566037735849e-02 2.86201741531847e+01 1.88601903712619e-01
5.71754716981132e-02 2.84344134099915e+01 1.88067947060085e-01
5.75943396226415e-02 2.82498583565112e+01 1.87530469186061e-01
5.80132075471698e-02 2.80665011673446e+01 1.86989581680063e-01
5.84320754716981e-02 2.78843340676891e+01 1.86445393920549e-01
5.88509433962264e-02 2.77033493332047e+01 1.85898013090335e-01
5.92698113207547e-02 2.75235392895055e+01 1.85347544196680e-01
5.96886792452830e-02 2.73448963123824e+01 1.84794090148977e-01
6.01075471698113e-02 2.71674128269271e+01 1.84237751836370e-01
6.05264150943396e-02 2.69910813073967e+01 1.83678628139189e-01
6.09452830188679e-02 2.68158942767228e+01 1.83116815944940e-01
6.13641509433962e-02 2.66418443067139e+01 1.82552410219855e-01
6.17830188679245e-02 2.64689240172167e+01 1.81985504080484e-01
6.22018867924528e-02 2.62971260759792e+01 1.81416188801755e-01
6.26207547169811e-02 2.61264431981771e+01 1.80844553829582e-01
6.30396226415094e-02 2.59568681465969e+01 1.80270686846897e-01
6.34584905660377e-02 2.57883937308335e+01 1.79694673839909e-01
6.38773584905660e-02 2.56210128071507e+01 1.79116599103374e-01
6.42962264150943e-02 2.54547182780253e+01 1.78536545250283e-01
6.47150943396227e-02 2.52895030923123e+01 1.77954593273003e-01
6.51339622641509e-02 2.51253602444756e+01 1.77370822604806e-01
6.55528301886792e-02 2.49622827744487e+01 1.76785311122744e-01
6.59716981132075e-02 2.48002637671931e+01 1.76198135154881e-01
6.63905660377359e-02 2.46392963528487e+01 1.75609369537078e-01
6.68094339622642e-02 2.44793737059958e+01 1.75019087670260e-01
6.72283018867925e-02 2.43204890455148e+01 1.74427361509008e-01
6.76471698113208e-02 2.41626356342997e+01 1.73834261616072e-01
6.80660377358491e-02 2.40058067788346e+01 1.73239857153618e-01
6.84849056603774e-02 2.38499958293255e+01 1.72644215935037e-01
6.89037735849057e-02 2.36951961789991e+01 1.72047404477380e-01
6.93226415094340e-02 2.35414012639640e+01 1.71449488000309e-01
6.97415094339623e-02 2.33886045628017e+01 1.70850530429133e-01
7.01603773584906e-02 2.32367995966843e+01 1.70250594443213e-01
7.05792452830189e-02 2.30859799287025e+01 1.69649741525009e-01
7.09981132075472e-02 2.29361391637262e+01 1.69048031957683e-01
7.14169811320755e-02 2.27872709480088e+01 1.68445524826682e-01
7.18358490566038e-02 2.26393689692938e+01 1.67842278065010e-01
7.22547169811321e-02 2.24924269561682e+01 1.67238348499234e-01
7.26735849056604e-02 2.23464386779242e+01 1.66633791845944e-01
7.30924528301887e-02 2.22013979441762e+01 1.66028662712071e-01
7.35113207547170e-02 2.20572986049565e+01 1.65423014637371e-01
7.39301886792453e-02 2.19141345500934e+01 1.64816900137626e-01
7.43490566037736e-02 2.17718997090740e+01 1.64210370700116e-01
7.47679245283019e-02 2.16305880506736e+01 1.63603476782954e-01
7.51867924528302e-02 2.14901935830407e+01 1.62996267854934e-01
7.56056603773585e-02 2.13507103530995e+01 1.62388792436198e-01
7.60245283018868e-02 2.12121324464134e+01 1.61781098092936e-01
7.64433962264151e-02 2.10744539868259e+01 1.61173231435789e-01
7.68622641509434e-02 2.09376691365369e+01 1.60565238157365e-01
7.72811320754717e-02 2.08017720955276e+01 1.59957163070580e-01
7.77000000000000e-02 2.06667571014245e+01 1.59349050102673e-01
7.81188679245283e-02 2.05326184291527e+01 1.58740942292848e-01
7.85377358490566e-02 2.03993503910026e+01 1.58132881827650e-01
7.89566037735849e-02 2.02669473360772e+01 1.57524910077141e-01
7.93754716981132e-02 2.01354036501567e+01 1.56917067588412e-01
7.97943396226415e-02 2.00047137553631e+01 1.56309394082540e-01
8.02132075471698e-02 1.98748721102187e+01 1.55701928487970e-01
8.06320754716981e-02 1.97458732091142e+01 1.55094708974760e-01
8.10509433962264e-02 1.96177115821743e+01 1.54487772947598e-01
8.14698113207547e-02 1.94903817949333e+01 1.53881157042264e-01
8.18886792452830e-02 1.93638784483860e+01 1.53274897157159e-01
8.23075471698113e-02 1.92381961784751e+01 1.52669028485708e-01
8.27264150943396e-02 1.91133296559590e+01 1.52063585509060e-01
8.31452830188679e-02 1.89892735860966e+01 1.51458601992047e-01
8.35641509433962e-02 1.88660227086924e+01 1.50854111013048e-01
8.39830188679245e-02 1.87435717976017e+01 1.50250144994691e-01
8.44018867924528e-02 1.86219156606007e+01 1.49646735696262e-01
8.48207547169811e-02 1.85010491390808e+01 1.49043914209331e-01
8.52396226415094e-02 1.83809671080870e+01 1.48441710986001e-01
8.56584905660377e-02 1.82616644758419e+01 1.47840155868027e-01
8.60773584905660e-02 1.81431361836163e+01 1.47239278079048e-01
8.64962264150943e-02 1.80253772054339e+01 1.46639106219888e-01
8.69150943396226e-02 1.79083825481035e+01 1.46039668295311e-01
8.73339622641510e-02 1.77921472507599e+01 1.45440991741736e-01
8.77528301886793e-02 1.76766663847368e+01 1.44843103419289e-01
8.81716981132075e-02 1.75619350532799e+01 1.44246029606797e-01
8.85905660377359e-02 1.74479483915739e+01 1.43649796027241e-01
8.90094339622642e-02 1.73347015663004e+01 1.43054427874098e-01
8.94283018867925e-02 1.72221897755117e+01 1.42459949795732e-01
8.98471698113208e-02 1.71104082484272e+01 1.41866385920431e-01
9.02660377358491e-02 1.69993522451585e+01 1.41273759842963e-01
9.06849056603774e-02 1.68890170567289e+01 1.40682094648392e-01
9.11037735849057e-02 1.67793980046514e+01 1.40091412936751e-01
9.15226415094340e-02 1.66704904408050e+01 1.39501736814956e-01
9.19415094339623e-02 1.65622897471674e+01 1.38913087891454e-01
9.23603773584906e-02 1.64547913358311e+01 1.38325487298902e-01
9.27792452830189e-02 1.63479906485955e+01 1.37738955717690e-01
9.31981132075472e-02 1.62418831568452e+01 1.37153513367782e-01
9.36169811320755e-02 1.61364643612911e+01 1.36569180003271e-01
9.40358490566038e-02 1.60317297919818e+01 1.35985974933956e-01
9.44547169811321e-02 1.59276750079108e+01 1.35403917047792e-01
9.48735849056604e-02 1.58242955968957e+01 1.34823024802719e-01
9.52924528301887e-02 1.57215871753277e+01 1.34243316221101e-01
9.57113207547170e-02 1.56195453881793e+01 1.33664808910308e-01
9.61301886792453e-02 1.55181659086243e+01 1.33087520084132e-01
9.65490566037736e-02 1.54174444379202e+01 1.32511466554639e-01
9.69679245283019e-02 1.53173767051641e+01 1.31936664726538e-01
9.73867924528302e-02 1.52179584672975e+01 1.31363130616815e-01
9.78056603773585e-02 1.51191855087393e+01 1.30790879875173e-01
9.82245283018868e-02 1.50210536412700e+01 1.30219927775929e-01
9.86433962264151e-02 1.49235587037948e+01 1.29650289212347e-01
9.90622641509434e-02 1.48266965623457e+01 1.29081978715367e-01
9.94811320754717e-02 1.47304631097263e+01 1.28515010473135e-01
9.99000000000000e-02 1.46348542653986e+01 1.27949398322963e-01
1.00318867924528e-01 1.45398659752527e+01 1.27385155751666e-01
1.00737735849057e-01 1.44454942115499e+01 1.26822295901195e-01
1.01156603773585e-01 1.43517349726940e+01 1.26260831587215e-01
1.01575471698113e-01 1.42585842830610e+01 1.25700775298143e-01
1.01994339622642e-01 1.41660381928311e+01 1.25142139200616e-01
1.02413207547170e-01 1.40740927778211e+01 1.24584935144868e-01
1.02832075471698e-01 1.39827441393177e+01 1.24029174612990e-01
1.03250943396226e-01 1.38919884044378e+01 1.23474868896563e-01
1.03669811320755e-01 1.38018217243794e+01 1.22922028987964e-01
1.04088679245283e-01 1.37122402758522e+01 1.22370665462523e-01
1.04507547169811e-01 1.36232402603810e+01 1.21820788666085e-01
1.04926415094340e-01 1.35348179041450e+01 1.21272408658542e-01
1.05345283018868e-01 1.34469694578171e+01 1.20725535218616e-01
1.05764150943396e-01 1.33596911964059e+01 1.20180177848554e-01
1.06183018867925e-01 1.32729794190968e+01 1.19636345778733e-01
1.06601886792453e-01 1.31868304490957e+01 1.19094047972208e-01
1.07020754716981e-01 1.31012406334730e+01 1.18553293129200e-01
1.07439622641509e-01 1.30162063430085e+01 1.18014089691505e-01
1.07858490566038e-01 1.29317239720379e+01 1.17476445846796e-01
1.08277358490566e-01 1.28477899382993e+01 1.16940369481815e-01
1.08696226415094e-01 1.27644006832403e+01 1.16405868340903e-01
1.09115094339623e-01 1.26815526704839e+01 1.15872949928329e-01
1.09533962264151e-01 1.25992423870694e+01 1.15341621402199e-01
1.09952830188679e-01 1.25174663428369e+01 1.14811889742007e-01
1.10371698113208e-01 1.24362210702796e+01 1.14283761697638e-01
1.10790566037736e-01 1.23555031243969e+01 1.13757243793202e-01
1.11209433962264e-01 1.22753090825478e+01 1.13232342330848e-01
1.11628301886792e-01 1.21956355443064e+01 1.12709063394466e-01
1.12047169811321e-01 1.21164791313171e+01 1.12187412853339e-01
1.12466037735849e-01 1.20378364871521e+01 1.11667396365810e-01
1.12884905660377e-01 1.19597042771685e+01 1.11149019382798e-01
1.13303773584906e-01 1.18820791883670e+01 1.10632287151316e-01
1.13722641509434e-01 1.18049579292516e+01 1.10117204672128e-01
1.14141509433962e-01 1.17283372300908e+01 1.09603776841445e-01
1.14560377358491e-01 1.16522138415697e+01 1.09092008363107e-01
1.14979245283019e-01 1.15765845358681e+01 1.08581903653046e-01
1.15398113207547e-01 1.15014461061162e+01 1.08073466989185e-01
1.15816981132075e-01 1.14267953662583e+01 1.07566702465345e-01
1.16235849056604e-01 1.13526291509182e+01 1.07061613994395e-01
1.16654716981132e-01 1.12789443152647e+01 1.06558205311323e-01
1.17073584905660e-01 1.12057377348781e+01 1.06056479976240e-01
1.17492452830189e-01 1.11330063056180e+01 1.05556441377360e-01
1.17911320754717e-01 1.10607469434917e+01 1.05058092733946e-01
1.18330188679245e-01 1.09889565845231e+01 1.04561437099202e-01
1.18749056603774e-01 1.09176321846231e+01 1.04066477363097e-01
1.19167924528302e-01 1.08467707194606e+01 1.03573216214096e-01
1.19586792452830e-01 1.07763691846854e+01 1.03081656266024e-01
1.20005660377358e-01 1.07064245947406e+01 1.02591799979020e-01
1.20424528301887e-01 1.06369339838026e+01 1.02103649573462e-01
1.20843396226415e-01 1.05678944052971e+01 1.01617207164236e-01
1.21262264150943e-01 1.04993029317750e+01 1.01132474719131e-01
1.21681132075472e-01 1.04311566547879e+01 1.00649454061393e-01
1.22100000000000e-01 1.03634526847649e+01 1.00168146872217e-01
1.22518867924528e-01 1.02961881508897e+01 9.96885546932128e-02
1.22937735849057e-01 1.02293602009795e+01 9.92106789288213e-02
1.23356603773585e-01 1.01629660013635e+01 9.87345208487086e-02
1.23775471698113e-01 1.00970027367631e+01 9.82600815901381e-02
1.24194339622642e-01 1.00314676101726e+01 9.77873621602729e-02
1.24613207547170e-01 9.96635784274004e+00 9.73163634384618e-02
1.25032075471698e-01 9.90167067365000e+00 9.68470861418762e-02
1.25450943396226e-01 9.83740336031220e+00 9.63795309383179e-02
1.25869811320755e-01 9.77355317732236e+00 9.59136983756023e-02
1.26288679245283e-01 9.71011741727452e+00 9.54495888045017e-02
1.26707547169811e-01 9.64709339033526e+00 9.49872024982793e-02
1.27126415094340e-01 9.58447842412966e+00 9.45265396153529e-02
1.27545283018868e-01 9.52226986362799e+00 9.40676002013291e-02
1.27964150943396e-01 9.46046507103309e+00 9.36103841910379e-02
1.28383018867925e-01 9.39906142566851e+00 9.31548914104852e-02
1.28801886792453e-01 9.33805632386750e+00 9.27011215788244e-02
1.29220754716981e-01 9.27744717886255e+00 9.22490743103052e-02
1.29639622641509e-01 9.21723142067568e+00 9.17987491161344e-02
1.30058490566038e-01 9.15740649600949e+00 9.13501454063500e-02
1.30477358490566e-01 9.09796986813890e+00 9.09032624587636e-02
1.30896226415094e-01 9.03891901707299e+00 9.04580995201991e-02
1.31315094339623e-01 8.98025143863557e+00 9.00146557428364e-02
1.31733962264151e-01 8.92196464517593e+00 8.95729301147257e-02
1.32152830188679e-01 8.86405616518956e+00 8.91329215671184e-02
