Energy (eV)          EEDF (eV^-(3/2))     First Anisotropy
8.42452830188679e-05 2.70573609352426e+02 0.00000000000000e+00
2.52735849056604e-04 2.68815871641816e+02 0.00000000000000e+00
4.21226415094340e-04 2.67069552790367e+02 0.00000000000000e+00
5.89716981132075e-04 2.65334578617086e+02 0.00000000000000e+00
7.58207547169811e-04 2.63610875423064e+02 0.00000000000000e+00
9.26698113207547e-04 2.61898369988190e+02 0.00000000000000e+00
1.09518867924528e-03 2.60196989568027e+02 0.00000000000000e+00
1.26367924528302e-03 2.58506661890712e+02 0.00000000000000e+00
1.43216981132075e-03 2.56827315153886e+02 0.00000000000000e+00
1.60066037735849e-03 2.55158878021642e+02 0.00000000000000e+00
1.76915094339623e-03 2.53501279621499e+02 0.00000000000000e+00
1.93764150943396e-03 2.51854449541384e+02 0.00000000000000e+00
2.10613207547170e-03 2.50218317826646e+02 0.00000000000000e+00
2.27462264150943e-03 2.48592814977085e+02 0.00000000000000e+00
2.44311320754717e-03 2.46977871943996e+02 0.00000000000000e+00
2.61160377358491e-03 2.45373420127239e+02 0.00000000000000e+00
2.78009433962264e-03 2.43779391372321e+02 0.00000000000000e+00
2.94858490566038e-03 2.42195717967508e+02 0.00000000000000e+00
3.11707547169811e-03 2.40622332640941e+02 0.00000000000000e+00
3.28556603773585e-03 2.39059168557783e+02 0.00000000000000e+00
3.45405660377358e-03 2.37506159317378e+02 0.00000000000000e+00
3.62254716981132e-03 2.35963238950433e+02 0.00000000000000e+00
3.79103773584906e-03 2.34430341916212e+02 0.00000000000000e+00
3.95952830188679e-03 2.32907403099753e+02 0.00000000000000e+00
4.12801886792453e-03 2.31394357809107e+02 0.00000000000000e+00
4.29650943396226e-03 2.29891141772580e+02 0.00000000000000e+00
4.46500000000000e-03 2.28397691136014e+02 0.00000000000000e+00
4.63349056603774e-03 2.26913942460065e+02 0.00000000000000e+00
4.80198113207547e-03 2.25439832717516e+02 0.00000000000000e+00
4.97047169811321e-03 2.23975299290594e+02 0.00000000000000e+00
5.13896226415094e-03 2.22520279968312e+02 0.00000000000000e+00
5.30745283018868e-03 2.21074712943828e+02 0.00000000000000e+00
5.47594339622642e-03 2.19638536811817e+02 0.00000000000000e+00
5.64443396226415e-03 2.18211690565865e+02 0.00000000000000e+00
5.81292452830189e-03 2.16794113595875e+02 0.00000000000000e+00
5.98141509433962e-03 2.15385745685494e+02 0.00000000000000e+00
6.14990566037736e-03 2.13986527009555e+02 0.00000000000000e+00
6.31839622641509e-03 2.12596398131536e+02 0.00000000000000e+00
6.48688679245283e-03 2.11215300001035e+02 0.00000000000000e+00
6.65537735849057e-03 2.09843173951259e+02 0.00000000000000e+00
6.82386792452830e-03 2.08479961696537e+02 0.00000000000000e+00
6.99235849056604e-03 2.07125605329841e+02 0.00000000000000e+00
7.16084905660377e-03 2.05780047320326e+02 0.00000000000000e+00
7.32933962264151e-03 2.04443230510886e+02 0.00000000000000e+00
7.49783018867924e-03 2.03115098115729e+02 0.00000000000000e+00
7.66632075471698e-03 2.01795593717960e+02 0.00000000000000e+00
7.83481132075472e-03 2.00484661267191e+02 0.00000000000000e+00
8.00330188679245e-03 1.99182245077153e+02 0.00000000000000e+00
8.17179245283019e-03 1.97888289823335e+02 0.00000000000000e+00
8.34028301886793e-03 1.96602740540633e+02 0.00000000000000e+00
8.50877358490566e-03 1.95325542621014e+02 0.00000000000000e+00
8.67726415094340e-03 1.94056641811198e+02 0.00000000000000e+00
8.84575471698113e-03 1.92795984210353e+02 0.00000000000000e+00
9.01424528301887e-03 1.91543516267805e+02 0.00000000000000e+00
9.18273584905660e-03 1.90299184780761e+02 0.00000000000000e+00
9.35122641509434e-03 1.89062936892056e+02 0.00000000000000e+00
9.51971698113208e-03 1.87834720087898e+02 0.00000000000000e+00
9.68820754716981e-03 1.86614482195645e+02 0.00000000000000e+00
9.85669811320755e-03 1.85402171381586e+02 0.00000000000000e+00
1.00251886792453e-02 1.84197736148740e+02 0.00000000000000e+00
1.01936792452830e-02 1.83001125334665e+02 0.00000000000000e+00
1.03621698113208e-02 1.81812288109291e+02 0.00000000000000e+00
1.05306603773585e-02 1.80631173972755e+02 0.00000000000000e+00
1.06991509433962e-02 1.79457732753258e+02 0.00000000000000e+00
1.08676415094340e-02 1.78291914604937e+02 0.00000000000000e+00
1.10361320754717e-02 1.77133670005742e+02 0.00000000000000e+00
1.12046226415094e-02 1.75982949755334e+02 0.00000000000000e+00
1.13731132075472e-02 1.74839704972999e+02 0.00000000000000e+00
1.15416037735849e-02 1.73703887095567e+02 0.00000000000000e+00
1.17100943396226e-02 1.72575447875350e+02 0.00000000000000e+00
1.18785849056604e-02 1.71454339378096e+02 0.00000000000000e+00
1.20470754716981e-02 1.70340513980947e+02 0.00000000000000e+00
1.22155660377358e-02 1.69233924370421e+02 0.00000000000000e+00
1.23840566037736e-02 1.68134523540399e+02 0.00000000000000e+00
1.25525471698113e-02 1.67042264790133e+02 0.00000000000000e+00
1.27210377358491e-02 1.65957101722255e+02 0.00000000000000e+00
1.28895283018868e-02 1.64878988240811e+02 0.00000000000000e+00
1.30580188679245e-02 1.63807878549304e+02 0.00000000000000e+00
1.32265094339623e-02 1.62743727148744e+02 0.00000000000000e+00
1.33950000000000e-02 1.61686488835719e+02 0.00000000000000e+00
1.35634905660377e-02 1.60636118700473e+02 0.00000000000000e+00
1.37319811320755e-02 1.59592572124999e+02 0.00000000000000e+00
1.39004716981132e-02 1.58555804781146e+02 0.00000000000000e+00
1.40689622641509e-02 1.57525772628730e+02 0.00000000000000e+00
1.42374528301887e-02 1.56502431913670e+02 0.00000000000000e+00
1.44059433962264e-02 1.55485739166124e+02 0.00000000000000e+00
1.45744339622641e-02 1.54475651198646e+02 0.00000000000000e+00
1.47429245283019e-02 1.53472125104350e+02 0.00000000000000e+00
1.49114150943396e-02 1.52475118255089e+02 0.00000000000000e+00
1.50799056603774e-02 1.51484588299639e+02 0.00000000000000e+00
1.52483962264151e-02 1.50500493161909e+02 0.00000000000000e+00
1.54168867924528e-02 1.49522791039144e+02 0.00000000000000e+00
1.55853773584906e-02 1.48551440400158e+02 0.00000000000000e+00
1.57538679245283e-02 1.47586399983561e+02 0.00000000000000e+00
1.59223584905660e-02 1.46627628796015e+02 0.00000000000000e+00
1.60908490566038e-02 1.45675086110487e+02 0.00000000000000e+00
1.62593396226415e-02 1.44728731464520e+02 0.00000000000000e+00
1.64278301886792e-02 1.43788524658515e+02 0.00000000000000e+00
1.65963207547170e-02 1.42854425754025e+02 0.00000000000000e+00
1.67648113207547e-02 1.41926395072054e+02 0.00000000000000e+00
1.69333018867925e-02 1.41004393191376e+02 0.00000000000000e+00
1.71017924528302e-02 1.40088380946858e+02 0.00000000000000e+00
1.72702830188679e-02 1.39178319427797e+02 0.00000000000000e+00
1.74387735849057e-02 1.38274169976267e+02 0.00000000000000e+00
1.76072641509434e-02 1.37375894185477e+02 0.00000000000000e+00
1.77757547169811e-02 1.36483453898140e+02 0.00000000000000e+00
1.79442452830189e-02 1.35596811204851e+02 0.00000000000000e+00
1.81127358490566e-02 1.34715928442477e+02 0.00000000000000e+00
1.82812264150943e-02 1.33840768192559e+02 0.00000000000000e+00
1.84497169811321e-02 1.32971293279719e+02 0.00000000000000e+00
1.86182075471698e-02 1.32107466770085e+02 0.00000000000000e+00
1.87866981132075e-02 1.31249251969717e+02 0.00000000000000e+00
1.89551886792453e-02 1.30396612423055e+02 0.00000000000000e+00
1.91236792452830e-02 1.29549511911363e+02 0.00000000000000e+00
1.92921698113208e-02 1.28707914451197e+02 0.00000000000000e+00
1.94606603773585e-02 1.27871784292872e+02 0.00000000000000e+00
1.96291509433962e-02 1.27041085918945e+02 0.00000000000000e+00
1.97976415094340e-02 1.26215784042707e+02 0.00000000000000e+00
1.99661320754717e-02 1.25395843606684e+02 0.00000000000000e+00
2.01346226415094e-02 1.24581229781145e+02 0.00000000000000e+00
2.03031132075472e-02 1.23771907962628e+02 0.00000000000000e+00
2.04716037735849e-02 1.22967843772463e+02 0.00000000000000e+00
2.06400943396226e-02 1.22169003055318e+02 0.00000000000000e+00
2.08085849056604e-02 1.21375351877746e+02 0.00000000000000e+00
2.09770754716981e-02 1.20586856526741e+02 0.00000000000000e+00
2.11455660377358e-02 1.19803483508309e+02 0.00000000000000e+00
2.13140566037736e-02 1.19025199546046e+02 0.00000000000000e+00
2.14825471698113e-02 1.18251971579720e+02 0.00000000000000e+00
2.16510377358491e-02 1.17483766763872e+02 0.00000000000000e+00
2.18195283018868e-02 1.16720552466416e+02 0.00000000000000e+00
2.19880188679245e-02 1.15962296267256e+02 0.00000000000000e+00
2.21565094339623e-02 1.15208965956908e+02 0.00000000000000e+00
2.23250000000000e-02 1.14460529535133e+02 0.00000000000000e+00
2.24934905660377e-02 1.13716955209573e+02 0.00000000000000e+00
2.26619811320755e-02 1.12978211394408e+02 0.00000000000000e+00
2.28304716981132e-02 1.12244266709007e+02 0.00000000000000e+00
2.29989622641509e-02 1.11515089976600e+02 0.00000000000000e+00
2.31674528301887e-02 1.10790650222950e+02 0.00000000000000e+00
2.33359433962264e-02 1.10070916675042e+02 0.00000000000000e+00
2.35044339622641e-02 1.09355858759770e+02 0.00000000000000e+00
2.36729245283019e-02 1.08645446102642e+02 0.00000000000000e+00
2.38414150943396e-02 1.07939648526491e+02 0.00000000000000e+00
2.40099056603774e-02 1.07238436050189e+02 0.00000000000000e+00
2.41783962264151e-02 1.06541778887376e+02 0.00000000000000e+00
2.43468867924528e-02 1.05849647445194e+02 0.00000000000000e+00
2.45153773584906e-02 1.05162012323031e+02 0.00000000000000e+00
2.46838679245283e-02 1.04478844311270e+02 0.00000000000000e+00
2.48523584905660e-02 1.03800114390052e+02 0.00000000000000e+00
2.50208490566038e-02 1.03125793728039e+02 0.00000000000000e+00
2.51893396226415e-02 1.02455853681190e+02 0.00000000000000e+00
2.53578301886792e-02 1.01790265791548e+02 0.00000000000000e+00
2.55263207547170e-02 1.01129001786027e+02 0.00000000000000e+00
2.56948113207547e-02 1.00472033575213e+02 0.00000000000000e+00
2.58633018867925e-02 9.98193332521695e+01 0.00000000000000e+00
2.60317924528302e-02 9.91708730912545e+01 0.00000000000000e+00
2.62002830188679e-02 9.85266255469398e+01 0.00000000000000e+00
2.63687735849057e-02 9.78865632526428e+01 0.00000000000000e+00
2.65372641509434e-02 9.72506590195633e+01 0.00000000000000e+00
2.67057547169811e-02 9.66188858355289e+01 0.00000000000000e+00
2.68742452830189e-02 9.59912168638472e+01 0.00000000000000e+00
2.70427358490566e-02 9.53676254421663e+01 0.00000000000000e+00
2.72112264150943e-02 9.47480850813418e+01 0.00000000000000e+00
2.73797169811321e-02 9.41325694643117e+01 0.00000000000000e+00
2.75482075471698e-02 9.35210524449787e+01 0.00000000000000e+00
2.77166981132075e-02 9.29135080470994e+01 0.00000000000000e+00
2.78851886792453e-02 9.23099104631805e+01 0.00000000000000e+00
2.80536792452830e-02 9.17102340533833e+01 0.00000000000000e+00
2.82221698113208e-02 9.11144533444341e+01 0.00000000000000e+00
2.83906603773585e-02 9.05225430285421e+01 0.00000000000000e+00
2.85591509433962e-02 8.99344779623246e+01 0.00000000000000e+00
2.87276415094340e-02 8.93502331657386e+01 0.00000000000000e+00
2.88961320754717e-02 8.87697838210201e+01 0.00000000000000e+00
2.90646226415094e-02 8.81931052716297e+01 0.00000000000000e+00
2.92331132075472e-02 8.76201730212052e+01 0.00000000000000e+00
2.94016037735849e-02 8.70509627325210e+01 0.00000000000000e+00
2.95700943396226e-02 8.64854502264543e+01 0.00000000000000e+00
2.97385849056604e-02 8.59236114809582e+01 0.00000000000000e+00
2.99070754716981e-02 8.53654226300411e+01 0.00000000000000e+00
3.00755660377358e-02 8.48108599627529e+01 0.00000000000000e+00
3.02440566037736e-02 8.42598999221778e+01 0.00000000000000e+00
3.04125471698113e-02 8.37125191044340e+01 0.00000000000000e+00
3.05810377358491e-02 8.31686942576788e+01 0.00000000000000e+00
3.07495283018868e-02 8.26284022811216e+01 0.00000000000000e+00
3.09180188679245e-02 8.20916202240424e+01 0.00000000000000e+00
3.10865094339623e-02 8.15583252848168e+01 0.00000000000000e+00
3.12550000000000e-02 8.10284948099472e+01 0.00000000000000e+00
3.14234905660377e-02 8.05021062931013e+01 0.00000000000000e+00
3.15919811320755e-02 7.99791373741550e+01 0.00000000000000e+00
3.17604716981132e-02 7.94595658382436e+01 0.00000000000000e+00
3.19289622641509e-02 7.89433696148172e+01 0.00000000000000e+00
3.20974528301887e-02 7.84305267767042e+01 0.00000000000000e+00
3.22659433962264e-02 7.79210155391788e+01 0.00000000000000e+00
3.24344339622641e-02 7.74148142590365e+01 0.00000000000000e+00
3.26029245283019e-02 7.69119014336743e+01 0.00000000000000e+00
3.27714150943396e-02 7.64122557001773e+01 0.00000000000000e+00
3.29399056603774e-02 7.59158558344114e+01 0.00000000000000e+00
3.31083962264151e-02 7.54226807501217e+01 0.00000000000000e+00
3.32768867924528e-02 7.49327094980366e+01 0.00000000000000e+00
3.34453773584906e-02 7.44459212649781e+01 0.00000000000000e+00
3.36138679245283e-02 7.39622953729778e+01 0.00000000000000e+00
3.37823584905660e-02 7.34818112783982e+01 0.00000000000000e+00
3.39508490566038e-02 7.30044485710603e+01 0.00000000000000e+00
3.41193396226415e-02 7.25301869733765e+01 0.00000000000000e+00
3.42878301886792e-02 7.20590063394892e+01 0.00000000000000e+00
3.44563207547170e-02 7.15908866544153e+01 0.00000000000000e+00
3.46248113207547e-02 7.11258080331957e+01 0.00000000000000e+00
3.47933018867925e-02 7.06637507200506e+01 0.00000000000000e+00
3.49617924528302e-02 7.02046950875407e+01 0.00000000000000e+00
3.51302830188679e-02 6.97486216357329e+01 0.00000000000000e+00
3.52987735849057e-02 6.92955109913725e+01 0.00000000000000e+00
3.54672641509434e-02 6.88453439070597e+01 0.00000000000000e+00
3.56357547169811e-02 6.83981012604328e+01 0.00000000000000e+00
3.58042452830189e-02 6.79537640533550e+01 0.00000000000000e+00
3.59727358490566e-02 6.75123134111080e+01 0.00000000000000e+00
3.61412264150943e-02 6.70737305815901e+01 0.00000000000000e+00
3.63097169811321e-02 6.66379969345195e+01 0.00000000000000e+00
3.64782075471698e-02 6.62050939606430e+01 0.00000000000000e+00
3.66466981132075e-02 6.57750032709500e+01 0.00000000000000e+00
3.68151886792453e-02 6.53477065958908e+01 0.00000000000000e+00
3.69836792452830e-02 6.49231857846010e+01 0.00000000000000e+00
3.71521698113208e-02 6.45014228041306e+01 0.00000000000000e+00
3.73206603773585e-02 6.40823997386773e+01 0.00000000000000e+00
3.74891509433962e-02 6.36660987888263e+01 0.00000000000000e+00
3.76576415094340e-02 6.32525022707936e+01 0.00000000000000e+00
3.78261320754717e-02 6.28415926156750e+01 0.00000000000000e+00
3.79946226415094e-02 6.24333523687002e+01 0.00000000000000e+00
3.81631132075472e-02 6.20277641884906e+01 0.00000000000000e+00
3.83316037735849e-02 6.16248108463232e+01 0.00000000000000e+00
3.85000943396226e-02 6.12244752253987e+01 0.00000000000000e+00
3.86685849056604e-02 6.08267403201142e+01 0.00000000000000e+00
3.88370754716981e-02 6.04315892353411e+01 0.00000000000000e+00
3.90055660377358e-02 6.00390051857070e+01 0.00000000000000e+00
3.91740566037736e-02 5.96489714948832e+01 0.00000000000000e+00
3.93425471698113e-02 5.92614715948760e+01 0.00000000000000e+00
3.95110377358491e-02 5.88764890253230e+01 0.00000000000000e+00
3.96795283018868e-02 5.84940074327939e+01 0.00000000000000e+00
3.98480188679245e-02 5.81140105700958e+01 0.00000000000000e+00
4.00165094339623e-02 5.77364822955830e+01 0.00000000000000e+00
4.01850000000000e-02 5.73614065724714e+01 0.00000000000000e+00
4.03534905660377e-02 5.69887674681575e+01 0.00000000000000e+00
4.05219811320755e-02 5.66185491535410e+01 0.00000000000000e+00
4.06904716981132e-02 5.62507359023531e+01 0.00000000000000e+00
4.08589622641509e-02 5.58853120904880e+01 0.00000000000000e+00
4.10274528301887e-02 5.55222621953396e+01 0.00000000000000e+00
4.11959433962264e-02 5.51615707951415e+01 0.00000000000000e+00
4.13644339622641e-02 5.48032225683126e+01 0.00000000000000e+00
4.15329245283019e-02 5.44472022928061e+01 0.00000000000000e+00
4.17014150943396e-02 5.40934948454624e+01 0.00000000000000e+00
4.18699056603774e-02 5.37420852013674e+01 0.00000000000000e+00
4.20383962264151e-02 5.33929584332137e+01 0.00000000000000e+00
4.22068867924528e-02 5.30460997106668e+01 0.00000000000000e+00
4.23753773584906e-02 5.27014942997350e+01 0.00000000000000e+00
4.25438679245283e-02 5.23591275621439e+01 0.00000000000000e+00
4.27123584905660e-02 5.20189849547139e+01 0.00000000000000e+00
4.28808490566038e-02 5.16810520287429e+01 0.00000000000000e+00
4.30493396226415e-02 5.13453144293928e+01 0.00000000000000e+00
4.32178301886792e-02 5.10117578950789e+01 0.00000000000000e+00
4.33863207547170e-02 5.06803682568649e+01 0.00000000000000e+00
4.35548113207547e-02 5.03511314378606e+01 0.00000000000000e+00
4.37233018867925e-02 5.00240334526240e+01 0.00000000000000e+00
4.38917924528302e-02 4.96990604065673e+01 0.00000000000000e+00
4.40602830188679e-02 4.93761984953667e+01 0.00000000000000e+00
4.42287735849057e-02 4.90554340043758e+01 0.00000000000000e+00
4.43972641509434e-02 4.87367533080435e+01 0.00000000000000e+00
4.45657547169811e-02 4.84201428693345e+01 0.00000000000000e+00
4.47342452830189e-02 4.81055892391549e+01 0.00000000000000e+00
4.49027358490566e-02 4.77930790557806e+01 0.00000000000000e+00
4.50712264150943e-02 4.74825990442898e+01 0.00000000000000e+00
4.52397169811321e-02 4.71741360159991e+01 0.00000000000000e+00
4.54082075471698e-02 4.68676768679032e+01 0.00000000000000e+00
4.55766981132075e-02 4.65632085821184e+01 0.00000000000000e+00
4.57451886792453e-02 4.62607182253294e+01 0.00000000000000e+00
4.59136792452830e-02 4.59601929482405e+01 0.00000000000000e+00
4.60821698113208e-02 4.56616199850290e+01 0.00000000000000e+00
4.62506603773585e-02 4.53649866528033e+01 0.00000000000000e+00
4.64191509433962e-02 4.50702803510644e+01 0.00000000000000e+00
4.65876415094340e-02 4.47774885611703e+01 0.00000000000000e+00
4.67561320754717e-02 4.44865988458043e+01 0.00000000000000e+00
4.69246226415094e-02 4.41975988484467e+01 0.00000000000000e+00
4.70931132075472e-02 4.39104762928500e+01 0.00000000000000e+00
4.72616037735849e-02 4.36252189825173e+01 0.00000000000000e+00
4.74300943396226e-02 4.33418148001844e+01 0.00000000000000e+00
4.75985849056604e-02 4.30602517073046e+01 0.00000000000000e+00
4.77670754716981e-02 4.27805177435381e+01 0.00000000000000e+00
4.79355660377358e-02 4.25026010262433e+01 0.00000000000000e+00
4.81040566037736e-02 4.22264897499722e+01 0.00000000000000e+00
4.82725471698113e-02 4.19521721859692e+01 0.00000000000000e+00
4.84410377358491e-02 4.16796366816724e+01 0.00000000000000e+00
4.86095283018868e-02 4.14088716602191e+01 0.00000000000000e+00
4.87780188679245e-02 4.11398656199538e+01 0.00000000000000e+00
4.89465094339623e-02 4.08726071339395e+01 0.00000000000000e+00
4.91150000000000e-02 4.06070848494725e+01 0.00000000000000e+00
4.92834905660377e-02 4.03432874876001e+01 0.00000000000000e+00
4.94519811320755e-02 4.00812038426417e+01 0.00000000000000e+00
4.96204716981132e-02 3.98208227817123e+01 0.00000000000000e+00
4.97889622641509e-02 3.95621332442500e+01 0.00000000000000e+00
4.99574528301887e-02 3.93051242415461e+01 0.00000000000000e+00
5.01259433962264e-02 3.90497848562782e+01 0.00000000000000e+00
5.02944339622641e-02 3.87961042420466e+01 0.00000000000000e+00
5.04629245283019e-02 3.85440716229134e+01 0.00000000000000e+00
5.06314150943396e-02 3.82936762929449e+01 0.00000000000000e+00
5.07999056603774e-02 3.80449076157567e+01 0.00000000000000e+00
5.09683962264151e-02 3.77977550240620e+01 0.00000000000000e+00
5.11368867924528e-02 3.75522080192227e+01 0.00000000000000e+00
5.13053773584906e-02 3.73082561708033e+01 0.00000000000000e+00
5.14738679245283e-02 3.70658891161280e+01 0.00000000000000e+00
5.16423584905660e-02 3.68250965598406e+01 0.00000000000000e+00
5.18108490566038e-02 3.65858682734666e+01 0.00000000000000e+00
5.19793396226415e-02 3.63481940949797e+01 0.00000000000000e+00
5.21478301886792e-02 3.61120639283690e+01 0.00000000000000e+00
5.23163207547170e-02 3.58774677432111e+01 0.00000000000000e+00
5.24848113207547e-02 3.56443955742435e+01 0.00000000000000e+00
5.26533018867925e-02 3.54128375209414e+01 0.00000000000000e+00
5.28217924528302e-02 3.51827837470970e+01 0.00000000000000e+00
5.29902830188679e-02 3.49542244804023e+01 0.00000000000000e+00
5.31587735849057e-02 3.47271500120329e+01 0.00000000000000e+00
