Energy (eV)          EEDF (eV^-(3/2))     First Anisotropy
3.40476190476190e-02 1.33130632116909e-01 1.08362373127909e-04
1.02142857142857e-01 1.30955605958867e-01 1.78074032581494e-04
1.70238095238095e-01 1.28816114365856e-01 2.32802582950019e-04
2.38333333333333e-01 1.26711576788511e-01 2.73021317022802e-04
3.06428571428571e-01 1.24641422164344e-01 3.05458109318705e-04
3.74523809523810e-01 1.22605088760668e-01 3.32694037841144e-04
4.42619047619048e-01 1.20602024017309e-01 3.56083371679830e-04
5.10714285714286e-01 1.18631684412080e-01 3.76454894272132e-04
5.78809523809524e-01 1.16693535296696e-01 3.94365451691352e-04
6.46904761904762e-01 1.14787050757795e-01 4.10213620461397e-04
7.15000000000000e-01 1.12911713474192e-01 4.24298099357293e-04
7.83095238095238e-01 1.11067014576473e-01 4.36850693349123e-04
8.51190476190476e-01 1.09252453508919e-01 4.48056305596130e-04
9.19285714285714e-01 1.07467537893690e-01 4.58065734670086e-04
9.87380952380952e-01 1.05711783397189e-01 4.67004231726011e-04
1.05547619047619e+00 1.03984713600229e-01 4.74977431628008e-04
1.12357142857143e+00 1.02285859860844e-01 4.82075587317182e-04
1.19166666666667e+00 1.00614761198506e-01 4.88376671629069e-04
1.25976190476190e+00 9.89709641641250e-02 4.93948699593421e-04
1.32785714285714e+00 9.73540227292355e-02 4.98851503149707e-04
1.39595238095238e+00 9.57634981267531e-02 5.03138104354354e-04
1.46404761904762e+00 9.41989587710819e-02 5.06855796436517e-04
1.53214285714286e+00 9.26599801274992e-02 5.10047011068556e-04
1.60023809523810e+00 9.11461445972577e-02 5.12750014626748e-04
1.66833333333333e+00 8.96570414131414e-02 5.14999480374010e-04
1.73642857142857e+00 8.81922665003610e-02 5.16826956645317e-04
1.80452380952381e+00 8.67514223951522e-02 5.18261255981975e-04
1.87261904761905e+00 8.53341181272467e-02 5.19328785210254e-04
1.94071428571429e+00 8.39399691139005e-02 5.20053820825550e-04
2.00880952380952e+00 8.25685970623656e-02 5.20458746475579e-04
2.07690476190476e+00 8.12196298462567e-02 5.20564253340594e-04
2.14500000000000e+00 7.98927014259502e-02 5.20389512530257e-04
2.21309523809524e+00 7.85874517419684e-02 5.19952327592090e-04
2.28119047619048e+00 7.73035266173121e-02 5.19269264849986e-04
2.34928571428571e+00 7.60405776613788e-02 5.18355767522155e-04
2.41738095238095e+00 7.47982621805765e-02 5.17226258082923e-04
2.48547619047619e+00 7.35762430695307e-02 5.15894226115968e-04
2.55357142857143e+00 7.23741887356941e-02 5.14372306020913e-04
2.62166666666667e+00 7.11917730039017e-02 5.12672348795475e-04
2.68976190476190e+00 7.00286750279083e-02 5.10805483607137e-04
2.75785714285714e+00 6.88845792074589e-02 5.08782175237859e-04
2.82595238095238e+00 6.77591750899619e-02 5.06612273533768e-04
2.89404761904762e+00 6.66521572991565e-02 5.04305057863346e-04
2.96214285714286e+00 6.55632254478476e-02 5.01869279595818e-04
3.03023809523810e+00 6.44920840564489e-02 4.99313198422197e-04
3.09833333333333e+00 6.34384424761756e-02 4.96644617356426e-04
3.16642857142857e+00 6.24020147998188e-02 4.93870912722582e-04
3.23452380952381e+00 6.13825197946949e-02 4.90999061446688e-04
3.30261904761905e+00 6.03796808227517e-02 4.88035668029065e-04
3.37071428571429e+00 5.93932257655283e-02 4.84986987372737e-04
3.43880952380952e+00 5.84228869531214e-02 4.81858947505473e-04
3.50690476190476e+00 5.74684010829824e-02 4.78657168839286e-04
3.57500000000000e+00 5.65295091571743e-02 4.75386981860921e-04
3.64309523809524e+00 5.56059564091380e-02 4.72053445228857e-04
3.71119047619048e+00 5.46974922345704e-02 4.68661361148039e-04
3.77928571428571e+00 5.38038701234297e-02 4.65215289672707e-04
3.84738095238095e+00 5.29248475953202e-02 4.61719563151069e-04
3.91547619047619e+00 5.20601861267453e-02 4.58178298224974e-04
3.98357142857143e+00 5.12096510934399e-02 4.54595406945300e-04
4.05166666666667e+00 5.03730117043143e-02 4.50974608644530e-04
4.11976190476190e+00 4.95500409388427e-02 4.47319439577429e-04
4.18785714285714e+00 4.87405154873798e-02 4.43633263257802e-04
4.25595238095238e+00 4.79442156847004e-02 4.39919278865615e-04
4.32404761904762e+00 4.71609254563482e-02 4.36180529077466e-04
4.39214285714286e+00 4.63904322579810e-02 4.32419908742458e-04
4.46023809523810e+00 4.56325270177145e-02 4.28640171751730e-04
4.52833333333333e+00 4.48870040810199e-02 4.24843938669853e-04
4.59642857142857e+00 4.41536611499350e-02 4.21033702790591e-04
4.66452380952381e+00 4.34322992332296e-02 4.17211835800693e-04
4.73261904761905e+00 4.27227225906937e-02 4.13380594298497e-04
4.80071428571429e+00 4.20247386800321e-02 4.09542124809753e-04
4.86880952380952e+00 4.13381581060170e-02 4.05698469566127e-04
4.93690476190476e+00 4.06627945648328e-02 4.01851570967491e-04
5.00500000000000e+00 3.99984647978461e-02 3.98003275767505e-04
5.07309523809524e+00 3.93449885404143e-02 3.94155340083866e-04
5.14119047619048e+00 3.87021884729739e-02 3.90309433314751e-04
5.20928571428571e+00 3.80698901729275e-02 3.86467141881535e-04
5.27738095238095e+00 3.74479220684851e-02 3.82629973484088e-04
5.34547619047619e+00 3.68361153885397e-02 3.78799360267067e-04
5.41357142857143e+00 3.62343041204904e-02 3.74976661797761e-04
5.48166666666667e+00 3.56423249639699e-02 3.71163168811265e-04
5.54976190476190e+00 3.50600172865388e-02 3.67360105889587e-04
5.61785714285714e+00 3.44872230811082e-02 3.63568634821029e-04
5.68595238095238e+00 3.39237869199831e-02 3.59789857018158e-04
5.75404761904762e+00 3.33695559158120e-02 3.56024815795931e-04
5.82214285714286e+00 3.28243796790422e-02 3.52274499358516e-04
5.89023809523810e+00 3.22881102771182e-02 3.48539842859010e-04
5.95833333333333e+00 3.17606021952158e-02 3.44821731088857e-04
6.02642857142857e+00 3.12417122940849e-02 3.41121000346068e-04
6.09452380952381e+00 3.07312997739176e-02 3.37438440197147e-04
6.16261904761905e+00 3.02292261352256e-02 3.33774795889736e-04
6.23071428571429e+00 2.97353551412614e-02 3.30130769952331e-04
6.29880952380952e+00 2.92495527818152e-02 3.26507024372063e-04
6.36690476190476e+00 2.87716872345250e-02 3.22904182052274e-04
6.43500000000000e+00 2.83016288314646e-02 3.19322828187247e-04
6.50309523809524e+00 2.78392500231602e-02 3.15763512231627e-04
6.57119047619048e+00 2.73844253439815e-02 3.12226749266104e-04
6.63928571428571e+00 2.69370313780981e-02 3.08713021323862e-04
6.70738095238095e+00 2.64969467266412e-02 3.05222779103772e-04
6.77547619047619e+00 2.60640519727810e-02 3.01756443062001e-04
6.84357142857143e+00 2.56382296513309e-02 2.98314404441389e-04
6.91166666666667e+00 2.52193642161945e-02 2.94897026833596e-04
6.97976190476191e+00 2.48073420090148e-02 2.91504647120648e-04
7.04785714285714e+00 2.44020512289024e-02 2.88137576889944e-04
7.11595238095238e+00 2.40033819003640e-02 2.84796103297643e-04
7.18404761904762e+00 2.36112258452183e-02 2.81480489882594e-04
7.25214285714286e+00 2.32254766526472e-02 2.78190977863881e-04
7.32023809523810e+00 2.28460296503242e-02 2.74927786886680e-04
7.38833333333333e+00 2.24727818765109e-02 2.71691116198881e-04
7.45642857142857e+00 2.21056320505965e-02 2.68481145336575e-04
7.52452380952381e+00 2.17444805471581e-02 2.65298034769585e-04
7.59261904761905e+00 2.13892293684050e-02 2.62141926986096e-04
7.66071428571429e+00 2.10397821175894e-02 2.59012947085101e-04
7.72880952380952e+00 2.06960439732893e-02 2.55911203760118e-04
7.79690476190476e+00 2.03579216623395e-02 2.52836789844908e-04
7.86500000000000e+00 2.00253234358789e-02 2.49789782826305e-04
7.93309523809524e+00 1.96981590439958e-02 2.46770245755571e-04
8.00119047619048e+00 1.93763397112393e-02 2.43778227792194e-04
8.06928571428571e+00 1.90597781125309e-02 2.40813764738702e-04
8.13738095238095e+00 1.87483883498476e-02 2.37876879839585e-04
8.20547619047619e+00 1.84420859277608e-02 2.34967584196263e-04
8.27357142857143e+00 1.81407877316765e-02 2.32085877156033e-04
8.34166666666667e+00 1.78444120048876e-02 2.29231747056094e-04
8.40976190476191e+00 1.75528783263906e-02 2.26405171581412e-04
8.47785714285714e+00 1.72661075893978e-02 2.23606118439231e-04
8.54595238095238e+00 1.69840219788534e-02 2.20834545689224e-04
8.61404761904762e+00 1.67065449513503e-02 2.18090402052217e-04
8.68214285714286e+00 1.64336012140110e-02 2.15373627540612e-04
8.75023809523810e+00 1.61651167040588e-02 2.12684153742308e-04
8.81833333333333e+00 1.59010185690161e-02 2.10021904392029e-04
8.88642857142857e+00 1.56412351460358e-02 2.07386795633361e-04
8.95452380952381e+00 1.53856959433678e-02 2.04778736262867e-04
9.02261904761905e+00 1.51343316209229e-02 2.02197628265987e-04
9.09071428571429e+00 1.48870739714579e-02 1.99643367041390e-04
9.15880952380952e+00 1.46438559023310e-02 1.97115841886100e-04
9.22690476190476e+00 1.44046114164970e-02 1.94614936202654e-04
9.29500000000000e+00 1.41692755954081e-02 1.92140527691038e-04
9.36309523809524e+00 1.39377845811255e-02 1.89692488805389e-04
9.43119047619048e+00 1.37100755589910e-02 1.87270686977515e-04
9.49928571428572e+00 1.34860867405836e-02 1.84874984839648e-04
9.56738095238095e+00 1.32657573471806e-02 1.82505240624513e-04
9.63547619047619e+00 1.30490275925725e-02 1.80161308319892e-04
9.70357142857143e+00 1.28358386675418e-02 1.77843037810759e-04
9.77166666666667e+00 1.26261327236684e-02 1.75550275257369e-04
9.83976190476191e+00 1.24198528576330e-02 1.73282863225552e-04
9.90785714285714e+00 1.22169430959788e-02 1.71040641027962e-04
9.97595238095238e+00 1.20173483793074e-02 1.68823444843941e-04
1.00440476190476e+01 1.18210145479622e-02 1.66631107671463e-04
1.01121428571429e+01 1.16278883278734e-02 1.64463460360897e-04
1.01802380952381e+01 1.14379173127114e-02 1.62320330574247e-04
1.02483333333333e+01 1.12510499560655e-02 1.60201543790401e-04
1.03164285714286e+01 1.10672355500134e-02 1.58106923324818e-04
1.03845238095238e+01 1.08864242186505e-02 1.56036290025304e-04
1.04526190476190e+01 1.07085668991084e-02 1.53989463977715e-04
1.05207142857143e+01 1.05336153284476e-02 1.51966262402485e-04
1.05888095238095e+01 1.03615220355547e-02 1.49966500920545e-04
1.06569047619048e+01 1.01922403231879e-02 1.47989994756535e-04
1.07250000000000e+01 1.00257242554988e-02 1.46036556752951e-04
1.07930952380952e+01 9.86192865021669e-03 1.44105998870641e-04
1.08611904761905e+01 9.70080906020182e-03 1.42198132036520e-04
1.09292857142857e+01 9.54232176744418e-03 1.40312765863838e-04
1.09973809523810e+01 9.38642376666985e-03 1.38449710087708e-04
1.10654761904762e+01 9.23307275384247e-03 1.36608772750268e-04
1.11335714285714e+01 9.08222711883981e-03 1.34789761262615e-04
1.12016666666667e+01 8.93384592994131e-03 1.32992483414639e-04
1.12697619047619e+01 8.78788892287797e-03 1.31216745661226e-04
1.13378571428571e+01 8.64431649378290e-03 1.29462354386424e-04
1.14059523809524e+01 8.50308968328814e-03 1.27729115757054e-04
1.14740476190476e+01 8.36417017100484e-03 1.26016835467876e-04
1.15421428571429e+01 8.22752026134673e-03 1.24325319952533e-04
1.16102380952381e+01 8.09310287344350e-03 1.22654374817131e-04
1.16783333333333e+01 7.96088153454672e-03 1.21003805980206e-04
1.17464285714286e+01 7.83082036551671e-03 1.19373419530195e-04
1.18145238095238e+01 7.70288407560972e-03 1.17763021484691e-04
1.18826190476190e+01 7.57703794952108e-03 1.16172418883126e-04
1.19507142857143e+01 7.45324783808866e-03 1.14601418355037e-04
1.20188095238095e+01 7.33148015213504e-03 1.13049826923240e-04
1.20869047619048e+01 7.21170185019655e-03 1.11517452768219e-04
1.21550000000000e+01 7.09388042967346e-03 1.10004103875519e-04
1.22230952380952e+01 6.97798392091246e-03 1.08509588999274e-04
1.22911904761905e+01 6.86398087466989e-03 1.07033717529005e-04
1.23592857142857e+01 6.75184035736243e-03 1.05576299272606e-04
1.24273809523810e+01 6.64153193984371e-03 1.04137145380862e-04
1.24954761904762e+01 6.53302568925058e-03 1.02716067110903e-04
1.25635714285714e+01 6.42629216348388e-03 1.01312876503751e-04
1.26316666666667e+01 6.32130240057650e-03 9.99273870293385e-05
1.26997619047619e+01 6.21802791092957e-03 9.85594124179881e-05
1.27678571428571e+01 6.11644067201540e-03 9.72087674761915e-05
1.28359523809524e+01 6.01651311753620e-03 9.58752679634238e-05
1.29040476190476e+01 5.91821813311696e-03 9.45587303973560e-05
1.29721428571429e+01 5.82152904657491e-03 9.32589728373497e-05
1.30402380952381e+01 5.72641962076847e-03 9.19758138159488e-05
1.31083333333333e+01 5.63286404866193e-03 9.07090730763800e-05
1.31764285714286e+01 5.54083694341551e-03 8.94585714550674e-05
1.32445238095238e+01 5.45031333434640e-03 8.82241306991697e-05
1.33126190476190e+01 5.36126865802280e-03 8.70055741752458e-05
1.33807142857143e+01 5.27367875167423e-03 8.58027258921322e-05
1.34488095238095e+01 5.18751984859858e-03 8.46154110172285e-05
1.35169047619048e+01 5.10276856971999e-03 8.34434563682788e-05
1.35850000000000e+01 5.01940191731610e-03 8.22866894896261e-05
1.36530952380952e+01 4.93739727061453e-03 8.11449392780369e-05
1.37211904761905e+01 4.85673237721049e-03 8.00180358754098e-05
1.37892857142857e+01 4.77738534942485e-03 7.89058105058515e-05
1.38573809523810e+01 4.69933465657326e-03 7.78080960775327e-05
1.39254761904762e+01 4.62255911918730e-03 7.67247263377367e-05
1.39935714285714e+01 4.54703790491973e-03 7.56555363100880e-05
1.40616666666667e+01 4.47275052121487e-03 7.46003627111187e-05
1.41297619047619e+01 4.39967680980664e-03 7.35590431512740e-05
1.41978571428571e+01 4.32779694279610e-03 7.25314166666380e-05
1.42659523809524e+01 4.25709141521266e-03 7.15173236214458e-05
1.43340476190476e+01 4.18754104173970e-03 7.05166055629237e-05
1.44021428571429e+01 4.11912694999924e-03 6.95291057330323e-05
1.44702380952381e+01 4.05183057548433e-03 6.85546683374613e-05
1.45383333333333e+01 3.98563365791418e-03 6.75931390272115e-05
1.46064285714286e+01 3.92051823442581e-03 6.66443648065669e-05
1.46745238095238e+01 3.85646663651723e-03 6.57081938977371e-05
1.47426190476190e+01 3.79346148389459e-03 6.47844762045259e-05
1.48107142857143e+01 3.73148567980310e-03 6.38730626434653e-05
1.48788095238095e+01 3.67052240764265e-03 6.29738054787451e-05
1.49469047619048e+01 3.61055512513152e-03 6.20865586414465e-05
1.50150000000000e+01 3.55156755986196e-03 6.12111770968137e-05
1.50830952380952e+01 3.49354370606051e-03 6.03475172541106e-05
1.51511904761905e+01 3.43646781868032e-03 5.94954368835563e-05
1.52192857142857e+01 3.38032441066304e-03 5.86547949960747e-05
1.52873809523810e+01 3.32509824758923e-03 5.78254522381770e-05
1.53554761904762e+01 3.27077434358421e-03 5.70072703128776e-05
1.54235714285714e+01 3.21733795831167e-03 5.62001122641490e-05
1.54916666666667e+01 3.16477459189852e-03 5.54038427480674e-05
1.55597619047619e+01 3.11306998103722e-03 5.46183274848952e-05
1.56278571428571e+01 3.06221009610966e-03 5.38434336082291e-05
1.56959523809524e+01 3.01218113605767e-03 5.30790295902382e-05
1.57640476190476e+01 2.96296952593523e-03 5.23249851349649e-05
1.58321428571429e+01 2.91456191225488e-03 5.15811715149301e-05
1.59002380952381e+01 2.86694515939780e-03 5.08474610695581e-05
1.59683333333333e+01 2.82010634694608e-03 5.01237275218239e-05
1.60364285714286e+01 2.77403276498358e-03 4.94098459081012e-05
1.61045238095238e+01 2.72871191181740e-03 4.87056924789368e-05
1.61726190476190e+01 2.68413148971072e-03 4.80111450044241e-05
1.62407142857143e+01 2.64027940157551e-03 4.73260823150124e-05
1.63088095238095e+01 2.59714374849944e-03 4.66503845202633e-05
1.63769047619048e+01 2.55471282569610e-03 4.59839332174358e-05
1.64450000000000e+01 2.51297511935691e-03 4.53266110568573e-05
1.65130952380952e+01 2.47191930428645e-03 4.46783020120181e-05
1.65811904761905e+01 2.43153423981872e-03 4.40388913166786e-05
1.66492857142857e+01 2.39180896778551e-03 4.34082653769761e-05
1.67173809523810e+01 2.35273270880164e-03 4.27863120320551e-05
1.67854761904762e+01 2.31429485936520e-03 4.21729201560788e-05
1.68535714285714e+01 2.27648498966622e-03 4.15679798444123e-05
1.69216666666667e+01 2.23929284006089e-03 4.09713825911524e-05
1.69897619047619e+01 2.20270831831096e-03 4.03830209123539e-05
1.70578571428571e+01 2.16672149748947e-03 3.98027885765835e-05
1.71259523809524e+01 2.13132261243011e-03 3.92305805486374e-05
1.71940476190476e+01 2.09650205791814e-03 3.86662929117454e-05
1.72621428571429e+01 2.06225038545531e-03 3.81098230901685e-05
1.73302380952381e+01 2.02855830071741e-03 3.75610695041156e-05
1.73983333333333e+01 1.99541666161416e-03 3.70199317790561e-05
1.74664285714286e+01 1.96281647503413e-03 3.64863106930995e-05
1.75345238095238e+01 1.93074889516420e-03 3.59601081047738e-05
1.76026190476190e+01 1.89920522052130e-03 3.54412271551773e-05
1.76707142857143e+01 1.86817689161021e-03 3.49295719518907e-05
1.77388095238095e+01 1.83765548912719e-03 3.44250477125895e-05
1.78069047619048e+01 1.80763273114182e-03 3.39275609020060e-05
1.78750000000000e+01 1.77810047086753e-03 3.34370189326000e-05
1.79430952380952e+01 1.74905069494539e-03 3.29533303434135e-05
1.80111904761905e+01 1.72047552061191e-03 3.24764047530986e-05
1.80792857142857e+01 1.69236719420547e-03 3.20061527960654e-05
1.81473809523810e+01 1.66471808857978e-03 3.15424862953026e-05
1.82154761904762e+01 1.63752070105035e-03 3.10853179881463e-05
1.82835714285714e+01 1.61076765180589e-03 3.06345616487094e-05
1.83516666666667e+01 1.58445168145236e-03 3.01901322046413e-05
1.84197619047619e+01 1.55856564905811e-03 2.97519454773909e-05
1.84878571428571e+01 1.53310253063662e-03 2.93199183351235e-05
1.85559523809524e+01 1.50805541668134e-03 2.88939686508384e-05
1.86240476190476e+01 1.48341751083951e-03 2.84740152459426e-05
1.86921428571429e+01 1.45918212765758e-03 2.80599780380839e-05
1.87602380952381e+01 1.43534269078091e-03 2.76517778031451e-05
1.88283333333333e+01 1.41189273154956e-03 2.72493363141894e-05
1.88964285714286e+01 1.38882588673689e-03 2.68525763024035e-05
1.89645238095238e+01 1.36613589731963e-03 2.64614214047740e-05
1.90326190476190e+01 1.34381660640814e-03 2.60757962984469e-05
1.91007142857143e+01 1.32186195758798e-03 2.56956264826225e-05
1.91688095238095e+01 1.30026599362091e-03 2.53208383732104e-05
1.92369047619048e+01 1.27902285447926e-03 2.49513593931084e-05
1.93050000000000e+01 1.25812677576728e-03 2.45871177655693e-05
1.93730952380952e+01 1.23757208748092e-03 2.42280426330951e-05
1.94411904761905e+01 1.21735321203834e-03 2.38740640226702e-05
1.95092857142857e+01 1.19746466318932e-03 2.35251127995586e-05
1.95773809523810e+01 1.17790104421035e-03 2.31811207823268e-05
1.96454761904762e+01 1.15865704645071e-03 2.28420205534519e-05
1.97135714285714e+01 1.13972744818523e-03 2.25077455401187e-05
1.97816666666667e+01 1.12110711290009e-03 2.21782300912775e-05
1.98497619047619e+01 1.10279098790867e-03 2.18534092981881e-05
1.99178571428571e+01 1.08477410325656e-03 2.15332190962030e-05
1.99859523809524e+01 1.06705157000579e-03 2.12175962338495e-05
2.00540476190476e+01 1.04961857926859e-03 2.09064782320396e-05
2.01221428571429e+01 1.03247040063298e-03 2.05998034825859e-05
2.01902380952381e+01 1.01560238088809e-03 2.02975110836916e-05
2.02583333333333e+01 9.99009943011532e-04 1.99995409324948e-05
2.03264285714286e+01 9.82688584594732e-04 1.97058336962874e-05
2.03945238095238e+01 9.66633876947736e-04 1.94163307747234e-05
2.04626190476190e+01 9.50841463653381e-04 1.91309743894131e-05
2.05307142857143e+01 9.35307059393086e-04 1.88497074331055e-05
2.05988095238095e+01 9.20026449010744e-04 1.85724735322687e-05
2.06669047619048e+01 9.04995486139154e-04 1.82992171067752e-05
2.07350000000000e+01 8.90210092082398e-04 1.80298832269611e-05
2.08030952380952e+01 8.75666254922441e-04 1.77644176929058e-05
2.08711904761905e+01 8.61360028146653e-04 1.75027670088656e-05
2.09392857142857e+01 8.47287529855523e-04 1.72448783499300e-05
2.10073809523810e+01 8.33444941501003e-04 1.69906996388073e-05
2.10754761904762e+01 8.19828506857110e-04 1.67401794147603e-05
2.11435714285714e+01 8.06434531194139e-04 1.64932668870772e-05
2.12116666666667e+01 7.93259380080020e-04 1.62499119860663e-05
2.12797619047619e+01 7.80299478400437e-04 1.60100652388211e-05
2.13478571428571e+01 7.67551309570901e-04 1.57736778371614e-05
2.14159523809524e+01 7.55011414340198e-04 1.55407016149365e-05
2.14840476190476e+01 7.42676390089588e-04 1.53110890186134e-05
