Energy (eV)          EEDF (eV^-(3/2))     First Anisotropy
8.04444444444444e-03 3.70708812272933e-01 2.06303409225093e-04
2.41333333333333e-02 3.67872617516810e-01 3.40507113466709e-04
4.02222222222222e-02 3.65058121733480e-01 4.49088405074602e-04
5.63111111111111e-02 3.62265158910983e-01 5.31323539565511e-04
7.24000000000000e-02 3.59493564306073e-01 5.99698014716295e-04
8.84888888888889e-02 3.56743174439629e-01 6.58937799996579e-04
1.04577777777778e-01 3.54013827075728e-01 7.11491226149566e-04
1.20666666666667e-01 3.51305361228181e-01 7.58838322445393e-04
1.36755555555556e-01 3.48617617131459e-01 8.01961688475875e-04
1.52844444444444e-01 3.45950436249523e-01 8.41556518973912e-04
1.68933333333333e-01 3.43303661258819e-01 8.78137959414109e-04
1.85022222222222e-01 3.40677136039695e-01 9.12101449977500e-04
2.01111111111111e-01 3.38070705666823e-01 9.43759122595338e-04
2.17200000000000e-01 3.35484216400091e-01 9.73362984381340e-04
2.33288888888889e-01 3.32917515686876e-01 1.00112034786155e-03
2.49377777777778e-01 3.30370452118300e-01 1.02720446749688e-03
2.65466666666667e-01 3.27842875455969e-01 1.05176209660794e-03
2.81555555555556e-01 3.25334636610889e-01 1.07491899958162e-03
2.97644444444444e-01 3.22845587634683e-01 1.09678405400027e-03
3.13733333333333e-01 3.20375581710796e-01 1.11745236545448e-03
3.29822222222222e-01 3.17924473145998e-01 1.13700767179193e-03
3.45911111111111e-01 3.15492117361702e-01 1.15552422650276e-03
3.62000000000000e-01 3.13078370885439e-01 1.17306829283479e-03
3.78088888888889e-01 3.10683091348799e-01 1.18969934680983e-03
3.94177777777778e-01 3.08306137459516e-01 1.20547105035213e-03
4.10266666666667e-01 3.05947369012995e-01 1.22043204869470e-03
4.26355555555556e-01 3.03606646877301e-01 1.23462663354360e-03
4.42444444444444e-01 3.01283832984954e-01 1.24809529316524e-03
4.58533333333333e-01 2.98978790324758e-01 1.26087517510456e-03
4.74622222222222e-01 2.96691382933778e-01 1.27300047753605e-03
4.90711111111111e-01 2.94421475889295e-01 1.28450278236958e-03
5.06800000000000e-01 2.92168935300841e-01 1.29541133982858e-03
5.22888888888889e-01 2.89933628306589e-01 1.30575331582451e-03
5.38977777777778e-01 2.87715423052490e-01 1.31555400317447e-03
5.55066666666667e-01 2.85514188697704e-01 1.32483700508863e-03
5.71155555555556e-01 2.83329795402416e-01 1.33362439841736e-03
5.87244444444444e-01 2.81162114320180e-01 1.34193687454501e-03
6.03333333333333e-01 2.79011017590300e-01 1.34979386401787e-03
6.19422222222222e-01 2.76876378330325e-01 1.35721364671302e-03
6.35511111111111e-01 2.74758070628544e-01 1.36421344957247e-03
6.51600000000000e-01 2.72655969536565e-01 1.37080953308186e-03
6.67688888888889e-01 2.70569951065055e-01 1.37701727046158e-03
6.83777777777778e-01 2.68499892166968e-01 1.38285121620453e-03
6.99866666666667e-01 2.66445670739865e-01 1.38832516752465e-03
7.15955555555556e-01 2.64407165615479e-01 1.39345222218454e-03
7.32044444444444e-01 2.62384256552567e-01 1.39824482878457e-03
7.48133333333333e-01 2.60376824229809e-01 1.40271483275479e-03
7.64222222222222e-01 2.58384750238790e-01 1.40687351809035e-03
7.80311111111111e-01 2.56407917077006e-01 1.41073164531058e-03
7.96400000000000e-01 2.54446208140932e-01 1.41429948562511e-03
8.12488888888889e-01 2.52499507721531e-01 1.41758685381259e-03
8.28577777777778e-01 2.50567700990194e-01 1.42060313627076e-03
8.44666666666667e-01 2.48650673999281e-01 1.42335731665609e-03
8.60755555555555e-01 2.46748313672933e-01 1.42585800154861e-03
8.76844444444444e-01 2.44860507800405e-01 1.42811344241883e-03
8.92933333333333e-01 2.42987145029437e-01 1.43013155627918e-03
9.09022222222222e-01 2.41128114859706e-01 1.43191994475284e-03
9.25111111111111e-01 2.39283307636293e-01 1.43348591170942e-03
9.41200000000000e-01 2.37452614543220e-01 1.43483647922916e-03
9.57288888888889e-01 2.35635927598919e-01 1.43597840385174e-03
9.73377777777778e-01 2.33833139644144e-01 1.43691818990370e-03
9.89466666666667e-01 2.32044144341424e-01 1.43766210183489e-03
1.00555555555556e+00 2.30268836166849e-01 1.43821617753082e-03
1.02164444444444e+00 2.28507110403842e-01 1.43858623963729e-03
1.03773333333333e+00 2.26758863135291e-01 1.43877790547130e-03
1.05382222222222e+00 2.25023991240897e-01 1.43879659694462e-03
1.06991111111111e+00 2.23302392389305e-01 1.43864755054993e-03
1.08600000000000e+00 2.21593965032065e-01 1.43833582252078e-03
1.10208888888889e+00 2.19898608412910e-01 1.43786630656665e-03
1.11817777777778e+00 2.18216222515595e-01 1.43724373510136e-03
1.13426666666667e+00 2.16546708104644e-01 1.43647267994464e-03
1.15035555555556e+00 2.14889966703803e-01 1.43555756888772e-03
1.16644444444444e+00 2.13245900590229e-01 1.43450268878501e-03
1.18253333333333e+00 2.11614412788699e-01 1.43331219154717e-03
1.19862222222222e+00 2.09995407065949e-01 1.43199009980887e-03
1.21471111111111e+00 2.08388787924968e-01 1.43054031229400e-03
1.23080000000000e+00 2.06794460599367e-01 1.42896660608392e-03
1.24688888888889e+00 2.05212331060363e-01 1.42727264980115e-03
1.26297777777778e+00 2.03642305973173e-01 1.42546200250591e-03
1.27906666666667e+00 2.02084292729905e-01 1.42353811229283e-03
1.29515555555556e+00 2.00538199431184e-01 1.42150432894536e-03
1.31124444444444e+00 1.99003934880730e-01 1.41936390491808e-03
1.32733333333333e+00 1.97481408579957e-01 1.41711999898981e-03
1.34342222222222e+00 1.95970530722681e-01 1.41477567974539e-03
1.35951111111111e+00 1.94471212189801e-01 1.41233392889676e-03
1.37560000000000e+00 1.92983364544038e-01 1.40979764197098e-03
1.39168888888889e+00 1.91506900035234e-01 1.40716963872438e-03
1.40777777777778e+00 1.90041731563381e-01 1.40445266103030e-03
1.42386666666667e+00 1.88587772705541e-01 1.40164937057584e-03
1.43995555555556e+00 1.87144937699977e-01 1.39876235903959e-03
1.45604444444444e+00 1.85713141441088e-01 1.39579414803270e-03
1.47213333333333e+00 1.84292299474374e-01 1.39274719145847e-03
1.48822222222222e+00 1.82882327991492e-01 1.38962387777572e-03
1.50431111111111e+00 1.81483143825295e-01 1.38642653217136e-03
1.52040000000000e+00 1.80094664444920e-01 1.38315741644531e-03
1.53648888888889e+00 1.78716807959806e-01 1.37981873757431e-03
1.55257777777778e+00 1.77349493088010e-01 1.37641264519919e-03
1.56866666666667e+00 1.75992639178483e-01 1.37294122897964e-03
1.58475555555556e+00 1.74646166197214e-01 1.36940652706471e-03
1.60084444444444e+00 1.73309994722506e-01 1.36581052551045e-03
1.61693333333333e+00 1.71984045940287e-01 1.36215515987652e-03
1.63302222222222e+00 1.70668241639481e-01 1.35844231676588e-03
1.64911111111111e+00 1.69362504207382e-01 1.35467383531017e-03
1.66520000000000e+00 1.68066756625079e-01 1.35085150664204e-03
1.68128888888889e+00 1.66780922470479e-01 1.34697708113076e-03
1.69737777777778e+00 1.65504925890920e-01 1.34305226576364e-03
1.71346666666667e+00 1.64238691621753e-01 1.33907872142877e-03
1.72955555555556e+00 1.62982144974161e-01 1.33505807013000e-03
1.74564444444444e+00 1.61735211830750e-01 1.33099189414819e-03
1.76173333333333e+00 1.60497818641164e-01 1.32688173716294e-03
1.77782222222222e+00 1.59269892417776e-01 1.32272910533964e-03
1.79391111111111e+00 1.58051360731363e-01 1.31853546838234e-03
1.81000000000000e+00 1.56842151706841e-01 1.31430225880013e-03
1.82608888888889e+00 1.55642194025519e-01 1.31003087813585e-03
1.84217777777778e+00 1.54451416901254e-01 1.30572269438725e-03
1.85826666666667e+00 1.53269750096062e-01 1.30137903935150e-03
1.87435555555556e+00 1.52097123909333e-01 1.29700121487089e-03
1.89044444444444e+00 1.50933469173716e-01 1.29259049188068e-03
1.90653333333333e+00 1.49778717251033e-01 1.28814811122237e-03
1.92262222222222e+00 1.48632800028246e-01 1.28367528443471e-03
1.93871111111111e+00 1.47495649913431e-01 1.27917319452289e-03
1.95480000000000e+00 1.46367199831792e-01 1.27464299513200e-03
1.97088888888889e+00 1.45247383227320e-01 1.27008581598097e-03
1.98697777777778e+00 1.44136134041893e-01 1.26550276039552e-03
2.00306666666667e+00 1.43033386728481e-01 1.26089490277806e-03
2.01915555555556e+00 1.41939076241537e-01 1.25626329407810e-03
2.03524444444444e+00 1.40853138033159e-01 1.25160896080576e-03
2.05133333333333e+00 1.39775508049277e-01 1.24693290563692e-03
2.06742222222222e+00 1.38706122725887e-01 1.24223610800314e-03
2.08351111111111e+00 1.37644918985297e-01 1.23751952466798e-03
2.09960000000000e+00 1.36591834232405e-01 1.23278408887182e-03
2.11568888888889e+00 1.35546806355888e-01 1.22803071511856e-03
2.13177777777778e+00 1.34509773709791e-01 1.22326029685297e-03
2.14786666666667e+00 1.33480675124742e-01 1.21847370408513e-03
2.16395555555556e+00 1.32459449899362e-01 1.21367178822344e-03
2.18004444444444e+00 1.31446037796682e-01 1.20885538109733e-03
2.19613333333333e+00 1.30440379040582e-01 1.20402529541730e-03
2.21222222222222e+00 1.29442414312281e-01 1.19918232522498e-03
2.22831111111111e+00 1.28452084746827e-01 1.19432724633367e-03
2.24440000000000e+00 1.27469331929631e-01 1.18946081548045e-03
2.26048888888889e+00 1.26494097897279e-01 1.18458377457407e-03
2.27657777777778e+00 1.25526325121235e-01 1.17969684852899e-03
2.29266666666667e+00 1.24565956517421e-01 1.17480074305393e-03
2.30875555555556e+00 1.23612935438496e-01 1.16989614895001e-03
2.32484444444444e+00 1.22667205670507e-01 1.16498374116683e-03
2.34093333333333e+00 1.21728711429580e-01 1.16006417915883e-03
2.35702222222222e+00 1.20797397358628e-01 1.15513810723461e-03
2.37311111111111e+00 1.19873208524089e-01 1.15020615489966e-03
2.38920000000000e+00 1.18956090412683e-01 1.14526893603655e-03
2.40528888888889e+00 1.18045988931932e-01 1.14032705269567e-03
2.42137777777778e+00 1.17142850395681e-01 1.13538109308733e-03
2.43746666666667e+00 1.16246621532302e-01 1.13043162953394e-03
2.45355555555556e+00 1.15357249477733e-01 1.12547922231180e-03
2.46964444444444e+00 1.14474681772360e-01 1.12052441875384e-03
2.48573333333333e+00 1.13598866357921e-01 1.11556775352973e-03
2.50182222222222e+00 1.12729751574440e-01 1.11060974892123e-03
2.51791111111111e+00 1.11867286157179e-01 1.10565091509310e-03
2.53400000000000e+00 1.11011419233611e-01 1.10069174931170e-03
2.55008888888889e+00 1.10162100323711e-01 1.09573273934350e-03
2.56617777777778e+00 1.09319279327044e-01 1.09077436160014e-03
2.58226666666667e+00 1.08482906529808e-01 1.08581707924850e-03
2.59835555555556e+00 1.07652932598552e-01 1.08086134565882e-03
2.61444444444444e+00 1.06829308577259e-01 1.07590760355976e-03
2.63053333333333e+00 1.06011985884459e-01 1.07095628526170e-03
2.64662222222222e+00 1.05200916310371e-01 1.06600781287674e-03
2.66271111111111e+00 1.04396052014050e-01 1.06106259853522e-03
2.67880000000000e+00 1.03597345520573e-01 1.05612104364865e-03
2.69488888888889e+00 1.02804749721136e-01 1.05118354196740e-03
2.71097777777778e+00 1.02018217861508e-01 1.04625047787095e-03
2.72706666666667e+00 1.01237703548105e-01 1.04132222462719e-03
2.74315555555556e+00 1.00463160742286e-01 1.03639914749764e-03
2.75924444444444e+00 9.96945437576383e-02 1.03148160294705e-03
2.77533333333333e+00 9.89318072572829e-02 1.02656993882340e-03
2.79142222222222e+00 9.81749062512027e-02 1.02166449453530e-03
2.80751111111111e+00 9.74237960935876e-02 1.01676560122741e-03
2.82360000000000e+00 9.66784324802004e-02 1.01187358108958e-03
2.83968888888889e+00 9.59387714483347e-02 1.00698875011570e-03
2.85577777777778e+00 9.52047693664570e-02 1.00211141653031e-03
2.87186666666667e+00 9.44763829394502e-02 9.97241879187526e-04
2.88795555555556e+00 9.37535692034365e-02 9.92380430374906e-04
2.90404444444444e+00 9.30362855232430e-02 9.87527355077300e-04
2.92013333333333e+00 9.23244895898852e-02 9.82682931123505e-04
2.93622222222222e+00 9.16181394180750e-02 9.77847429330781e-04
2.95231111111111e+00 9.09171933437429e-02 9.73021113647949e-04
2.96840000000000e+00 9.02216100215797e-02 9.68204240510834e-04
2.98448888888889e+00 8.95313484248810e-02 9.63397061338022e-04
3.00057777777778e+00 8.88463678362334e-02 9.58599821084045e-04
3.01666666666667e+00 8.81666278520522e-02 9.53812756767245e-04
3.03275555555556e+00 8.74920883778698e-02 9.49036100008102e-04
3.04884444444444e+00 8.68227096259706e-02 9.44270076345623e-04
3.06493333333333e+00 8.61584521130420e-02 9.39514905357409e-04
3.08102222222222e+00 8.54992766578498e-02 9.34770800778644e-04
3.09711111111111e+00 8.48451443789248e-02 9.30037970619764e-04
3.11320000000000e+00 8.41960166922696e-02 9.25316616566910e-04
3.12928888888889e+00 8.35518553111136e-02 9.20606936244427e-04
3.14537777777778e+00 8.29126222375215e-02 9.15909121884845e-04
3.16146666666667e+00 8.22782797663256e-02 9.11223358976333e-04
3.17755555555556e+00 8.16487904808303e-02 9.06549828564833e-04
3.19364444444444e+00 8.10241172506052e-02 9.01888706620406e-04
3.20973333333333e+00 8.04042232292932e-02 8.97240164136594e-04
3.22582222222222e+00 7.97890718524404e-02 8.92604367228844e-04
3.24191111111111e+00 7.91786268353379e-02 8.87981477232093e-04
3.25800000000000e+00 7.85728521708812e-02 8.83371650144175e-04
3.27408888888889e+00 7.79717121292581e-02 8.78775038680513e-04
3.29017777777778e+00 7.73751712503713e-02 8.74191791051960e-04
3.30626666666667e+00 7.67831943472521e-02 8.69622049722150e-04
3.32235555555556e+00 7.61957465021380e-02 8.65065953498940e-04
3.33844444444444e+00 7.56127930644128e-02 8.60523636948069e-04
3.35453333333333e+00 7.50342996485615e-02 8.55995230475894e-04
3.37062222222222e+00 7.44602321321451e-02 8.51480860411208e-04
3.38671111111111e+00 7.38905566537860e-02 8.46980649086592e-04
3.40280000000000e+00 7.33252396111710e-02 8.42494714322643e-04
3.41888888888889e+00 7.27642476606879e-02 8.38023171296843e-04
3.43497777777778e+00 7.22075477105714e-02 8.33566131420533e-04
3.45106666666667e+00 7.16551069238699e-02 8.29123701197096e-04
3.46715555555556e+00 7.11068927148588e-02 8.24695984124993e-04
3.48324444444444e+00 7.05628727471179e-02 8.20283080155787e-04
3.49933333333333e+00 7.00230149316233e-02 8.15885085763255e-04
3.51542222222222e+00 6.94872874248567e-02 8.11502094011885e-04
3.53151111111111e+00 6.89556586269262e-02 8.07134194624815e-04
3.54760000000000e+00 6.84280971797019e-02 8.02781473506594e-04
3.56368888888889e+00 6.79045719664160e-02 7.98444014445421e-04
3.57977777777778e+00 6.73850521054519e-02 7.94121898080945e-04
3.59586666666667e+00 6.68695069529255e-02 7.89815200855128e-04
3.61195555555556e+00 6.63579060994012e-02 7.85523996745988e-04
3.62804444444444e+00 6.58502193680979e-02 7.81248356767100e-04
3.64413333333333e+00 6.53464168131076e-02 7.76988349025478e-04
3.66022222222222e+00 6.48464687176317e-02 7.72744038779081e-04
3.67631111111111e+00 6.43503455922269e-02 7.68515488494122e-04
3.69240000000000e+00 6.38580181730657e-02 7.64302757403539e-04
3.70848888888889e+00 6.33694574215096e-02 7.60105903059324e-04
3.72457777777778e+00 6.28846345184736e-02 7.55924980383711e-04
3.74066666666667e+00 6.24035208666741e-02 7.51760040704996e-04
3.75675555555556e+00 6.19260880876174e-02 7.47611133339053e-04
3.77284444444444e+00 6.14523080199263e-02 7.43478305127057e-04
3.78893333333333e+00 6.09821527176779e-02 7.39361600484343e-04
3.80502222222222e+00 6.05155944487567e-02 7.35261061448869e-04
3.82111111111111e+00 6.00526056932185e-02 7.31176727729543e-04
3.83720000000000e+00 5.95931591416667e-02 7.27108636298057e-04
3.85328888888889e+00 5.91372276948085e-02 7.23056822806067e-04
3.86937777777778e+00 5.86847844583337e-02 7.19021320712929e-04
3.88546666666667e+00 5.82358027448733e-02 7.15002160399238e-04
3.90155555555556e+00 5.77902560712363e-02 7.10999370610968e-04
3.91764444444444e+00 5.73481181568475e-02 7.07012978032799e-04
3.93373333333333e+00 5.69093629221966e-02 7.03043007329296e-04
3.94982222222222e+00 5.64739644873013e-02 6.99089481185978e-04
3.96591111111111e+00 5.60418971701802e-02 6.95152420350170e-04
3.98200000000000e+00 5.56131354853381e-02 6.91231843253810e-04
3.99808888888889e+00 5.51876541433116e-02 6.87327767308590e-04
4.01417777777778e+00 5.47654280460099e-02 6.83440208103683e-04
4.03026666666667e+00 5.43464322884223e-02 6.79569178590641e-04
4.04635555555556e+00 5.39306421560794e-02 6.75714690403326e-04
4.06244444444444e+00 5.35180331235957e-02 6.71876753464067e-04
4.07853333333333e+00 5.31085808532222e-02 6.68055376018543e-04
4.09462222222222e+00 5.27022611934123e-02 6.64250564670619e-04
4.11071111111111e+00 5.22990501773962e-02 6.60462324417061e-04
4.12680000000000e+00 5.18989240217677e-02 6.56690658298922e-04
4.14288888888889e+00 5.15018591260259e-02 6.52935568586125e-04
4.15897777777778e+00 5.11078320683309e-02 6.49197056039578e-04
4.17506666666667e+00 5.07168196069922e-02 6.45475119161313e-04
4.19115555555556e+00 5.03287986781355e-02 6.41769755401897e-04
4.20724444444444e+00 4.99437463943419e-02 6.38080960797098e-04
4.22333333333333e+00 4.95616400432974e-02 6.34408729997387e-04
4.23942222222222e+00 4.91824570864546e-02 6.30753056297449e-04
4.25551111111111e+00 4.88061751577025e-02 6.27113931665782e-04
4.27160000000000e+00 4.84327720620470e-02 6.23491346422646e-04
4.28768888888889e+00 4.80622257751544e-02 6.19885290324443e-04
4.30377777777778e+00 4.76945144394797e-02 6.16295751884653e-04
4.31986666666667e+00 4.73296163655655e-02 6.12722717683821e-04
4.33595555555556e+00 4.69675100298948e-02 6.09166173475058e-04
4.35204444444444e+00 4.66081740736212e-02 6.05626103848599e-04
4.36813333333333e+00 4.62515873013084e-02 6.02102492256962e-04
4.38422222222222e+00 4.58977286796817e-02 5.98595321040025e-04
4.40031111111111e+00 4.55465773363860e-02 5.95104571450145e-04
4.41640000000000e+00 4.51981125587551e-02 5.91630223354731e-04
4.43248888888889e+00 4.48523137933592e-02 5.88172256229575e-04
4.44857777777778e+00 4.45091606424706e-02 5.84730648533808e-04
4.46466666666667e+00 4.41686328651966e-02 5.81305377074742e-04
4.48075555555556e+00 4.38307103755022e-02 5.77896418020730e-04
4.49684444444444e+00 4.34953732410254e-02 5.74503746591560e-04
4.51293333333333e+00 4.31626016819008e-02 5.71127337079862e-04
4.52902222222222e+00 4.28323760695941e-02 5.67767162872457e-04
4.54511111111111e+00 4.25046769257433e-02 5.64423196471677e-04
4.56120000000000e+00 4.21794849210107e-02 5.61095409220653e-04
4.57728888888889e+00 4.18567808746367e-02 5.57783772213890e-04
4.59337777777778e+00 4.15365457512115e-02 5.54488255721754e-04
4.60946666666667e+00 4.12187606616625e-02 5.51208828605685e-04
4.62555555555556e+00 4.09034068614322e-02 5.47945459246683e-04
4.64164444444444e+00 4.05904657493730e-02 5.44698115259599e-04
4.65773333333333e+00 4.02799188666492e-02 5.41466763511336e-04
4.67382222222222e+00 3.99717478956489e-02 5.38251370138967e-04
4.68991111111111e+00 3.96659346589037e-02 5.35051900567943e-04
4.70600000000000e+00 3.93624611180160e-02 5.31868319258318e-04
4.72208888888889e+00 3.90613093732239e-02 5.28700590539967e-04
4.73817777777778e+00 3.87624616604478e-02 5.25548678082471e-04
4.75426666666667e+00 3.84659003521516e-02 5.22412544356550e-04
4.77035555555556e+00 3.81716079556629e-02 5.19292151485832e-04
4.78644444444444e+00 3.78795671121410e-02 5.16187460983016e-04
4.80253333333333e+00 3.75897605955527e-02 5.13098433765404e-04
4.81862222222222e+00 3.73021713116571e-02 5.10025030170289e-04
4.83471111111111e+00 3.70167822969966e-02 5.06967209970478e-04
4.85080000000000e+00 3.67335767178964e-02 5.03924932139897e-04
4.86688888888889e+00 3.64525378700412e-02 5.00898155620046e-04
4.88297777777778e+00 3.61736491757713e-02 4.97886838831577e-04
4.89906666666667e+00 3.58968941848337e-02 4.94890939178167e-04
4.91515555555556e+00 3.56222565728315e-02 4.91910413828370e-04
4.93124444444444e+00 3.53497201402619e-02 4.88945219471900e-04
4.94733333333333e+00 3.50792688115596e-02 4.85995312332869e-04
4.96342222222222e+00 3.48108866341494e-02 4.83060648182932e-04
4.97951111111111e+00 3.45445577775051e-02 4.80141182354443e-04
4.99560000000000e+00 3.42802665322158e-02 4.77236869523885e-04
5.01168888888889e+00 3.40179973095746e-02 4.74347664415715e-04
5.02777777777778e+00 3.37577346391029e-02 4.71473521352179e-04
5.04386666666667e+00 3.34994631692038e-02 4.68614393796141e-04
5.05995555555556e+00 3.32431676657313e-02 4.65770235069057e-04
5.07604444444444e+00 3.29888330110917e-02 4.62940998125929e-04
