Energy (eV)          EEDF (eV^-(3/2))     First Anisotropy
1.53947368421053e-02 1.80964706910662e-01 1.09904428999721e-04
4.61842105263158e-02 1.79322425432440e-01 1.81269347842678e-04
7.69736842105263e-02 1.77695047901364e-01 2.38729557689354e-04
1.07763157894737e-01 1.76082439062274e-01 2.82039266508803e-04
1.38552631578947e-01 1.74484464883790e-01 3.17877141002936e-04
1.69342105263158e-01 1.72900992565185e-01 3.48776549318545e-04
2.00131578947368e-01 1.71331890489096e-01 3.76052579843721e-04
2.30921052631579e-01 1.69777028243920e-01 4.00501776406971e-04
2.61710526315789e-01 1.68236276607919e-01 4.22653997232112e-04
2.92500000000000e-01 1.66709507518981e-01 4.42884841165897e-04
3.23289473684211e-01 1.65196594083687e-01 4.61473159276061e-04
3.54078947368421e-01 1.63697410560158e-01 4.78633408732823e-04
3.84868421052632e-01 1.62211832351821e-01 4.94535182114072e-04
4.15657894736842e-01 1.60739735984226e-01 5.09315655744367e-04
4.46447368421053e-01 1.59280999107784e-01 5.23087878536899e-04
4.77236842105263e-01 1.57835500486482e-01 5.35946495054611e-04
5.08026315789474e-01 1.56403119978002e-01 5.47971812712652e-04
5.38815789473684e-01 1.54983738533588e-01 5.59232767915787e-04
5.69605263157895e-01 1.53577238187479e-01 5.69789139360955e-04
6.00394736842105e-01 1.52183502039251e-01 5.79693227440293e-04
6.31184210526316e-01 1.50802414251952e-01 5.88991151386291e-04
6.61973684210526e-01 1.49433860042035e-01 5.97723868252887e-04
6.92763157894737e-01 1.48077725663317e-01 6.05927980499755e-04
7.23552631578947e-01 1.46733898404027e-01 6.13636385034055e-04
7.54342105263158e-01 1.45402266577083e-01 6.20878802402360e-04
7.85131578947368e-01 1.44082719505342e-01 6.27682209221290e-04
8.15921052631579e-01 1.42775147517894e-01 6.34071196009131e-04
8.46710526315789e-01 1.41479441940661e-01 6.40068267474508e-04
8.77500000000000e-01 1.40195495082673e-01 6.45694093376287e-04
9.08289473684211e-01 1.38923200231842e-01 6.50967720978922e-04
9.39078947368421e-01 1.37662451644509e-01 6.55906756773010e-04
9.69868421052632e-01 1.36413144537971e-01 6.60527522177662e-04
1.00065789473684e+00 1.35175175077778e-01 6.64845186769438e-04
1.03144736842105e+00 1.33948440375489e-01 6.68873885788348e-04
1.06223684210526e+00 1.32732838464639e-01 6.72626817457594e-04
1.09302631578947e+00 1.31528268325268e-01 6.76116333619331e-04
1.12381578947368e+00 1.30334629841978e-01 6.79354021504706e-04
1.15460526315789e+00 1.29151823797846e-01 6.82350763020175e-04
1.18539473684211e+00 1.27979751897340e-01 6.85116799876150e-04
1.21618421052632e+00 1.26818316726115e-01 6.87661791492842e-04
1.24697368421053e+00 1.25667421744898e-01 6.89994854140486e-04
1.27776315789474e+00 1.24526971309234e-01 6.92124608028207e-04
1.30855263157895e+00 1.23396870633023e-01 6.94059219573871e-04
1.33934210526316e+00 1.22277025782212e-01 6.95806427782902e-04
1.37013157894737e+00 1.21167343692048e-01 6.97373580554187e-04
1.40092105263158e+00 1.20067732125924e-01 6.98767661583649e-04
1.43171052631579e+00 1.18978099700329e-01 6.99995314379866e-04
1.46250000000000e+00 1.17898355852834e-01 7.01062870328459e-04
1.49328947368421e+00 1.16828410835846e-01 7.01976362387055e-04
1.52407894736842e+00 1.15768175730770e-01 7.02741547957023e-04
1.55486842105263e+00 1.14717562418501e-01 7.03363929820632e-04
1.58565789473684e+00 1.13676483573215e-01 7.03848765336259e-04
1.61644736842105e+00 1.12644852674799e-01 7.04201085684036e-04
1.64723684210526e+00 1.11622583975384e-01 7.04425708433210e-04
1.67802631578947e+00 1.10609592517925e-01 7.04527248821849e-04
1.70881578947368e+00 1.09605794109910e-01 7.04510135559169e-04
1.73960526315789e+00 1.08611105317246e-01 7.04378615178744e-04
1.77039473684211e+00 1.07625443474603e-01 7.04136765063838e-04
1.80118421052632e+00 1.06648726660911e-01 7.03788505533010e-04
1.83197368421053e+00 1.05680873693376e-01 7.03337602392241e-04
1.86276315789474e+00 1.04721804136588e-01 7.02787677811470e-04
1.89355263157895e+00 1.03771438279665e-01 7.02142220455376e-04
1.92434210526316e+00 1.02829697130320e-01 7.01404586729493e-04
1.95513157894737e+00 1.01896502422941e-01 7.00578010843180e-04
1.98592105263158e+00 1.00971776592574e-01 6.99665609978114e-04
2.01671052631579e+00 1.00055442787603e-01 6.98670388892748e-04
2.04750000000000e+00 9.91474248490439e-02 6.97595248671838e-04
2.07828947368421e+00 9.82476473048041e-02 6.96442986463027e-04
2.10907894736842e+00 9.73560353764365e-02 6.95216302688839e-04
2.13986842105263e+00 9.64725149596664e-02 6.93917807821099e-04
2.17065789473684e+00 9.55970126187722e-02 6.92550021555053e-04
2.20144736842105e+00 9.47294555925613e-02 6.91115379865897e-04
2.23223684210526e+00 9.38697717722151e-02 6.89616237919515e-04
2.26302631578947e+00 9.30178897111080e-02 6.88054872621003e-04
2.29381578947368e+00 9.21737386070372e-02 6.86433488928110e-04
2.32460526315789e+00 9.13372482967874e-02 6.84754218353346e-04
2.35539473684211e+00 9.05083492611388e-02 6.83019124129137e-04
2.38618421052632e+00 8.96869726080685e-02 6.81230206089980e-04
2.41697368421053e+00 8.88730500674554e-02 6.79389398939851e-04
2.44776315789474e+00 8.80665139954959e-02 6.77498576874331e-04
2.47855263157895e+00 8.72672973588262e-02 6.75559557957319e-04
2.50934210526316e+00 8.64753337293218e-02 6.73574102223445e-04
2.54013157894737e+00 8.56905572880147e-02 6.71543916472714e-04
2.57092105263158e+00 8.49129028070509e-02 6.69470655675764e-04
2.60171052631579e+00 8.41423056566257e-02 6.67355924149714e-04
2.63250000000000e+00 8.33787017903585e-02 6.65201279965335e-04
2.66328947368421e+00 8.26220277403013e-02 6.63008232847608e-04
2.69407894736842e+00 8.18722206201921e-02 6.60778247740303e-04
2.72486842105263e+00 8.11292181115694e-02 6.58512748195407e-04
2.75565789473684e+00 8.03929584588965e-02 6.56213114226279e-04
2.78644736842105e+00 7.96633804724237e-02 6.53880686132129e-04
2.81723684210526e+00 7.89404235124467e-02 6.51516765338660e-04
2.84802631578947e+00 7.82240274947478e-02 6.49122615060995e-04
2.87881578947368e+00 7.75141328777579e-02 6.46699463866674e-04
2.90960526315789e+00 7.68106806578683e-02 6.44248503472485e-04
2.94039473684211e+00 7.61136123717956e-02 6.41770891598155e-04
2.97118421052632e+00 7.54228700843485e-02 6.39267754688668e-04
3.00197368421053e+00 7.47383963838656e-02 6.36740185721169e-04
3.03276315789474e+00 7.40601343842700e-02 6.34189246846168e-04
3.06355263157895e+00 7.33880277134171e-02 6.31615971909384e-04
3.09434210526316e+00 7.27220205086323e-02 6.29021364281054e-04
3.12513157894737e+00 7.20620574185010e-02 6.26406399787521e-04
3.15592105263158e+00 7.14080835897003e-02 6.23772027123331e-04
3.18671052631579e+00 7.07600446708741e-02 6.21119168129362e-04
3.21750000000000e+00 7.01178868017992e-02 6.18448720559623e-04
3.24828947368421e+00 6.94815566091117e-02 6.15761555943604e-04
3.27907894736842e+00 6.88510012077443e-02 6.13058521778594e-04
3.30986842105263e+00 6.82261681905773e-02 6.10340443628248e-04
3.34065789473684e+00 6.76070056242709e-02 6.07608123028531e-04
3.37144736842105e+00 6.69934620504913e-02 6.04862339970174e-04
3.40223684210526e+00 6.63854864742483e-02 6.02103853131429e-04
3.43302631578947e+00 6.57830283669310e-02 5.99333399997686e-04
3.46381578947368e+00 6.51860376566634e-02 5.96551699220242e-04
3.49460526315789e+00 6.45944647243071e-02 5.93759448583783e-04
3.52539473684211e+00 6.40082604044194e-02 5.90957326860532e-04
3.55618421052632e+00 6.34273759760182e-02 5.88145995588462e-04
3.58697368421053e+00 6.28517631586937e-02 5.85326097091748e-04
3.61776315789474e+00 6.22813741133959e-02 5.82498256226202e-04
3.64855263157895e+00 6.17161614335955e-02 5.79663082053986e-04
3.67934210526316e+00 6.11560781414872e-02 5.76821165918297e-04
3.71013157894737e+00 6.06010776886327e-02 5.73973083459468e-04
3.74092105263158e+00 6.00511139460356e-02 5.71119394702810e-04
3.77171052631579e+00 5.95061412062755e-02 5.68260644054725e-04
3.80250000000000e+00 5.89661141752398e-02 5.65397362231176e-04
3.83328947368421e+00 5.84309879684902e-02 5.62530064408321e-04
3.86407894736842e+00 5.79007181117149e-02 5.59659251726660e-04
3.89486842105263e+00 5.73752605327973e-02 5.56785412736495e-04
3.92565789473684e+00 5.68545715582767e-02 5.53909021604178e-04
3.95644736842105e+00 5.63386079136833e-02 5.51030539871129e-04
3.98723684210526e+00 5.58273267146587e-02 5.48150416477565e-04
4.01802631578947e+00 5.53206854685992e-02 5.45269087706004e-04
4.04881578947368e+00 5.48186420672262e-02 5.42386978870004e-04
4.07960526315789e+00 5.43211547831953e-02 5.39504502598867e-04
4.11039473684210e+00 5.38281822702856e-02 5.36622060146871e-04
4.14118421052632e+00 5.33396835562620e-02 5.33740042653174e-04
4.17197368421053e+00 5.28556180395765e-02 5.30858829480982e-04
4.20276315789474e+00 5.23759454894636e-02 5.27978789461299e-04
4.23355263157895e+00 5.19006260390850e-02 5.25100282090270e-04
4.26434210526316e+00 5.14296201823128e-02 5.22223655921690e-04
4.29513157894737e+00 5.09628887737445e-02 5.19349250039434e-04
4.32592105263158e+00 5.05003930210571e-02 5.16477394029337e-04
4.35671052631579e+00 5.00420944861147e-02 5.13608407883499e-04
4.38750000000000e+00 4.95879550785297e-02 5.10742603419405e-04
4.41828947368421e+00 4.91379370525858e-02 5.07880282748169e-04
4.44907894736842e+00 4.86920030071505e-02 5.05021739368557e-04
4.47986842105263e+00 4.82501158794818e-02 5.02167259221342e-04
4.51065789473684e+00 4.78122389422318e-02 4.99317119208073e-04
4.54144736842105e+00 4.73783358032948e-02 4.96471588496837e-04
4.57223684210526e+00 4.69483703989187e-02 4.93630928471037e-04
4.60302631578947e+00 4.65223069945191e-02 4.90795392617964e-04
4.63381578947368e+00 4.61001101788562e-02 4.87965227790016e-04
4.66460526315789e+00 4.56817448611662e-02 4.85140672795570e-04
4.69539473684210e+00 4.52671762709330e-02 4.82321959366915e-04
4.72618421052632e+00 4.48563699522803e-02 4.79509313094049e-04
4.75697368421053e+00 4.44492917611811e-02 4.76702952062689e-04
4.78776315789474e+00 4.40459078651783e-02 4.73903087778765e-04
4.81855263157895e+00 4.36461847379861e-02 4.71109926060484e-04
4.84934210526316e+00 4.32500891567700e-02 4.68323665722037e-04
4.88013157894737e+00 4.28575882018252e-02 4.65544499685940e-04
4.91092105263158e+00 4.24686492505923e-02 4.62772614914588e-04
4.94171052631579e+00 4.20832399781510e-02 4.60008192290118e-04
4.97250000000000e+00 4.17013283521332e-02 4.57251407691469e-04
5.00328947368421e+00 4.13228826301233e-02 4.54502430743768e-04
5.03407894736842e+00 4.09478713592833e-02 4.51761425641493e-04
5.06486842105263e+00 4.05762633714505e-02 4.49028551943456e-04
5.09565789473684e+00 4.02080277806062e-02 4.46303963364439e-04
5.12644736842105e+00 3.98431339824674e-02 4.43587808771363e-04
5.15723684210526e+00 3.94815516490674e-02 4.40880232107765e-04
5.18802631578947e+00 3.91232507290736e-02 4.38181372271853e-04
5.21881578947368e+00 3.87682014431648e-02 4.35491364082427e-04
5.24960526315789e+00 3.84163742816096e-02 4.32810337131511e-04
5.28039473684210e+00 3.80677400038209e-02 4.30138416519960e-04
5.31118421052632e+00 3.77222696338971e-02 4.27475723568581e-04
5.34197368421053e+00 3.73799344582659e-02 4.24822374709561e-04
5.37276315789474e+00 3.70407060252129e-02 4.22178482191475e-04
5.40355263157895e+00 3.67045561405816e-02 4.19544154760866e-04
5.43434210526316e+00 3.63714568654777e-02 4.16919496591245e-04
5.46513157894737e+00 3.60413805157773e-02 4.14304608140992e-04
5.49592105263158e+00 3.57142996573888e-02 4.11699586074576e-04
5.52671052631579e+00 3.53901871063790e-02 4.09104523143471e-04
5.55750000000000e+00 3.50690159249115e-02 4.06519509019351e-04
5.58828947368421e+00 3.47507594190531e-02 4.03944629277699e-04
5.61907894736842e+00 3.44353911382586e-02 4.01379966030451e-04
5.64986842105263e+00 3.41228848714509e-02 3.98825598538004e-04
5.68065789473684e+00 3.38132146448855e-02 3.96281602227160e-04
5.71144736842105e+00 3.35063547216193e-02 3.93748049464291e-04
5.74223684210526e+00 3.32022795972035e-02 3.91225009476158e-04
5.77302631578947e+00 3.29009639997045e-02 3.88712548234308e-04
5.80381578947368e+00 3.26023828860009e-02 3.86210729206639e-04
5.83460526315789e+00 3.23065114397403e-02 3.83719612425576e-04
5.86539473684210e+00 3.20133250707951e-02 3.81239255057287e-04
5.89618421052632e+00 3.17227994116849e-02 3.78769711952530e-04
5.92697368421053e+00 3.14349103155891e-02 3.76311034746257e-04
5.95776315789474e+00 3.11496338557915e-02 3.73863272404338e-04
5.98855263157895e+00 3.08669463222254e-02 3.71426471752801e-04
6.01934210526316e+00 3.05868242195378e-02 3.69000676607868e-04
6.05013157894737e+00 3.03092442665262e-02 3.66585928446739e-04
6.08092105263158e+00 3.00341833923533e-02 3.64182266330678e-04
6.11171052631579e+00 2.97616187364567e-02 3.61789726796346e-04
6.14250000000000e+00 2.94915276452807e-02 3.59408344508727e-04
6.17328947368421e+00 2.92238876704264e-02 3.57038151435659e-04
6.20407894736842e+00 2.89586765680819e-02 3.54679177341042e-04
6.23486842105263e+00 2.86958722958646e-02 3.52331450262577e-04
6.26565789473684e+00 2.84354530110204e-02 3.49994995714031e-04
6.29644736842105e+00 2.81773970698488e-02 3.47669837292492e-04
6.32723684210526e+00 2.79216830242518e-02 3.45355996603750e-04
6.35802631578947e+00 2.76682896215832e-02 3.43053493158750e-04
6.38881578947368e+00 2.74171958016605e-02 3.40762344965061e-04
6.41960526315789e+00 2.71683806950425e-02 3.38482567770054e-04
6.45039473684210e+00 2.69218236224548e-02 3.36214175506596e-04
6.48118421052632e+00 2.66775040918999e-02 3.33957180725019e-04
6.51197368421053e+00 2.64354017969816e-02 3.31711593861642e-04
6.54276315789474e+00 2.61954966163281e-02 3.29477423667596e-04
6.57355263157895e+00 2.59577686107982e-02 3.27254677624517e-04
6.60434210526316e+00 2.57221980218498e-02 3.25043361237481e-04
6.63513157894737e+00 2.54887652709624e-02 3.22843478564653e-04
6.66592105263158e+00 2.52574509565921e-02 3.20655032147078e-04
6.69671052631579e+00 2.50282358539597e-02 3.18478022913152e-04
6.72750000000000e+00 2.48011009124041e-02 3.16312450694978e-04
6.75828947368421e+00 2.45760272538232e-02 3.14158313557462e-04
6.78907894736842e+00 2.43529961721004e-02 3.12015608186728e-04
6.81986842105263e+00 2.41319891305446e-02 3.09884330266689e-04
6.85065789473684e+00 2.39129877603729e-02 3.07764473830514e-04
6.88144736842105e+00 2.36959738601384e-02 3.05656031741590e-04
6.91223684210526e+00 2.34809293929460e-02 3.03558995626547e-04
6.94302631578947e+00 2.32678364862094e-02 3.01473355785207e-04
6.97381578947368e+00 2.30566774292252e-02 2.99399101659735e-04
7.00460526315789e+00 2.28474346717224e-02 2.97336221219227e-04
7.03539473684210e+00 2.26400908232970e-02 2.95284701311864e-04
7.06618421052632e+00 2.24346286510647e-02 2.93244528006625e-04
7.09697368421053e+00 2.22310310782493e-02 2.91215685998213e-04
7.12776315789474e+00 2.20292811836205e-02 2.89198158946312e-04
7.15855263157895e+00 2.18293621992223e-02 2.87191929804794e-04
7.18934210526316e+00 2.16312575089987e-02 2.85196980246360e-04
7.22013157894737e+00 2.14349506482351e-02 2.83213291083759e-04
7.25092105263158e+00 2.12404253010950e-02 2.81240842207736e-04
7.28171052631579e+00 2.10476653003458e-02 2.79279612504753e-04
7.31250000000000e+00 2.08566546252048e-02 2.77329580268134e-04
7.34328947368421e+00 2.06673774000261e-02 2.75390722652006e-04
7.37407894736842e+00 2.04798178937510e-02 2.73463015979469e-04
7.40486842105263e+00 2.02939605178235e-02 2.71546436041634e-04
7.43565789473684e+00 2.01097898249120e-02 2.69640957569595e-04
7.46644736842105e+00 1.99272905083645e-02 2.67746554617869e-04
7.49723684210526e+00 1.97464473999518e-02 2.65863200505731e-04
7.52802631578947e+00 1.95672454695806e-02 2.63990867740120e-04
7.55881578947368e+00 1.93896698233144e-02 2.62129528390082e-04
7.58960526315789e+00 1.92137057021530e-02 2.60279153585514e-04
7.62039473684211e+00 1.90393384814983e-02 2.58439713797335e-04
7.65118421052632e+00 1.88665536692394e-02 2.56611179109506e-04
7.68197368421053e+00 1.86953369045635e-02 2.54793518734225e-04
7.71276315789474e+00 1.85256739574285e-02 2.52986701282042e-04
7.74355263157895e+00 1.83575507267079e-02 2.51190695024211e-04
7.77434210526316e+00 1.81909532390337e-02 2.49405467423743e-04
7.80513157894737e+00 1.80258676482749e-02 2.47630985472239e-04
7.83592105263158e+00 1.78622802335346e-02 2.45867215636125e-04
7.86671052631579e+00 1.77001773988517e-02 2.44114123786533e-04
7.89750000000000e+00 1.75395456714401e-02 2.42371675528411e-04
7.92828947368421e+00 1.73803717005834e-02 2.40639835755364e-04
7.95907894736842e+00 1.72226422571248e-02 2.38918568895557e-04
7.98986842105263e+00 1.70663442317623e-02 2.37207839150546e-04
8.02065789473684e+00 1.69114646339723e-02 2.35507610064652e-04
8.05144736842105e+00 1.67579905915067e-02 2.33817844832165e-04
8.08223684210526e+00 1.66059093485547e-02 2.32138506246790e-04
8.11302631578947e+00 1.64552082654420e-02 2.30469556636139e-04
8.14381578947368e+00 1.63058748170118e-02 2.28810958162047e-04
8.17460526315790e+00 1.61578965915965e-02 2.27162672411686e-04
8.20539473684211e+00 1.60112612905267e-02 2.25524660621576e-04
8.23618421052632e+00 1.58659567265633e-02 2.23896883895225e-04
8.26697368421053e+00 1.57219708228965e-02 2.22279302807522e-04
8.29776315789474e+00 1.55792916126621e-02 2.20671877620917e-04
8.32855263157895e+00 1.54379072374222e-02 2.19074568495440e-04
8.35934210526316e+00 1.52978059461904e-02 2.17487335105938e-04
8.39013157894737e+00 1.51589760949561e-02 2.15910136912618e-04
8.42092105263158e+00 1.50214061450498e-02 2.14342933114905e-04
8.45171052631579e+00 1.48850846628432e-02 2.12785682592111e-04
8.48250000000000e+00 1.47500003183055e-02 2.11238344168022e-04
8.51328947368421e+00 1.46161418840724e-02 2.09700876247380e-04
8.54407894736842e+00 1.44834982349829e-02 2.08173237012997e-04
8.57486842105263e+00 1.43520583466805e-02 2.06655384617353e-04
8.60565789473684e+00 1.42218112947070e-02 2.05147276830833e-04
8.63644736842105e+00 1.40927462540465e-02 2.03648871288861e-04
8.66723684210526e+00 1.39648524976242e-02 2.02160125448668e-04
8.69802631578947e+00 1.38381193960090e-02 2.00680996534016e-04
8.72881578947368e+00 1.37125364160854e-02 1.99211441776950e-04
8.75960526315789e+00 1.35880931201870e-02 1.97751418083705e-04
8.79039473684210e+00 1.34647791656541e-02 1.96300882214561e-04
8.82118421052632e+00 1.33425843035452e-02 1.94859790958728e-04
8.85197368421053e+00 1.32214983777945e-02 1.93428100810971e-04
8.88276315789474e+00 1.31015113247765e-02 1.92005768145286e-04
8.91355263157895e+00 1.29826131720572e-02 1.90592749383792e-04
8.94434210526316e+00 1.28647940375740e-02 1.89189000683727e-04
8.97513157894737e+00 1.27480441292075e-02 1.87794478155528e-04
9.00592105263158e+00 1.26323537434443e-02 1.86409137823559e-04
9.03671052631579e+00 1.25177132650876e-02 1.85032935576108e-04
9.06750000000000e+00 1.24041131660713e-02 1.83665827378784e-04
9.09828947368421e+00 1.22915440046755e-02 1.82307768977239e-04
9.12907894736842e+00 1.21799964251116e-02 1.80958716055763e-04
9.15986842105263e+00 1.20694611563722e-02 1.79618624391521e-04
9.19065789473684e+00 1.19599290114680e-02 1.78287449566766e-04
9.22144736842105e+00 1.18513908870202e-02 1.76965147168313e-04
9.25223684210526e+00 1.17438377620299e-02 1.75651672750818e-04
9.28302631578947e+00 1.16372606975969e-02 1.74346981790226e-04
9.31381578947368e+00 1.15316508358262e-02 1.73051029879035e-04
9.34460526315790e+00 1.14269993990987e-02 1.71763772452888e-04
9.37539473684211e+00 1.13232976896768e-02 1.70485164935484e-04
9.40618421052632e+00 1.12205370886434e-02 1.69215162879538e-04
9.43697368421053e+00 1.11187090551933e-02 1.67953721702083e-04
9.46776315789474e+00 1.10178051262447e-02 1.66700796824478e-04
9.49855263157895e+00 1.09178169154116e-02 1.65456343808584e-04
9.52934210526316e+00 1.08187361123130e-02 1.64220318100497e-04
9.56013157894737e+00 1.07205544821926e-02 1.62992675206859e-04
9.59092105263158e+00 1.06232638648214e-02 1.61773370661533e-04
9.62171052631579e+00 1.05268561742278e-02 1.60562359983588e-04
9.65250000000000e+00 1.04313233977195e-02 1.59359598849952e-04
9.68328947368421e+00 1.03366575952245e-02 1.58165042851889e-04
9.71407894736842e+00 1.02428508989223e-02 1.56978647623004e-04
