Energy (eV)          EEDF (eV^-(3/2))     First Anisotropy
5.93442622950820e-03 3.71087413815040e-01 1.77552601277551e-04
1.78032786885246e-02 3.68990898573762e-01 2.93347776865860e-04
2.96721311475410e-02 3.66906227928781e-01 3.87671014780490e-04
4.15409836065574e-02 3.64833334947039e-01 4.59584552693229e-04
5.34098360655738e-02 3.62772153094947e-01 5.19773165202382e-04
6.52786885245902e-02 3.60722616204151e-01 5.72269423075987e-04
7.71475409836066e-02 3.58684658484894e-01 6.19156656210802e-04
8.90163934426230e-02 3.56658214521930e-01 6.61690850525832e-04
1.00885245901639e-01 3.54643219263841e-01 7.00703638239741e-04
1.12754098360656e-01 3.52639608033226e-01 7.36781846277178e-04
1.24622950819672e-01 3.50647316501830e-01 7.70359168805233e-04
1.36491803278689e-01 3.48666280734865e-01 8.01767647838315e-04
1.48360655737705e-01 3.46696437125310e-01 8.31268687167256e-04
1.60229508196721e-01 3.44737722455908e-01 8.59072787327824e-04
1.72098360655738e-01 3.42790073850399e-01 8.85352670373682e-04
1.83967213114754e-01 3.40853428778287e-01 9.10252309461334e-04
1.95836065573770e-01 3.38927725083968e-01 9.33893349130542e-04
2.07704918032787e-01 3.37012900942664e-01 9.56379774460513e-04
2.19573770491803e-01 3.35108894898015e-01 9.77801385758412e-04
2.31442622950820e-01 3.33215645822782e-01 9.98236434027022e-04
2.43311475409836e-01 3.31333092952184e-01 1.01775365256734e-03
2.55180327868852e-01 3.29461175848493e-01 1.03641384724707e-03
2.67049180327869e-01 3.27599834430871e-01 1.05427115694605e-03
2.78918032786885e-01 3.25749008943202e-01 1.07137406528795e-03
2.90786885245902e-01 3.23908639981007e-01 1.08776621975652e-03
3.02655737704918e-01 3.22078668468088e-01 1.10348710714586e-03
3.14524590163934e-01 3.20259035656564e-01 1.11857260282718e-03
3.26393442622951e-01 3.18449683142073e-01 1.13305543644350e-03
3.38262295081967e-01 3.16650552839043e-01 1.14696557880997e-03
3.50131147540984e-01 3.14861587000823e-01 1.16033056926047e-03
3.62000000000000e-01 3.13082728196636e-01 1.17317579425117e-03
3.73868852459016e-01 3.11313919330176e-01 1.18552472533165e-03
3.85737704918033e-01 3.09555103618043e-01 1.19739912406255e-03
3.97606557377049e-01 3.07806224606985e-01 1.20881921885388e-03
4.09475409836066e-01 3.06067226153656e-01 1.21980385881474e-03
4.21344262295082e-01 3.04338052440643e-01 1.23037064770614e-03
4.33213114754098e-01 3.02618647957410e-01 1.24053606154930e-03
4.45081967213115e-01 3.00908957515244e-01 1.25031555114246e-03
4.56950819672131e-01 2.99208926232997e-01 1.25972363611689e-03
4.68819672131148e-01 2.97518499536115e-01 1.26877398159196e-03
4.80688524590164e-01 2.95837623165590e-01 1.27747947274653e-03
4.92557377049180e-01 2.94166243161937e-01 1.28585227828627e-03
5.04426229508197e-01 2.92504305877352e-01 1.29390390764595e-03
5.16295081967213e-01 2.90851757960475e-01 1.30164526249990e-03
5.28163934426230e-01 2.89208546367836e-01 1.30908668289950e-03
5.40032786885246e-01 2.87574618349334e-01 1.31623798907111e-03
5.51901639344262e-01 2.85949921459034e-01 1.32310851901571e-03
5.63770491803279e-01 2.84334403541310e-01 1.32970716276408e-03
5.75639344262295e-01 2.82728012741041e-01 1.33604239275122e-03
5.87508196721311e-01 2.81130697493073e-01 1.34212229437833e-03
5.99377049180328e-01 2.79542406521020e-01 1.34795458834518e-03
6.11245901639344e-01 2.77963088843463e-01 1.35354665643054e-03
6.23114754098361e-01 2.76392693761858e-01 1.35890556254295e-03
6.34983606557377e-01 2.74831170869127e-01 1.36403807240929e-03
6.46852459016393e-01 2.73278470038049e-01 1.36895067181813e-03
6.58721311475410e-01 2.71734541429421e-01 1.37364958326372e-03
6.70590163934426e-01 2.70199335480900e-01 1.37814078143714e-03
6.82459016393443e-01 2.68672802914769e-01 1.38243000738679e-03
6.94327868852459e-01 2.67154894727193e-01 1.38652278175602e-03
7.06196721311475e-01 2.65645562195614e-01 1.39042441690309e-03
7.18065573770492e-01 2.64144756868411e-01 1.39414002827969e-03
7.29934426229508e-01 2.62652430571938e-01 1.39767454440251e-03
7.41803278688525e-01 2.61168535402546e-01 1.40103271853210e-03
7.53672131147541e-01 2.59693023725328e-01 1.40421913494168e-03
7.65540983606557e-01 2.58225848178392e-01 1.40723821924883e-03
7.77409836065574e-01 2.56766961663604e-01 1.41009424590963e-03
7.89278688524590e-01 2.55316317352665e-01 1.41279134555033e-03
8.01147540983607e-01 2.53873868678163e-01 1.41533351194420e-03
8.13016393442623e-01 2.52439569339384e-01 1.41772460842939e-03
8.24885245901639e-01 2.51013373293655e-01 1.41996837403981e-03
8.36754098360656e-01 2.49595234761904e-01 1.42206842914582e-03
8.48622950819672e-01 2.48185108220284e-01 1.42402828086410e-03
8.60491803278689e-01 2.46782948405490e-01 1.42585132803449e-03
8.72360655737705e-01 2.45388710306650e-01 1.42754086601290e-03
8.84229508196721e-01 2.44002349170417e-01 1.42910009068895e-03
8.96098360655738e-01 2.42623820494644e-01 1.43053210430724e-03
9.07967213114754e-01 2.41253080027131e-01 1.43183991705346e-03
9.19836065573771e-01 2.39890083768694e-01 1.43302645237054e-03
9.31704918032787e-01 2.38534787965775e-01 1.43409455014749e-03
9.43573770491803e-01 2.37187149114911e-01 1.43504697002270e-03
9.55442622950820e-01 2.35847123955565e-01 1.43588639460650e-03
9.67311475409836e-01 2.34514669474413e-01 1.43661543243985e-03
9.79180327868852e-01 2.33189742898381e-01 1.43723662089237e-03
9.91049180327869e-01 2.31872301698764e-01 1.43775242882060e-03
1.00291803278689e+00 2.30562303584458e-01 1.43816525952955e-03
1.01478688524590e+00 2.29259706504632e-01 1.43847745109547e-03
1.02665573770492e+00 2.27964468649783e-01 1.43869128185397e-03
1.03852459016393e+00 2.26676548442715e-01 1.43880897553498e-03
1.05039344262295e+00 2.25395904529106e-01 1.43883269122699e-03
1.06226229508197e+00 2.24122495812624e-01 1.43876453321113e-03
1.07413114754098e+00 2.22856281416787e-01 1.43860655961163e-03
1.08600000000000e+00 2.21597220696062e-01 1.43836077715478e-03
1.09786885245902e+00 2.20345273223302e-01 1.43802913675258e-03
1.10973770491803e+00 2.19100398822533e-01 1.43761354162357e-03
1.12160655737705e+00 2.17862557533239e-01 1.43711585532801e-03
1.13347540983607e+00 2.16631709620669e-01 1.43653789653235e-03
1.14534426229508e+00 2.15407815564024e-01 1.43588143456133e-03
1.15721311475410e+00 2.14190836087119e-01 1.43514819696914e-03
1.16908196721311e+00 2.12980732124875e-01 1.43433987704349e-03
1.18095081967213e+00 2.11777464832916e-01 1.43345812861868e-03
1.19281967213115e+00 2.10580995576435e-01 1.43250456163872e-03
1.20468852459016e+00 2.09391285958919e-01 1.43148074924999e-03
1.21655737704918e+00 2.08208297790663e-01 1.43038823484185e-03
1.22842622950820e+00 2.07031993097713e-01 1.42922852693675e-03
1.24029508196721e+00 2.05862334111359e-01 1.42800309479598e-03
1.25216393442623e+00 2.04699283295091e-01 1.42671337509127e-03
1.26403278688525e+00 2.03542803314960e-01 1.42536077853501e-03
1.27590163934426e+00 2.02392857047930e-01 1.42394668486910e-03
1.28777049180328e+00 2.01249407571944e-01 1.42247243853460e-03
1.29963934426230e+00 2.00112418191262e-01 1.42093935496834e-03
1.31150819672131e+00 1.98981852408513e-01 1.41934872686866e-03
1.32337704918033e+00 1.97857673932513e-01 1.41770181929547e-03
1.33524590163934e+00 1.96739846668856e-01 1.41599986541960e-03
1.34711475409836e+00 1.95628334743760e-01 1.41424407248349e-03
1.35898360655738e+00 1.94523102477689e-01 1.41243562773824e-03
1.37085245901639e+00 1.93424114392668e-01 1.41057569366451e-03
1.38272131147541e+00 1.92331335203368e-01 1.40866540381208e-03
1.39459016393443e+00 1.91244729839579e-01 1.40670586845682e-03
1.40645901639344e+00 1.90164263421268e-01 1.40469818023975e-03
1.41832786885246e+00 1.89089901265450e-01 1.40264340951434e-03
1.43019672131148e+00 1.88021608877718e-01 1.40054260028374e-03
1.44206557377049e+00 1.86959351973450e-01 1.39839677558094e-03
1.45393442622951e+00 1.85903096454205e-01 1.39620694283629e-03
1.46580327868852e+00 1.84852808414169e-01 1.39397408706558e-03
1.47767213114754e+00 1.83808454139106e-01 1.39169917607558e-03
1.48954098360656e+00 1.82770000098380e-01 1.38938315413669e-03
1.50140983606557e+00 1.81737412964656e-01 1.38702694702056e-03
1.51327868852459e+00 1.80710659591879e-01 1.38463146703233e-03
1.52514754098361e+00 1.79689707021278e-01 1.38219760867827e-03
1.53701639344262e+00 1.78674522473774e-01 1.37972624486192e-03
1.54888524590164e+00 1.77665073368613e-01 1.37721823169453e-03
1.56075409836066e+00 1.76661327302477e-01 1.37467441330360e-03
1.57262295081967e+00 1.75663252055130e-01 1.37209561762821e-03
1.58449180327869e+00 1.74670815582193e-01 1.36948265271972e-03
1.59636065573771e+00 1.73683986032782e-01 1.36683631134212e-03
1.60822950819672e+00 1.72702731729671e-01 1.36415737557264e-03
1.62009836065574e+00 1.71727021174609e-01 1.36144661272366e-03
1.63196721311475e+00 1.70756823041439e-01 1.35870477174792e-03
1.64383606557377e+00 1.69792106192810e-01 1.35593258764320e-03
1.65570491803279e+00 1.68832839661314e-01 1.35313078585931e-03
1.66757377049180e+00 1.67878992654511e-01 1.35030007834481e-03
1.67944262295082e+00 1.66930534548357e-01 1.34744116005579e-03
1.69131147540984e+00 1.65987434903055e-01 1.34455471317774e-03
1.70318032786885e+00 1.65049663445115e-01 1.34164141135169e-03
1.71504918032787e+00 1.64117190072088e-01 1.33870191584317e-03
1.72691803278689e+00 1.63189984846300e-01 1.33573687215305e-03
1.73878688524590e+00 1.62268018009890e-01 1.33274691406840e-03
1.75065573770492e+00 1.61351259967735e-01 1.32973266771924e-03
1.76252459016393e+00 1.60439681291917e-01 1.32669474786630e-03
1.77439344262295e+00 1.59533252715739e-01 1.32363375461268e-03
1.78626229508197e+00 1.58631945148009e-01 1.32055027729411e-03
1.79813114754098e+00 1.57735729656769e-01 1.31744489837562e-03
1.81000000000000e+00 1.56844577473516e-01 1.31431818985599e-03
1.82186885245902e+00 1.55958459987487e-01 1.31117071007786e-03
1.83373770491803e+00 1.55077348759229e-01 1.30800300746639e-03
1.84560655737705e+00 1.54201215505088e-01 1.30481562427566e-03
1.85747540983607e+00 1.53330032101202e-01 1.30160909310612e-03
1.86934426229508e+00 1.52463770578033e-01 1.29838393381078e-03
1.88121311475410e+00 1.51602403133274e-01 1.29514065709102e-03
1.89308196721311e+00 1.50745902117047e-01 1.29187976810117e-03
1.90495081967213e+00 1.49894240035686e-01 1.28860176307510e-03
1.91681967213115e+00 1.49047389546500e-01 1.28530712632652e-03
1.92868852459016e+00 1.48205323470058e-01 1.28199633370967e-03
1.94055737704918e+00 1.47368014776060e-01 1.27866985608937e-03
1.95242622950820e+00 1.46535436586913e-01 1.27532815607397e-03
1.96429508196721e+00 1.45707562172719e-01 1.27197168510669e-03
1.97616393442623e+00 1.44884364962976e-01 1.26860088679861e-03
1.98803278688525e+00 1.44065818533073e-01 1.26521620027072e-03
1.99990163934426e+00 1.43251896607688e-01 1.26181805699008e-03
2.01177049180328e+00 1.42442573055978e-01 1.25840687795012e-03
2.02363934426230e+00 1.41637821902732e-01 1.25498307688163e-03
2.03550819672131e+00 1.40837617315457e-01 1.25154706347402e-03
2.04737704918033e+00 1.40041933607605e-01 1.24809924031124e-03
2.05924590163934e+00 1.39250745233959e-01 1.24464000013772e-03
2.07111475409836e+00 1.38464026801262e-01 1.24116972895399e-03
2.08298360655738e+00 1.37681753055877e-01 1.23768880912300e-03
2.09485245901639e+00 1.36903898886833e-01 1.23419761640209e-03
2.10672131147541e+00 1.36130439321411e-01 1.23069651729270e-03
2.11859016393443e+00 1.35361349535277e-01 1.22718587202595e-03
2.13045901639344e+00 1.34596604840674e-01 1.22366603755915e-03
2.14232786885246e+00 1.33836180689313e-01 1.22013736470104e-03
2.15419672131148e+00 1.33080052668138e-01 1.21660019554247e-03
2.16606557377049e+00 1.32328196508997e-01 1.21305486633729e-03
2.17793442622951e+00 1.31580588077330e-01 1.20950171039385e-03
2.18980327868852e+00 1.30837203374925e-01 1.20594105396492e-03
2.20167213114754e+00 1.30098018539157e-01 1.20237321906755e-03
2.21354098360656e+00 1.29363009838947e-01 1.19879851962726e-03
2.22540983606557e+00 1.28632153683873e-01 1.19521726422322e-03
2.23727868852459e+00 1.27905426613471e-01 1.19162975884565e-03
2.24914754098361e+00 1.27182805299828e-01 1.18803630423067e-03
2.26101639344262e+00 1.26464266543691e-01 1.18443719347371e-03
2.27288524590164e+00 1.25749787283183e-01 1.18083271468102e-03
2.28475409836066e+00 1.25039344583538e-01 1.17722315363314e-03
2.29662295081967e+00 1.24332915639570e-01 1.17360879120239e-03
2.30849180327869e+00 1.23630477771936e-01 1.16998990103913e-03
2.32036065573771e+00 1.22932008435460e-01 1.16636675213319e-03
2.33222950819672e+00 1.22237485209296e-01 1.16273961138763e-03
2.34409836065574e+00 1.21546885799273e-01 1.15910874111624e-03
2.35596721311475e+00 1.20860188034302e-01 1.15547439679985e-03
2.36783606557377e+00 1.20177369874334e-01 1.15183682956190e-03
2.37970491803279e+00 1.19498409400929e-01 1.14819628865621e-03
2.39157377049180e+00 1.18823284819478e-01 1.14455301904170e-03
2.40344262295082e+00 1.18151974455753e-01 1.14090725920647e-03
2.41531147540984e+00 1.17484456763521e-01 1.13725924356144e-03
2.42718032786885e+00 1.16820710315485e-01 1.13360920484540e-03
2.43904918032787e+00 1.16160713805407e-01 1.12995737177428e-03
2.45091803278689e+00 1.15504446044784e-01 1.12630396693137e-03
2.46278688524590e+00 1.14851885970134e-01 1.12264920908146e-03
2.47465573770492e+00 1.14203012634299e-01 1.11899331549717e-03
2.48652459016393e+00 1.13557805208469e-01 1.11533649968058e-03
2.49839344262295e+00 1.12916242978978e-01 1.11167896931652e-03
2.51026229508197e+00 1.12278305354281e-01 1.10802092851128e-03
2.52213114754098e+00 1.11643971856601e-01 1.10436258004304e-03
2.53400000000000e+00 1.11013222123857e-01 1.10070412315322e-03
2.54586885245902e+00 1.10386035906576e-01 1.09704575156135e-03
2.55773770491803e+00 1.09762393074579e-01 1.09338765563074e-03
2.56960655737705e+00 1.09142273608953e-01 1.08973002454631e-03
2.58147540983607e+00 1.08525657603885e-01 1.08607304417342e-03
2.59334426229508e+00 1.07912525263695e-01 1.08241689513195e-03
2.60521311475410e+00 1.07302856909230e-01 1.07876175489239e-03
2.61708196721311e+00 1.06696632970161e-01 1.07510779988366e-03
2.62895081967213e+00 1.06093833986720e-01 1.07145520341680e-03
2.64081967213115e+00 1.05494440606846e-01 1.06780413381673e-03
2.65268852459016e+00 1.04898433592312e-01 1.06415475645138e-03
2.66455737704918e+00 1.04305793811318e-01 1.06050723577189e-03
2.67642622950820e+00 1.03716502240146e-01 1.05686173329955e-03
2.68829508196721e+00 1.03130539960413e-01 1.05321840581320e-03
2.70016393442623e+00 1.02547888164939e-01 1.04957740731349e-03
2.71203278688525e+00 1.01968528150626e-01 1.04593889099877e-03
2.72390163934426e+00 1.01392441320038e-01 1.04230300731251e-03
2.73577049180328e+00 1.00819609178746e-01 1.03866990218475e-03
2.74763934426230e+00 1.00250013340963e-01 1.03503971893436e-03
2.75950819672131e+00 9.96836355226862e-02 1.03141260018235e-03
2.77137704918033e+00 9.91204575432083e-02 1.02778868595841e-03
2.78324590163934e+00 9.85604613225544e-02 1.02416811199427e-03
2.79511475409836e+00 9.80036288868888e-02 1.02055101156611e-03
2.80698360655738e+00 9.74499423619131e-02 1.01693751734813e-03
2.81885245901639e+00 9.68993839743105e-02 1.01332775957582e-03
2.83072131147541e+00 9.63519360492717e-02 1.00972186438976e-03
2.84259016393443e+00 9.58075810156825e-02 1.00611995562047e-03
2.85445901639344e+00 9.52663013997693e-02 1.00252215658426e-03
2.86632786885246e+00 9.47280798264766e-02 9.98928588301454e-04
2.87819672131148e+00 9.41928990170800e-02 9.95339367888902e-04
2.89006557377049e+00 9.36607417941647e-02 9.91754610289420e-04
2.90193442622951e+00 9.31315910755064e-02 9.88174430012058e-04
2.91380327868852e+00 9.26054298753872e-02 9.84598938589576e-04
2.92567213114754e+00 9.20822413040554e-02 9.81028246278008e-04
2.93754098360656e+00 9.15620085654353e-02 9.77462459659403e-04
2.94940983606557e+00 9.10447149618534e-02 9.73901683299682e-04
2.96127868852459e+00 9.05303438882051e-02 9.70346021417148e-04
2.97314754098361e+00 9.00188788332012e-02 9.66795576222715e-04
2.98501639344262e+00 8.95103033771569e-02 9.63250446421451e-04
2.99688524590164e+00 8.90046011965297e-02 9.59710728819701e-04
3.00875409836066e+00 8.85017560582998e-02 9.56176519942618e-04
3.02062295081967e+00 8.80017518211599e-02 9.52647914423186e-04
3.03249180327869e+00 8.75045724333804e-02 9.49125003547809e-04
3.04436065573770e+00 8.70102019371680e-02 9.45607876814082e-04
3.05622950819672e+00 8.65186244632497e-02 9.42096623499187e-04
3.06809836065574e+00 8.60298242320100e-02 9.38591331096605e-04
3.07996721311475e+00 8.55437855514279e-02 9.35092083903656e-04
3.09183606557377e+00 8.50604928212649e-02 9.31598964532221e-04
3.10370491803279e+00 8.45799305278444e-02 9.28112055429497e-04
3.11557377049180e+00 8.41020832451377e-02 9.24631437360699e-04
3.12744262295082e+00 8.36269356327709e-02 9.21157188037612e-04
3.13931147540984e+00 8.31544724400497e-02 9.17689383583494e-04
3.15118032786885e+00 8.26846785009254e-02 9.14228100008156e-04
3.16304918032787e+00 8.22175387350331e-02 9.10773411734859e-04
3.17491803278689e+00 8.17530381457654e-02 9.07325390268654e-04
3.18678688524590e+00 8.12911618241405e-02 9.03884105617385e-04
3.19865573770492e+00 8.08318949439483e-02 9.00449627722213e-04
3.21052459016393e+00 8.03752227627421e-02 8.97022025027664e-04
3.22239344262295e+00 7.99211306199765e-02 8.93601363188477e-04
3.23426229508197e+00 7.94696039407268e-02 8.90187706447818e-04
3.24613114754098e+00 7.90206282310060e-02 8.86781119024997e-04
3.25800000000000e+00 7.85741890787138e-02 8.83381663727391e-04
3.26986885245902e+00 7.81302721518353e-02 8.79989400694509e-04
3.28173770491803e+00 7.76888632020182e-02 8.76604388734796e-04
3.29360655737705e+00 7.72499480600547e-02 8.73226686672245e-04
3.30547540983607e+00 7.68135126367881e-02 8.69856351998581e-04
3.31734426229508e+00 7.63795429213716e-02 8.66493439653284e-04
3.32921311475410e+00 7.59480249847086e-02 8.63138003320876e-04
3.34108196721311e+00 7.55189449750926e-02 8.59790096737527e-04
3.35295081967213e+00 7.50922891190743e-02 8.56449772381985e-04
3.36481967213115e+00 7.46680437197772e-02 8.53117080290711e-04
3.37668852459016e+00 7.42461951602076e-02 8.49792069316906e-04
3.38855737704918e+00 7.38267298990457e-02 8.46474788398335e-04
3.40042622950820e+00 7.34096344714753e-02 8.43165285286150e-04
3.41229508196721e+00 7.29948954875541e-02 8.39863605393830e-04
3.42416393442623e+00 7.25824996353984e-02 8.36569793018992e-04
3.43603278688525e+00 7.21724336771202e-02 8.33283892573866e-04
3.44790163934426e+00 7.17646844496206e-02 8.30005947350922e-04
3.45977049180328e+00 7.13592388630130e-02 8.26735998404610e-04
3.47163934426230e+00 7.09560839036874e-02 8.23474085737009e-04
3.48350819672131e+00 7.05552066303886e-02 8.20220249492387e-04
3.49537704918033e+00 7.01565941749739e-02 8.16974528758175e-04
3.50724590163934e+00 6.97602337408879e-02 8.13736960478525e-04
3.51911475409836e+00 6.93661126061121e-02 8.10507580605334e-04
3.53098360655738e+00 6.89742181193765e-02 8.07286425257831e-04
3.54285245901639e+00 6.85845377008858e-02 8.04073529557849e-04
3.55472131147541e+00 6.81970588408418e-02 8.00868926574173e-04
3.56659016393443e+00 6.78117691022843e-02 7.97672648440038e-04
3.57845901639344e+00 6.74286561174310e-02 7.94484727478933e-04
3.59032786885246e+00 6.70477075883721e-02 7.91305195073120e-04
3.60219672131148e+00 6.66689112856411e-02 7.88134080637857e-04
3.61406557377049e+00 6.62922550509486e-02 7.84971412706386e-04
3.62593442622951e+00 6.59177267936477e-02 7.81817220022992e-04
3.63780327868852e+00 6.55453144913981e-02 7.78671529928263e-04
3.64967213114754e+00 6.51750061897830e-02 7.75534369427505e-04
3.66154098360656e+00 6.48067900009330e-02 7.72405763663550e-04
3.67340983606557e+00 6.44406541061330e-02 7.69285736959951e-04
3.68527868852459e+00 6.40765867524373e-02 7.66174313872192e-04
3.69714754098361e+00 6.37145762533017e-02 7.63071518129985e-04
3.70901639344262e+00 6.33546109872505e-02 7.59977371677741e-04
3.72088524590164e+00 6.29966794003876e-02 7.56891895687708e-04
3.73275409836066e+00 6.26407700031256e-02 7.53815111581066e-04
3.74462295081967e+00 6.22868713707901e-02 7.50747039999860e-04
