Energy (eV)          EEDF (eV^-(3/2))     First Anisotropy
4.60714285714286e-03 9.47763664164589e-01 5.42723822724287e-04
1.38214285714286e-02 9.39999780142131e-01 8.95531183229685e-04
2.30357142857143e-02 9.32299496257401e-01 1.18045520398895e-03
3.22500000000000e-02 9.24662291506836e-01 1.39585360117220e-03
4.14642857142857e-02 9.17087649138870e-01 1.57462292715105e-03
5.06785714285714e-02 9.09575056680604e-01 1.72922508156012e-03
5.98928571428571e-02 9.02124005829996e-01 1.86612099305115e-03
6.91071428571429e-02 8.94733992449876e-01 1.98921923443762e-03
7.83214285714286e-02 8.87404516533036e-01 2.10111663408983e-03
8.75357142857143e-02 8.80135082168816e-01 2.20365180133686e-03
9.67500000000000e-02 8.72925197509035e-01 2.29818814591743e-03
1.05964285714286e-01 8.65774374720475e-01 2.38577300836320e-03
1.15178571428571e-01 8.58682129976051e-01 2.46723366272779e-03
1.24392857142857e-01 8.51647983478527e-01 2.54323850864349e-03
1.33607142857143e-01 8.44671459239659e-01 2.61433777794442e-03
1.42821428571429e-01 8.37752085230599e-01 2.68099160609415e-03
1.52035714285714e-01 8.30889393336331e-01 2.74359002352996e-03
1.61250000000000e-01 8.24082919182730e-01 2.80246749403461e-03
1.70464285714286e-01 8.17332202246755e-01 2.85791374781536e-03
1.79678571428571e-01 8.10636785777796e-01 2.91018202402080e-03
1.88892857142857e-01 8.03996216802818e-01 2.95949543446048e-03
1.98107142857143e-01 7.97410045986572e-01 3.00605193686979e-03
2.07321428571429e-01 7.90877827710967e-01 3.05002827817467e-03
2.16535714285714e-01 7.84399120038838e-01 3.09158319399404e-03
2.25750000000000e-01 7.77973484592333e-01 3.13085997803356e-03
2.34964285714286e-01 7.71600486615299e-01 3.16798859057497e-03
2.44178571428571e-01 7.65279694912983e-01 3.20308741611663e-03
2.53392857142857e-01 7.59010681847882e-01 3.23626472882809e-03
2.62607142857143e-01 7.52793023235145e-01 3.26761991276824e-03
2.71821428571429e-01 7.46626298389941e-01 3.29724449017691e-03
2.81035714285714e-01 7.40510090095550e-01 3.32522302299042e-03
2.90250000000000e-01 7.34443984509122e-01 3.35163386062863e-03
2.99464285714286e-01 7.28427571199964e-01 3.37654978571378e-03
3.08678571428571e-01 7.22460443099528e-01 3.40003858423570e-03
3.17892857142857e-01 7.16542196492554e-01 3.42216354107903e-03
3.27107142857143e-01 7.10672430933302e-01 3.44298386347470e-03
3.36321428571429e-01 7.04850749275205e-01 3.46255504931624e-03
3.45535714285714e-01 6.99076757641772e-01 3.48092923375848e-03
3.54750000000000e-01 6.93350065349581e-01 3.49815547472065e-03
3.63964285714286e-01 6.87670284932431e-01 3.51428000789856e-03
3.73178571428571e-01 6.82037032098150e-01 3.52934648343932e-03
3.82392857142857e-01 6.76449925717187e-01 3.54339617696406e-03
3.91607142857143e-01 6.70908587752763e-01 3.55646817036243e-03
4.00821428571429e-01 6.65412643279585e-01 3.56859951155310e-03
4.10035714285714e-01 6.59961720456917e-01 3.57982537760656e-03
4.19250000000000e-01 6.54555450463537e-01 3.59017920376181e-03
4.28464285714286e-01 6.49193467512858e-01 3.59969280180565e-03
4.37678571428571e-01 6.43875408814734e-01 3.60839647590542e-03
4.46892857142857e-01 6.38600914562652e-01 3.61631912763543e-03
4.56107142857143e-01 6.33369627873942e-01 3.62348834446094e-03
4.65321428571429e-01 6.28181194801264e-01 3.62993047829936e-03
4.74535714285714e-01 6.23035264307509e-01 3.63567073427540e-03
4.83750000000000e-01 6.17931488209618e-01 3.64073323594158e-03
4.92964285714286e-01 6.12869521187612e-01 3.64514108663847e-03
5.02178571428571e-01 6.07849020750301e-01 3.64891643335901e-03
5.11392857142857e-01 6.02869647221759e-01 3.65208052530978e-03
5.20607142857143e-01 5.97931063689197e-01 3.65465376154290e-03
5.29821428571429e-01 5.93032936009465e-01 3.65665573304510e-03
5.39035714285714e-01 5.88174932785577e-01 3.65810527664484e-03
5.48250000000000e-01 5.83356725317389e-01 3.65902051062122e-03
5.57464285714286e-01 5.78577987606389e-01 3.65941886910317e-03
5.66678571428571e-01 5.73838396324575e-01 3.65931714063211e-03
5.75892857142857e-01 5.69137630800654e-01 3.65873150378483e-03
5.85107142857143e-01 5.64475372973963e-01 3.65767755463550e-03
5.94321428571429e-01 5.59851307397460e-01 3.65617033067718e-03
6.03535714285714e-01 5.55265121215695e-01 3.65422434649555e-03
6.12750000000000e-01 5.50716504121004e-01 3.65185361426348e-03
6.21964285714286e-01 5.46205148355265e-01 3.64907166415553e-03
6.31178571428571e-01 5.41730748681447e-01 3.64589156936555e-03
6.40392857142857e-01 5.37293002369796e-01 3.64232596932423e-03
6.49607142857143e-01 5.32891609156697e-01 3.63838708634613e-03
6.58821428571429e-01 5.28526271245124e-01 3.63408673977037e-03
6.68035714285714e-01 5.24196693283945e-01 3.62943637122067e-03
6.77250000000000e-01 5.19902582328654e-01 3.62444705681110e-03
6.86464285714286e-01 5.15643647840930e-01 3.61912951977245e-03
6.95678571428571e-01 5.11419601662480e-01 3.61349414765035e-03
7.04892857142857e-01 5.07230158001404e-01 3.60755100830786e-03
7.14107142857143e-01 5.03075033395165e-01 3.60130986039100e-03
7.23321428571429e-01 4.98953946709197e-01 3.59478016188020e-03
7.32535714285714e-01 4.94866619117431e-01 3.58797108895824e-03
7.41750000000000e-01 4.90812774066854e-01 3.58089154341186e-03
7.50964285714286e-01 4.86792137275460e-01 3.57355016067212e-03
7.60178571428571e-01 4.82804436708101e-01 3.56595532221171e-03
7.69392857142857e-01 4.78849402563149e-01 3.55811516709315e-03
7.78607142857143e-01 4.74926767238954e-01 3.55003759871718e-03
7.87821428571429e-01 4.71036265331105e-01 3.54173029002924e-03
7.97035714285714e-01 4.67177633614096e-01 3.53320069821989e-03
8.06250000000000e-01 4.63350611009151e-01 3.52445606921889e-03
8.15464285714286e-01 4.59554938580999e-01 3.51550344291356e-03
8.24678571428571e-01 4.55790359515511e-01 3.50634966244176e-03
8.33892857142857e-01 4.52056619106734e-01 3.49700138284830e-03
8.43107142857143e-01 4.48353464726353e-01 3.48746507550636e-03
8.52321428571429e-01 4.44680645819974e-01 3.47774703124846e-03
8.61535714285714e-01 4.41037913889850e-01 3.46785337220700e-03
8.70750000000000e-01 4.37425022465536e-01 3.45779005448902e-03
8.79964285714286e-01 4.33841727099811e-01 3.44756287159458e-03
8.89178571428571e-01 4.30287785347914e-01 3.43717746161277e-03
8.98392857142857e-01 4.26762956754999e-01 3.42663931391903e-03
9.07607142857143e-01 4.23267002828223e-01 3.41595377209061e-03
9.16821428571429e-01 4.19799687032311e-01 3.40512603571429e-03
9.26035714285714e-01 4.16360774773290e-01 3.39416117017653e-03
9.35250000000000e-01 4.12950033371608e-01 3.38306410817045e-03
9.44464285714286e-01 4.09567232057454e-01 3.37183965193294e-03
9.53678571428571e-01 4.06212141951435e-01 3.36049247896920e-03
9.62892857142857e-01 4.02884536052487e-01 3.34902714737291e-03
9.72107142857143e-01 3.99584189212265e-01 3.33744809774143e-03
9.81321428571429e-01 3.96310878130214e-01 3.32575965412256e-03
9.90535714285714e-01 3.93064381338233e-01 3.31396603227795e-03
9.99750000000000e-01 3.89844479175980e-01 3.30207133812355e-03
1.00896428571429e+00 3.86650953794996e-01 3.29007957917684e-03
1.01817857142857e+00 3.83483589100657e-01 3.27799465160247e-03
1.02739285714286e+00 3.80342170820270e-01 3.26582036025950e-03
1.03660714285714e+00 3.77226486376362e-01 3.25356041973937e-03
1.04582142857143e+00 3.74136324962926e-01 3.24121842865411e-03
1.05503571428571e+00 3.71071477529518e-01 3.22879791741358e-03
1.06425000000000e+00 3.68031736680702e-01 3.21630232119748e-03
1.07346428571429e+00 3.65016896776401e-01 3.20373498873242e-03
1.08267857142857e+00 3.62026753805736e-01 3.19109918593330e-03
1.09189285714286e+00 3.59061105483384e-01 3.17839809683415e-03
1.10110714285714e+00 3.56119751127767e-01 3.16563483375472e-03
1.11032142857143e+00 3.53202491727962e-01 3.15281241119728e-03
1.11953571428571e+00 3.50309129928797e-01 3.13993378927395e-03
1.12875000000000e+00 3.47439469940687e-01 3.12700184862851e-03
1.13796428571429e+00 3.44593317628099e-01 3.11401939819156e-03
1.14717857142857e+00 3.41770480396543e-01 3.10098917821291e-03
1.15639285714286e+00 3.38970767277616e-01 3.08791386085818e-03
1.16560714285714e+00 3.36193988819764e-01 3.07479605925735e-03
1.17482142857143e+00 3.33439957147188e-01 3.06163830331426e-03
1.18403571428571e+00 3.30708485945866e-01 3.04844307930853e-03
1.19325000000000e+00 3.27999390382439e-01 3.03521280665067e-03
1.20246428571429e+00 3.25312487182450e-01 3.02194984479137e-03
1.21167857142857e+00 3.22647594528787e-01 3.00865649577977e-03
1.22089285714286e+00 3.20004532136986e-01 2.99533500462393e-03
1.23010714285714e+00 3.17383121156950e-01 2.98198756739840e-03
1.23932142857143e+00 3.14783184224968e-01 2.96861630883883e-03
1.24853571428571e+00 3.12204545450602e-01 2.95522331855233e-03
1.25775000000000e+00 3.09647030343482e-01 2.94181062948170e-03
1.26696428571429e+00 3.07110465882723e-01 2.92838022410224e-03
1.27617857142857e+00 3.04594680425381e-01 2.91493403660431e-03
1.28539285714286e+00 3.02099503773318e-01 2.90147395308624e-03
1.29460714285714e+00 2.99624767084539e-01 2.88800181885773e-03
1.30382142857143e+00 2.97170302919249e-01 2.87451941769066e-03
1.31303571428571e+00 2.94735945227538e-01 2.86102850500420e-03
1.32225000000000e+00 2.92321529283145e-01 2.84753078791456e-03
1.33146428571429e+00 2.89926891745203e-01 2.83402793082230e-03
1.34067857142857e+00 2.87551870575508e-01 2.82052155729254e-03
1.34989285714286e+00 2.85196305098049e-01 2.80701325012809e-03
1.35910714285714e+00 2.82860035918805e-01 2.79350455797840e-03
1.36832142857143e+00 2.80542904966633e-01 2.77999697612213e-03
1.37753571428571e+00 2.78244755481690e-01 2.76649197693776e-03
1.38675000000000e+00 2.75965431955361e-01 2.75299099142063e-03
1.39596428571429e+00 2.73704780185309e-01 2.73949541424361e-03
1.40517857142857e+00 2.71462647200534e-01 2.72600660538967e-03
1.41439285714286e+00 2.69238881314486e-01 2.71252589013926e-03
1.42360714285714e+00 2.67033332052363e-01 2.69905456507323e-03
1.43282142857143e+00 2.64845850187476e-01 2.68559388026980e-03
1.44203571428571e+00 2.62676287730362e-01 2.67214506732973e-03
1.45125000000000e+00 2.60524497874191e-01 2.65870932224777e-03
1.46046428571429e+00 2.58390335043941e-01 2.64528781001337e-03
1.46967857142857e+00 2.56273654828377e-01 2.63188166603868e-03
1.47889285714286e+00 2.54174314027532e-01 2.61849199608469e-03
1.48810714285714e+00 2.52092170586670e-01 2.60511988173064e-03
1.49732142857143e+00 2.50027083628686e-01 2.59176636387597e-03
1.50653571428571e+00 2.47978913443876e-01 2.57843246855309e-03
1.51575000000000e+00 2.45947521440208e-01 2.56511919104934e-03
1.52496428571429e+00 2.43932770187351e-01 2.55182750010256e-03
1.53417857142857e+00 2.41934523354803e-01 2.53855833915739e-03
1.54339285714286e+00 2.39952645754426e-01 2.52531262624854e-03
1.55260714285714e+00 2.37987003280336e-01 2.51209125899714e-03
1.56182142857143e+00 2.36037462937839e-01 2.49889509931573e-03
1.57103571428571e+00 2.34103892833795e-01 2.48572499721428e-03
1.58025000000000e+00 2.32186162131254e-01 2.47258177607589e-03
1.58946428571429e+00 2.30284141088939e-01 2.45946623649204e-03
1.59867857142857e+00 2.28397701004868e-01 2.44637915737408e-03
1.60789285714286e+00 2.26526714254522e-01 2.43332129580695e-03
1.61710714285714e+00 2.24671054236043e-01 2.42029339162377e-03
1.62632142857143e+00 2.22830595396105e-01 2.40729615322037e-03
1.63553571428571e+00 2.21005213220850e-01 2.39433027953512e-03
1.64475000000000e+00 2.19194784194424e-01 2.38139644638872e-03
1.65396428571429e+00 2.17399185834449e-01 2.36849530999808e-03
1.66317857142857e+00 2.15618296640563e-01 2.35562750796478e-03
1.67239285714286e+00 2.13851996128728e-01 2.34279365910874e-03
1.68160714285714e+00 2.12100164781181e-01 2.32999436766470e-03
1.69082142857143e+00 2.10362684069603e-01 2.31723021011977e-03
1.70003571428571e+00 2.08639436446586e-01 2.30450175552794e-03
1.70925000000000e+00 2.06930305307683e-01 2.29180955283194e-03
1.71846428571429e+00 2.05235175023317e-01 2.27915413408961e-03
1.72767857142857e+00 2.03553930891746e-01 2.26653601535495e-03
1.73689285714286e+00 2.01886459169934e-01 2.25395569649954e-03
1.74610714285714e+00 2.00232647027791e-01 2.24141366506939e-03
1.75532142857143e+00 1.98592382568940e-01 2.22891038406587e-03
1.76453571428571e+00 1.96965554822683e-01 2.21644631073879e-03
1.77375000000000e+00 1.95352053709221e-01 2.20402188481393e-03
1.78296428571429e+00 1.93751770068396e-01 2.19163753146033e-03
1.79217857142857e+00 1.92164595616636e-01 2.17929366207923e-03
1.80139285714286e+00 1.90590422974782e-01 2.16699067411825e-03
1.81060714285714e+00 1.89029145626178e-01 2.15472895462090e-03
1.81982142857143e+00 1.87480657935316e-01 2.14250886887846e-03
1.82903571428571e+00 1.85944855140270e-01 2.13033077783049e-03
1.83825000000000e+00 1.84421633320777e-01 2.11819502712877e-03
1.84746428571429e+00 1.82910889424156e-01 2.10610194986949e-03
1.85667857142857e+00 1.81412521225855e-01 2.09405186730252e-03
1.86589285714286e+00 1.79926427354557e-01 2.08204508864233e-03
1.87510714285714e+00 1.78452507253750e-01 2.07008191433916e-03
1.88432142857143e+00 1.76990661198484e-01 2.05816262553507e-03
1.89353571428571e+00 1.75540790288246e-01 2.04628750018710e-03
1.90275000000000e+00 1.74102796417629e-01 2.03445680290364e-03
1.91196428571429e+00 1.72676582299742e-01 2.02267078746419e-03
1.92117857142857e+00 1.71262051429999e-01 2.01092969745875e-03
1.93039285714286e+00 1.69859108108804e-01 1.99923376609799e-03
1.93960714285714e+00 1.68467657406271e-01 1.98758321923141e-03
1.94882142857143e+00 1.67087605177300e-01 1.97597826554683e-03
1.95803571428571e+00 1.65718858054862e-01 1.96441911152023e-03
1.96725000000000e+00 1.64361323423022e-01 1.95290595196635e-03
1.97646428571429e+00 1.63014909438095e-01 1.94143897236521e-03
1.98567857142857e+00 1.61679524995387e-01 1.93001834943927e-03
1.99489285714286e+00 1.60355079749706e-01 1.91864425096579e-03
2.00410714285714e+00 1.59041484082939e-01 1.90731683856464e-03
2.01332142857143e+00 1.57738649117632e-01 1.89603625858440e-03
2.02253571428571e+00 1.56446486710655e-01 1.88480265597379e-03
2.03175000000000e+00 1.55164909428367e-01 1.87361616549268e-03
2.04096428571429e+00 1.53893830565757e-01 1.86247691386189e-03
2.05017857142857e+00 1.52633164115860e-01 1.85138502028604e-03
2.05939285714286e+00 1.51382824788319e-01 1.84034059626927e-03
2.06860714285714e+00 1.50142727979567e-01 1.82934374819285e-03
2.07782142857143e+00 1.48912789785054e-01 1.81839456883663e-03
2.08703571428571e+00 1.47692926993286e-01 1.80749315025713e-03
2.09625000000000e+00 1.46483057062929e-01 1.79663957560973e-03
2.10546428571429e+00 1.45283098140149e-01 1.78583392113731e-03
2.11467857142857e+00 1.44092969030455e-01 1.77507625664449e-03
2.12389285714286e+00 1.42912589215521e-01 1.76436664531839e-03
2.13310714285714e+00 1.41741878825722e-01 1.75370514611342e-03
2.14232142857143e+00 1.40580758651171e-01 1.74309180586092e-03
2.15153571428571e+00 1.39429150136093e-01 1.73252667123180e-03
2.16075000000000e+00 1.38286975357705e-01 1.72200978112431e-03
2.16996428571429e+00 1.37154157041932e-01 1.71154116850574e-03
2.17917857142857e+00 1.36030618537470e-01 1.70112086084293e-03
2.18839285714286e+00 1.34916283831035e-01 1.69074887992841e-03
2.19760714285714e+00 1.33811077522053e-01 1.68042524408920e-03
2.20682142857143e+00 1.32714924832618e-01 1.67014996084082e-03
2.21603571428571e+00 1.31627751602195e-01 1.65992303800547e-03
2.22525000000000e+00 1.30549484268115e-01 1.64974447662398e-03
2.23446428571429e+00 1.29480049879833e-01 1.63961427266174e-03
2.24367857142857e+00 1.28419376075010e-01 1.62953241740075e-03
2.25289285714286e+00 1.27367391093353e-01 1.61949889727209e-03
2.26210714285714e+00 1.26324023753268e-01 1.60951369590269e-03
2.27132142857143e+00 1.25289203460852e-01 1.59957678727401e-03
2.28053571428571e+00 1.24262860204901e-01 1.58968814606005e-03
2.28975000000000e+00 1.23244924538883e-01 1.57984774102487e-03
2.29896428571429e+00 1.22235327593888e-01 1.57005553660471e-03
2.30817857142857e+00 1.21234001056550e-01 1.56031149326521e-03
2.31739285714286e+00 1.20240877181616e-01 1.55061556733999e-03
2.32660714285714e+00 1.19255888770394e-01 1.54096771292909e-03
2.33582142857143e+00 1.18278969178881e-01 1.53136787552522e-03
2.34503571428571e+00 1.17310052313051e-01 1.52181600163078e-03
2.35425000000000e+00 1.16349072612190e-01 1.51231203260596e-03
2.36346428571429e+00 1.15395965060657e-01 1.50285590613641e-03
2.37267857142857e+00 1.14450665167495e-01 1.49344755655926e-03
2.38189285714286e+00 1.13513108977855e-01 1.48408691470844e-03
2.39110714285714e+00 1.12583233053080e-01 1.47477390967630e-03
2.40032142857143e+00 1.11660974478060e-01 1.46550846287350e-03
2.40953571428571e+00 1.10746270856785e-01 1.45629049697945e-03
2.41875000000000e+00 1.09839060296926e-01 1.44711993020792e-03
2.42796428571429e+00 1.08939281420522e-01 1.43799667766963e-03
2.43717857142857e+00 1.08046873345143e-01 1.42892065167025e-03
2.44639285714286e+00 1.07161775694269e-01 1.41989176156234e-03
2.45560714285714e+00 1.06283928578888e-01 1.41090991538091e-03
2.46482142857143e+00 1.05413272604139e-01 1.40197501430589e-03
2.47403571428571e+00 1.04549748865128e-01 1.39308696099519e-03
2.48325000000000e+00 1.03693298932643e-01 1.38424565423820e-03
2.49246428571429e+00 1.02843864862881e-01 1.37545099022145e-03
2.50167857142857e+00 1.02001389180017e-01 1.36670286280114e-03
2.51089285714286e+00 1.01165814885658e-01 1.35800116336175e-03
2.52010714285714e+00 1.00337085441813e-01 1.34934578233552e-03
2.52932142857143e+00 9.95151447769060e-02 1.34073660403833e-03
2.53853571428571e+00 9.86999372818324e-02 1.33217351443128e-03
2.54775000000000e+00 9.78914077967170e-02 1.32365639613422e-03
2.55696428571429e+00 9.70895016197720e-02 1.31518512960165e-03
2.56617857142857e+00 9.62941644911652e-02 1.30675959337261e-03
2.57539285714286e+00 9.55053426016227e-02 1.29837966393589e-03
2.58460714285714e+00 9.47229825766681e-02 1.29004521714193e-03
2.59382142857143e+00 9.39470314820657e-02 1.28175612338615e-03
2.60303571428571e+00 9.31774368200991e-02 1.27351225484040e-03
2.61225000000000e+00 9.24141465172962e-02 1.26531348080070e-03
2.62146428571429e+00 9.16571089324941e-02 1.25715966878107e-03
2.63067857142857e+00 9.09062728419012e-02 1.24905068474237e-03
2.63989285714286e+00 9.01615874469329e-02 1.24098639296374e-03
2.64910714285714e+00 8.94230023596131e-02 1.23296665735566e-03
2.65832142857143e+00 8.86904676075038e-02 1.22499133696574e-03
2.66753571428571e+00 8.79639336301959e-02 1.21706029271861e-03
2.67675000000000e+00 8.72433512679205e-02 1.20917338307469e-03
2.68596428571429e+00 8.65286717688979e-02 1.20133046504735e-03
2.69517857142857e+00 8.58198467754958e-02 1.19353139441303e-03
2.70439285714286e+00 8.51168283313706e-02 1.18577602558903e-03
2.71360714285714e+00 8.44195688679378e-02 1.17806421285500e-03
2.72282142857143e+00 8.37280212088373e-02 1.17039580615820e-03
2.73203571428571e+00 8.30421385666246e-02 1.16277065739753e-03
2.74125000000000e+00 8.23618745321986e-02 1.15518861637143e-03
2.75046428571429e+00 8.16871830815012e-02 1.14764953172416e-03
2.75967857142857e+00 8.10180185626847e-02 1.14015325113888e-03
2.76889285714286e+00 8.03543357026222e-02 1.13269962122152e-03
2.77810714285714e+00 7.96960895943627e-02 1.12528848863734e-03
2.78732142857143e+00 7.90432357011772e-02 1.11791969619530e-03
2.79653571428571e+00 7.83957298534373e-02 1.11059308870841e-03
2.80575000000000e+00 7.77535282387976e-02 1.10330850921031e-03
2.81496428571429e+00 7.71165874083047e-02 1.09606579983664e-03
2.82417857142857e+00 7.64848642644944e-02 1.08886480200209e-03
2.83339285714286e+00 7.58583160673299e-02 1.08170535629021e-03
2.84260714285714e+00 7.52369004225633e-02 1.07458730351165e-03
2.85182142857143e+00 7.46205752854028e-02 1.06751048104753e-03
2.86103571428571e+00 7.40092989575686e-02 1.06047472831679e-03
2.87025000000000e+00 7.34030300781706e-02 1.05347988324290e-03
2.87946428571429e+00 7.28017276292820e-02 1.04652578307436e-03
2.88867857142857e+00 7.22053509248931e-02 1.03961226454778e-03
2.89789285714286e+00 7.16138596163297e-02 1.03273916378329e-03
2.90710714285714e+00 7.10272136814502e-02 1.02590631726990e-03
