Energy (eV)          EEDF (eV^-(3/2))     First Anisotropy
1.79310344827586e-04 2.14490955264167e+02 5.62091033229137e-02
5.37931034482759e-04 2.11952826637203e+02 9.25792738983558e-02
8.96551724137931e-04 2.09444732363287e+02 1.21586428129223e-01
1.25517241379310e-03 2.06966317036653e+02 1.43244511900217e-01
1.61379310344828e-03 2.04517229459016e+02 1.60996792165641e-01
1.97241379310345e-03 2.02097122587287e+02 1.76154892732867e-01
2.33103448275862e-03 1.99705653485044e+02 1.89402416022705e-01
2.68965517241379e-03 1.97342483273925e+02 2.01155030465291e-01
3.04827586206897e-03 1.95007277085608e+02 2.11690291407617e-01
3.40689655172414e-03 1.92699704014359e+02 2.21205685120451e-01
3.76551724137931e-03 1.90419437070140e+02 2.29848367466833e-01
4.12413793103448e-03 1.88166153132272e+02 2.37731918659742e-01
4.48275862068965e-03 1.85939532903652e+02 2.44946472037376e-01
4.84137931034483e-03 1.83739260865502e+02 2.51565180671513e-01
5.20000000000000e-03 1.81565025232663e+02 2.57648530126976e-01
5.55862068965517e-03 1.79416517909981e+02 2.63247319104873e-01
5.91724137931034e-03 1.77293434446898e+02 2.68404782468255e-01
6.27586206896552e-03 1.75195473996114e+02 2.73158142123974e-01
6.63448275862069e-03 1.73122339270334e+02 2.77539764453909e-01
6.99310344827586e-03 1.71073736500142e+02 2.81578041321982e-01
7.35172413793103e-03 1.69049375392374e+02 2.85298071651130e-01
7.71034482758621e-03 1.67048969088981e+02 2.88722196628367e-01
8.06896551724138e-03 1.65072234126382e+02 2.91870425556843e-01
8.42758620689655e-03 1.63118890395296e+02 2.94760778739891e-01
8.78620689655172e-03 1.61188661101049e+02 2.97409566535267e-01
9.14482758620690e-03 1.59281272724352e+02 2.99831618682433e-01
9.50344827586207e-03 1.57396454982543e+02 3.02040474444557e-01
9.86206896551724e-03 1.55533940791286e+02 3.04048541600789e-01
1.02206896551724e-02 1.53693466226978e+02 3.05867230093982e-01
1.05793103448276e-02 1.51874770488336e+02 3.07507065744005e-01
1.09379310344828e-02 1.50077595860726e+02 3.08977787244455e-01
1.12965517241379e-02 1.48301687679126e+02 3.10288429060215e-01
1.16551724137931e-02 1.46546794292036e+02 3.11447393333815e-01
1.20137931034483e-02 1.44812667025810e+02 3.12462512652297e-01
1.23724137931034e-02 1.43099060151408e+02 3.13341103007355e-01
1.27310344827586e-02 1.41405730843525e+02 3.14090012277966e-01
1.30896551724138e-02 1.39732439152329e+02 3.14715663059115e-01
1.34482758620690e-02 1.38078947967380e+02 3.15224088211994e-01
1.38068965517241e-02 1.36445022984025e+02 3.15620964114748e-01
1.41655172413793e-02 1.34830432670197e+02 3.15911639825107e-01
1.45241379310345e-02 1.33234948233610e+02 3.16101163116613e-01
1.48827586206897e-02 1.31658343589338e+02 3.16194303793389e-01
1.52413793103448e-02 1.30100395327779e+02 3.16195574633651e-01
1.56000000000000e-02 1.28560882682997e+02 3.16109250618844e-01
1.59586206896552e-02 1.27039587502796e+02 3.15939384904336e-01
1.63172413793103e-02 1.25536294213670e+02 3.15689824971213e-01
1.66758620689655e-02 1.24050789794454e+02 3.15364227386631e-01
1.70344827586207e-02 1.22582863744719e+02 3.14966069463387e-01
1.73931034482759e-02 1.21132308054945e+02 3.14498661268342e-01
1.77517241379310e-02 1.19698917177037e+02 3.13965156266627e-01
1.81103448275862e-02 1.18282487995212e+02 3.13368561072989e-01
1.84689655172414e-02 1.16882819797206e+02 3.12711744401400e-01
1.88275862068966e-02 1.15499714245839e+02 3.11997445297738e-01
1.91862068965517e-02 1.14132975350905e+02 3.11228281013894e-01
1.95448275862069e-02 1.12782409442392e+02 3.10406753143697e-01
1.99034482758621e-02 1.11447825140033e+02 3.09535254674231e-01
2.02620689655172e-02 1.10129033329231e+02 3.08616076567703e-01
2.06206896551724e-02 1.08825847133231e+02 3.07651412444580e-01
2.09793103448276e-02 1.07538081886640e+02 3.06643364043107e-01
2.13379310344828e-02 1.06265555109257e+02 3.05593946027263e-01
2.16965517241379e-02 1.05008086480222e+02 3.04505090464576e-01
2.20551724137931e-02 1.03765497812457e+02 3.03378651001957e-01
2.24137931034483e-02 1.02537613027421e+02 3.02216407007767e-01
2.27724137931034e-02 1.01324258130912e+02 3.01020066500381e-01
2.31310344827586e-02 1.00125261186116e+02 2.99791270047771e-01
2.34896551724138e-02 9.89404522915694e+01 2.98531594453457e-01
2.38482758620690e-02 9.77696635562962e+01 2.97242555036259e-01
2.42068965517241e-02 9.66127290760204e+01 2.95925608698084e-01
2.45655172413793e-02 9.54694849096541e+01 2.94582156580818e-01
2.49241379310345e-02 9.43397690560677e+01 2.93213546568479e-01
2.52827586206897e-02 9.32234214311347e+01 2.91821075644346e-01
2.56413793103448e-02 9.21202838450469e+01 2.90405992114381e-01
2.60000000000000e-02 9.10301999798977e+01 2.88969497905234e-01
2.63586206896552e-02 8.99530153681132e+01 2.87512749952775e-01
2.67172413793103e-02 8.88885773687995e+01 2.86036862479599e-01
2.70758620689655e-02 8.78367351478978e+01 2.84542909167452e-01
2.74344827586207e-02 8.67973396562090e+01 2.83031924242549e-01
2.77931034482759e-02 8.57702436082725e+01 2.81504904271766e-01
2.81517241379310e-02 8.47553014614951e+01 2.79962809677702e-01
2.85103448275862e-02 8.37523693955281e+01 2.78406566177247e-01
2.88689655172414e-02 8.27613052918878e+01 2.76837066147906e-01
2.92275862068966e-02 8.17819687138159e+01 2.75255169927607e-01
2.95862068965517e-02 8.08142208863798e+01 2.73661707216677e-01
2.99448275862069e-02 7.98579246772615e+01 2.72057477758479e-01
3.03034482758621e-02 7.89129445759482e+01 2.70443252796692e-01
3.06620689655172e-02 7.79791466759233e+01 2.68819776473028e-01
3.10206896551724e-02 7.70563986552215e+01 2.67187766350662e-01
3.13793103448276e-02 7.61445697576786e+01 2.65547914554780e-01
3.17379310344828e-02 7.52435307744018e+01 2.63900888703616e-01
3.20965517241379e-02 7.43531540254627e+01 2.62247332797624e-01
3.24551724137931e-02 7.34733133418032e+01 2.60587868069162e-01
3.28137931034483e-02 7.26038840473570e+01 2.58923093936729e-01
3.31724137931034e-02 7.17447429417507e+01 2.57253588359255e-01
3.35310344827586e-02 7.08957682817308e+01 2.55579908867928e-01
3.38896551724138e-02 7.00568397650396e+01 2.53902593558659e-01
3.42482758620690e-02 6.92278385129879e+01 2.52222161353326e-01
3.46068965517241e-02 6.84086470536096e+01 2.50539112797739e-01
3.49655172413793e-02 6.75991493050154e+01 2.48853930691227e-01
3.53241379310345e-02 6.67992305589439e+01 2.47167080691144e-01
3.56827586206897e-02 6.60087774645072e+01 2.45479011892859e-01
3.60413793103448e-02 6.52276780121288e+01 2.43790157386777e-01
3.64000000000000e-02 6.44558215176712e+01 2.42100934912670e-01
3.67586206896552e-02 6.36930986070461e+01 2.40411747016282e-01
3.71172413793103e-02 6.29394011998233e+01 2.38722981786564e-01
3.74758620689655e-02 6.21946224948174e+01 2.37035013565824e-01
3.78344827586207e-02 6.14586569546500e+01 2.35348203051408e-01
3.81931034482759e-02 6.07314002907945e+01 2.33662897856062e-01
3.85517241379310e-02 6.00127494487978e+01 2.31979432932791e-01
3.89103448275862e-02 5.93026025936778e+01 2.30298130984030e-01
3.92689655172414e-02 5.86008590954929e+01 2.28619302855597e-01
3.96275862068966e-02 5.79074195150826e+01 2.26943247916651e-01
3.99862068965517e-02 5.72221855899760e+01 2.25270254526735e-01
4.03448275862069e-02 5.65450602207068e+01 2.23600600085346e-01
4.07034482758621e-02 5.58759474563314e+01 2.21934551578572e-01
4.10620689655172e-02 5.52147524815620e+01 2.20272366105789e-01
4.14206896551724e-02 5.45613816030855e+01 2.18614290895300e-01
4.17793103448276e-02 5.39157422362866e+01 2.16960563711830e-01
4.21379310344828e-02 5.32777428921281e+01 2.15311413152742e-01
4.24965517241379e-02 5.26472931641874e+01 2.13667058933923e-01
4.28551724137931e-02 5.20243037158449e+01 2.12027712165770e-01
4.32137931034483e-02 5.14086862676251e+01 2.10393575707240e-01
4.35724137931034e-02 5.08003535848849e+01 2.08764844161487e-01
4.39310344827586e-02 5.01992194648526e+01 2.07141704303411e-01
4.42896551724138e-02 4.96051987250184e+01 2.05524335491407e-01
4.46482758620690e-02 4.90182071908597e+01 2.03912909640367e-01
4.50068965517241e-02 4.84381616839136e+01 2.02307591534699e-01
4.53655172413793e-02 4.78649800099900e+01 2.00708539046836e-01
4.57241379310345e-02 4.72985809475243e+01 1.99115903348807e-01
4.60827586206897e-02 4.67388842360687e+01 1.97529829116871e-01
4.64413793103448e-02 4.61858105649184e+01 1.95950454729618e-01
4.68000000000000e-02 4.56392815618733e+01 1.94377912534238e-01
4.71586206896552e-02 4.50992197822950e+01 1.92812328808296e-01
4.75172413793103e-02 4.45655486976401e+01 1.91253824092016e-01
4.78758620689655e-02 4.40381926851135e+01 1.89702513507991e-01
4.82344827586207e-02 4.35170770167847e+01 1.88158506708165e-01
4.85931034482759e-02 4.30021278489985e+01 1.86621908112094e-01
4.89517241379310e-02 4.24932722119115e+01 1.85092817065851e-01
4.93103448275862e-02 4.19904379991517e+01 1.83571327996053e-01
4.96689655172414e-02 4.14935539576011e+01 1.82057530559047e-01
5.00275862068966e-02 4.10025496772991e+01 1.80551509785691e-01
5.03862068965517e-02 4.05173555814644e+01 1.79053346285412e-01
5.07448275862069e-02 4.00379029167706e+01 1.77563116190466e-01
5.11034482758621e-02 3.95641237431973e+01 1.76080891418558e-01
5.14620689655172e-02 3.90959509248129e+01 1.74606739925168e-01
5.18206896551724e-02 3.86333181201231e+01 1.73140725637964e-01
5.21793103448276e-02 3.81761597726702e+01 1.71682908641183e-01
5.25379310344828e-02 3.77244111017434e+01 1.70233345292938e-01
5.28965517241379e-02 3.72780080931992e+01 1.68792088338943e-01
5.32551724137931e-02 3.68368874903909e+01 1.67359187022809e-01
5.36137931034483e-02 3.64009867852042e+01 1.65934687248682e-01
5.39724137931034e-02 3.59702442093130e+01 1.64518631518224e-01
5.43310344827586e-02 3.55445987250846e+01 1.63111059145394e-01
5.46896551724138e-02 3.51239900172755e+01 1.61712006462495e-01
5.50482758620690e-02 3.47083584843688e+01 1.60321506750254e-01
5.54068965517241e-02 3.42976452301278e+01 1.58939590385837e-01
5.57655172413793e-02 3.38917920552513e+01 1.57566284932834e-01
5.61241379310345e-02 3.34907414491251e+01 1.56201615228708e-01
5.64827586206897e-02 3.30944365816742e+01 1.54845603469678e-01
5.68413793103448e-02 3.27028212953086e+01 1.53498269293180e-01
5.72000000000000e-02 3.23158400969659e+01 1.52159629905690e-01
5.75586206896552e-02 3.19334381503424e+01 1.50829700016896e-01
5.79172413793103e-02 3.15555612678369e+01 1.49508492013281e-01
5.82758620689655e-02 3.11821559031603e+01 1.48196016124360e-01
5.86344827586207e-02 3.08131691436511e+01 1.46892280352178e-01
5.89931034482759e-02 3.04485487027772e+01 1.45597290588437e-01
5.93517241379310e-02 3.00882429127270e+01 1.44311050682135e-01
5.97103448275862e-02 2.97322007170881e+01 1.43033562505280e-01
6.00689655172414e-02 2.93803716636118e+01 1.41764826016714e-01
6.04275862068966e-02 2.90327058970649e+01 1.40504839324217e-01
6.07862068965517e-02 2.86891541521638e+01 1.39253598785919e-01
6.11448275862069e-02 2.83496677466733e+01 1.38011098945134e-01
6.15034482758621e-02 2.80141985742691e+01 1.36777332671834e-01
6.18620689655172e-02 2.76826990979620e+01 1.35552291297870e-01
6.22206896551724e-02 2.73551223432806e+01 1.34335964548650e-01
6.25793103448276e-02 2.70314218916150e+01 1.33128340636615e-01
6.29379310344828e-02 2.67115518736389e+01 1.31929406312348e-01
6.32965517241379e-02 2.63954669628100e+01 1.30739146914207e-01
6.36551724137931e-02 2.60831223689473e+01 1.29557546416535e-01
6.40137931034483e-02 2.57744738318835e+01 1.28384587512562e-01
6.43724137931034e-02 2.54694776152612e+01 1.27220251551637e-01
6.47310344827586e-02 2.51680905001313e+01 1.26064518657544e-01
6.50896551724138e-02 2.48702697790345e+01 1.24917367841385e-01
6.54482758620690e-02 2.45759732498801e+01 1.23778776936623e-01
6.58068965517241e-02 2.42851592099662e+01 1.22648722675823e-01
6.61655172413793e-02 2.39977864500697e+01 1.21527180730388e-01
6.65241379310345e-02 2.37138142486074e+01 1.20414125749257e-01
6.68827586206897e-02 2.34332023658656e+01 1.19309531396478e-01
6.72413793103448e-02 2.31559110382975e+01 1.18213370387762e-01
6.76000000000000e-02 2.28819009728893e+01 1.17125614557111e-01
6.79586206896552e-02 2.26111333416481e+01 1.16046234797691e-01
6.83172413793103e-02 2.23435697759293e+01 1.14975201159396e-01
6.86758620689655e-02 2.20791723611720e+01 1.13912482941760e-01
6.90344827586207e-02 2.18179036314685e+01 1.12858048633376e-01
6.93931034482759e-02 2.15597265642551e+01 1.11811865973847e-01
6.97517241379310e-02 2.13046045750658e+01 1.10773901983921e-01
7.01103448275862e-02 2.10525015123485e+01 1.09744122994806e-01
7.04689655172414e-02 2.08033816523421e+01 1.08722494676613e-01
7.08275862068966e-02 2.05572096940141e+01 1.07708982066065e-01
7.11862068965517e-02 2.03139507540586e+01 1.06703549620312e-01
7.15448275862069e-02 2.00735703620009e+01 1.05706161162011e-01
7.19034482758621e-02 1.98360344551683e+01 1.04716779960153e-01
7.22620689655172e-02 1.96013093740096e+01 1.03735368806868e-01
7.26206896551724e-02 1.93693618572757e+01 1.02761889961579e-01
7.29793103448276e-02 1.91401590373067e+01 1.01796305201225e-01
7.33379310344828e-02 1.89136684353748e+01 1.00838575843088e-01
7.36965517241379e-02 1.86898579570812e+01 9.98886627669309e-02
7.40551724137931e-02 1.84686958878091e+01 9.89465264364968e-02
7.44137931034483e-02 1.82501508882288e+01 9.80121269440638e-02
7.47724137931035e-02 1.80341919898984e+01 9.70854239595281e-02
7.51310344827586e-02 1.78207885907514e+01 9.61663767988238e-02
7.54896551724138e-02 1.76099104508850e+01 9.52549444888236e-02
7.58482758620690e-02 1.74015276882336e+01 9.43510857158327e-02
7.62068965517241e-02 1.71956107743338e+01 9.34547588672963e-02
7.65655172413793e-02 1.69921305301403e+01 9.25659220494560e-02
7.69241379310345e-02 1.67910581218913e+01 9.16845331045258e-02
7.72827586206897e-02 1.65923650570228e+01 9.08105496273537e-02
7.76413793103448e-02 1.63960231801305e+01 8.99439289815988e-02
7.80000000000000e-02 1.62020046689808e+01 8.90846283359510e-02
7.83586206896552e-02 1.60102820306025e+01 8.82326046175934e-02
7.87172413793103e-02 1.58208280972863e+01 8.73878145692645e-02
7.90758620689655e-02 1.56336160228408e+01 8.65502148032625e-02
7.94344827586207e-02 1.54486192787528e+01 8.57197617545838e-02
7.97931034482759e-02 1.52658116504279e+01 8.48964117149397e-02
8.01517241379310e-02 1.50851672334761e+01 8.40801208459854e-02
8.05103448275862e-02 1.49066604300410e+01 8.32708451921477e-02
8.08689655172414e-02 1.47302659451723e+01 8.24685406930530e-02
8.12275862068965e-02 1.45559587832416e+01 8.16731631956166e-02
8.15862068965517e-02 1.43837142444006e+01 8.08846684835518e-02
8.19448275862069e-02 1.42135079211102e+01 8.01030122350598e-02
8.23034482758621e-02 1.40453156945928e+01 7.93281500705466e-02
8.26620689655172e-02 1.38791137315048e+01 7.85600375976816e-02
8.30206896551724e-02 1.37148784805288e+01 7.77986303689537e-02
8.33793103448276e-02 1.35525866690364e+01 7.70438839094766e-02
8.37379310344828e-02 1.33922152997905e+01 7.62957537267790e-02
8.40965517241379e-02 1.32337416476863e+01 7.55541953202885e-02
8.44551724137931e-02 1.30771432565314e+01 7.48191641904990e-02
8.48137931034483e-02 1.29223979358632e+01 7.40906158635405e-02
8.51724137931034e-02 1.27694837578304e+01 7.33685058525204e-02
8.55310344827586e-02 1.26183790540087e+01 7.26527896981971e-02
8.58896551724138e-02 1.24690624124076e+01 7.19434230073165e-02
8.62482758620690e-02 1.23215126744105e+01 7.12403614139370e-02
8.66068965517241e-02 1.21757089317764e+01 7.05435606026324e-02
8.69655172413793e-02 1.20316305236768e+01 6.98529763158503e-02
8.73241379310345e-02 1.18892570337688e+01 6.91685643610464e-02
8.76827586206897e-02 1.17485682873009e+01 6.84902806175649e-02
8.80413793103448e-02 1.16095443482554e+01 6.78180810433000e-02
8.84000000000000e-02 1.14721655165224e+01 6.71519216947694e-02
8.87586206896552e-02 1.13364123251305e+01 6.64917586922083e-02
8.91172413793103e-02 1.12022655374225e+01 6.58375482537133e-02
8.94758620689655e-02 1.10697061443955e+01 6.51892467273516e-02
8.98344827586207e-02 1.09387153619854e+01 6.45468105563295e-02
9.01931034482759e-02 1.08092746284050e+01 6.39101962979999e-02
9.05517241379310e-02 1.06813656015133e+01 6.32793606291251e-02
9.09103448275862e-02 1.05549701562172e+01 6.26542603509437e-02
9.12689655172414e-02 1.04300703819023e+01 6.20348523940490e-02
9.16275862068966e-02 1.03066485798955e+01 6.14210938231099e-02
9.19862068965517e-02 1.01846872609567e+01 6.08129418532720e-02
9.23448275862069e-02 1.00641691428191e+01 6.02103538187240e-02
9.27034482758621e-02 9.94507714768431e+00 5.96132872014059e-02
9.30620689655172e-02 9.82739439985901e+00 5.90216996579420e-02
9.34206896551724e-02 9.71110422334431e+00 5.84355489883467e-02
9.37793103448276e-02 9.59619013947288e+00 5.78547931515942e-02
9.41379310344828e-02 9.48263586457386e+00 5.72793902692566e-02
9.44965517241379e-02 9.37042530766539e+00 5.67092986289837e-02
9.48551724137931e-02 9.25954256817451e+00 5.61444766878314e-02
9.52137931034483e-02 9.14997193368396e+00 5.55848830859503e-02
9.55724137931035e-02 9.04169787772170e+00 5.50304766180393e-02
9.59310344827586e-02 8.93470505751234e+00 5.44812162579200e-02
9.62896551724138e-02 8.82897831185187e+00 5.39370611815487e-02
9.66482758620690e-02 8.72450265894284e+00 5.33979707386407e-02
9.70068965517241e-02 8.62126329427141e+00 5.28639044656943e-02
9.73655172413793e-02 8.51924558850950e+00 5.23348220884714e-02
9.77241379310345e-02 8.41843508544174e+00 5.18106835243660e-02
9.80827586206897e-02 8.31881749991704e+00 5.12914488846618e-02
9.84413793103448e-02 8.22037871582430e+00 5.07770784766817e-02
9.88000000000000e-02 8.12310478409211e+00 5.02675328149665e-02
9.91586206896552e-02 8.02698192072586e+00 4.97627725956585e-02
9.95172413793103e-02 7.93199650481298e+00 4.92627587172058e-02
9.98758620689655e-02 7.83813507663475e+00 4.87674523346403e-02
1.00234482758621e-01 7.74538433579699e+00 4.82768147027742e-02
1.00593103448276e-01 7.65373113914902e+00 4.77908073115693e-02
1.00951724137931e-01 7.56316249915909e+00 4.73093920375680e-02
1.01310344827586e-01 7.47366558210525e+00 4.68325307365520e-02
1.01668965517241e-01 7.38522770587906e+00 4.63601854790340e-02
1.02027586206897e-01 7.29783633856932e+00 4.58923187134444e-02
1.02386206896552e-01 7.21147909655821e+00 4.54288930979262e-02
1.02744827586207e-01 7.12614374288418e+00 4.49698713442684e-02
1.03103448275862e-01 7.04181818515216e+00 4.45152163832838e-02
1.03462068965517e-01 6.95849047417869e+00 4.40648915959475e-02
1.03820689655172e-01 6.87614880229042e+00 4.36188603470120e-02
1.04179310344828e-01 6.79478150131148e+00 4.31770862226610e-02
1.04537931034483e-01 6.71437704125213e+00 4.27395332521989e-02
1.04896551724138e-01 6.63492402866734e+00 4.23061654604159e-02
1.05255172413793e-01 6.55641120471808e+00 4.18769470954388e-02
1.05613793103448e-01 6.47882744390258e+00 4.14518428412353e-02
1.05972413793103e-01 6.40216175247240e+00 4.10308173879535e-02
1.06331034482759e-01 6.32640326656521e+00 4.06138356505110e-02
1.06689655172414e-01 6.25154125097719e+00 4.02008629046333e-02
1.07048275862069e-01 6.17756509753705e+00 3.97918646453145e-02
1.07406896551724e-01 6.10446432369917e+00 3.93868064553249e-02
1.07765517241379e-01 6.03222857076670e+00 3.89856541432858e-02
1.08124137931034e-01 5.96084760271756e+00 3.85883739366312e-02
1.08482758620690e-01 5.89031130474732e+00 3.81949320901434e-02
1.08841379310345e-01 5.82060968155748e+00 3.78052950846431e-02
1.09200000000000e-01 5.75173285621969e+00 3.74194298121154e-02
1.09558620689655e-01 5.68367106876986e+00 3.70373031999052e-02
1.09917241379310e-01 5.61641467455928e+00 3.66588824012173e-02
1.10275862068966e-01 5.54995414315585e+00 3.62841349726801e-02
1.10634482758621e-01 5.48428005698759e+00 3.59130285135432e-02
1.10993103448276e-01 5.41938310975421e+00 3.55455308484304e-02
1.11351724137931e-01 5.35525410536432e+00 3.51816101975685e-02
1.11710344827586e-01 5.29188395662651e+00 3.48212348303877e-02
1.12068965517241e-01 5.22926368371914e+00 3.44643732408958e-02
1.12427586206897e-01 5.16738441316240e+00 3.41109942564264e-02
1.12786206896552e-01 5.10623737647869e+00 3.37610669231738e-02
1.13144827586207e-01 5.04581390902573e+00 3.34145603997030e-02
