Energy (eV)          EEDF (eV^-(3/2))     First Anisotropy
2.93965517241379e-03 1.14608947922171e+00 5.58047998224209e-04
8.81896551724138e-03 1.13928753936423e+00 9.21860475865375e-04
1.46982758620690e-02 1.13252596840525e+00 1.21792660447127e-03
2.05775862068966e-02 1.12580452679241e+00 1.44343955211769e-03
2.64568965517241e-02 1.11912297632460e+00 1.63200853094811e-03
3.23362068965517e-02 1.11248108028047e+00 1.79632330460266e-03
3.82155172413793e-02 1.10587860329179e+00 1.94294228813064e-03
4.40948275862069e-02 1.09931531142941e+00 2.07582088109062e-03
4.99741379310345e-02 1.09279097211662e+00 2.19757907655971e-03
5.58534482758621e-02 1.08630535418808e+00 2.31006631400799e-03
6.17327586206897e-02 1.07985822783368e+00 2.41464993975545e-03
6.76120689655172e-02 1.07344936459943e+00 2.51237719534997e-03
7.34913793103448e-02 1.06707853740642e+00 2.60407284144570e-03
7.93706896551724e-02 1.06074552050567e+00 2.69040128452285e-03
8.52500000000000e-02 1.05445008950445e+00 2.77190787964646e-03
9.11293103448276e-02 1.04819202132640e+00 2.84904738879674e-03
9.70086206896552e-02 1.04197109423348e+00 2.92220418298909e-03
1.02887931034483e-01 1.03578708779011e+00 2.99170695104755e-03
1.08767241379310e-01 1.02963978289254e+00 3.05783965406547e-03
1.14646551724138e-01 1.02352896167075e+00 3.12084981133641e-03
1.20525862068966e-01 1.01745440765274e+00 3.18095491190136e-03
1.26405172413793e-01 1.01141590559292e+00 3.23834744520930e-03
1.32284482758621e-01 1.00541324147926e+00 3.29319883686058e-03
1.38163793103448e-01 9.99446202663354e-01 3.34566265708037e-03
1.44043103448276e-01 9.93514577709916e-01 3.39587722406933e-03
1.49922413793103e-01 9.87618156400677e-01 3.44396768668752e-03
1.55801724137931e-01 9.81756729845180e-01 3.49004779236528e-03
1.61681034482759e-01 9.75930090350825e-01 3.53422136043045e-03
1.67560344827586e-01 9.70138031424525e-01 3.57658347275504e-03
1.73439655172414e-01 9.64380347868633e-01 3.61722152375458e-03
1.79318965517241e-01 9.58656835666856e-01 3.65621611376066e-03
1.85198275862069e-01 9.52967291984385e-01 3.69364177057244e-03
1.91077586206897e-01 9.47311515251921e-01 3.72956761121639e-03
1.96956896551724e-01 9.41689305064425e-01 3.76405791445040e-03
2.02836206896552e-01 9.36100462179872e-01 3.79717257812830e-03
2.08715517241379e-01 9.30544788593786e-01 3.82896755695681e-03
2.14594827586207e-01 9.25022087448382e-01 3.85949524648305e-03
2.20474137931034e-01 9.19532163030329e-01 3.88880478327893e-03
2.26353448275862e-01 9.14074820837394e-01 3.91694234649591e-03
2.32232758620690e-01 9.08649867496203e-01 3.94395142548281e-03
2.38112068965517e-01 9.03257110759283e-01 3.96987302217868e-03
2.43991379310345e-01 8.97896359565052e-01 3.99474586615247e-03
2.49870689655172e-01 8.92567423962831e-01 4.01860660736392e-03
2.55750000000000e-01 8.87270115109369e-01 4.04148995541354e-03
2.61629310344828e-01 8.82004245323135e-01 4.06342884117221e-03
2.67508620689655e-01 8.76769627996338e-01 4.08445454518701e-03
2.73387931034483e-01 8.71566077667984e-01 4.10459681297917e-03
2.79267241379310e-01 8.66393409957690e-01 4.12388397780934e-03
2.85146551724138e-01 8.61251441561766e-01 4.14234303719010e-03
2.91025862068966e-01 8.56139990300495e-01 4.15999975321361e-03
2.96905172413793e-01 8.51058875056934e-01 4.17687874432751e-03
3.02784482758621e-01 8.46007915772834e-01 4.19300353927790e-03
3.08663793103448e-01 8.40986933491852e-01 4.20839665576279e-03
3.14543103448276e-01 8.35995750302715e-01 4.22307967278398e-03
3.20422413793103e-01 8.31034189335030e-01 4.23707326860336e-03
3.26301724137931e-01 8.26102074798915e-01 4.25039728363226e-03
3.32181034482759e-01 8.21199231932024e-01 4.26307077856065e-03
3.38060344827586e-01 8.16325486995278e-01 4.27511206079416e-03
3.43939655172414e-01 8.11480667309328e-01 4.28653873564309e-03
3.49818965517241e-01 8.06664601205018e-01 4.29736775383404e-03
3.55698275862069e-01 8.01877118019061e-01 4.30761542952654e-03
3.61577586206897e-01 7.97118048127670e-01 4.31729748264991e-03
3.67456896551724e-01 7.92387222900154e-01 4.32642907835904e-03
3.73336206896552e-01 7.87684474694480e-01 4.33502483881990e-03
3.79215517241379e-01 7.83009636888430e-01 4.34309887873097e-03
3.85094827586207e-01 7.78362543835992e-01 4.35066483857025e-03
3.90974137931034e-01 7.73743030862841e-01 4.35773589171876e-03
3.96853448275862e-01 7.69150934295275e-01 4.36432477466412e-03
4.02732758620690e-01 7.64586091419126e-01 4.37044381538383e-03
4.08612068965517e-01 7.60048340475195e-01 4.37610493695454e-03
4.14491379310345e-01 7.55537520686170e-01 4.38131968354869e-03
4.20370689655172e-01 7.51053472217829e-01 4.38609924495518e-03
4.26250000000000e-01 7.46596036174454e-01 4.39045445752268e-03
4.32129310344828e-01 7.42165054623909e-01 4.39439582915500e-03
4.38008620689655e-01 7.37760370551118e-01 4.39793355122525e-03
4.43887931034483e-01 7.33381827892828e-01 4.40107750936324e-03
4.49767241379310e-01 7.29029271501882e-01 4.40383730570945e-03
4.55646551724138e-01 7.24702547142658e-01 4.40622225660139e-03
4.61525862068966e-01 7.20401501513718e-01 4.40824141100711e-03
4.67405172413793e-01 7.16125982213903e-01 4.40990356803436e-03
4.73284482758621e-01 7.11875837737813e-01 4.41121727332992e-03
4.79163793103448e-01 7.07650917496977e-01 4.41219083554326e-03
4.85043103448276e-01 7.03451071787633e-01 4.41283234198408e-03
4.90922413793103e-01 6.99276151786247e-01 4.41314965404209e-03
4.96801724137931e-01 6.95126009569331e-01 4.41315042200704e-03
5.02681034482759e-01 6.91000498082776e-01 4.41284209917736e-03
5.08560344827586e-01 6.86899471137416e-01 4.41223193653758e-03
5.14439655172414e-01 6.82822783427607e-01 4.41132699619273e-03
5.20318965517241e-01 6.78770290501995e-01 4.41013416417039e-03
5.26198275862069e-01 6.74741848759132e-01 4.40866014454118e-03
5.32077586206897e-01 6.70737315464904e-01 4.40691147167130e-03
5.37956896551724e-01 6.66756548724653e-01 4.40489452191707e-03
5.43836206896552e-01 6.62799407478822e-01 4.40261550733292e-03
5.49715517241379e-01 6.58865751519333e-01 4.40008048690634e-03
5.55594827586207e-01 6.54955441462974e-01 4.39729537730596e-03
5.61474137931035e-01 6.51068338747067e-01 4.39426594628899e-03
5.67353448275862e-01 6.47204305644884e-01 4.39099782305752e-03
5.73232758620690e-01 6.43363205240205e-01 4.38749650818766e-03
5.79112068965517e-01 6.39544901423018e-01 4.38376736682691e-03
5.84991379310345e-01 6.35749258904049e-01 4.37981563828620e-03
5.90870689655172e-01 6.31976143190404e-01 4.37564644525514e-03
5.96750000000000e-01 6.28225420581311e-01 4.37126478686135e-03
6.02629310344828e-01 6.24496958181824e-01 4.36667554928364e-03
6.08508620689655e-01 6.20790623873541e-01 4.36188350756403e-03
6.14387931034483e-01 6.17106286334195e-01 4.35689332705588e-03
6.20267241379310e-01 6.13443815014823e-01 4.35170957345182e-03
6.26146551724138e-01 6.09803080135602e-01 4.34633670565892e-03
6.32025862068965e-01 6.06183952698401e-01 4.34077908381876e-03
6.37905172413793e-01 6.02586304464880e-01 4.33504097703382e-03
6.43784482758621e-01 5.99010007952387e-01 4.32912655623693e-03
6.49663793103448e-01 5.95454936445804e-01 4.32303990172909e-03
6.55543103448276e-01 5.91920963976521e-01 4.31678501044378e-03
6.61422413793103e-01 5.88407965318384e-01 4.31036578883958e-03
6.67301724137931e-01 5.84915815998896e-01 4.30378606000617e-03
6.73181034482759e-01 5.81444392278999e-01 4.29704957051279e-03
6.79060344827586e-01 5.77993571149092e-01 4.29015998335034e-03
6.84939655172414e-01 5.74563230339612e-01 4.28312088464882e-03
6.90818965517241e-01 5.71153248301596e-01 4.27593579015067e-03
6.96698275862069e-01 5.67763504202753e-01 4.26860813822151e-03
7.02577586206897e-01 5.64393877937472e-01 4.26114129621334e-03
7.08456896551724e-01 5.61044250108125e-01 4.25353856660163e-03
7.14336206896552e-01 5.57714502021182e-01 4.24580318007976e-03
7.20215517241379e-01 5.54404515696696e-01 4.23793830159821e-03
7.26094827586207e-01 5.51114173850293e-01 4.22994703619611e-03
7.31974137931034e-01 5.47843359889345e-01 4.22183242219236e-03
7.37853448275862e-01 5.44591957921951e-01 4.21359743692804e-03
7.43732758620690e-01 5.41359852739590e-01 4.20524500231945e-03
7.49612068965517e-01 5.38146929813342e-01 4.19677797815390e-03
7.55491379310345e-01 5.34953075302403e-01 4.18819916756117e-03
7.61370689655172e-01 5.31778176037364e-01 4.17951132231106e-03
7.67250000000000e-01 5.28622119516482e-01 4.17071713622078e-03
7.73129310344828e-01 5.25484793913753e-01 4.16181925163315e-03
7.79008620689655e-01 5.22366088058886e-01 4.15282025944240e-03
7.84887931034483e-01 5.19265891449254e-01 4.14372269891436e-03
7.90767241379310e-01 5.16184094234077e-01 4.13452906394201e-03
7.96646551724138e-01 5.13120587210787e-01 4.12524179660616e-03
8.02525862068965e-01 5.10075261832485e-01 4.11586329204713e-03
8.08405172413793e-01 5.07048010192669e-01 4.10639590319034e-03
8.14284482758621e-01 5.04038725021664e-01 4.09684193443235e-03
8.20163793103448e-01 5.01047299693688e-01 4.08720364631089e-03
8.26043103448276e-01 4.98073628212107e-01 4.07748326003369e-03
8.31922413793103e-01 4.95117605205920e-01 4.06768295129119e-03
8.37801724137931e-01 4.92179125936467e-01 4.05780485474003e-03
8.43681034482759e-01 4.89258086283179e-01 4.04785106834843e-03
8.49560344827586e-01 4.86354382740117e-01 4.03782364733670e-03
8.55439655172414e-01 4.83467912422348e-01 4.02772460848559e-03
8.61318965517241e-01 4.80598573052161e-01 4.01755593431033e-03
8.67198275862069e-01 4.77746262955668e-01 4.00731956712990e-03
8.73077586206897e-01 4.74910881068854e-01 3.99701741321007e-03
8.78956896551724e-01 4.72092326924252e-01 3.98665134677905e-03
8.84836206896552e-01 4.69290500647594e-01 3.97622320422493e-03
8.90715517241379e-01 4.66505302963558e-01 3.96573478808156e-03
8.96594827586207e-01 4.63736635182880e-01 3.95518787089667e-03
9.02474137931034e-01 4.60984399199056e-01 3.94458418955644e-03
9.08353448275862e-01 4.58248497493804e-01 3.93392544912362e-03
9.14232758620690e-01 4.55528833124590e-01 3.92321332656740e-03
9.20112068965517e-01 4.52825309721381e-01 3.91244946521339e-03
9.25991379310345e-01 4.50137831491839e-01 3.90163547844273e-03
9.31870689655172e-01 4.47466303209245e-01 3.89077295329082e-03
9.37750000000000e-01 4.44810630209301e-01 3.87986344502174e-03
9.43629310344828e-01 4.42170718395067e-01 3.86890848165451e-03
9.49508620689655e-01 4.39546474222581e-01 3.85790956360002e-03
9.55387931034483e-01 4.36937804708482e-01 3.84686816315403e-03
9.61267241379310e-01 4.34344617418520e-01 3.83578572890858e-03
9.67146551724138e-01 4.31766820464442e-01 3.82466368050285e-03
9.73025862068965e-01 4.29204322508577e-01 3.81350341200424e-03
9.78905172413793e-01 4.26657032752693e-01 3.80230629520039e-03
9.84784482758621e-01 4.24124860934943e-01 3.79107367447126e-03
9.90663793103448e-01 4.21607717334215e-01 3.77980687005818e-03
9.96543103448276e-01 4.19105512759345e-01 3.76850718124559e-03
1.00242241379310e+00 4.16618158546096e-01 3.75717588223128e-03
1.00830172413793e+00 4.14145566558915e-01 3.74581422263426e-03
1.01418103448276e+00 4.11687649187702e-01 3.73442343149199e-03
1.02006034482759e+00 4.09244319339886e-01 3.72300471675354e-03
1.02593965517241e+00 4.06815490439785e-01 3.71155926389838e-03
1.03181896551724e+00 4.04401076425529e-01 3.70008823723236e-03
1.03769827586207e+00 4.02000991746026e-01 3.68859278027484e-03
1.04357758620690e+00 3.99615151357921e-01 3.67707401614277e-03
1.04945689655172e+00 3.97243470722586e-01 3.66553304791925e-03
1.05533620689655e+00 3.94885865803120e-01 3.65397095901509e-03
1.06121551724138e+00 3.92542253061377e-01 3.64238881352330e-03
1.06709482758621e+00 3.90212549455001e-01 3.63078765656648e-03
1.07297413793103e+00 3.87896672434486e-01 3.61916851463587e-03
1.07885344827586e+00 3.85594539940250e-01 3.60753239592278e-03
1.08473275862069e+00 3.83306070399727e-01 3.59588029064382e-03
1.09061206896552e+00 3.81031182724480e-01 3.58421317135899e-03
1.09649137931034e+00 3.78769796307322e-01 3.57253199328294e-03
1.10237068965517e+00 3.76521831019464e-01 3.56083769458932e-03
1.10825000000000e+00 3.74287207207675e-01 3.54913120419355e-03
1.11412931034483e+00 3.72065845672052e-01 3.53741341948027e-03
1.12000862068966e+00 3.69857667721771e-01 3.52568522169008e-03
1.12588793103448e+00 3.67662595113403e-01 3.51394749144662e-03
1.13176724137931e+00 3.65480550067884e-01 3.50220108607249e-03
1.13764655172414e+00 3.63311455267764e-01 3.49044684754876e-03
1.14352586206897e+00 3.61155233854463e-01 3.47868560277932e-03
1.14940517241379e+00 3.59011809425553e-01 3.46691816384892e-03
1.15528448275862e+00 3.56881106032047e-01 3.45514532827550e-03
1.16116379310345e+00 3.54763048175709e-01 3.44336787925789e-03
1.16704310344828e+00 3.52657560806378e-01 3.43158658591947e-03
1.17292241379310e+00 3.50564569319309e-01 3.41980220354568e-03
1.17880172413793e+00 3.48483999552531e-01 3.40801547381723e-03
1.18468103448276e+00 3.46415777784218e-01 3.39622712503961e-03
1.19056034482759e+00 3.44359830730076e-01 3.38443787236700e-03
1.19643965517241e+00 3.42316085540748e-01 3.37264841802382e-03
1.20231896551724e+00 3.40284469799226e-01 3.36085945151768e-03
1.20819827586207e+00 3.38264911518296e-01 3.34907164985028e-03
1.21407758620690e+00 3.36257339137983e-01 3.33728567772869e-03
1.21995689655172e+00 3.34261681523014e-01 3.32550218776756e-03
1.22583620689655e+00 3.32277867960295e-01 3.31372182068827e-03
1.23171551724138e+00 3.30305828156413e-01 3.30194520551529e-03
1.23759482758621e+00 3.28345492235137e-01 3.29017295976829e-03
1.24347413793103e+00 3.26396790734945e-01 3.27840568965078e-03
1.24935344827586e+00 3.24459654606566e-01 3.26664399023520e-03
1.25523275862069e+00 3.22534015210529e-01 3.25488844564439e-03
1.26111206896552e+00 3.20619804314732e-01 3.24313962923048e-03
1.26699137931034e+00 3.18716954092024e-01 3.23139810374976e-03
1.27287068965517e+00 3.16825397117806e-01 3.21966442153404e-03
1.27875000000000e+00 3.14945066367634e-01 3.20793913052403e-03
1.28462931034483e+00 3.13075895200692e-01 3.19622275675753e-03
1.29050862068966e+00 3.11217817400140e-01 3.18451581635866e-03
1.29638793103448e+00 3.09370767127816e-01 3.17281882764379e-03
1.30226724137931e+00 3.07534678936305e-01 3.16113229329466e-03
1.30814655172414e+00 3.05709487766612e-01 3.14945670653627e-03
1.31402586206897e+00 3.03895128945866e-01 3.13779255128840e-03
1.31990517241379e+00 3.02091538185021e-01 3.12614030231444e-03
1.32578448275862e+00 3.00298651576584e-01 3.11450042536680e-03
1.33166379310345e+00 2.98516405592344e-01 3.10287337733051e-03
1.33754310344828e+00 2.96744737081127e-01 3.09125960636427e-03
1.34342241379310e+00 2.94983583266554e-01 3.07965955203826e-03
1.34930172413793e+00 2.93232881744821e-01 3.06807364547038e-03
1.35518103448276e+00 2.91492570482483e-01 3.05650230946023e-03
1.36106034482759e+00 2.89762587814258e-01 3.04494595862018e-03
1.36693965517241e+00 2.88042872440845e-01 3.03340499950554e-03
1.37281896551724e+00 2.86333363426742e-01 3.02187983073906e-03
1.37869827586207e+00 2.84634000198102e-01 3.01037084313565e-03
1.38457758620690e+00 2.82944722540574e-01 2.99887841982705e-03
1.39045689655172e+00 2.81265470597176e-01 2.98740293638098e-03
1.39633620689655e+00 2.79596184866172e-01 2.97594476092015e-03
1.40221551724138e+00 2.77936806198964e-01 2.96450425423802e-03
1.40809482758621e+00 2.76287275797995e-01 2.95308176991360e-03
1.41397413793103e+00 2.74647535214667e-01 2.94167765442381e-03
1.41985344827586e+00 2.73017526347269e-01 2.93029224725388e-03
1.42573275862069e+00 2.71397191438919e-01 2.91892588100655e-03
1.43161206896552e+00 2.69786473075517e-01 2.90757888150896e-03
1.43749137931034e+00 2.68185314183711e-01 2.89625156791758e-03
1.44337068965517e+00 2.66593658028873e-01 2.88494425282155e-03
1.44925000000000e+00 2.65011448213094e-01 2.87365724698094e-03
1.45512931034483e+00 2.63438628662661e-01 2.86239084545320e-03
1.46100862068966e+00 2.61875143657796e-01 2.85114533703765e-03
1.46688793103448e+00 2.60320937798786e-01 2.83992101381729e-03
1.47276724137931e+00 2.58775956014712e-01 2.82871815703967e-03
1.47864655172414e+00 2.57240143561497e-01 2.81753704197116e-03
1.48452586206897e+00 2.55713446019964e-01 2.80637793798975e-03
1.49040517241379e+00 2.54195809293911e-01 2.79524110867520e-03
1.49628448275862e+00 2.52687179608189e-01 2.78412681189845e-03
1.50216379310345e+00 2.51187503506804e-01 2.77303529990969e-03
1.50804310344828e+00 2.49696727851015e-01 2.76196681942418e-03
1.51392241379310e+00 2.48214799817457e-01 2.75092161170767e-03
1.51980172413793e+00 2.46741666896268e-01 2.73989991266053e-03
1.52568103448276e+00 2.45277276889224e-01 2.72890195289952e-03
1.53156034482759e+00 2.43821577907897e-01 2.71792795783870e-03
1.53743965517241e+00 2.42374518371809e-01 2.70697814777019e-03
1.54331896551724e+00 2.40936047006608e-01 2.69605273794151e-03
1.54919827586207e+00 2.39506112842252e-01 2.68515193863248e-03
1.55507758620690e+00 2.38084665211202e-01 2.67427595523250e-03
1.56095689655172e+00 2.36671653746627e-01 2.66342498831566e-03
1.56683620689655e+00 2.35267028380616e-01 2.65259923371376e-03
1.57271551724138e+00 2.33870739342411e-01 2.64179888258858e-03
1.57859482758621e+00 2.32482737156636e-01 2.63102412150413e-03
1.58447413793103e+00 2.31102972641548e-01 2.62027513249629e-03
1.59035344827586e+00 2.29731396907293e-01 2.60955209314230e-03
1.59623275862069e+00 2.28367961354175e-01 2.59885517662926e-03
1.60211206896552e+00 2.27012617670934e-01 2.58818455182101e-03
1.60799137931034e+00 2.25665317833029e-01 2.57754038332440e-03
1.61387068965517e+00 2.24326014100945e-01 2.56692283155397e-03
1.61975000000000e+00 2.22994659018494e-01 2.55633205648613e-03
1.62562931034483e+00 2.21671205403220e-01 2.54576820660137e-03
1.63150862068966e+00 2.20355606368603e-01 2.53523142638340e-03
1.63738793103448e+00 2.19047815298395e-01 2.52472186389839e-03
1.64326724137931e+00 2.17747785853010e-01 2.51423965954322e-03
1.64914655172414e+00 2.16455471967886e-01 2.50378494989263e-03
1.65502586206897e+00 2.15170827851849e-01 2.49335786775831e-03
1.66090517241379e+00 2.13893807985490e-01 2.48295854224644e-03
1.66678448275862e+00 2.12624367119556e-01 2.47258709881413e-03
1.67266379310345e+00 2.11362460273344e-01 2.46224365932545e-03
1.67854310344828e+00 2.10108042733107e-01 2.45192834210693e-03
1.68442241379310e+00 2.08861070050470e-01 2.44164126200128e-03
1.69030172413793e+00 2.07621498040856e-01 2.43138253042083e-03
1.69618103448276e+00 2.06389282781920e-01 2.42115225540062e-03
1.70206034482759e+00 2.05164380611991e-01 2.41095054164985e-03
1.70793965517241e+00 2.03946748128527e-01 2.40077749060362e-03
1.71381896551724e+00 2.02736342186575e-01 2.39063320047213e-03
1.71969827586207e+00 2.01533119897244e-01 2.38051776629046e-03
1.72557758620690e+00 2.00337038626187e-01 2.37043127996835e-03
1.73145689655172e+00 1.99148055992086e-01 2.36037383033786e-03
1.73733620689655e+00 1.97966129865153e-01 2.35034550320106e-03
1.74321551724138e+00 1.96791218365638e-01 2.34034638137613e-03
1.74909482758621e+00 1.95623279862341e-01 2.33037654474405e-03
1.75497413793103e+00 1.94462272971143e-01 2.32043607029388e-03
1.76085344827586e+00 1.93308156553533e-01 2.31052503216716e-03
1.76673275862069e+00 1.92160889715155e-01 2.30064350170225e-03
1.77261206896552e+00 1.91020431804357e-01 2.29079154747783e-03
1.77849137931034e+00 1.89886742410753e-01 2.28096923535554e-03
1.78437068965517e+00 1.88759781363785e-01 2.27117662852225e-03
1.79025000000000e+00 1.87639508731307e-01 2.26141379048511e-03
1.79612931034483e+00 1.86525884812137e-01 2.25168077621101e-03
1.80200862068966e+00 1.85418870152831e-01 2.24197763811945e-03
1.80788793103448e+00 1.84318425528010e-01 2.23230443213988e-03
1.81376724137931e+00 1.83224511945097e-01 2.22266120869680e-03
1.81964655172414e+00 1.82137090642930e-01 2.21304801578058e-03
1.82552586206897e+00 1.81056123090392e-01 2.20346489898539e-03
1.83140517241379e+00 1.79981570985046e-01 2.19391190154682e-03
1.83728448275862e+00 1.78913396251775e-01 2.18438906437951e-03
1.84316379310345e+00 1.77851561041434e-01 2.17489642611283e-03
1.84904310344828e+00 1.76796027729513e-01 2.16543402312685e-03
1.85492241379310e+00 1.75746758914795e-01 2.15600188958862e-03
