Energy (eV)          EEDF (eV^-(3/2))     First Anisotropy
3.72857142857143e-02 5.39427933458660e-02 3.41224116639305e-05
1.11857142857143e-01 5.34137808159345e-02 5.62586414622517e-05
1.86428571428571e-01 5.28899562689727e-02 7.40372414990206e-05
2.61000000000000e-01 5.23712688249252e-02 8.74042961057287e-05
3.35571428571429e-01 5.18576681071991e-02 9.84377478841086e-05
4.10142857142857e-01 5.13491042287514e-02 1.07926679368632e-04
4.84714285714286e-01 5.08455277950088e-02 1.16281139228874e-04
5.59285714285714e-01 5.03468898934326e-02 1.23749747094296e-04
6.33857142857143e-01 4.98531420922821e-02 1.30498049816366e-04
7.08428571428571e-01 4.93642364356180e-02 1.36643514549634e-04
7.83000000000000e-01 4.88801254361499e-02 1.42273436425684e-04
8.57571428571429e-01 4.84007620737185e-02 1.47455016480561e-04
9.32142857142857e-01 4.79260997880490e-02 1.52241447274224e-04
1.00671428571429e+00 4.74560924765794e-02 1.56675793788427e-04
1.08128571428571e+00 4.69906944878914e-02 1.60793578870103e-04
1.15585714285714e+00 4.65298606183165e-02 1.64624567981758e-04
1.23042857142857e+00 4.60735461080066e-02 1.68194039055563e-04
1.30500000000000e+00 4.56217066360526e-02 1.71523708642541e-04
1.37957142857143e+00 4.51742983195152e-02 1.74632423685996e-04
1.45414285714286e+00 4.47312776989652e-02 1.77536685924399e-04
1.52871428571429e+00 4.42926017446868e-02 1.80251056997202e-04
1.60328571428571e+00 4.38582278489447e-02 1.82788477681514e-04
1.67785714285714e+00 4.34281138218225e-02 1.85160520454941e-04
1.75242857142857e+00 4.30022178871815e-02 1.87377592875258e-04
1.82700000000000e+00 4.25804986785726e-02 1.89449102645753e-04
1.90157142857143e+00 4.21629152374524e-02 1.91383594053020e-04
1.97614285714286e+00 4.17494270023947e-02 1.93188859803505e-04
2.05071428571429e+00 4.13399938120811e-02 1.94872034296437e-04
2.12528571428571e+00 4.09345758990486e-02 1.96439673293758e-04
2.19985714285714e+00 4.05331338858141e-02 1.97897820456109e-04
2.27442857142857e+00 4.01356287810794e-02 1.99252064279293e-04
2.34900000000000e+00 3.97420219759284e-02 2.00507586705228e-04
2.42357142857143e+00 3.93522752417036e-02 2.01669205829451e-04
2.49814285714286e+00 3.89663507213435e-02 2.02741411945202e-04
2.57271428571429e+00 3.85842109307301e-02 2.03728398868950e-04
2.64728571428571e+00 3.82058187533472e-02 2.04634092359404e-04
2.72185714285714e+00 3.78311374366677e-02 2.05462174292599e-04
2.79642857142857e+00 3.74601305886014e-02 2.06216104175816e-04
2.87100000000000e+00 3.70927621739511e-02 2.06899138019847e-04
2.94557142857143e+00 3.67289965121570e-02 2.07514345786281e-04
3.02014285714286e+00 3.63687982700492e-02 2.08064626113331e-04
3.09471428571429e+00 3.60121324622491e-02 2.08552719442316e-04
3.16928571428571e+00 3.56589644464756e-02 2.08981220660315e-04
3.24385714285714e+00 3.53092599201756e-02 2.09352589797153e-04
3.31842857142857e+00 3.49629849172036e-02 2.09669161841140e-04
3.39300000000000e+00 3.46201058045163e-02 2.09933155467697e-04
3.46757142857143e+00 3.42805892798906e-02 2.10146681541326e-04
3.54214285714286e+00 3.39444023657004e-02 2.10311750124646e-04
3.61671428571429e+00 3.36115124087392e-02 2.10430276831391e-04
3.69128571428571e+00 3.32818870760271e-02 2.10504089376416e-04
3.76585714285714e+00 3.29554943516669e-02 2.10534932980600e-04
3.84042857142857e+00 3.26323025337423e-02 2.10524475470238e-04
3.91500000000000e+00 3.23122802312346e-02 2.10474311830746e-04
3.98957142857143e+00 3.19953963617707e-02 2.10385968909454e-04
4.06414285714286e+00 3.16816201461862e-02 2.10260909121523e-04
4.13871428571429e+00 3.13709211079819e-02 2.10100533847251e-04
4.21328571428571e+00 3.10632690695388e-02 2.09906187229077e-04
4.28785714285714e+00 3.07586341491842e-02 2.09679159174246e-04
4.36242857142857e+00 3.04569867582954e-02 2.09420688267731e-04
4.43700000000000e+00 3.01582975984221e-02 2.09131964364684e-04
4.51157142857143e+00 2.98625376590985e-02 2.08814131453537e-04
4.58614285714286e+00 2.95696782130328e-02 2.08468289768718e-04
4.66071428571429e+00 2.92796908153316e-02 2.08095497742244e-04
4.73528571428571e+00 2.89925473000579e-02 2.07696774403118e-04
4.80985714285714e+00 2.87082197774933e-02 2.07273101167371e-04
4.88442857142857e+00 2.84266806314338e-02 2.06825423626687e-04
4.95900000000000e+00 2.81479025165047e-02 2.06354653124524e-04
5.03357142857143e+00 2.78718583560541e-02 2.05861668634569e-04
5.10814285714286e+00 2.75985213378587e-02 2.05347318033410e-04
5.18271428571428e+00 2.73278649132013e-02 2.04812419281840e-04
5.25728571428571e+00 2.70598627937255e-02 2.04257762047464e-04
5.33185714285714e+00 2.67944889488812e-02 2.03684108830934e-04
5.40642857142857e+00 2.65317176033990e-02 2.03092196128285e-04
5.48100000000000e+00 2.62715232347852e-02 2.02482735438959e-04
5.55557142857143e+00 2.60138805713070e-02 2.01856414573609e-04
5.63014285714286e+00 2.57587645881321e-02 2.01213898452435e-04
5.70471428571429e+00 2.55061505063180e-02 2.00555829848116e-04
5.77928571428571e+00 2.52560137899272e-02 1.99882830543943e-04
5.85385714285714e+00 2.50083301436426e-02 1.99195502072760e-04
5.92842857142857e+00 2.47630755104107e-02 1.98494426507418e-04
6.00300000000000e+00 2.45202260691031e-02 1.97780167131652e-04
6.07757142857143e+00 2.42797582325987e-02 1.97053269394942e-04
6.15214285714286e+00 2.40416486442947e-02 1.96314261428174e-04
6.22671428571429e+00 2.38058741770480e-02 1.95563654523758e-04
6.30128571428571e+00 2.35724119305210e-02 1.94801943998790e-04
6.37585714285714e+00 2.33412392289571e-02 1.94029609696175e-04
6.45042857142857e+00 2.31123336189796e-02 1.93247116542452e-04
6.52500000000000e+00 2.28856728674103e-02 1.92454915008612e-04
6.59957142857143e+00 2.26612349594495e-02 1.91653441834487e-04
6.67414285714286e+00 2.24389980955090e-02 1.90843120368589e-04
6.74871428571429e+00 2.22189406901335e-02 1.90024360883952e-04
6.82328571428571e+00 2.20010413695545e-02 1.89197561244263e-04
6.89785714285714e+00 2.17852789696133e-02 1.88363107252704e-04
6.97242857142857e+00 2.15716325337071e-02 1.87521373057805e-04
7.04700000000000e+00 2.13600813107528e-02 1.86672721478068e-04
7.12157142857143e+00 2.11506047534648e-02 1.85817504568812e-04
7.19614285714286e+00 2.09431825154707e-02 1.84956063848757e-04
7.27071428571429e+00 2.07377944502322e-02 1.84088730509739e-04
7.34528571428571e+00 2.05344206087862e-02 1.83215825945416e-04
7.41985714285714e+00 2.03330412378070e-02 1.82337661999191e-04
7.49442857142857e+00 2.01336367776886e-02 1.81454541267084e-04
7.56900000000000e+00 1.99361878606444e-02 1.80566757331067e-04
7.64357142857143e+00 1.97406753090812e-02 1.79674595213924e-04
7.71814285714286e+00 1.95470801329640e-02 1.78778331530785e-04
7.79271428571429e+00 1.93553835287512e-02 1.77878234628470e-04
7.86728571428571e+00 1.91655668773060e-02 1.76974565014741e-04
7.94185714285714e+00 1.89776117420873e-02 1.76067575537342e-04
8.01642857142857e+00 1.87914998673602e-02 1.75157511614969e-04
8.09100000000000e+00 1.86072131764221e-02 1.74244611407594e-04
8.16557142857143e+00 1.84247337700701e-02 1.73329106189040e-04
8.24014285714286e+00 1.82440439241877e-02 1.72411220447712e-04
8.31471428571428e+00 1.80651260887041e-02 1.71491171978147e-04
8.38928571428571e+00 1.78879628856604e-02 1.70569172236109e-04
8.46385714285714e+00 1.77125371075215e-02 1.69645426469453e-04
8.53842857142857e+00 1.75388317155058e-02 1.68720133897396e-04
8.61300000000000e+00 1.73668298379293e-02 1.67793487836467e-04
8.68757142857143e+00 1.71965147687627e-02 1.66865676010789e-04
8.76214285714286e+00 1.70278699654173e-02 1.65936880617765e-04
8.83671428571428e+00 1.68608790477348e-02 1.65007278386701e-04
8.91128571428571e+00 1.66955257961958e-02 1.64077040877012e-04
8.98585714285714e+00 1.65317941503440e-02 1.63146334574711e-04
9.06042857142857e+00 1.63696682072269e-02 1.62215321033709e-04
9.13500000000000e+00 1.62091322198511e-02 1.61284156969774e-04
9.20957142857143e+00 1.60501705958245e-02 1.60352994522517e-04
9.28414285714286e+00 1.58927678953215e-02 1.59421981296610e-04
9.35871428571429e+00 1.57369088301086e-02 1.58491260397408e-04
9.43328571428571e+00 1.55825782618823e-02 1.57560970684499e-04
9.50785714285714e+00 1.54297612007993e-02 1.56631246843233e-04
9.58242857142857e+00 1.52784428040205e-02 1.55702219497550e-04
9.65700000000000e+00 1.51286083742693e-02 1.54774015280513e-04
9.73157142857143e+00 1.49802433585561e-02 1.53846757058031e-04
9.80614285714286e+00 1.48333333463049e-02 1.52920563952800e-04
9.88071428571429e+00 1.46878640684174e-02 1.51995551363743e-04
9.95528571428571e+00 1.45438213957311e-02 1.51071831183818e-04
1.00298571428571e+01 1.44011913376469e-02 1.50149511999429e-04
1.01044285714286e+01 1.42599600402108e-02 1.49228698630966e-04
1.01790000000000e+01 1.41201137868748e-02 1.48309492738972e-04
1.02535714285714e+01 1.39816389946098e-02 1.47391993208821e-04
1.03281428571429e+01 1.38445222135949e-02 1.46476295897201e-04
1.04027142857143e+01 1.37087501246171e-02 1.45562492941146e-04
1.04772857142857e+01 1.35743095417018e-02 1.44650673537249e-04
1.05518571428571e+01 1.34411874068625e-02 1.43740925054431e-04
1.06264285714286e+01 1.33093707889421e-02 1.42833331036628e-04
1.07010000000000e+01 1.31788468860899e-02 1.41927972310032e-04
1.07755714285714e+01 1.30496030207422e-02 1.41024927733028e-04
1.08501428571429e+01 1.29216266396635e-02 1.40124273546646e-04
1.09247142857143e+01 1.27949053115772e-02 1.39226082840724e-04
1.09992857142857e+01 1.26694267294455e-02 1.38330426256197e-04
1.10738571428571e+01 1.25451787057472e-02 1.37437372991963e-04
1.11484285714286e+01 1.24221491713893e-02 1.36546988979056e-04
1.12230000000000e+01 1.23003261778555e-02 1.35659337882610e-04
1.12975714285714e+01 1.21796978926875e-02 1.34774481779100e-04
1.13721428571429e+01 1.20602525994675e-02 1.33892480558996e-04
1.14467142857143e+01 1.19419786956553e-02 1.33013391433987e-04
1.15212857142857e+01 1.18248646945676e-02 1.32137269571557e-04
1.15958571428571e+01 1.17088992211217e-02 1.31264169007967e-04
1.16704285714286e+01 1.15940710108142e-02 1.30394140978182e-04
1.17450000000000e+01 1.14803689115870e-02 1.29527234824406e-04
1.18195714285714e+01 1.13677818797512e-02 1.28663498609104e-04
1.18941428571429e+01 1.12562989799228e-02 1.27802978565846e-04
1.19687142857143e+01 1.11459093830461e-02 1.26945718644768e-04
1.20432857142857e+01 1.10366023681136e-02 1.26091761087261e-04
1.21178571428571e+01 1.09283673183227e-02 1.25241147255278e-04
1.21924285714286e+01 1.08211937201177e-02 1.24393916102817e-04
1.22670000000000e+01 1.07150711648125e-02 1.23550105001195e-04
1.23415714285714e+01 1.06099893449069e-02 1.22709750295053e-04
1.24161428571429e+01 1.05059380539860e-02 1.21872886797542e-04
1.24907142857143e+01 1.04029071849105e-02 1.21039547371247e-04
1.25652857142857e+01 1.03008867313141e-02 1.20209763449652e-04
1.26398571428571e+01 1.01998667841261e-02 1.19383565791627e-04
1.27144285714286e+01 1.00998375306735e-02 1.18560983081614e-04
1.27890000000000e+01 1.00007892560938e-02 1.17742042680408e-04
1.28635714285714e+01 9.90271233999994e-03 1.16926771130326e-04
1.29381428571429e+01 9.80559725635172e-03 1.16115193691133e-04
1.30127142857143e+01 9.70943457179740e-03 1.15307333953790e-04
1.30872857142857e+01 9.61421494697791e-03 1.14503214314395e-04
1.31618571428571e+01 9.51992913337592e-03 1.13702856661531e-04
1.32364285714286e+01 9.42656797247448e-03 1.12906281093574e-04
1.33110000000000e+01 9.33412239698817e-03 1.12113506602637e-04
1.33855714285714e+01 9.24258342783927e-03 1.11324551534229e-04
1.34601428571429e+01 9.15194217400735e-03 1.10539433160579e-04
1.35347142857143e+01 9.06218983100820e-03 1.09758167324682e-04
1.36092857142857e+01 8.97331768203075e-03 1.08980768871677e-04
1.36838571428571e+01 8.88531709507750e-03 1.08207252275801e-04
1.37584285714286e+01 8.79817952217656e-03 1.07437630464314e-04
1.38330000000000e+01 8.71189650045524e-03 1.06671915441331e-04
1.39075714285714e+01 8.62645964939438e-03 1.05910118706612e-04
1.39821428571429e+01 8.54186067066205e-03 1.05152250863206e-04
1.40567142857143e+01 8.45809134671667e-03 1.04398321289429e-04
1.41312857142857e+01 8.37514354179889e-03 1.03648338531979e-04
1.42058571428571e+01 8.29300919933292e-03 1.02902310878439e-04
1.42804285714286e+01 8.21168034118865e-03 1.02160245278380e-04
1.43550000000000e+01 8.13114906861862e-03 1.01422147912943e-04
1.44295714285714e+01 8.05140755976135e-03 1.00688024576863e-04
1.45041428571429e+01 7.97244806946388e-03 9.99578803175804e-05
1.45787142857143e+01 7.89426292799774e-03 9.92317191329272e-05
1.46532857142857e+01 7.81684454192469e-03 9.85095443298119e-05
1.47278571428571e+01 7.74018539173213e-03 9.77913590474913e-05
1.48024285714286e+01 7.66427803114240e-03 9.70771652672958e-05
1.48770000000000e+01 7.58911508793076e-03 9.63669643331889e-05
1.49515714285714e+01 7.51468926165247e-03 9.56607573006192e-05
1.50261428571429e+01 7.44099332345781e-03 9.49585446044849e-05
1.51007142857143e+01 7.36802011491074e-03 9.42603257804951e-05
1.51752857142857e+01 7.29576254874492e-03 9.35660997927500e-05
1.52498571428571e+01 7.22421360670948e-03 9.28758655124498e-05
1.53244285714286e+01 7.15336633892271e-03 9.21896208085074e-05
1.53990000000000e+01 7.08321386458629e-03 9.15073630237188e-05
1.54735714285714e+01 7.01374936991382e-03 9.08290892936225e-05
1.55481428571429e+01 6.94496610794121e-03 9.01547962409125e-05
1.56227142857143e+01 6.87685739743919e-03 8.94844797185865e-05
1.56972857142857e+01 6.80941662357340e-03 8.88181351094164e-05
1.57718571428571e+01 6.74263723593983e-03 8.81557577642232e-05
1.58464285714286e+01 6.67651274796015e-03 8.74973421663589e-05
1.59210000000000e+01 6.61103673750543e-03 8.68428823676248e-05
1.59955714285714e+01 6.54620284500619e-03 8.61923722799811e-05
1.60701428571429e+01 6.48200477326083e-03 8.55458053942154e-05
1.61447142857143e+01 6.41843628643356e-03 8.49031745431232e-05
1.62192857142857e+01 6.35549121063097e-03 8.42644721754987e-05
1.62938571428571e+01 6.29316343210857e-03 8.36296907576998e-05
1.63684285714286e+01 6.23144689670510e-03 8.29988220056492e-05
1.64430000000000e+01 6.17033561038730e-03 8.23718572841954e-05
1.65175714285714e+01 6.10982363752384e-03 8.17487878741734e-05
1.65921428571429e+01 6.04990510069374e-03 8.11296047133352e-05
1.66667142857143e+01 5.99057417976248e-03 8.05142981779620e-05
1.67412857142857e+01 5.93182511238556e-03 7.99028583337378e-05
1.68158571428571e+01 5.87365219236957e-03 7.92952753039200e-05
1.68904285714286e+01 5.81604976914326e-03 7.86915385630879e-05
1.69650000000000e+01 5.75901224823314e-03 7.80916373032641e-05
1.70395714285714e+01 5.70253408968567e-03 7.74955606785893e-05
1.71141428571429e+01 5.64660980787728e-03 7.69032975666709e-05
1.71887142857143e+01 5.59123397066210e-03 7.63148363671523e-05
1.72632857142857e+01 5.53640119981148e-03 7.57301652315901e-05
1.73378571428571e+01 5.48210616951518e-03 7.51492724012013e-05
1.74124285714286e+01 5.42834360588669e-03 7.45721455571325e-05
1.74870000000000e+01 5.37510828737842e-03 7.39987721563119e-05
1.75615714285714e+01 5.32239504333818e-03 7.34291396557606e-05
1.76361428571429e+01 5.27019875382201e-03 7.28632352926907e-05
1.77107142857143e+01 5.21851434880754e-03 7.23010458986763e-05
1.77852857142857e+01 5.16733680857755e-03 7.17425581104092e-05
1.78598571428571e+01 5.11666116234803e-03 7.11877586797269e-05
1.79344285714286e+01 5.06648248780574e-03 7.06366338756484e-05
1.80090000000000e+01 5.01679591147036e-03 7.00891697926270e-05
1.80835714285714e+01 4.96759660737289e-03 6.95453525563208e-05
1.81581428571429e+01 4.91887979687224e-03 6.90051681209057e-05
1.82327142857143e+01 4.87064074792880e-03 6.84686020975865e-05
1.83072857142857e+01 4.82287477543896e-03 6.79356399479568e-05
1.83818571428571e+01 4.77557723997840e-03 6.74062672687421e-05
1.84564285714286e+01 4.72874354736970e-03 6.68804692412395e-05
1.85310000000000e+01 4.68236914899824e-03 6.63582309144008e-05
1.86055714285714e+01 4.63644954060107e-03 6.58395373937113e-05
1.86801428571429e+01 4.59098026208824e-03 6.53243736543065e-05
1.87547142857143e+01 4.54595689687155e-03 6.48127243826877e-05
1.88292857142857e+01 4.50137507215613e-03 6.43045741542192e-05
1.89038571428571e+01 4.45723045778839e-03 6.37999076947596e-05
1.89784285714286e+01 4.41351876585191e-03 6.32987093735879e-05
1.90530000000000e+01 4.37023575094257e-03 6.28009634634944e-05
1.91275714285714e+01 4.32737720905813e-03 6.23066543142366e-05
1.92021428571429e+01 4.28493897742467e-03 6.18157661801888e-05
1.92767142857143e+01 4.24291693387616e-03 6.13282830742053e-05
1.93512857142857e+01 4.20130699710832e-03 6.08441889306398e-05
1.94258571428571e+01 4.16010512562187e-03 6.03634678458598e-05
1.95004285714286e+01 4.11930731734481e-03 5.98861036110534e-05
1.95750000000000e+01 4.07890960987188e-03 5.94120799513170e-05
1.96495714285714e+01 4.03890807944568e-03 5.89413806850116e-05
1.97241428571429e+01 3.99929884078883e-03 5.84739895647778e-05
1.97987142857143e+01 3.96007804653016e-03 5.80098901425919e-05
1.98732857142857e+01 3.92124188742550e-03 5.75490659195427e-05
1.99478571428571e+01 3.88278659138778e-03 5.70915005670448e-05
2.00224285714286e+01 3.84470842313394e-03 5.66371774962411e-05
2.00970000000000e+01 3.80700368439315e-03 5.61860800778761e-05
2.01715714285714e+01 3.76966871297134e-03 5.57381917887820e-05
2.02461428571429e+01 3.73269988258932e-03 5.52934960651564e-05
2.03207142857143e+01 3.69609360235193e-03 5.48519761779397e-05
2.03952857142857e+01 3.65984631693987e-03 5.44136153704968e-05
2.04698571428571e+01 3.62395450571882e-03 5.39783970621403e-05
2.05444285714286e+01 3.58841468240955e-03 5.35463044511531e-05
2.06190000000000e+01 3.55322339526867e-03 5.31173207170673e-05
2.06935714285714e+01 3.51837722622927e-03 5.26914291553725e-05
2.07681428571429e+01 3.48387279074513e-03 5.22686130420893e-05
2.08427142857143e+01 3.44970673729953e-03 5.18488555186431e-05
2.09172857142857e+01 3.41587574757156e-03 5.14321397184810e-05
2.09918571428571e+01 3.38237653561746e-03 5.10184489543934e-05
2.10664285714286e+01 3.34920584756237e-03 5.06077663524173e-05
2.11410000000000e+01 3.31636046175699e-03 5.02000750380093e-05
2.12155714285714e+01 3.28383718798765e-03 4.97953582599626e-05
2.12901428571429e+01 3.25163286732690e-03 4.93935992653790e-05
2.13647142857143e+01 3.21974437167862e-03 4.89947811932928e-05
2.14392857142857e+01 3.18816860392213e-03 4.85988871911574e-05
2.15138571428571e+01 3.15690249715942e-03 4.82059005873218e-05
2.15884285714286e+01 3.12594301442716e-03 4.78158045533103e-05
2.16630000000000e+01 3.09528714883217e-03 4.74285822752282e-05
2.17375714285714e+01 3.06493192282502e-03 4.70442170678077e-05
2.18121428571429e+01 3.03487438805691e-03 4.66626922589483e-05
2.18867142857143e+01 3.00511162495841e-03 4.62839910914045e-05
2.19612857142857e+01 2.97564074286396e-03 4.59080968299827e-05
2.20358571428571e+01 2.94645887931939e-03 4.55349929204114e-05
2.21104285714286e+01 2.91756319981285e-03 4.51646626777166e-05
2.21850000000000e+01 2.88895089789174e-03 4.47970894440814e-05
2.22595714285714e+01 2.86061919449438e-03 4.44322566938419e-05
2.23341428571429e+01 2.83256533781312e-03 4.40701479268374e-05
2.24087142857143e+01 2.80478660290418e-03 4.37107465775287e-05
2.24832857142857e+01 2.77728029179487e-03 4.33540361136997e-05
2.25578571428571e+01 2.75004373284637e-03 4.30000001828260e-05
2.26324285714286e+01 2.72307428050224e-03 4.26486223244511e-05
2.27070000000000e+01 2.69636931538917e-03 4.22998861156271e-05
2.27815714285714e+01 2.66992624370172e-03 4.19537752676054e-05
2.28561428571429e+01 2.64374249707170e-03 4.16102735273027e-05
2.29307142857143e+01 2.61781553220662e-03 4.12693645932808e-05
2.30052857142857e+01 2.59214283098183e-03 4.09310322066391e-05
2.30798571428571e+01 2.56672189985379e-03 4.05952602859173e-05
2.31544285714286e+01 2.54155026962515e-03 4.02620326615588e-05
2.32290000000000e+01 2.51662549553123e-03 3.99313332099437e-05
2.33035714285714e+01 2.49194515667338e-03 3.96031459424649e-05
2.33781428571429e+01 2.46750685589453e-03 3.92774549144696e-05
2.34527142857143e+01 2.44330821944403e-03 3.89542441475629e-05
2.35272857142857e+01 2.41934689705667e-03 3.86334977133467e-05
