Energy (eV)          EEDF (eV^-(3/2))     First Anisotropy
1.65000000000000e-02 4.23392600318543e-01 3.51416995024589e-04
4.95000000000000e-02 4.16144073746115e-01 5.77262678318810e-04
8.25000000000000e-02 4.09019642723544e-01 7.54075848324762e-04
1.15500000000000e-01 4.02017182721623e-01 8.83645651326223e-04
1.48500000000000e-01 3.95134605583417e-01 9.87842249669866e-04
1.81500000000000e-01 3.88369858901478e-01 1.07506644200604e-03
2.14500000000000e-01 3.81720925405795e-01 1.14973123826467e-03
2.47500000000000e-01 3.75185822362239e-01 1.21454031721038e-03
2.80500000000000e-01 3.68762600981302e-01 1.27131215791824e-03
3.13500000000000e-01 3.62449345836961e-01 1.32134968447586e-03
3.46500000000000e-01 3.56244174295490e-01 1.36563024223469e-03
3.79500000000000e-01 3.50145235954056e-01 1.40491296116397e-03
4.12500000000000e-01 3.44150712088919e-01 1.43980386088748e-03
4.45500000000000e-01 3.38258815113084e-01 1.47079754539595e-03
4.78500000000000e-01 3.32467788043237e-01 1.49830509702336e-03
5.11500000000000e-01 3.26775903975806e-01 1.52267341776418e-03
5.44500000000000e-01 3.21181465571991e-01 1.54419904771288e-03
5.77500000000000e-01 3.15682804551617e-01 1.56313829189311e-03
6.10500000000000e-01 3.10278281195642e-01 1.57971480592131e-03
6.43500000000000e-01 3.04966283857188e-01 1.59412538748520e-03
6.76500000000000e-01 2.99745228480947e-01 1.60654447269402e-03
7.09500000000000e-01 2.94613558130804e-01 1.61712767914403e-03
7.42500000000000e-01 2.89569742525560e-01 1.62601463506742e-03
7.75500000000000e-01 2.84612277582590e-01 1.63333126549190e-03
8.08500000000000e-01 2.79739684969327e-01 1.63919165962324e-03
8.41500000000000e-01 2.74950511662415e-01 1.64369961115430e-03
8.74500000000000e-01 2.70243329514413e-01 1.64694990017808e-03
9.07500000000000e-01 2.65616734827916e-01 1.64902936881321e-03
9.40500000000000e-01 2.61069347936969e-01 1.65001783055252e-03
9.73500000000000e-01 2.56599812795648e-01 1.64998884439345e-03
1.00650000000000e+00 2.52206796573676e-01 1.64901037810554e-03
1.03950000000000e+00 2.47888989258977e-01 1.64714537991161e-03
1.07250000000000e+00 2.43645103267018e-01 1.64445227397203e-03
1.10550000000000e+00 2.39473873056852e-01 1.64098539205832e-03
1.13850000000000e+00 2.35374054753731e-01 1.63679535145934e-03
1.17150000000000e+00 2.31344425778172e-01 1.63192938732093e-03
1.20450000000000e+00 2.27383784481386e-01 1.62643164616091e-03
1.23750000000000e+00 2.23490949786937e-01 1.62034344613414e-03
1.27050000000000e+00 2.19664760838547e-01 1.61370350868597e-03
1.30350000000000e+00 2.15904076653919e-01 1.60654816547379e-03
1.33650000000000e+00 2.12207775784495e-01 1.59891154381822e-03
1.36950000000000e+00 2.08574755981039e-01 1.59082573344046e-03
1.40250000000000e+00 2.05003933864937e-01 1.58232093682464e-03
1.43550000000000e+00 2.01494244605134e-01 1.57342560520050e-03
1.46850000000000e+00 1.98044641600594e-01 1.56416656185391e-03
1.50150000000000e+00 1.94654096168206e-01 1.55456911423313e-03
1.53450000000000e+00 1.91321597236023e-01 1.54465715611767e-03
1.56750000000000e+00 1.88046151041756e-01 1.53445326094666e-03
1.60050000000000e+00 1.84826780836433e-01 1.52397876725995e-03
1.63350000000000e+00 1.81662526593132e-01 1.51325385708323e-03
1.66650000000000e+00 1.78552444720689e-01 1.50229762798385e-03
1.69950000000000e+00 1.75495607782328e-01 1.49112815943542e-03
1.73250000000000e+00 1.72491104219083e-01 1.47976257405183e-03
1.76550000000000e+00 1.69538038077981e-01 1.46821709418621e-03
1.79850000000000e+00 1.66635528744855e-01 1.45650709433281e-03
1.83150000000000e+00 1.63782710681751e-01 1.44464714972009e-03
1.86450000000000e+00 1.60978733168812e-01 1.43265108144043e-03
1.89750000000000e+00 1.58222760050601e-01 1.42053199842451e-03
1.93050000000000e+00 1.55513969486748e-01 1.40830233653550e-03
1.96350000000000e+00 1.52851553706880e-01 1.39597389502903e-03
1.99650000000000e+00 1.50234718769738e-01 1.38355787060028e-03
2.02950000000000e+00 1.47662684326423e-01 1.37106488921644e-03
2.06250000000000e+00 1.45134683387692e-01 1.35850503591388e-03
2.09550000000000e+00 1.42649962095239e-01 1.34588788272156e-03
2.12850000000000e+00 1.40207779496895e-01 1.33322251485667e-03
2.16150000000000e+00 1.37807407325670e-01 1.32051755532490e-03
2.19450000000000e+00 1.35448129782582e-01 1.30778118804558e-03
2.22750000000000e+00 1.33129243323205e-01 1.29502117961084e-03
2.26050000000000e+00 1.30850056447869e-01 1.28224489977839e-03
2.29350000000000e+00 1.28609889495452e-01 1.26945934078839e-03
2.32650000000000e+00 1.26408074440703e-01 1.25667113558744e-03
2.35950000000000e+00 1.24243954695033e-01 1.24388657503556e-03
2.39250000000000e+00 1.22116884910724e-01 1.23111162416543e-03
2.42550000000000e+00 1.20026230788476e-01 1.21835193755787e-03
2.45850000000000e+00 1.17971368888262e-01 1.20561287389180e-03
2.49150000000000e+00 1.15951686443416e-01 1.19289950972277e-03
2.52450000000000e+00 1.13966581177901e-01 1.18021665253959e-03
2.55750000000000e+00 1.12015461126712e-01 1.16756885314478e-03
2.59050000000000e+00 1.10097744459346e-01 1.15496041740119e-03
2.62350000000000e+00 1.08212859306302e-01 1.14239541738378e-03
2.65650000000000e+00 1.06360243588547e-01 1.12987770197265e-03
2.68950000000000e+00 1.04539344849897e-01 1.11741090692107e-03
2.72250000000000e+00 1.02749620092282e-01 1.10499846442931e-03
2.75550000000000e+00 1.00990535613814e-01 1.09264361225333e-03
2.78850000000000e+00 9.92615668496381e-02 1.08034940237501e-03
2.82150000000000e+00 9.75621982155076e-02 1.06811870925902e-03
2.85450000000000e+00 9.58919229540320e-02 1.05595423771953e-03
2.88750000000000e+00 9.42502429835618e-02 1.04385853041854e-03
2.92050000000000e+00 9.26366687496586e-02 1.03183397501576e-03
2.95350000000000e+00 9.10507190791082e-02 1.01988281098942e-03
2.98650000000000e+00 8.94919210364334e-02 1.00800713614524e-03
3.01950000000000e+00 8.79598097828627e-02 9.96208912830381e-04
3.05250000000000e+00 8.64539284377143e-02 9.84489973867737e-04
3.08550000000000e+00 8.49738279421523e-02 9.72852028225145e-04
3.11850000000000e+00 8.35190669252763e-02 9.61296666433141e-04
3.15150000000000e+00 8.20892115725027e-02 9.49825365763934e-04
3.18450000000000e+00 8.06838354962000e-02 9.38439495183676e-04
3.21750000000000e+00 7.93025196085384e-02 9.27140320089423e-04
3.25050000000000e+00 7.79448519965169e-02 9.15929006841256e-04
3.28350000000000e+00 7.66104277991287e-02 9.04806627099679e-04
3.31650000000000e+00 7.52988490866310e-02 8.93774161977620e-04
3.34950000000000e+00 7.40097247418805e-02 8.82832506015962e-04
3.38250000000000e+00 7.27426703437015e-02 8.71982470991092e-04
3.41550000000000e+00 7.14973080522495e-02 8.61224789562213e-04
3.44850000000000e+00 7.02732664963390e-02 8.50560118765952e-04
3.48150000000000e+00 6.90701806626985e-02 8.39989043365467e-04
3.51450000000000e+00 6.78876917871228e-02 8.29512079060515e-04
3.54750000000000e+00 6.67254472474884e-02 8.19129675564951e-04
3.58050000000000e+00 6.55831004586001e-02 8.08842219557662e-04
3.61350000000000e+00 6.44603107688385e-02 7.98650037512509e-04
3.64650000000000e+00 6.33567433585759e-02 7.88553398412741e-04
3.67950000000000e+00 6.22720691403329e-02 7.78552516354945e-04
3.71250000000000e+00 6.12059646606426e-02 7.68647553047371e-04
3.74550000000000e+00 6.01581120035962e-02 7.58838620207264e-04
3.77850000000000e+00 5.91281986960391e-02 7.49125781861544e-04
3.81150000000000e+00 5.81159176143907e-02 7.39509056554969e-04
3.84450000000000e+00 5.71209668930586e-02 7.29988419469739e-04
3.87750000000000e+00 5.61430498344220e-02 7.20563804460292e-04
3.91050000000000e+00 5.51818748203548e-02 7.11235106006934e-04
3.94350000000000e+00 5.42371552252645e-02 7.02002181091548e-04
3.97650000000000e+00 5.33086093306194e-02 6.92864850998727e-04
4.00950000000000e+00 5.23959602409391e-02 6.83822903045401e-04
4.04250000000000e+00 5.14989358012234e-02 6.74876092241946e-04
4.07550000000000e+00 5.06172685157950e-02 6.66024142887449e-04
4.10850000000000e+00 4.97506954685309e-02 6.57266750101901e-04
4.14150000000000e+00 4.88989582444604e-02 6.48603581297873e-04
4.17450000000000e+00 4.80618028527047e-02 6.40034277594068e-04
4.20750000000000e+00 4.72389796507361e-02 6.31558455173139e-04
4.24050000000000e+00 4.64302432699333e-02 6.23175706585915e-04
4.27350000000000e+00 4.56353525424124e-02 6.14885602004182e-04
4.30650000000000e+00 4.48540704291093e-02 6.06687690424120e-04
4.33950000000000e+00 4.40861639490941e-02 5.98581500822285e-04
4.37250000000000e+00 4.33314041100950e-02 5.90566543265954e-04
4.40550000000000e+00 4.25895658402129e-02 5.82642309979683e-04
4.43850000000000e+00 4.18604279208032e-02 5.74808276369767e-04
4.47150000000000e+00 4.11437729205084e-02 5.67063902008190e-04
4.50450000000000e+00 4.04393871304189e-02 5.59408631577646e-04
4.53750000000000e+00 3.97470605003447e-02 5.51841895779160e-04
4.57050000000000e+00 3.90665865761774e-02 5.44363112203716e-04
4.60350000000000e+00 3.83977624383249e-02 5.36971686169219e-04
4.63650000000000e+00 3.77403886412003e-02 5.29667011524212e-04
4.66950000000000e+00 3.70942691537465e-02 5.22448471419507e-04
4.70250000000000e+00 3.64592113009790e-02 5.15315439048997e-04
4.73550000000000e+00 3.58350257065297e-02 5.08267278360824e-04
4.76850000000000e+00 3.52215262361740e-02 5.01303344739973e-04
4.80150000000000e+00 3.46185299423252e-02 4.94422985663371e-04
4.83450000000000e+00 3.40258570094790e-02 4.87625541328546e-04
4.86750000000000e+00 3.34433307005914e-02 4.80910345256858e-04
4.90050000000000e+00 3.28707773043759e-02 4.74276724872165e-04
4.93350000000000e+00 3.23080260835015e-02 4.67724002055863e-04
4.96650000000000e+00 3.17549092236786e-02 4.61251493679275e-04
4.99950000000000e+00 3.12112617836164e-02 4.54858512114091e-04
5.03250000000000e+00 3.06769216458362e-02 4.48544365721725e-04
5.06550000000000e+00 3.01517294683283e-02 4.42308359322416e-04
5.09850000000000e+00 2.96355286370350e-02 4.36149794644715e-04
5.13150000000000e+00 2.91281652191481e-02 4.30067970756195e-04
5.16450000000000e+00 2.86294879172054e-02 4.24062184475972e-04
5.19750000000000e+00 2.81393480239735e-02 4.18131730769786e-04
5.23050000000000e+00 2.76575993781028e-02 4.12275903128216e-04
5.26350000000000e+00 2.71840983205416e-02 4.06493993928692e-04
5.29650000000000e+00 2.67187036516964e-02 4.00785294781898e-04
5.32950000000000e+00 2.62612765893260e-02 3.95149096863099e-04
5.36250000000000e+00 2.58116807271559e-02 3.89584691228960e-04
5.39550000000000e+00 2.53697819942016e-02 3.84091369120392e-04
5.42850000000000e+00 2.49354486147883e-02 3.78668422251974e-04
5.46150000000000e+00 2.45085510692546e-02 3.73315143088384e-04
5.49450000000000e+00 2.40889620553298e-02 3.68030825108286e-04
5.52750000000000e+00 2.36765564501715e-02 3.62814763056239e-04
5.56050000000000e+00 2.32712112730539e-02 3.57666253182996e-04
5.59350000000000e+00 2.28728056486943e-02 3.52584593474604e-04
5.62650000000000e+00 2.24812207712076e-02 3.47569083870749e-04
5.65950000000000e+00 2.20963398686784e-02 3.42619026472720e-04
5.69250000000000e+00 2.17180481683389e-02 3.37733725741394e-04
5.72550000000000e+00 2.13462328623433e-02 3.32912488685587e-04
5.75850000000000e+00 2.09807830741281e-02 3.28154625041110e-04
5.79150000000000e+00 2.06215898253486e-02 3.23459447440909e-04
5.82450000000000e+00 2.02685460033809e-02 3.18826271576624e-04
5.85750000000000e+00 1.99215463293807e-02 3.14254416351810e-04
5.89050000000000e+00 1.95804873268888e-02 3.09743204027195e-04
5.92350000000000e+00 1.92452672909740e-02 3.05291960358269e-04
5.95650000000000e+00 1.89157862579043e-02 3.00900014725432e-04
5.98950000000000e+00 1.85919459753376e-02 2.96566700257031e-04
6.02250000000000e+00 1.82736498730225e-02 2.92291353945544e-04
6.05550000000000e+00 1.79608030340004e-02 2.88073316757124e-04
6.08850000000000e+00 1.76533121663012e-02 2.83911933734794e-04
6.12150000000000e+00 1.73510855751235e-02 2.79806554095517e-04
6.15450000000000e+00 1.70540331354906e-02 2.75756531321373e-04
6.18750000000000e+00 1.67620662653749e-02 2.71761223245059e-04
6.22050000000000e+00 1.64750978992827e-02 2.67819992129897e-04
6.25350000000000e+00 1.61930424622909e-02 2.63932204744631e-04
6.28650000000000e+00 1.59158158445282e-02 2.60097232433164e-04
6.31950000000000e+00 1.56433353760932e-02 2.56314451179389e-04
6.35250000000000e+00 1.53755198024021e-02 2.52583241667381e-04
6.38550000000000e+00 1.51122892599583e-02 2.48902989337095e-04
6.41850000000000e+00 1.48535652525368e-02 2.45273084435708e-04
6.45150000000000e+00 1.45992706277764e-02 2.41692922064805e-04
6.48450000000000e+00 1.43493295541723e-02 2.38161902223606e-04
6.51750000000000e+00 1.41036674984635e-02 2.34679429848316e-04
6.55050000000000e+00 1.38622112034063e-02 2.31244914847781e-04
6.58350000000000e+00 1.36248886659288e-02 2.27857772135617e-04
6.61650000000000e+00 1.33916291156593e-02 2.24517421658923e-04
6.64950000000000e+00 1.31623629938225e-02 2.21223288423733e-04
6.68250000000000e+00 1.29370219324970e-02 2.17974802517314e-04
6.71550000000000e+00 1.27155387342271e-02 2.14771399127461e-04
6.74850000000000e+00 1.24978473519850e-02 2.11612518558887e-04
6.78150000000000e+00 1.22838828694751e-02 2.08497606246862e-04
6.81450000000000e+00 1.20735814817755e-02 2.05426112768162e-04
6.84750000000000e+00 1.18668804763116e-02 2.02397493849485e-04
6.88050000000000e+00 1.16637182141547e-02 1.99411210373429e-04
6.91350000000000e+00 1.14640341116411e-02 1.96466728382102e-04
6.94650000000000e+00 1.12677686223059e-02 1.93563519078510e-04
6.97950000000000e+00 1.10748632191261e-02 1.90701058825795e-04
7.01250000000000e+00 1.08852603770677e-02 1.87878829144394e-04
7.04550000000000e+00 1.06989035559312e-02 1.85096316707254e-04
7.07850000000000e+00 1.05157371834915e-02 1.82353013333160e-04
7.11150000000000e+00 1.03357066389258e-02 1.79648415978252e-04
7.14450000000000e+00 1.01587582365258e-02 1.76982026725835e-04
7.17750000000000e+00 9.98483920968826e-03 1.74353352774541e-04
7.21050000000000e+00 9.81389769517963e-03 1.71761906424923e-04
7.24350000000000e+00 9.64588271767064e-03 1.69207205064555e-04
7.27650000000000e+00 9.48074417453504e-03 1.66688771151715e-04
7.30950000000000e+00 9.31843282090890e-03 1.64206132197671e-04
7.34250000000000e+00 9.15890025500564e-03 1.61758820747719e-04
7.37550000000000e+00 9.00209890368243e-03 1.59346374360972e-04
7.40850000000000e+00 8.84798200825372e-03 1.56968335588959e-04
7.44150000000000e+00 8.69650361054769e-03 1.54624251953130e-04
7.47450000000000e+00 8.54761853920129e-03 1.52313675921295e-04
7.50750000000000e+00 8.40128239619006e-03 1.50036164883062e-04
7.54050000000000e+00 8.25745154358845e-03 1.47791281124314e-04
7.57350000000000e+00 8.11608309055687e-03 1.45578591800789e-04
7.60650000000000e+00 7.97713488055150e-03 1.43397668910817e-04
7.63950000000000e+00 7.84056547875302e-03 1.41248089267231e-04
7.67250000000000e+00 7.70633415971068e-03 1.39129434468532e-04
7.70550000000000e+00 7.57440089519778e-03 1.37041290869325e-04
7.73850000000000e+00 7.44472634227515e-03 1.34983249550089e-04
7.77150000000000e+00 7.31727183155894e-03 1.32954906286294e-04
7.80450000000000e+00 7.19199935568929e-03 1.30955861516948e-04
7.83750000000000e+00 7.06887155799640e-03 1.28985720312555e-04
7.87050000000000e+00 6.94785172136063e-03 1.27044092342567e-04
7.90350000000000e+00 6.82890375726339e-03 1.25130591842352e-04
7.93650000000000e+00 6.71199219502535e-03 1.23244837579686e-04
7.96950000000000e+00 6.59708217122903e-03 1.21386452820836e-04
8.00250000000000e+00 6.48413941932236e-03 1.19555065296258e-04
8.03550000000000e+00 6.37313025940033e-03 1.17750307165928e-04
8.06850000000000e+00 6.26402158816148e-03 1.15971814984324e-04
8.10150000000000e+00 6.15678086903642e-03 1.14219229665124e-04
8.13450000000000e+00 6.05137612248530e-03 1.12492196445622e-04
8.16750000000000e+00 5.94777591646142e-03 1.10790364850878e-04
8.20050000000000e+00 5.84594935703807e-03 1.09113388657657e-04
8.23350000000000e+00 5.74586607919588e-03 1.07460925858155e-04
8.26650000000000e+00 5.64749623776784e-03 1.05832638623541e-04
8.29950000000000e+00 5.55081049853940e-03 1.04228193267340e-04
8.33250000000000e+00 5.45578002950089e-03 1.02647260208694e-04
8.36550000000000e+00 5.36237649224974e-03 1.01089513935475e-04
8.39850000000000e+00 5.27057203353986e-03 9.95546329673214e-05
8.43150000000000e+00 5.18033927697569e-03 9.80422998186001e-05
8.46450000000000e+00 5.09165131484851e-03 9.65522009612790e-05
8.49750000000000e+00 5.00448170011244e-03 9.50840267877775e-05
8.53050000000000e+00 4.91880443849786e-03 9.36374715737838e-05
8.56350000000000e+00 4.83459398075982e-03 9.22122334410579e-05
8.59650000000000e+00 4.75182521505917e-03 9.08080143202334e-05
8.62950000000000e+00 4.67047345947412e-03 8.94245199136390e-05
8.66250000000000e+00 4.59051445464006e-03 8.80614596581638e-05
8.69550000000000e+00 4.51192435651524e-03 8.67185466881461e-05
8.72850000000000e+00 4.43467972927049e-03 8.53954977983315e-05
8.76150000000000e+00 4.35875753830054e-03 8.40920334068997e-05
8.79450000000000e+00 4.28413514335501e-03 8.28078775185700e-05
8.82750000000000e+00 4.21079029178703e-03 8.15427576878059e-05
8.86050000000000e+00 4.13870111191743e-03 8.02964049821122e-05
8.89350000000000e+00 4.06784610651251e-03 7.90685539454477e-05
8.92650000000000e+00 3.99820414637352e-03 7.78589425617691e-05
8.95950000000000e+00 3.92975446403586e-03 7.66673122187027e-05
8.99250000000000e+00 3.86247664757613e-03 7.54934076713524e-05
9.02550000000000e+00 3.79635063452524e-03 7.43369770062642e-05
9.05850000000000e+00 3.73135670588572e-03 7.31977716055432e-05
9.09150000000000e+00 3.66747548025144e-03 7.20755461111407e-05
9.12450000000000e+00 3.60468790802803e-03 7.09700583893050e-05
9.15750000000000e+00 3.54297526575219e-03 6.98810694952211e-05
9.19050000000000e+00 3.48231915050832e-03 6.88083436378339e-05
9.22350000000000e+00 3.42270147444072e-03 6.77516481448576e-05
9.25650000000000e+00 3.36410445935968e-03 6.67107534279886e-05
9.28950000000000e+00 3.30651063144002e-03 6.56854329483201e-05
9.32250000000000e+00 3.24990281601032e-03 6.46754631819684e-05
9.35550000000000e+00 3.19426413243135e-03 6.36806235859056e-05
9.38850000000000e+00 3.13957798906225e-03 6.27006965640146e-05
9.42150000000000e+00 3.08582807831281e-03 6.17354674333685e-05
9.45450000000000e+00 3.03299837178051e-03 6.07847243907318e-05
9.48750000000000e+00 2.98107311547079e-03 5.98482584792976e-05
9.52050000000000e+00 2.93003682509918e-03 5.89258635556546e-05
9.55350000000000e+00 2.87987428147378e-03 5.80173362569935e-05
9.58650000000000e+00 2.83057052595692e-03 5.71224759685531e-05
9.61950000000000e+00 2.78211085600439e-03 5.62410847913112e-05
9.65250000000000e+00 2.73448082078110e-03 5.53729675099199e-05
9.68550000000000e+00 2.68766621685182e-03 5.45179315608897e-05
9.71850000000000e+00 2.64165308394562e-03 5.36757870010254e-05
9.75150000000000e+00 2.59642770079294e-03 5.28463464761178e-05
9.78450000000000e+00 2.55197658103379e-03 5.20294251898832e-05
9.81750000000000e+00 2.50828646919611e-03 5.12248408731642e-05
9.85050000000000e+00 2.46534433674295e-03 5.04324137533925e-05
9.88350000000000e+00 2.42313737818730e-03 4.96519665243041e-05
9.91650000000000e+00 2.38165300727346e-03 4.88833243159184e-05
9.94950000000000e+00 2.34087885322375e-03 4.81263146647801e-05
9.98250000000000e+00 2.30080275704956e-03 4.73807674844636e-05
1.00155000000000e+01 2.26141276792544e-03 4.66465150363412e-05
1.00485000000000e+01 2.22269713962536e-03 4.59233919006165e-05
1.00815000000000e+01 2.18464432701993e-03 4.52112349476196e-05
1.01145000000000e+01 2.14724298263362e-03 4.45098833093716e-05
1.01475000000000e+01 2.11048195326089e-03 4.38191783514152e-05
1.01805000000000e+01 2.07435027664025e-03 4.31389636449061e-05
1.02135000000000e+01 2.03883717818532e-03 4.24690849389745e-05
1.02465000000000e+01 2.00393206777179e-03 4.18093901333525e-05
1.02795000000000e+01 1.96962453657941e-03 4.11597292512678e-05
1.03125000000000e+01 1.93590435398803e-03 4.05199544125991e-05
1.03455000000000e+01 1.90276146452683e-03 3.98899198072988e-05
1.03785000000000e+01 1.87018598487571e-03 3.92694816690835e-05
1.04115000000000e+01 1.83816820091808e-03 3.86584982493872e-05
