Energy (eV)          EEDF (eV^-(3/2))     First Anisotropy
8.93000000000000e-05 2.70519997007399e+02 0.00000000000000e+00
2.67900000000000e-04 2.68657527192295e+02 0.00000000000000e+00
4.46500000000000e-04 2.66807880066483e+02 0.00000000000000e+00
6.25100000000000e-04 2.64970967348450e+02 0.00000000000000e+00
8.03700000000000e-04 2.63146701364608e+02 0.00000000000000e+00
9.82300000000000e-04 2.61334995045005e+02 0.00000000000000e+00
1.16090000000000e-03 2.59535761919149e+02 0.00000000000000e+00
1.33950000000000e-03 2.57748916111884e+02 0.00000000000000e+00
1.51810000000000e-03 2.55974372339283e+02 0.00000000000000e+00
1.69670000000000e-03 2.54212045904582e+02 0.00000000000000e+00
1.87530000000000e-03 2.52461852694135e+02 0.00000000000000e+00
2.05390000000000e-03 2.50723709173400e+02 0.00000000000000e+00
2.23250000000000e-03 2.48997532382952e+02 0.00000000000000e+00
2.41110000000000e-03 2.47283239934523e+02 0.00000000000000e+00
2.58970000000000e-03 2.45580750007070e+02 0.00000000000000e+00
2.76830000000000e-03 2.43889981342869e+02 0.00000000000000e+00
2.94690000000000e-03 2.42210853243639e+02 0.00000000000000e+00
3.12550000000000e-03 2.40543285566687e+02 0.00000000000000e+00
3.30410000000000e-03 2.38887198721086e+02 0.00000000000000e+00
3.48270000000000e-03 2.37242513663872e+02 0.00000000000000e+00
3.66130000000000e-03 2.35609151896278e+02 0.00000000000000e+00
3.83990000000000e-03 2.33987035459981e+02 0.00000000000000e+00
4.01850000000000e-03 2.32376086933385e+02 0.00000000000000e+00
4.19710000000000e-03 2.30776229427922e+02 0.00000000000000e+00
4.37570000000000e-03 2.29187386584388e+02 0.00000000000000e+00
4.55430000000000e-03 2.27609482569293e+02 0.00000000000000e+00
4.73290000000000e-03 2.26042442071244e+02 0.00000000000000e+00
4.91150000000000e-03 2.24486190297350e+02 0.00000000000000e+00
5.09010000000000e-03 2.22940652969653e+02 0.00000000000000e+00
5.26870000000000e-03 2.21405756321581e+02 0.00000000000000e+00
5.44730000000000e-03 2.19881427094430e+02 0.00000000000000e+00
5.62590000000000e-03 2.18367592533865e+02 0.00000000000000e+00
5.80450000000000e-03 2.16864180386448e+02 0.00000000000000e+00
5.98310000000000e-03 2.15371118896191e+02 0.00000000000000e+00
6.16170000000000e-03 2.13888336801128e+02 0.00000000000000e+00
6.34030000000000e-03 2.12415763329917e+02 0.00000000000000e+00
6.51890000000000e-03 2.10953328198461e+02 0.00000000000000e+00
6.69750000000000e-03 2.09500961606553e+02 0.00000000000000e+00
6.87610000000000e-03 2.08058594234546e+02 0.00000000000000e+00
7.05470000000000e-03 2.06626157240040e+02 0.00000000000000e+00
7.23330000000000e-03 2.05203582254604e+02 0.00000000000000e+00
7.41190000000000e-03 2.03790801380505e+02 0.00000000000000e+00
7.59050000000000e-03 2.02387747187472e+02 0.00000000000000e+00
7.76910000000000e-03 2.00994352709476e+02 0.00000000000000e+00
7.94770000000000e-03 1.99610551441536e+02 0.00000000000000e+00
8.12630000000000e-03 1.98236277336540e+02 0.00000000000000e+00
8.30490000000000e-03 1.96871464802097e+02 0.00000000000000e+00
8.48350000000000e-03 1.95516048697406e+02 0.00000000000000e+00
8.66210000000000e-03 1.94169964330144e+02 0.00000000000000e+00
8.84070000000000e-03 1.92833147453381e+02 0.00000000000000e+00
9.01930000000000e-03 1.91505534262514e+02 0.00000000000000e+00
9.19790000000000e-03 1.90187061392219e+02 0.00000000000000e+00
9.37650000000000e-03 1.88877665913427e+02 0.00000000000000e+00
9.55510000000000e-03 1.87577285330325e+02 0.00000000000000e+00
9.73370000000000e-03 1.86285857577367e+02 0.00000000000000e+00
9.91230000000000e-03 1.85003321016315e+02 0.00000000000000e+00
1.00909000000000e-02 1.83729614433296e+02 0.00000000000000e+00
1.02695000000000e-02 1.82464677035884e+02 0.00000000000000e+00
1.04481000000000e-02 1.81208448450190e+02 0.00000000000000e+00
1.06267000000000e-02 1.79960868717991e+02 0.00000000000000e+00
1.08053000000000e-02 1.78721878293859e+02 0.00000000000000e+00
1.09839000000000e-02 1.77491418042326e+02 0.00000000000000e+00
1.11625000000000e-02 1.76269429235056e+02 0.00000000000000e+00
1.13411000000000e-02 1.75055853548046e+02 0.00000000000000e+00
1.15197000000000e-02 1.73850633058840e+02 0.00000000000000e+00
1.16983000000000e-02 1.72653710243766e+02 0.00000000000000e+00
1.18769000000000e-02 1.71465027975189e+02 0.00000000000000e+00
1.20555000000000e-02 1.70284529518785e+02 0.00000000000000e+00
1.22341000000000e-02 1.69112158530834e+02 0.00000000000000e+00
1.24127000000000e-02 1.67947859055528e+02 0.00000000000000e+00
1.25913000000000e-02 1.66791575522305e+02 0.00000000000000e+00
1.27699000000000e-02 1.65643252743191e+02 0.00000000000000e+00
1.29485000000000e-02 1.64502835910172e+02 0.00000000000000e+00
1.31271000000000e-02 1.63370270592572e+02 0.00000000000000e+00
1.33057000000000e-02 1.62245502734460e+02 0.00000000000000e+00
1.34843000000000e-02 1.61128478652067e+02 0.00000000000000e+00
1.36629000000000e-02 1.60019145031225e+02 0.00000000000000e+00
1.38415000000000e-02 1.58917448924823e+02 0.00000000000000e+00
1.40201000000000e-02 1.57823337750277e+02 0.00000000000000e+00
1.41987000000000e-02 1.56736759287025e+02 0.00000000000000e+00
1.43773000000000e-02 1.55657661674031e+02 0.00000000000000e+00
1.45559000000000e-02 1.54585993407309e+02 0.00000000000000e+00
1.47345000000000e-02 1.53521703337468e+02 0.00000000000000e+00
1.49131000000000e-02 1.52464740667269e+02 0.00000000000000e+00
1.50917000000000e-02 1.51415054949201e+02 0.00000000000000e+00
1.52703000000000e-02 1.50372596083072e+02 0.00000000000000e+00
1.54489000000000e-02 1.49337314313619e+02 0.00000000000000e+00
1.56275000000000e-02 1.48309160228132e+02 0.00000000000000e+00
1.58061000000000e-02 1.47288084754099e+02 0.00000000000000e+00
1.59847000000000e-02 1.46274039156859e+02 0.00000000000000e+00
1.61633000000000e-02 1.45266975037279e+02 0.00000000000000e+00
1.63419000000000e-02 1.44266844329443e+02 0.00000000000000e+00
1.65205000000000e-02 1.43273599298359e+02 0.00000000000000e+00
1.66991000000000e-02 1.42287192537678e+02 0.00000000000000e+00
1.68777000000000e-02 1.41307576967434e+02 0.00000000000000e+00
1.70563000000000e-02 1.40334705831797e+02 0.00000000000000e+00
1.72349000000000e-02 1.39368532696840e+02 0.00000000000000e+00
1.74135000000000e-02 1.38409011448323e+02 0.00000000000000e+00
1.75921000000000e-02 1.37456096289491e+02 0.00000000000000e+00
1.77707000000000e-02 1.36509741738891e+02 0.00000000000000e+00
1.79493000000000e-02 1.35569902628200e+02 0.00000000000000e+00
1.81279000000000e-02 1.34636534100068e+02 0.00000000000000e+00
1.83065000000000e-02 1.33709591605977e+02 0.00000000000000e+00
1.84851000000000e-02 1.32789030904118e+02 0.00000000000000e+00
1.86637000000000e-02 1.31874808057274e+02 0.00000000000000e+00
1.88423000000000e-02 1.30966879430728e+02 0.00000000000000e+00
1.90209000000000e-02 1.30065201690178e+02 0.00000000000000e+00
1.91995000000000e-02 1.29169731799669e+02 0.00000000000000e+00
1.93781000000000e-02 1.28280427019538e+02 0.00000000000000e+00
1.95567000000000e-02 1.27397244904377e+02 0.00000000000000e+00
1.97353000000000e-02 1.26520143301002e+02 0.00000000000000e+00
1.99139000000000e-02 1.25649080346448e+02 0.00000000000000e+00
2.00925000000000e-02 1.24784014465964e+02 0.00000000000000e+00
2.02711000000000e-02 1.23924904371035e+02 0.00000000000000e+00
2.04497000000000e-02 1.23071709057404e+02 0.00000000000000e+00
2.06283000000000e-02 1.22224387803123e+02 0.00000000000000e+00
2.08069000000000e-02 1.21382900166604e+02 0.00000000000000e+00
2.09855000000000e-02 1.20547205984691e+02 0.00000000000000e+00
2.11641000000000e-02 1.19717265370741e+02 0.00000000000000e+00
2.13427000000000e-02 1.18893038712722e+02 0.00000000000000e+00
2.15213000000000e-02 1.18074486671324e+02 0.00000000000000e+00
2.16999000000000e-02 1.17261570178076e+02 0.00000000000000e+00
2.18785000000000e-02 1.16454250433488e+02 0.00000000000000e+00
2.20571000000000e-02 1.15652488905194e+02 0.00000000000000e+00
2.22357000000000e-02 1.14856247326115e+02 0.00000000000000e+00
2.24143000000000e-02 1.14065487692632e+02 0.00000000000000e+00
2.25929000000000e-02 1.13280172262773e+02 0.00000000000000e+00
2.27715000000000e-02 1.12500263554411e+02 0.00000000000000e+00
2.29501000000000e-02 1.11725724343475e+02 0.00000000000000e+00
2.31287000000000e-02 1.10956517662174e+02 0.00000000000000e+00
2.33073000000000e-02 1.10192606797230e+02 0.00000000000000e+00
2.34859000000000e-02 1.09433955288130e+02 0.00000000000000e+00
2.36645000000000e-02 1.08680526925383e+02 0.00000000000000e+00
2.38431000000000e-02 1.07932285748791e+02 0.00000000000000e+00
2.40217000000000e-02 1.07189196045734e+02 0.00000000000000e+00
2.42003000000000e-02 1.06451222349469e+02 0.00000000000000e+00
2.43789000000000e-02 1.05718329437428e+02 0.00000000000000e+00
2.45575000000000e-02 1.04990482329547e+02 0.00000000000000e+00
2.47361000000000e-02 1.04267646286590e+02 0.00000000000000e+00
2.49147000000000e-02 1.03549786808493e+02 0.00000000000000e+00
2.50933000000000e-02 1.02836869632717e+02 0.00000000000000e+00
2.52719000000000e-02 1.02128860732615e+02 0.00000000000000e+00
2.54505000000000e-02 1.01425726315802e+02 0.00000000000000e+00
2.56291000000000e-02 1.00727432822550e+02 0.00000000000000e+00
2.58077000000000e-02 1.00033946924179e+02 0.00000000000000e+00
2.59863000000000e-02 9.93452355214721e+01 0.00000000000000e+00
2.61649000000000e-02 9.86612657430919e+01 0.00000000000000e+00
2.63435000000000e-02 9.79820049440127e+01 0.00000000000000e+00
2.65221000000000e-02 9.73074207039630e+01 0.00000000000000e+00
2.67007000000000e-02 9.66374808258774e+01 0.00000000000000e+00
2.68793000000000e-02 9.59721533343600e+01 0.00000000000000e+00
2.70579000000000e-02 9.53114064741586e+01 0.00000000000000e+00
2.72365000000000e-02 9.46552087086487e+01 0.00000000000000e+00
2.74151000000000e-02 9.40035287183284e+01 0.00000000000000e+00
2.75937000000000e-02 9.33563353993237e+01 0.00000000000000e+00
2.77723000000000e-02 9.27135978619037e+01 0.00000000000000e+00
2.79509000000000e-02 9.20752854290065e+01 0.00000000000000e+00
2.81295000000000e-02 9.14413676347750e+01 0.00000000000000e+00
2.83081000000000e-02 9.08118142231025e+01 0.00000000000000e+00
2.84867000000000e-02 9.01865951461891e+01 0.00000000000000e+00
2.86653000000000e-02 8.95656805631069e+01 0.00000000000000e+00
2.88439000000000e-02 8.89490408383766e+01 0.00000000000000e+00
2.90225000000000e-02 8.83366465405523e+01 0.00000000000000e+00
2.92011000000000e-02 8.77284684408170e+01 0.00000000000000e+00
2.93797000000000e-02 8.71244775115878e+01 0.00000000000000e+00
2.95583000000000e-02 8.65246449251300e+01 0.00000000000000e+00
2.97369000000000e-02 8.59289420521816e+01 0.00000000000000e+00
2.99155000000000e-02 8.53373404605866e+01 0.00000000000000e+00
3.00941000000000e-02 8.47498119139380e+01 0.00000000000000e+00
3.02727000000000e-02 8.41663283702303e+01 0.00000000000000e+00
3.04513000000000e-02 8.35868619805208e+01 0.00000000000000e+00
3.06299000000000e-02 8.30113850876006e+01 0.00000000000000e+00
3.08085000000000e-02 8.24398702246745e+01 0.00000000000000e+00
3.09871000000000e-02 8.18722901140502e+01 0.00000000000000e+00
3.11657000000000e-02 8.13086176658361e+01 0.00000000000000e+00
3.13443000000000e-02 8.07488259766485e+01 0.00000000000000e+00
3.15229000000000e-02 8.01928883283274e+01 0.00000000000000e+00
3.17015000000000e-02 7.96407781866614e+01 0.00000000000000e+00
3.18801000000000e-02 7.90924692001214e+01 0.00000000000000e+00
3.20587000000000e-02 7.85479351986024e+01 0.00000000000000e+00
3.22373000000000e-02 7.80071501921749e+01 0.00000000000000e+00
3.24159000000000e-02 7.74700883698444e+01 0.00000000000000e+00
3.25945000000000e-02 7.69367240983190e+01 0.00000000000000e+00
3.27731000000000e-02 7.64070319207867e+01 0.00000000000000e+00
3.29517000000000e-02 7.58809865556996e+01 0.00000000000000e+00
3.31303000000000e-02 7.53585628955679e+01 0.00000000000000e+00
3.33089000000000e-02 7.48397360057610e+01 0.00000000000000e+00
3.34875000000000e-02 7.43244811233180e+01 0.00000000000000e+00
3.36661000000000e-02 7.38127736557650e+01 0.00000000000000e+00
3.38447000000000e-02 7.33045891799423e+01 0.00000000000000e+00
3.40233000000000e-02 7.27999034408379e+01 0.00000000000000e+00
3.42019000000000e-02 7.22986923504301e+01 0.00000000000000e+00
3.43805000000000e-02 7.18009319865381e+01 0.00000000000000e+00
3.45591000000000e-02 7.13065985916797e+01 0.00000000000000e+00
3.47377000000000e-02 7.08156685719379e+01 0.00000000000000e+00
3.49163000000000e-02 7.03281184958346e+01 0.00000000000000e+00
3.50949000000000e-02 6.98439250932118e+01 0.00000000000000e+00
3.52735000000000e-02 6.93630652541218e+01 0.00000000000000e+00
3.54521000000000e-02 6.88855160277234e+01 0.00000000000000e+00
3.56307000000000e-02 6.84112546211871e+01 0.00000000000000e+00
3.58093000000000e-02 6.79402583986067e+01 0.00000000000000e+00
3.59879000000000e-02 6.74725048799193e+01 0.00000000000000e+00
3.61665000000000e-02 6.70079717398322e+01 0.00000000000000e+00
3.63451000000000e-02 6.65466368067573e+01 0.00000000000000e+00
3.65237000000000e-02 6.60884780617530e+01 0.00000000000000e+00
3.67023000000000e-02 6.56334736374732e+01 0.00000000000000e+00
3.68809000000000e-02 6.51816018171236e+01 0.00000000000000e+00
3.70595000000000e-02 6.47328410334251e+01 0.00000000000000e+00
3.72381000000000e-02 6.42871698675845e+01 0.00000000000000e+00
3.74167000000000e-02 6.38445670482724e+01 0.00000000000000e+00
3.75953000000000e-02 6.34050114506076e+01 0.00000000000000e+00
3.77739000000000e-02 6.29684820951490e+01 0.00000000000000e+00
3.79525000000000e-02 6.25349581468943e+01 0.00000000000000e+00
3.81311000000000e-02 6.21044189142855e+01 0.00000000000000e+00
3.83097000000000e-02 6.16768438482215e+01 0.00000000000000e+00
3.84883000000000e-02 6.12522125410770e+01 0.00000000000000e+00
3.86669000000000e-02 6.08305047257287e+01 0.00000000000000e+00
3.88455000000000e-02 6.04117002745879e+01 0.00000000000000e+00
3.90241000000000e-02 5.99957791986401e+01 0.00000000000000e+00
3.92027000000000e-02 5.95827216464902e+01 0.00000000000000e+00
3.93813000000000e-02 5.91725079034161e+01 0.00000000000000e+00
3.95599000000000e-02 5.87651183904267e+01 0.00000000000000e+00
3.97385000000000e-02 5.83605336633282e+01 0.00000000000000e+00
3.99171000000000e-02 5.79587344117956e+01 0.00000000000000e+00
4.00957000000000e-02 5.75597014584511e+01 0.00000000000000e+00
4.02743000000000e-02 5.71634157579490e+01 0.00000000000000e+00
4.04529000000000e-02 5.67698583960666e+01 0.00000000000000e+00
4.06315000000000e-02 5.63790105888012e+01 0.00000000000000e+00
4.08101000000000e-02 5.59908536814738e+01 0.00000000000000e+00
4.09887000000000e-02 5.56053691478390e+01 0.00000000000000e+00
4.11673000000000e-02 5.52225385892001e+01 0.00000000000000e+00
4.13459000000000e-02 5.48423437335315e+01 0.00000000000000e+00
4.15245000000000e-02 5.44647664346063e+01 0.00000000000000e+00
4.17031000000000e-02 5.40897886711306e+01 0.00000000000000e+00
4.18817000000000e-02 5.37173925458828e+01 0.00000000000000e+00
4.20603000000000e-02 5.33475602848598e+01 0.00000000000000e+00
4.22389000000000e-02 5.29802742364284e+01 0.00000000000000e+00
4.24175000000000e-02 5.26155168704833e+01 0.00000000000000e+00
4.25961000000000e-02 5.22532707776096e+01 0.00000000000000e+00
4.27747000000000e-02 5.18935186682527e+01 0.00000000000000e+00
4.29533000000000e-02 5.15362433718926e+01 0.00000000000000e+00
4.31319000000000e-02 5.11814278362245e+01 0.00000000000000e+00
4.33105000000000e-02 5.08290551263448e+01 0.00000000000000e+00
4.34891000000000e-02 5.04791084239433e+01 0.00000000000000e+00
4.36677000000000e-02 5.01315710264996e+01 0.00000000000000e+00
4.38463000000000e-02 4.97864263464868e+01 0.00000000000000e+00
4.40249000000000e-02 4.94436579105793e+01 0.00000000000000e+00
4.42035000000000e-02 4.91032493588667e+01 0.00000000000000e+00
4.43821000000000e-02 4.87651844440729e+01 0.00000000000000e+00
4.45607000000000e-02 4.84294470307806e+01 0.00000000000000e+00
4.47393000000000e-02 4.80960210946614e+01 0.00000000000000e+00
4.49179000000000e-02 4.77648907217108e+01 0.00000000000000e+00
4.50965000000000e-02 4.74360401074885e+01 0.00000000000000e+00
4.52751000000000e-02 4.71094535563645e+01 0.00000000000000e+00
4.54537000000000e-02 4.67851154807694e+01 0.00000000000000e+00
4.56323000000000e-02 4.64630104004511e+01 0.00000000000000e+00
4.58109000000000e-02 4.61431229417354e+01 0.00000000000000e+00
4.59895000000000e-02 4.58254378367922e+01 0.00000000000000e+00
4.61681000000000e-02 4.55099399229075e+01 0.00000000000000e+00
4.63467000000000e-02 4.51966141417587e+01 0.00000000000000e+00
4.65253000000000e-02 4.48854455386967e+01 0.00000000000000e+00
4.67039000000000e-02 4.45764192620317e+01 0.00000000000000e+00
4.68825000000000e-02 4.42695205623245e+01 0.00000000000000e+00
4.70611000000000e-02 4.39647347916825e+01 0.00000000000000e+00
4.72397000000000e-02 4.36620474030607e+01 0.00000000000000e+00
4.74183000000000e-02 4.33614439495669e+01 0.00000000000000e+00
4.75969000000000e-02 4.30629100837729e+01 0.00000000000000e+00
4.77755000000000e-02 4.27664315570292e+01 0.00000000000000e+00
4.79541000000000e-02 4.24719942187850e+01 0.00000000000000e+00
4.81327000000000e-02 4.21795840159130e+01 0.00000000000000e+00
4.83113000000000e-02 4.18891869920385e+01 0.00000000000000e+00
4.84899000000000e-02 4.16007892868734e+01 0.00000000000000e+00
4.86685000000000e-02 4.13143771355544e+01 0.00000000000000e+00
4.88471000000000e-02 4.10299368679864e+01 0.00000000000000e+00
4.90257000000000e-02 4.07474549081898e+01 0.00000000000000e+00
4.92043000000000e-02 4.04669177736526e+01 0.00000000000000e+00
4.93829000000000e-02 4.01883120746868e+01 0.00000000000000e+00
4.95615000000000e-02 3.99116245137894e+01 0.00000000000000e+00
4.97401000000000e-02 3.96368418850080e+01 0.00000000000000e+00
4.99187000000000e-02 3.93639510733100e+01 0.00000000000000e+00
5.00973000000000e-02 3.90929390539568e+01 0.00000000000000e+00
5.02759000000000e-02 3.88237928918825e+01 0.00000000000000e+00
5.04545000000000e-02 3.85564997410760e+01 0.00000000000000e+00
5.06331000000000e-02 3.82910468439683e+01 0.00000000000000e+00
5.08117000000000e-02 3.80274215308232e+01 0.00000000000000e+00
5.09903000000000e-02 3.77656112191330e+01 0.00000000000000e+00
5.11689000000000e-02 3.75056034130177e+01 0.00000000000000e+00
5.13475000000000e-02 3.72473857026286e+01 0.00000000000000e+00
5.15261000000000e-02 3.69909457635561e+01 0.00000000000000e+00
5.17047000000000e-02 3.67362713562413e+01 0.00000000000000e+00
5.18833000000000e-02 3.64833503253921e+01 0.00000000000000e+00
5.20619000000000e-02 3.62321705994027e+01 0.00000000000000e+00
5.22405000000000e-02 3.59827201897779e+01 0.00000000000000e+00
5.24191000000000e-02 3.57349871905601e+01 0.00000000000000e+00
5.25977000000000e-02 3.54889597777622e+01 0.00000000000000e+00
5.27763000000000e-02 3.52446262088021e+01 0.00000000000000e+00
5.29549000000000e-02 3.50019748219429e+01 0.00000000000000e+00
5.31335000000000e-02 3.47609940357364e+01 0.00000000000000e+00
5.33121000000000e-02 3.45216723484697e+01 0.00000000000000e+00
5.34907000000000e-02 3.42839983376169e+01 0.00000000000000e+00
5.36693000000000e-02 3.40479606592936e+01 0.00000000000000e+00
5.38479000000000e-02 3.38135480477154e+01 0.00000000000000e+00
5.40265000000000e-02 3.35807493146604e+01 0.00000000000000e+00
5.42051000000000e-02 3.33495533489351e+01 0.00000000000000e+00
5.43837000000000e-02 3.31199491158441e+01 0.00000000000000e+00
5.45623000000000e-02 3.28919256566634e+01 0.00000000000000e+00
5.47409000000000e-02 3.26654720881173e+01 0.00000000000000e+00
5.49195000000000e-02 3.24405776018591e+01 0.00000000000000e+00
5.50981000000000e-02 3.22172314639552e+01 0.00000000000000e+00
5.52767000000000e-02 3.19954230143726e+01 0.00000000000000e+00
5.54553000000000e-02 3.17751416664705e+01 0.00000000000000e+00
5.56339000000000e-02 3.15563769064944e+01 0.00000000000000e+00
5.58125000000000e-02 3.13391182930750e+01 0.00000000000000e+00
5.59911000000000e-02 3.11233554567292e+01 0.00000000000000e+00
5.61697000000000e-02 3.09090780993658e+01 0.00000000000000e+00
5.63483000000000e-02 3.06962759937933e+01 0.00000000000000e+00
