Energy (eV)          EEDF (eV^-(3/2))     First Anisotropy
1.67187500000000e-02 7.29154894657834e-02 3.41868245063975e-05
5.01562500000000e-02 7.25232228352340e-02 5.64902241621091e-05
8.35937500000000e-02 7.21330664986443e-02 7.46743925495395e-05
1.17031250000000e-01 7.17450091030958e-02 8.85506310901857e-05
1.50468750000000e-01 7.13590393568089e-02 1.00174679620458e-04
1.83906250000000e-01 7.09751460287609e-02 1.10322099983656e-04
2.17343750000000e-01 7.05933179483520e-02 1.19393420599782e-04
2.50781250000000e-01 7.02135440050785e-02 1.27630023321462e-04
2.84218750000000e-01 6.98358131482087e-02 1.35191679079885e-04
3.17656250000000e-01 6.94601143864616e-02 1.42191087625773e-04
3.51093750000000e-01 6.90864367876862e-02 1.48711510784301e-04
3.84531250000000e-01 6.87147694785440e-02 1.54816672263058e-04
4.17968750000000e-01 6.83451016441923e-02 1.60556721685195e-04
4.51406250000000e-01 6.79774225279694e-02 1.65972029159440e-04
4.84843750000000e-01 6.76117214310819e-02 1.71095707237909e-04
5.18281250000000e-01 6.72479877122930e-02 1.75955348077612e-04
5.51718750000000e-01 6.68862107876133e-02 1.80574256301744e-04
5.85156250000000e-01 6.65263801299922e-02 1.84972346426758e-04
6.18593750000000e-01 6.61684852690121e-02 1.89166810522301e-04
6.52031250000000e-01 6.58125157905837e-02 1.93172624443915e-04
6.85468750000000e-01 6.54584613366426e-02 1.97002938116952e-04
7.18906250000000e-01 6.51063116048484e-02 2.00669380901540e-04
7.52343750000000e-01 6.47560563482843e-02 2.04182303681117e-04
7.85781250000000e-01 6.44076853751596e-02 2.07550973068033e-04
8.19218750000000e-01 6.40611885485127e-02 2.10783728868700e-04
8.52656250000000e-01 6.37165557859163e-02 2.13888113001759e-04
8.86093750000000e-01 6.33737770591839e-02 2.16870975981100e-04
9.19531250000000e-01 6.30328423940781e-02 2.19738565582431e-04
9.52968750000000e-01 6.26937418700203e-02 2.22496601225505e-04
9.86406250000000e-01 6.23564656198022e-02 2.25150336802860e-04
1.01984375000000e+00 6.20210038292984e-02 2.27704614087548e-04
1.05328125000000e+00 6.16873467371811e-02 2.30163908400967e-04
1.08671875000000e+00 6.13554846346359e-02 2.32532367877223e-04
1.12015625000000e+00 6.10254078650792e-02 2.34813847395215e-04
1.15359375000000e+00 6.06971068238776e-02 2.37011938043338e-04
1.18703125000000e+00 6.03705719580679e-02 2.39129992819988e-04
1.22046875000000e+00 6.00457937660797e-02 2.41171149145692e-04
1.25390625000000e+00 5.97227627974583e-02 2.43138348660635e-04
1.28734375000000e+00 5.94014696525901e-02 2.45034354700299e-04
1.32078125000000e+00 5.90819049824291e-02 2.46861767776218e-04
1.35421875000000e+00 5.87640594882249e-02 2.48623039335447e-04
1.38765625000000e+00 5.84479239212516e-02 2.50320484028962e-04
1.42109375000000e+00 5.81334890825393e-02 2.51956290683507e-04
1.45453125000000e+00 5.78207458226063e-02 2.53532532142109e-04
1.48796875000000e+00 5.75096850411926e-02 2.55051174113843e-04
1.52140625000000e+00 5.72002976869953e-02 2.56514083153249e-04
1.55484375000000e+00 5.68925747574053e-02 2.57923033872824e-04
1.58828125000000e+00 5.65865072982450e-02 2.59279715477712e-04
1.62171875000000e+00 5.62820864035082e-02 2.60585737699664e-04
1.65515625000000e+00 5.59793032151008e-02 2.61842636197084e-04
1.68859375000000e+00 5.56781489225825e-02 2.63051877479354e-04
1.72203125000000e+00 5.53786147629115e-02 2.64214863406330e-04
1.75546875000000e+00 5.50806920201886e-02 2.65332935307523e-04
1.78890625000000e+00 5.47843720254039e-02 2.66407377759816e-04
1.82234375000000e+00 5.44896461561846e-02 2.67439422058241e-04
1.85578125000000e+00 5.41965058365440e-02 2.68430249410183e-04
1.88921875000000e+00 5.39049425366321e-02 2.69380993879722e-04
1.92265625000000e+00 5.36149477724874e-02 2.70292745105975e-04
1.95609375000000e+00 5.33265131057896e-02 2.71166550816549e-04
1.98953125000000e+00 5.30396301436147e-02 2.72003419154911e-04
2.02296875000000e+00 5.27542905381904e-02 2.72804320838620e-04
2.05640625000000e+00 5.24704859866533e-02 2.73570191163230e-04
2.08984375000000e+00 5.21882082308071e-02 2.74301931865443e-04
2.12328125000000e+00 5.19074490568827e-02 2.75000412857616e-04
2.15671875000000e+00 5.16282002952988e-02 2.75666473844473e-04
2.19015625000000e+00 5.13504538204245e-02 2.76300925831800e-04
2.22359375000000e+00 5.10742015503426e-02 2.76904552535947e-04
2.25703125000000e+00 5.07994354466147e-02 2.77478111702145e-04
2.29046875000000e+00 5.05261475140468e-02 2.78022336338884e-04
2.32390625000000e+00 5.02543298004574e-02 2.78537935874943e-04
2.35734375000000e+00 4.99839743964455e-02 2.79025597244875e-04
2.39078125000000e+00 4.97150734351606e-02 2.79485985908573e-04
2.42421875000000e+00 4.94476190920739e-02 2.79919746809765e-04
2.45765625000000e+00 4.91816035847505e-02 2.80327505277788e-04
2.49109375000000e+00 4.89170191726231e-02 2.80709867877031e-04
2.52453125000000e+00 4.86538581567667e-02 2.81067423207632e-04
2.55796875000000e+00 4.83921128796744e-02 2.81400742660881e-04
2.59140625000000e+00 4.81317757250347e-02 2.81710381132522e-04
2.62484375000000e+00 4.78728391175100e-02 2.81996877696820e-04
2.65828125000000e+00 4.76152955225163e-02 2.82260756244107e-04
2.69171875000000e+00 4.73591374460032e-02 2.82502526084205e-04
2.72515625000000e+00 4.71043574342369e-02 2.82722682517970e-04
2.75859375000000e+00 4.68509480735824e-02 2.82921707379030e-04
2.79203125000000e+00 4.65989019902883e-02 2.83100069547737e-04
2.82546875000000e+00 4.63482118502721e-02 2.83258225439050e-04
2.85890625000000e+00 4.60988703589068e-02 2.83396619465907e-04
2.89234375000000e+00 4.58508702608086e-02 2.83515684479654e-04
2.92578125000000e+00 4.56042043396257e-02 2.83615842189008e-04
2.95921875000000e+00 4.53588654178286e-02 2.83697503558819e-04
2.99265625000000e+00 4.51148463565009e-02 2.83761069189747e-04
3.02609375000000e+00 4.48721400551319e-02 2.83806929680122e-04
3.05953125000000e+00 4.46307394514098e-02 2.83835465970969e-04
3.09296875000000e+00 4.43906375210160e-02 2.83847049675103e-04
3.12640625000000e+00 4.41518272774212e-02 2.83842043391339e-04
3.15984375000000e+00 4.39143017716817e-02 2.83820801004559e-04
3.19328125000000e+00 4.36780540922375e-02 2.83783667972481e-04
3.22671875000000e+00 4.34430773647108e-02 2.83730981599829e-04
3.26015625000000e+00 4.32093647517062e-02 2.83663071300591e-04
3.29359375000000e+00 4.29769094526120e-02 2.83580258849047e-04
3.32703125000000e+00 4.27457047034017e-02 2.83482858620126e-04
3.36046875000000e+00 4.25157437764379e-02 2.83371177819708e-04
3.39390625000000e+00 4.22870199802757e-02 2.83245516705331e-04
3.42734375000000e+00 4.20595266594689e-02 2.83106168797865e-04
3.46078125000000e+00 4.18332571943756e-02 2.82953421084582e-04
3.49421875000000e+00 4.16082050009661e-02 2.82787554214030e-04
3.52765625000000e+00 4.13843635306309e-02 2.82608842683180e-04
3.56109375000000e+00 4.11617262699904e-02 2.82417555017240e-04
3.59453125000000e+00 4.09402867407053e-02 2.82213953942399e-04
3.62796875000000e+00 4.07200384992882e-02 2.81998296551994e-04
3.66140625000000e+00 4.05009751369159e-02 2.81770834466287e-04
3.69484375000000e+00 4.02830902792430e-02 2.81531813986143e-04
3.72828125000000e+00 4.00663775862167e-02 2.81281476241073e-04
3.76171875000000e+00 3.98508307518916e-02 2.81020057331739e-04
3.79515625000000e+00 3.96364435042471e-02 2.80747788467282e-04
3.82859375000000e+00 3.94232096050043e-02 2.80464896097589e-04
3.86203125000000e+00 3.92111228494445e-02 2.80171602040788e-04
3.89546875000000e+00 3.90001770662291e-02 2.79868123606344e-04
3.92890625000000e+00 3.87903661172194e-02 2.79554673713672e-04
3.96234375000000e+00 3.85816838972986e-02 2.79231461006652e-04
3.99578125000000e+00 3.83741243341936e-02 2.78898689964190e-04
4.02921875000000e+00 3.81676813882988e-02 2.78556561006972e-04
4.06265625000000e+00 3.79623490524999e-02 2.78205270600599e-04
4.09609375000000e+00 3.77581213519996e-02 2.77845011355234e-04
4.12953125000000e+00 3.75549923441432e-02 2.77475972121934e-04
4.16296875000000e+00 3.73529561182462e-02 2.77098338085821e-04
4.19640625000000e+00 3.71520067954219e-02 2.76712290856147e-04
4.22984375000000e+00 3.69521385284106e-02 2.76318008553449e-04
4.26328125000000e+00 3.67533455014093e-02 2.75915665893953e-04
4.29671875000000e+00 3.65556219299025e-02 2.75505434271180e-04
4.33015625000000e+00 3.63589620604941e-02 2.75087481835073e-04
4.36359375000000e+00 3.61633601707394e-02 2.74661973568570e-04
4.39703125000000e+00 3.59688105689795e-02 2.74229071361825e-04
4.43046875000000e+00 3.57753075941748e-02 2.73788934084145e-04
4.46390625000000e+00 3.55828456157407e-02 2.73341717653694e-04
4.49734375000000e+00 3.53914190333837e-02 2.72887575105145e-04
4.53078125000000e+00 3.52010222769387e-02 2.72426656655207e-04
4.56421875000000e+00 3.50116498062063e-02 2.71959109766255e-04
4.59765625000000e+00 3.48232961107920e-02 2.71485079208108e-04
4.63109375000000e+00 3.46359557099461e-02 2.71004707117909e-04
4.66453125000000e+00 3.44496231524036e-02 2.70518133058301e-04
4.69796875000000e+00 3.42642930162261e-02 2.70025494073944e-04
4.73140625000000e+00 3.40799599086438e-02 2.69526924746386e-04
4.76484375000000e+00 3.38966184658985e-02 2.69022557247391e-04
4.79828125000000e+00 3.37142633530878e-02 2.68512521390740e-04
4.83171875000000e+00 3.35328892640097e-02 2.67996944682585e-04
4.86515625000000e+00 3.33524909210080e-02 2.67475952370420e-04
4.89859375000000e+00 3.31730630748193e-02 2.66949667490707e-04
4.93203125000000e+00 3.29946005044195e-02 2.66418210915146e-04
4.96546875000000e+00 3.28170980168726e-02 2.65881701395771e-04
4.99890625000000e+00 3.26405504471789e-02 2.65340255608773e-04
5.03234375000000e+00 3.24649526581255e-02 2.64793988197108e-04
5.06578125000000e+00 3.22902995401361e-02 2.64243011812087e-04
5.09921875000000e+00 3.21165860111227e-02 2.63687437153802e-04
5.13265625000000e+00 3.19438070163376e-02 2.63127373010483e-04
5.16609375000000e+00 3.17719575282263e-02 2.62562926296869e-04
5.19953125000000e+00 3.16010325462814e-02 2.61994202091536e-04
5.23296875000000e+00 3.14310270968969e-02 2.61421303673318e-04
5.26640625000000e+00 3.12619362332234e-02 2.60844332556796e-04
5.29984375000000e+00 3.10937550350243e-02 2.60263388526846e-04
5.33328125000000e+00 3.09264786085329e-02 2.59678569672388e-04
5.36671875000000e+00 3.07601020863093e-02 2.59089972419258e-04
5.40015625000000e+00 3.05946206270994e-02 2.58497691562236e-04
5.43359375000000e+00 3.04300294156939e-02 2.57901820296309e-04
5.46703125000000e+00 3.02663236627878e-02 2.57302450247204e-04
5.50046875000000e+00 3.01034986048415e-02 2.56699671501138e-04
5.53390625000000e+00 2.99415495039421e-02 2.56093572633863e-04
5.56734375000000e+00 2.97804716476654e-02 2.55484240739063e-04
5.60078125000000e+00 2.96202603489387e-02 2.54871761455973e-04
5.63421875000000e+00 2.94609109459047e-02 2.54256218996400e-04
5.66765625000000e+00 2.93024188017857e-02 2.53637696171157e-04
5.70109375000000e+00 2.91447793047486e-02 2.53016274415814e-04
5.73453125000000e+00 2.89879878677707e-02 2.52392033815875e-04
5.76796875000000e+00 2.88320399285065e-02 2.51765053131369e-04
5.80140625000000e+00 2.86769309491547e-02 2.51135409820861e-04
5.83484375000000e+00 2.85226564163260e-02 2.50503180064971e-04
5.86828125000000e+00 2.83692118409124e-02 2.49868438789324e-04
5.90171875000000e+00 2.82165927579557e-02 2.49231259686999e-04
5.93515625000000e+00 2.80647947265182e-02 2.48591715240417e-04
5.96859375000000e+00 2.79138133295535e-02 2.47949876742804e-04
6.00203125000000e+00 2.77636441737774e-02 2.47305814319221e-04
6.03546875000000e+00 2.76142828895409e-02 2.46659596947009e-04
6.06890625000000e+00 2.74657251307021e-02 2.46011292475904e-04
6.10234375000000e+00 2.73179665745005e-02 2.45360967647641e-04
6.13578125000000e+00 2.71710029214311e-02 2.44708688115182e-04
6.16921875000000e+00 2.70248298951187e-02 2.44054518461508e-04
6.20265625000000e+00 2.68794432421943e-02 2.43398522217998e-04
6.23609375000000e+00 2.67348387321708e-02 2.42740761882461e-04
6.26953125000000e+00 2.65910121573199e-02 2.42081298936756e-04
6.30296875000000e+00 2.64479593325499e-02 2.41420193864039e-04
6.33640625000000e+00 2.63056760952839e-02 2.40757506165637e-04
6.36984375000000e+00 2.61641583053386e-02 2.40093294377659e-04
6.40328125000000e+00 2.60234018448036e-02 2.39427616087181e-04
6.43671875000000e+00 2.58834026179221e-02 2.38760527948078e-04
6.47015625000000e+00 2.57441565509711e-02 2.38092085696589e-04
6.50359375000000e+00 2.56056595921435e-02 2.37422344166560e-04
6.53703125000000e+00 2.54679077114297e-02 2.36751357304408e-04
6.57046875000000e+00 2.53308969005006e-02 2.36079178183699e-04
6.60390625000000e+00 2.51946231725908e-02 2.35405859019485e-04
6.63734375000000e+00 2.50590825623827e-02 2.34731451182381e-04
6.67078125000000e+00 2.49242711258911e-02 2.34056005212332e-04
6.70421875000000e+00 2.47901849403486e-02 2.33379570832083e-04
6.73765625000000e+00 2.46568201040909e-02 2.32702196960460e-04
6.77109375000000e+00 2.45241727364440e-02 2.32023931725341e-04
6.80453125000000e+00 2.43922389776108e-02 2.31344822476323e-04
6.83796875000000e+00 2.42610149885589e-02 2.30664915797279e-04
6.87140625000000e+00 2.41304969509089e-02 2.29984257518592e-04
6.90484375000000e+00 2.40006810668235e-02 2.29302892729138e-04
6.93828125000000e+00 2.38715635588964e-02 2.28620865788080e-04
6.97171875000000e+00 2.37431406700431e-02 2.27938220336423e-04
7.00515625000000e+00 2.36154086633912e-02 2.27254999308375e-04
7.03859375000000e+00 2.34883638221716e-02 2.26571244942450e-04
7.07203125000000e+00 2.33620024496106e-02 2.25886998792378e-04
7.10546875000000e+00 2.32363208688220e-02 2.25202301737851e-04
7.13890625000000e+00 2.31113154227006e-02 2.24517193995055e-04
7.17234375000000e+00 2.29869824738152e-02 2.23831715126991e-04
7.20578125000000e+00 2.28633184043033e-02 2.23145904053580e-04
7.23921875000000e+00 2.27403196157653e-02 2.22459799061643e-04
7.27265625000000e+00 2.26179825291602e-02 2.21773437814679e-04
7.30609375000000e+00 2.24963035847014e-02 2.21086857362444e-04
7.33953125000000e+00 2.23752792417530e-02 2.20400094150392e-04
7.37296875000000e+00 2.22549059787267e-02 2.19713184028922e-04
7.40640625000000e+00 2.21351802929795e-02 2.19026162262468e-04
7.43984375000000e+00 2.20160987007119e-02 2.18339063538433e-04
7.47328125000000e+00 2.18976577368660e-02 2.17651921975951e-04
7.50671875000000e+00 2.17798539550253e-02 2.16964771134537e-04
7.54015625000000e+00 2.16626839273141e-02 2.16277644022509e-04
7.57359375000000e+00 2.15461442442976e-02 2.15590573105298e-04
7.60703125000000e+00 2.14302315148832e-02 2.14903590313696e-04
7.64046875000000e+00 2.13149423662212e-02 2.14216727051828e-04
7.67390625000000e+00 2.12002734436072e-02 2.13530014205038e-04
7.70734375000000e+00 2.10862214103841e-02 2.12843482147705e-04
7.74078125000000e+00 2.09727829478451e-02 2.12157160750807e-04
7.77421875000000e+00 2.08599547551375e-02 2.11471079389449e-04
7.80765625000000e+00 2.07477335491661e-02 2.10785266950226e-04
7.84109375000000e+00 2.06361160644978e-02 2.10099751838451e-04
7.87453125000000e+00 2.05250990532670e-02 2.09414561985311e-04
7.90796875000000e+00 2.04146792850806e-02 2.08729724854852e-04
7.94140625000000e+00 2.03048535469241e-02 2.08045267450860e-04
7.97484375000000e+00 2.01956186430685e-02 2.07361216323654e-04
8.00828125000000e+00 2.00869713949768e-02 2.06677597576715e-04
8.04171875000000e+00 1.99789086412115e-02 2.05994436873229e-04
8.07515625000000e+00 1.98714272373433e-02 2.05311759442574e-04
8.10859375000000e+00 1.97645240558587e-02 2.04629590086625e-04
8.14203125000000e+00 1.96581959860696e-02 2.03947953185975e-04
8.17546875000000e+00 1.95524399340228e-02 2.03266872706097e-04
8.20890625000000e+00 1.94472528224093e-02 2.02586372203349e-04
8.24234375000000e+00 1.93426315904757e-02 2.01906474830904e-04
8.27578125000000e+00 1.92385731939343e-02 2.01227203344610e-04
8.30921875000000e+00 1.91350746048752e-02 2.00548580108740e-04
8.34265625000000e+00 1.90321328116777e-02 1.99870627101631e-04
8.37609375000000e+00 1.89297448189229e-02 1.99193365921217e-04
8.40953125000000e+00 1.88279076473064e-02 1.98516817790537e-04
8.44296875000000e+00 1.87266183335518e-02 1.97841003563139e-04
8.47640625000000e+00 1.86258739303243e-02 1.97165943728341e-04
8.50984375000000e+00 1.85256715061451e-02 1.96491658416459e-04
8.54328125000000e+00 1.84260081453060e-02 1.95818167403950e-04
8.57671875000000e+00 1.83268809477843e-02 1.95145490118484e-04
8.61015625000000e+00 1.82282870291590e-02 1.94473645643909e-04
8.64359375000000e+00 1.81302235205264e-02 1.93802652725130e-04
8.67703125000000e+00 1.80326875684168e-02 1.93132529772964e-04
8.71046875000000e+00 1.79356763347115e-02 1.92463294868889e-04
8.74390625000000e+00 1.78391869965599e-02 1.91794965769706e-04
8.77734375000000e+00 1.77432167462980e-02 1.91127559912127e-04
8.81078125000000e+00 1.76477627913659e-02 1.90461094417349e-04
8.84421875000000e+00 1.75528223542273e-02 1.89795586095493e-04
8.87765625000000e+00 1.74583926722881e-02 1.89131051450011e-04
8.91109375000000e+00 1.73644709978164e-02 1.88467506682014e-04
8.94453125000000e+00 1.72710545978622e-02 1.87804967694546e-04
8.97796875000000e+00 1.71781407541784e-02 1.87143450096793e-04
9.01140625000000e+00 1.70857267631411e-02 1.86482969208170e-04
9.04484375000000e+00 1.69938099356712e-02 1.85823540062440e-04
9.07828125000000e+00 1.69023875971563e-02 1.85165177411748e-04
9.11171875000000e+00 1.68114570873726e-02 1.84507895730524e-04
9.14515625000000e+00 1.67210157604077e-02 1.83851709219378e-04
9.17859375000000e+00 1.66310609845836e-02 1.83196631809015e-04
9.21203125000000e+00 1.65415901423799e-02 1.82542677163973e-04
9.24546875000000e+00 1.64526006303578e-02 1.81889858686310e-04
9.27890625000000e+00 1.63640898590844e-02 1.81238189519287e-04
9.31234375000000e+00 1.62760552530573e-02 1.80587682551023e-04
9.34578125000000e+00 1.61884942506297e-02 1.79938350418077e-04
9.37921875000000e+00 1.61014043039355e-02 1.79290205508898e-04
9.41265625000000e+00 1.60147828788159e-02 1.78643259967315e-04
9.44609375000000e+00 1.59286274547449e-02 1.77997525695946e-04
9.47953125000000e+00 1.58429355247564e-02 1.77353014359542e-04
9.51296875000000e+00 1.57577045953711e-02 1.76709737388353e-04
9.54640625000000e+00 1.56729321865240e-02 1.76067705981344e-04
9.57984375000000e+00 1.55886158314923e-02 1.75426931109423e-04
9.61328125000000e+00 1.55047530768234e-02 1.74787423518636e-04
9.64671875000000e+00 1.54213414822637e-02 1.74149193733252e-04
9.68015625000000e+00 1.53383786206875e-02 1.73512252058864e-04
9.71359375000000e+00 1.52558620780264e-02 1.72876608585456e-04
9.74703125000000e+00 1.51737894531993e-02 1.72242273190369e-04
9.78046875000000e+00 1.50921583580420e-02 1.71609255541256e-04
9.81390625000000e+00 1.50109664172381e-02 1.70977565099000e-04
9.84734375000000e+00 1.49302112682499e-02 1.70347211120564e-04
9.88078125000000e+00 1.48498905612495e-02 1.69718202661854e-04
9.91421875000000e+00 1.47700019590503e-02 1.69090548580489e-04
9.94765625000000e+00 1.46905431370394e-02 1.68464257538531e-04
9.98109375000000e+00 1.46115117831096e-02 1.67839338005249e-04
1.00145312500000e+01 1.45329055975922e-02 1.67215798259750e-04
1.00479687500000e+01 1.44547222931904e-02 1.66593646393628e-04
1.00814062500000e+01 1.43769595949120e-02 1.65972890313564e-04
1.01148437500000e+01 1.42996152400042e-02 1.65353537743889e-04
1.01482812500000e+01 1.42226869778868e-02 1.64735596229138e-04
1.01817187500000e+01 1.41461725700874e-02 1.64119073136506e-04
1.02151562500000e+01 1.40700697901759e-02 1.63503975658317e-04
1.02485937500000e+01 1.39943764236998e-02 1.62890310814471e-04
1.02820312500000e+01 1.39190902681199e-02 1.62278085454812e-04
1.03154687500000e+01 1.38442091327460e-02 1.61667306261472e-04
1.03489062500000e+01 1.37697308386733e-02 1.61057979751254e-04
1.03823437500000e+01 1.36956532187189e-02 1.60450112277911e-04
1.04157812500000e+01 1.36219741173589e-02 1.59843710034363e-04
1.04492187500000e+01 1.35486913906653e-02 1.59238779054953e-04
1.04826562500000e+01 1.34758029062442e-02 1.58635325217673e-04
1.05160937500000e+01 1.34033065431733e-02 1.58033354246330e-04
1.05495312500000e+01 1.33312001919403e-02 1.57432871712681e-04
