Energy (eV)          EEDF (eV^-(3/2))     First Anisotropy
2.84090909090909e-02 1.62465311980943e-01 1.29059802186931e-04
8.52272727272727e-02 1.59935862775434e-01 2.12168679239512e-04
1.42045454545455e-01 1.57445794967808e-01 2.77592406387377e-04
1.98863636363636e-01 1.54994495454260e-01 3.25803279941298e-04
2.55681818181818e-01 1.52581360623885e-01 3.64795659753242e-04
3.12500000000000e-01 1.50205796285455e-01 3.97632734101662e-04
3.69318181818182e-01 1.47867217498193e-01 4.25919881578813e-04
4.26136363636364e-01 1.45565048428275e-01 4.50638482382132e-04
4.82954545454545e-01 1.43298722207133e-01 4.72447219833460e-04
5.39772727272727e-01 1.41067680796181e-01 4.91817095238419e-04
5.96590909090909e-01 1.38871374835688e-01 5.09100752354497e-04
6.53409090909091e-01 1.36709263523859e-01 5.24571618975324e-04
7.10227272727273e-01 1.34580814478623e-01 5.38447621325811e-04
7.67045454545454e-01 1.32485503606721e-01 5.50906356145568e-04
8.23863636363636e-01 1.30422814977136e-01 5.62095232067760e-04
8.80681818181818e-01 1.28392240686130e-01 5.72138494019205e-04
9.37500000000000e-01 1.26393280740346e-01 5.81142236799559e-04
9.94318181818182e-01 1.24425442930878e-01 5.89198076010058e-04
1.05113636363636e+00 1.22488242717515e-01 5.96385895721093e-04
1.10795454545455e+00 1.20581203096124e-01 6.02775944452092e-04
1.16477272727273e+00 1.18703854474994e-01 6.08430455198943e-04
1.22159090909091e+00 1.16855734607085e-01 6.13404927807707e-04
1.27840909090909e+00 1.15036388424727e-01 6.17749151633919e-04
1.33522727272727e+00 1.13245367945170e-01 6.21508024823099e-04
1.39204545454545e+00 1.11482232160618e-01 6.24722228624974e-04
1.44886363636364e+00 1.09746546917412e-01 6.27428777722324e-04
1.50568181818182e+00 1.08037884846128e-01 6.29661482586075e-04
1.56250000000000e+00 1.06355825218299e-01 6.31451337354679e-04
1.61931818181818e+00 1.04699953855828e-01 6.32826842071916e-04
1.67613636363636e+00 1.03069863029064e-01 6.33814280752055e-04
1.73295454545455e+00 1.01465151356436e-01 6.34437959226329e-04
1.78977272727273e+00 9.98854236967862e-02 6.34720406522791e-04
1.84659090909091e+00 9.83302910790302e-02 6.34682553264719e-04
1.90340909090909e+00 9.67993705787541e-02 6.34343887164629e-04
1.96022727272727e+00 9.52922852333107e-02 6.33722584622711e-04
2.01704545454545e+00 9.38086639491300e-02 6.32835630451704e-04
2.07386363636364e+00 9.23481414032452e-02 6.31698919751461e-04
2.13068181818182e+00 9.09103579748668e-02 6.30327351668838e-04
2.18750000000000e+00 8.94949596348152e-02 6.28734912949533e-04
2.24431818181818e+00 8.81015978658373e-02 6.26934748709977e-04
2.30113636363636e+00 8.67299295768157e-02 6.24939228734263e-04
2.35795454545455e+00 8.53796170183052e-02 6.22760006923071e-04
2.41477272727273e+00 8.40503276938814e-02 6.20408072379068e-04
2.47159090909091e+00 8.27417342949858e-02 6.17893798563458e-04
2.52840909090909e+00 8.14535146032655e-02 6.15226987970135e-04
2.58522727272727e+00 8.01853514170146e-02 6.12416909505109e-04
2.64204545454545e+00 7.89369324731316e-02 6.09472335568822e-04
2.69886363636364e+00 7.77079503656665e-02 6.06401573120355e-04
2.75568181818182e+00 7.64981024839727e-02 6.03212494734654e-04
2.81250000000000e+00 7.53070909240753e-02 5.99912567186242e-04
2.86931818181818e+00 7.41346224201088e-02 5.96508874897921e-04
2.92613636363636e+00 7.29804082721181e-02 5.93008143720797e-04
2.98295454545455e+00 7.18441642749801e-02 5.89416762786267e-04
3.03977272727273e+00 7.07256106447656e-02 5.85740802830621e-04
3.09659090909091e+00 6.96244719609830e-02 5.81986035428906e-04
3.15340909090909e+00 6.85404770874165e-02 5.78157950909871e-04
3.21022727272727e+00 6.74733591092015e-02 5.74261772574195e-04
3.26704545454545e+00 6.64228552671354e-02 5.70302472223976e-04
3.32386363636364e+00 6.53887068898710e-02 5.66284782504813e-04
3.38068181818182e+00 6.43706593396500e-02 5.62213210433941e-04
3.43750000000000e+00 6.33684619400067e-02 5.58092050103355e-04
3.49431818181818e+00 6.23818679172941e-02 5.53925392416073e-04
3.55113636363636e+00 6.14106343399280e-02 5.49717135880856e-04
3.60795454545455e+00 6.04545220585745e-02 5.45470996667968e-04
3.66477272727273e+00 5.95132956447144e-02 5.41190516612505e-04
3.72159090909091e+00 5.85867233404286e-02 5.36879072488240e-04
3.77840909090909e+00 5.76745769934419e-02 5.32539884785274e-04
3.83522727272727e+00 5.67766320036120e-02 5.28176024115025e-04
3.89204545454545e+00 5.58926672676447e-02 5.23790419027089e-04
3.94886363636364e+00 5.50224651224564e-02 5.19385861741627e-04
4.00568181818182e+00 5.41658112982394e-02 5.14965015128512e-04
4.06250000000000e+00 5.33224948589284e-02 5.10530419349855e-04
4.11931818181818e+00 5.24923081525542e-02 5.06084496484069e-04
4.17613636363636e+00 5.16750467601166e-02 5.01629556207121e-04
4.23295454545454e+00 5.08705094452540e-02 4.97167801125126e-04
4.28977272727273e+00 5.00784981028613e-02 4.92701330713236e-04
4.34659090909091e+00 4.92988177158764e-02 4.88232146424001e-04
4.40340909090909e+00 4.85312763016040e-02 4.83762156576528e-04
4.46022727272727e+00 4.77756848663540e-02 4.79293179552588e-04
4.51704545454545e+00 4.70318573589176e-02 4.74826948227089e-04
4.57386363636364e+00 4.62996106231628e-02 4.70365112898056e-04
4.63068181818182e+00 4.55787643577673e-02 4.65909245305608e-04
4.68750000000000e+00 4.48691410669136e-02 4.61460842493966e-04
4.74431818181818e+00 4.41705660182443e-02 4.57021329193157e-04
4.80113636363636e+00 4.34828671998400e-02 4.52592061114024e-04
4.85795454545454e+00 4.28058752778661e-02 4.48174328053173e-04
4.91477272727273e+00 4.21394235535349e-02 4.43769355978185e-04
4.97159090909091e+00 4.14833479261409e-02 4.39378310100684e-04
5.02840909090909e+00 4.08374868485084e-02 4.35002297841383e-04
5.08522727272727e+00 4.02016812886130e-02 4.30642370523925e-04
5.14204545454545e+00 3.95757746904307e-02 4.26299526092803e-04
5.19886363636364e+00 3.89596129342115e-02 4.21974710699127e-04
5.25568181818182e+00 3.83530443021022e-02 4.17668821192008e-04
5.31250000000000e+00 3.77559194371617e-02 4.13382707529546e-04
5.36931818181818e+00 3.71680913078108e-02 4.09117174062399e-04
5.42613636363636e+00 3.65894151716298e-02 4.04872981574328e-04
5.48295454545454e+00 3.60197485397197e-02 4.00650849207868e-04
5.53977272727273e+00 3.54589511406145e-02 3.96451455614518e-04
5.59659090909091e+00 3.49068848887875e-02 3.92275440917347e-04
5.65340909090909e+00 3.43634138475589e-02 3.88123408616157e-04
5.71022727272727e+00 3.38284041966675e-02 3.83995926511754e-04
5.76704545454545e+00 3.33017241993247e-02 3.79893528465760e-04
5.82386363636364e+00 3.27832441688934e-02 3.75816715284097e-04
5.88068181818182e+00 3.22728364396354e-02 3.71765956341294e-04
5.93750000000000e+00 3.17703753325557e-02 3.67741691160930e-04
5.99431818181818e+00 3.12757371253755e-02 3.63744330118847e-04
6.05113636363636e+00 3.07888000220693e-02 3.59774255764888e-04
6.10795454545454e+00 3.03094441228751e-02 3.55831824070097e-04
6.16477272727273e+00 2.98375513940143e-02 3.51917365070885e-04
6.22159090909091e+00 2.93730056409286e-02 3.48031184175269e-04
6.27840909090909e+00 2.89156924773351e-02 3.44173563437008e-04
6.33522727272727e+00 2.84654992978481e-02 3.40344762060336e-04
6.39204545454545e+00 2.80223152502561e-02 3.36545017582883e-04
6.44886363636364e+00 2.75860312075549e-02 3.32774546369739e-04
6.50568181818182e+00 2.71565397431129e-02 3.29033544710221e-04
6.56250000000000e+00 2.67337351021542e-02 3.25322189889716e-04
6.61931818181818e+00 2.63175131764160e-02 3.21640640569700e-04
6.67613636363636e+00 2.59077714785143e-02 3.17989037670858e-04
6.73295454545454e+00 2.55044091167094e-02 3.14367505205289e-04
6.78977272727273e+00 2.51073267694840e-02 3.10776150633232e-04
6.84659090909091e+00 2.47164266628443e-02 3.07215065757887e-04
6.90340909090909e+00 2.43316125444634e-02 3.03684327601723e-04
6.96022727272727e+00 2.39527896605812e-02 3.00183998672773e-04
7.01704545454545e+00 2.35798647326764e-02 2.96714127780898e-04
7.07386363636364e+00 2.32127459339833e-02 2.93274750307018e-04
7.13068181818182e+00 2.28513428684417e-02 2.89865888962078e-04
7.18750000000000e+00 2.24955665468561e-02 2.86487554531457e-04
7.24431818181818e+00 2.21453293655181e-02 2.83139746068880e-04
7.30113636363636e+00 2.18005450846362e-02 2.79822451499110e-04
7.35795454545454e+00 2.14611288071011e-02 2.76535648184549e-04
7.41477272727273e+00 2.11269969571355e-02 2.73279303113443e-04
7.47159090909091e+00 2.07980672610688e-02 2.70053373525379e-04
7.52840909090909e+00 2.04742587257060e-02 2.66857807525902e-04
7.58522727272727e+00 2.01554916188481e-02 2.63692544213850e-04
7.64204545454545e+00 1.98416874496608e-02 2.60557514255060e-04
7.69886363636364e+00 1.95327689489500e-02 2.57452640018478e-04
7.75568181818182e+00 1.92286600513415e-02 2.54377836110415e-04
7.81250000000000e+00 1.89292858753291e-02 2.51333009900250e-04
7.86931818181818e+00 1.86345727052486e-02 2.48318061605174e-04
7.92613636363636e+00 1.83444479731274e-02 2.45332884707288e-04
7.98295454545454e+00 1.80588402408162e-02 2.42377366344402e-04
8.03977272727273e+00 1.77776791820526e-02 2.39451387397698e-04
8.09659090909091e+00 1.75008955661947e-02 2.36554822935103e-04
8.15340909090909e+00 1.72284212401099e-02 2.33687542648261e-04
8.21022727272727e+00 1.69601891117525e-02 2.30849410898076e-04
8.26704545454546e+00 1.66961331336445e-02 2.28040287122987e-04
8.32386363636364e+00 1.64361882863038e-02 2.25260025895434e-04
8.38068181818182e+00 1.61802905631717e-02 2.22508477302337e-04
8.43750000000000e+00 1.59283769539023e-02 2.19785487320565e-04
8.49431818181818e+00 1.56803854291676e-02 2.17090897837464e-04
8.55113636363636e+00 1.54362549253850e-02 2.14424546941912e-04
8.60795454545454e+00 1.51959253296809e-02 2.11786269195861e-04
8.66477272727273e+00 1.49593374648197e-02 2.09175895661746e-04
8.72159090909091e+00 1.47264330754512e-02 2.06593254219708e-04
8.77840909090909e+00 1.44971548129367e-02 2.04038169881051e-04
8.83522727272727e+00 1.42714462215071e-02 2.01510464785918e-04
8.89204545454546e+00 1.40492517243633e-02 1.99009958496283e-04
8.94886363636364e+00 1.38305166097491e-02 1.96536468004809e-04
9.00568181818182e+00 1.36151870182133e-02 1.94089808007858e-04
9.06250000000000e+00 1.34032099286042e-02 1.91669791175620e-04
9.11931818181818e+00 1.31945331452648e-02 1.89276228135391e-04
9.17613636363636e+00 1.29891052851813e-02 1.86908927675416e-04
9.23295454545454e+00 1.27868757653305e-02 1.84567696934012e-04
9.28977272727273e+00 1.25877947900133e-02 1.82252341391321e-04
9.34659090909091e+00 1.23918133392360e-02 1.79962665097495e-04
9.40340909090909e+00 1.21988831559887e-02 1.77698470898791e-04
9.46022727272727e+00 1.20089567345828e-02 1.75459560407999e-04
9.51704545454546e+00 1.18219873089536e-02 1.73245734215679e-04
9.57386363636364e+00 1.16379288409555e-02 1.71056791871175e-04
9.63068181818182e+00 1.14567360096024e-02 1.68892532079291e-04
9.68750000000000e+00 1.12783641993238e-02 1.66752752895419e-04
9.74431818181818e+00 1.11027694891763e-02 1.64637251688073e-04
9.80113636363636e+00 1.09299086420289e-02 1.62545825281545e-04
9.85795454545454e+00 1.07597390939169e-02 1.60478270087323e-04
9.91477272727273e+00 1.05922189433943e-02 1.58434382075426e-04
9.97159090909091e+00 1.04273069417227e-02 1.56413956938928e-04
1.00284090909091e+01 1.02649624822018e-02 1.54416790331105e-04
1.00852272727273e+01 1.01051455900292e-02 1.52442677670080e-04
1.01420454545455e+01 9.94781691310457e-03 1.50491413903784e-04
1.01988636363636e+01 9.79293771350722e-03 1.48562794811947e-04
1.02556818181818e+01 9.64046985340228e-03 1.46656616276064e-04
1.03125000000000e+01 9.49037579025944e-03 1.44772673604447e-04
1.03693181818182e+01 9.34261856605280e-03 1.42910762716001e-04
1.04261363636364e+01 9.19716179816175e-03 1.41070679823828e-04
1.04829545454545e+01 9.05396967041343e-03 1.39252221177694e-04
1.05397727272727e+01 8.91300692558511e-03 1.37455184082130e-04
1.05965909090909e+01 8.77423885270834e-03 1.35679366305601e-04
1.06534090909091e+01 8.63763128258394e-03 1.33924565467837e-04
1.07102272727273e+01 8.50315057799649e-03 1.32190580091730e-04
1.07670454545455e+01 8.37076362543549e-03 1.30477209023557e-04
1.08238636363636e+01 8.24043782812956e-03 1.28784252355573e-04
1.08806818181818e+01 8.11214109440907e-03 1.27111510881121e-04
1.09375000000000e+01 7.98584183345777e-03 1.25458785530000e-04
1.09943181818182e+01 7.86150894630094e-03 1.23825878322221e-04
1.10511363636364e+01 7.73911181814871e-03 1.22212592096944e-04
1.11079545454545e+01 7.61862031085844e-03 1.20618730289534e-04
1.11647727272727e+01 7.50000475656334e-03 1.19044097751709e-04
1.12215909090909e+01 7.38323594717926e-03 1.17488500256833e-04
1.12784090909091e+01 7.26828513043828e-03 1.15951743987582e-04
1.13352272727273e+01 7.15512400171965e-03 1.14433636384657e-04
1.13920454545455e+01 7.04372469708310e-03 1.12933985661783e-04
1.14488636363636e+01 6.93405978735273e-03 1.11452601549757e-04
1.15056818181818e+01 6.82610226849102e-03 1.09989294840342e-04
1.15625000000000e+01 6.71982555785532e-03 1.08543876914211e-04
1.16193181818182e+01 6.61520348667167e-03 1.07116160511303e-04
1.16761363636364e+01 6.51221029359191e-03 1.05705959499480e-04
1.17329545454545e+01 6.41082061835096e-03 1.04313088682532e-04
1.17897727272727e+01 6.31100949635851e-03 1.02937364462469e-04
1.18465909090909e+01 6.21275235001224e-03 1.01578604425554e-04
1.19034090909091e+01 6.11602498521547e-03 1.00236626914054e-04
1.19602272727273e+01 6.02080358455218e-03 9.89112517125834e-05
1.20170454545455e+01 5.92706470142449e-03 9.76022996425520e-05
1.20738636363636e+01 5.83478525503325e-03 9.63095931635838e-05
1.21306818181818e+01 5.74394252240368e-03 9.50329559919028e-05
1.21875000000000e+01 5.65451413510810e-03 9.37722127057806e-05
1.22443181818182e+01 5.56647807297593e-03 9.25271893691098e-05
1.23011363636364e+01 5.47981265867212e-03 9.12977133344637e-05
1.23579545454545e+01 5.39449655235992e-03 9.00836130784140e-05
1.24147727272727e+01 5.31050874711445e-03 8.88847187374539e-05
1.24715909090909e+01 5.22782856172115e-03 8.77008617616873e-05
1.25284090909091e+01 5.14643563763597e-03 8.65318745569358e-05
1.25852272727273e+01 5.06630993327947e-03 8.53775910408811e-05
1.26420454545455e+01 4.98743171910354e-03 8.42378463039924e-05
1.26988636363636e+01 4.90978157333641e-03 8.31124770966090e-05
1.27556818181818e+01 4.83334037536778e-03 8.20013215097160e-05
1.28125000000000e+01 4.75808930289459e-03 8.09042186451925e-05
1.28693181818182e+01 4.68400982666086e-03 7.98210091215040e-05
1.29261363636364e+01 4.61108370589555e-03 7.87515349063878e-05
1.29829545454545e+01 4.53929298382137e-03 7.76956391759996e-05
1.30397727272727e+01 4.46861998376855e-03 7.66531667493599e-05
1.30965909090909e+01 4.39904730319699e-03 7.56239637986738e-05
1.31534090909091e+01 4.33055781105527e-03 7.46078775502206e-05
1.32102272727273e+01 4.26313464300743e-03 7.36047567357797e-05
1.32670454545455e+01 4.19676119728163e-03 7.26144513091516e-05
1.33238636363636e+01 4.13142113106593e-03 7.16368128413001e-05
1.33806818181818e+01 4.06709835501461e-03 7.06716942533198e-05
1.34375000000000e+01 4.00377703077300e-03 6.97189495408357e-05
1.34943181818182e+01 3.94144156657602e-03 6.87784341847740e-05
1.35511363636364e+01 3.88007661340925e-03 6.78500050093998e-05
1.36079545454545e+01 3.81966706122979e-03 6.69335200621195e-05
1.36647727272727e+01 3.76019803567536e-03 6.60288389662179e-05
1.37215909090909e+01 3.70165489309704e-03 6.51358226785281e-05
1.37784090909091e+01 3.64402321827329e-03 6.42543332394450e-05
1.38352272727273e+01 3.58728882041502e-03 6.33842341398920e-05
1.38920454545455e+01 3.53143772967223e-03 6.25253900842922e-05
1.39488636363636e+01 3.47645619408294e-03 6.16776673116032e-05
1.40056818181818e+01 3.42233067500604e-03 6.08409333719326e-05
1.40625000000000e+01 3.36904784498221e-03 6.00150568961667e-05
1.41193181818182e+01 3.31659458404924e-03 5.91999079300955e-05
1.41761363636364e+01 3.26495797651172e-03 5.83953578141078e-05
1.42329545454545e+01 3.21412530776095e-03 5.76012790807827e-05
1.42897727272727e+01 3.16408406148995e-03 5.68175457416845e-05
1.43465909090909e+01 3.11482191556181e-03 5.60440330846313e-05
1.44034090909091e+01 3.06632674003741e-03 5.52806174647035e-05
1.44602272727273e+01 3.01858659383018e-03 5.45271766029649e-05
1.45170454545455e+01 2.97158972176662e-03 5.37835893882397e-05
1.45738636363636e+01 2.92532455200482e-03 5.30497361382803e-05
1.46306818181818e+01 2.87977969223409e-03 5.23254984128645e-05
1.46875000000000e+01 2.83494392783173e-03 5.16107588211867e-05
1.47443181818182e+01 2.79080621877713e-03 5.09054012939935e-05
1.48011363636364e+01 2.74735569693352e-03 5.02093109817143e-05
1.48579545454545e+01 2.70458166337206e-03 4.95223741673217e-05
1.49147727272727e+01 2.66247358601607e-03 4.88444784997911e-05
1.49715909090909e+01 2.62102109620163e-03 4.81755128244707e-05
1.50284090909091e+01 2.58021398698025e-03 4.75153670083307e-05
1.50852272727273e+01 2.54004221031679e-03 4.68639321834092e-05
1.51420454545455e+01 2.50049587461583e-03 4.62211005810130e-05
1.51988636363636e+01 2.46156524253866e-03 4.55867657444287e-05
1.52556818181818e+01 2.42324072783840e-03 4.49608223725093e-05
1.53125000000000e+01 2.38551289377551e-03 4.43431661586071e-05
1.53693181818182e+01 2.34837245053247e-03 4.37336940124659e-05
1.54261363636364e+01 2.31181025292639e-03 4.31323039740119e-05
1.54829545454545e+01 2.27581729815732e-03 4.25388951392924e-05
1.55397727272727e+01 2.24038472381654e-03 4.19533678507244e-05
1.55965909090909e+01 2.20550380502108e-03 4.13756235551249e-05
1.56534090909091e+01 2.17116595295644e-03 4.08055646575572e-05
1.57102272727273e+01 2.13736271252854e-03 4.02430947199451e-05
1.57670454545455e+01 2.10408576028222e-03 3.96881183223593e-05
1.58238636363636e+01 2.07132690255587e-03 3.91405412364345e-05
1.58806818181818e+01 2.03907807284389e-03 3.86002702944495e-05
1.59375000000000e+01 2.00733133043754e-03 3.80672132545999e-05
1.59943181818182e+01 1.97607885825811e-03 3.75412789821087e-05
1.60511363636364e+01 1.94531296093228e-03 3.70223773763020e-05
1.61079545454545e+01 1.91502606289731e-03 3.65104193077148e-05
1.61647727272727e+01 1.88521070671775e-03 3.60053167732793e-05
1.62215909090909e+01 1.85585955069655e-03 3.55069827774798e-05
1.62784090909091e+01 1.82696536762623e-03 3.50153312100837e-05
1.63352272727273e+01 1.79852104282071e-03 3.45302770083311e-05
1.63920454545455e+01 1.77051957236373e-03 3.40517360408512e-05
1.64488636363636e+01 1.74295406154956e-03 3.35796252491798e-05
1.65056818181818e+01 1.71581772268342e-03 3.31138625381526e-05
1.65625000000000e+01 1.68910387391771e-03 3.26543666631769e-05
1.66193181818182e+01 1.66280593743547e-03 3.22010573781893e-05
1.66761363636364e+01 1.63691743783087e-03 3.17538553739971e-05
1.67329545454545e+01 1.61143200051476e-03 3.13126822248987e-05
1.67897727272727e+01 1.58634335029255e-03 3.08774605153868e-05
1.68465909090909e+01 1.56164530937138e-03 3.04481137406364e-05
1.69034090909091e+01 1.53733179629172e-03 3.00245662041865e-05
1.69602272727273e+01 1.51339682427711e-03 2.96067431505034e-05
1.70170454545455e+01 1.48983449976030e-03 2.91945706678086e-05
1.70738636363636e+01 1.46663902106603e-03 2.87879758036604e-05
1.71306818181818e+01 1.44380467657567e-03 2.83868864731681e-05
1.71875000000000e+01 1.42132584373221e-03 2.79912313646445e-05
1.72443181818182e+01 1.39919698751712e-03 2.76009400605805e-05
1.73011363636364e+01 1.37741265908741e-03 2.72159429855272e-05
1.73579545454545e+01 1.35596749443408e-03 2.68361713608153e-05
1.74147727272727e+01 1.33485621318096e-03 2.64615573080824e-05
1.74715909090909e+01 1.31407361692134e-03 2.60920337659331e-05
1.75284090909091e+01 1.29361458830523e-03 2.57275344042885e-05
1.75852272727273e+01 1.27347408965536e-03 2.53679937328202e-05
1.76420454545455e+01 1.25364716172700e-03 2.50133470195893e-05
1.76988636363636e+01 1.23412892259552e-03 2.46635303855147e-05
1.77556818181818e+01 1.21491456612412e-03 2.43184807274928e-05
1.78125000000000e+01 1.19599936111436e-03 2.39781356394137e-05
1.78693181818182e+01 1.17737865002853e-03 2.36424335111438e-05
1.79261363636364e+01 1.15904784784287e-03 2.33113134844833e-05
