Energy (eV)          EEDF (eV^-(3/2))     First Anisotropy
1.34375000000000e-02 1.01637468578414e-01 4.76980237766998e-05
4.03125000000000e-02 1.01089084288669e-01 7.88154740053387e-05
6.71875000000000e-02 1.00543658803277e-01 1.04184476733217e-04
9.40625000000000e-02 1.00001176157616e-01 1.23542418763606e-04
1.20937500000000e-01 9.94616204735363e-02 1.39757628986583e-04
1.47812500000000e-01 9.89249759586083e-02 1.53912256327698e-04
1.74687500000000e-01 9.83912269056263e-02 1.66565173891072e-04
2.01562500000000e-01 9.78603576921382e-02 1.78053198307650e-04
2.28437500000000e-01 9.73323527799855e-02 1.88599273487428e-04
2.55312500000000e-01 9.68071967148472e-02 1.98360663568128e-04
2.82187500000000e-01 9.62848741257866e-02 2.07453556623824e-04
3.09062500000000e-01 9.57653697248011e-02 2.15966877996767e-04
3.35937500000000e-01 9.52486683063751e-02 2.23970612058389e-04
3.62812500000000e-01 9.47347547470340e-02 2.31521096907894e-04
3.89687500000000e-01 9.42236140049022e-02 2.38664543377861e-04
4.16562500000000e-01 9.37152311192625e-02 2.45439458995977e-04
4.43437500000000e-01 9.32095912101183e-02 2.51878368281244e-04
4.70312500000000e-01 9.27066794777578e-02 2.58009064995582e-04
4.97187500000000e-01 9.22064812023210e-02 2.63855543790492e-04
5.24062500000000e-01 9.17089817433690e-02 2.69438706605111e-04
5.50937500000000e-01 9.12141665394553e-02 2.74776907273523e-04
5.77812500000000e-01 9.07220211076993e-02 2.79886377638418e-04
6.04687500000000e-01 9.02325310433631e-02 2.84781565370024e-04
6.31562500000000e-01 8.97456820194291e-02 2.89475404969663e-04
6.58437500000000e-01 8.92614597861815e-02 2.93979537505773e-04
6.85312500000000e-01 8.87798501707884e-02 2.98304490515356e-04
7.12187500000000e-01 8.83008390768873e-02 3.02459826598907e-04
7.39062500000000e-01 8.78244124841729e-02 3.06454267154008e-04
7.65937500000000e-01 8.73505564479860e-02 3.10295796176068e-04
7.92812500000000e-01 8.68792570989058e-02 3.13991747936743e-04
8.19687500000000e-01 8.64105006423439e-02 3.17548881515974e-04
8.46562500000000e-01 8.59442733581406e-02 3.20973444533250e-04
8.73437500000000e-01 8.54805616001632e-02 3.24271227943077e-04
9.00312500000000e-01 8.50193517959065e-02 3.27447613389324e-04
9.27187500000000e-01 8.45606304460957e-02 3.30507614325441e-04
9.54062500000000e-01 8.41043841242913e-02 3.33455911881885e-04
9.80937500000000e-01 8.36505994764962e-02 3.36296886283932e-04
1.00781250000000e+00 8.31992632207644e-02 3.39034644481444e-04
1.03468750000000e+00 8.27503621468129e-02 3.41673044538391e-04
1.06156250000000e+00 8.23038831156345e-02 3.44215717238254e-04
1.08843750000000e+00 8.18598130591133e-02 3.46666085287497e-04
1.11531250000000e+00 8.14181389796425e-02 3.49027380438112e-04
1.14218750000000e+00 8.09788479497439e-02 3.51302658800842e-04
1.16906250000000e+00 8.05419271116892e-02 3.53494814579478e-04
1.19593750000000e+00 8.01073636771239e-02 3.55606592422409e-04
1.22281250000000e+00 7.96751449266933e-02 3.57640598559734e-04
1.24968750000000e+00 7.92452582096696e-02 3.59599310869969e-04
1.27656250000000e+00 7.88176909435818e-02 3.61485088000709e-04
1.30343750000000e+00 7.83924306138480e-02 3.63300177651037e-04
1.33031250000000e+00 7.79694647734081e-02 3.65046724108717e-04
1.35718750000000e+00 7.75487810423605e-02 3.66726775123577e-04
1.38406250000000e+00 7.71303671075991e-02 3.68342288187910e-04
1.41093750000000e+00 7.67142107224529e-02 3.69895136285914e-04
1.43781250000000e+00 7.63002997063279e-02 3.71387113166878e-04
1.46468750000000e+00 7.58886219443505e-02 3.72819938189823e-04
1.49156250000000e+00 7.54791653870128e-02 3.74195260782130e-04
1.51843750000000e+00 7.50719180498196e-02 3.75514664549448e-04
1.54531250000000e+00 7.46668680129385e-02 3.76779671070109e-04
1.57218750000000e+00 7.42640034208501e-02 3.77991743403847e-04
1.59906250000000e+00 7.38633124820015e-02 3.79152289340521e-04
1.62593750000000e+00 7.34647834684609e-02 3.80262664412689e-04
1.65281250000000e+00 7.30684047155749e-02 3.81324174693159e-04
1.67968750000000e+00 7.26741646216261e-02 3.82338079395816e-04
1.70656250000000e+00 7.22820516474945e-02 3.83305593296884e-04
1.73343750000000e+00 7.18920543163191e-02 3.84227888991914e-04
1.76031250000000e+00 7.15041612131625e-02 3.85106099001900e-04
1.78718750000000e+00 7.11183609846762e-02 3.85941317740935e-04
1.81406250000000e+00 7.07346423387688e-02 3.86734603356672e-04
1.84093750000000e+00 7.03529940442754e-02 3.87486979453603e-04
1.86781250000000e+00 6.99734049306284e-02 3.88199436708243e-04
1.89468750000000e+00 6.95958638875314e-02 3.88872934384671e-04
1.92156250000000e+00 6.92203598646332e-02 3.89508401757888e-04
1.94843750000000e+00 6.88468818712049e-02 3.90106739451905e-04
1.97531250000000e+00 6.84754189758178e-02 3.90668820698943e-04
2.00218750000000e+00 6.81059603060238e-02 3.91195492525230e-04
2.02906250000000e+00 6.77384950480370e-02 3.91687576868884e-04
2.05593750000000e+00 6.73730124464171e-02 3.92145871634650e-04
2.08281250000000e+00 6.70095018037549e-02 3.92571151689821e-04
2.10968750000000e+00 6.66479524803588e-02 3.92964169805329e-04
2.13656250000000e+00 6.62883538939437e-02 3.93325657545898e-04
2.16343750000000e+00 6.59306955193212e-02 3.93656326112571e-04
2.19031250000000e+00 6.55749668880914e-02 3.93956867140723e-04
2.21718750000000e+00 6.52211575883366e-02 3.94227953456577e-04
2.24406250000000e+00 6.48692572643165e-02 3.94470239794783e-04
2.27093750000000e+00 6.45192556161652e-02 3.94684363479579e-04
2.29781250000000e+00 6.41711423995896e-02 3.94870945071768e-04
2.32468750000000e+00 6.38249074255696e-02 3.95030588983856e-04
2.35156250000000e+00 6.34805405600600e-02 3.95163884065043e-04
2.37843750000000e+00 6.31380317236937e-02 3.95271404157981e-04
2.40531250000000e+00 6.27973708914866e-02 3.95353708628959e-04
2.43218750000000e+00 6.24585480925446e-02 3.95411342873210e-04
2.45906250000000e+00 6.21215534097714e-02 3.95444838796728e-04
2.48593750000000e+00 6.17863769795783e-02 3.95454715275859e-04
2.51281250000000e+00 6.14530089915955e-02 3.95441478596031e-04
2.53968750000000e+00 6.11214396883851e-02 3.95405622870771e-04
2.56656250000000e+00 6.07916593651552e-02 3.95347630442245e-04
2.59343750000000e+00 6.04636583694763e-02 3.95267972264082e-04
2.62031250000000e+00 6.01374271009982e-02 3.95167108267641e-04
2.64718750000000e+00 5.98129560111697e-02 3.95045487712528e-04
2.67406250000000e+00 5.94902356029584e-02 3.94903549522391e-04
2.70093750000000e+00 5.91692564305733e-02 3.94741722606507e-04
2.72781250000000e+00 5.88500090991880e-02 3.94560426167914e-04
2.75468750000000e+00 5.85324842646659e-02 3.94360069999108e-04
2.78156250000000e+00 5.82166726332865e-02 3.94141054765658e-04
2.80843750000000e+00 5.79025649614736e-02 3.93903772278436e-04
2.83531250000000e+00 5.75901520555247e-02 3.93648605754908e-04
2.86218750000000e+00 5.72794247713417e-02 3.93375930070259e-04
2.88906250000000e+00 5.69703740141636e-02 3.93086111998758e-04
2.91593750000000e+00 5.66629907383000e-02 3.92779510445758e-04
2.94281250000000e+00 5.63572659468666e-02 3.92456476670849e-04
2.96968750000000e+00 5.60531906915215e-02 3.92117354502593e-04
2.99656250000000e+00 5.57507560722037e-02 3.91762480545259e-04
3.02343750000000e+00 5.54499532368724e-02 3.91392184377873e-04
3.05031250000000e+00 5.51507733812478e-02 3.91006788745979e-04
3.07718750000000e+00 5.48532077485538e-02 3.90606609746427e-04
3.10406250000000e+00 5.45572476292612e-02 3.90191957005533e-04
3.13093750000000e+00 5.42628843608331e-02 3.89763133850908e-04
3.15781250000000e+00 5.39701093274712e-02 3.89320437477209e-04
3.18468750000000e+00 5.36789139598637e-02 3.88864159106099e-04
3.21156250000000e+00 5.33892897349345e-02 3.88394584140657e-04
3.23843750000000e+00 5.31012281755937e-02 3.87911992314473e-04
3.26531250000000e+00 5.28147208504893e-02 3.87416657835779e-04
3.29218750000000e+00 5.25297593737610e-02 3.86908849526633e-04
3.31906250000000e+00 5.22463354047941e-02 3.86388830957529e-04
3.34593750000000e+00 5.19644406479754e-02 3.85856860577434e-04
3.37281250000000e+00 5.16840668524512e-02 3.85313191839668e-04
3.39968750000000e+00 5.14052058118846e-02 3.84758073323749e-04
3.42656250000000e+00 5.11278493642165e-02 3.84191748853149e-04
3.45343750000000e+00 5.08519893914257e-02 3.83614457609404e-04
3.48031250000000e+00 5.05776178192920e-02 3.83026434242576e-04
3.50718750000000e+00 5.03047266171595e-02 3.82427908978333e-04
3.53406250000000e+00 5.00333077977016e-02 3.81819107721581e-04
3.56093750000000e+00 4.97633534166874e-02 3.81200252156912e-04
3.58781250000000e+00 4.94948555727489e-02 3.80571559846102e-04
3.61468750000000e+00 4.92278064071500e-02 3.79933244322505e-04
3.64156250000000e+00 4.89621981035563e-02 3.79285515182666e-04
3.66843750000000e+00 4.86980228878065e-02 3.78628578175277e-04
3.69531250000000e+00 4.84352730276844e-02 3.77962635287359e-04
3.72218750000000e+00 4.81739408326933e-02 3.77287884827997e-04
3.74906250000000e+00 4.79140186538303e-02 3.76604521509622e-04
3.77593750000000e+00 4.76554988833627e-02 3.75912736526973e-04
3.80281250000000e+00 4.73983739546054e-02 3.75212717633753e-04
3.82968750000000e+00 4.71426363416991e-02 3.74504649217119e-04
3.85656250000000e+00 4.68882785593903e-02 3.73788712370113e-04
3.88343750000000e+00 4.66352931628122e-02 3.73065084961968e-04
3.91031250000000e+00 4.63836727472666e-02 3.72333941706550e-04
3.93718750000000e+00 4.61334099480074e-02 3.71595454228906e-04
3.96406250000000e+00 4.58844974400250e-02 3.70849791129893e-04
3.99093750000000e+00 4.56369279378316e-02 3.70097118049216e-04
4.01781250000000e+00 4.53906941952485e-02 3.69337597726635e-04
4.04468750000000e+00 4.51457890051935e-02 3.68571390061546e-04
4.07156250000000e+00 4.49022051994702e-02 3.67798652171062e-04
4.09843750000000e+00 4.46599356485581e-02 3.67019538446478e-04
4.12531250000000e+00 4.44189732614043e-02 3.66234200608311e-04
4.15218750000000e+00 4.41793109852153e-02 3.65442787759883e-04
4.17906250000000e+00 4.39409418052509e-02 3.64645446439525e-04
4.20593750000000e+00 4.37038587446191e-02 3.63842320671420e-04
4.23281250000000e+00 4.34680548640714e-02 3.63033552015222e-04
4.25968750000000e+00 4.32335232618003e-02 3.62219279614345e-04
4.28656250000000e+00 4.30002570732367e-02 3.61399640243061e-04
4.31343750000000e+00 4.27682494708494e-02 3.60574768352483e-04
4.34031250000000e+00 4.25374936639449e-02 3.59744796115331e-04
4.36718750000000e+00 4.23079828984690e-02 3.58909853469622e-04
4.39406250000000e+00 4.20797104568090e-02 3.58070068161295e-04
4.42093750000000e+00 4.18526696575968e-02 3.57225565785831e-04
4.44781250000000e+00 4.16268538555138e-02 3.56376469828809e-04
4.47468750000000e+00 4.14022564410961e-02 3.55522901705574e-04
4.50156250000000e+00 4.11788708405411e-02 3.54664980799864e-04
4.52843750000000e+00 4.09566905155151e-02 3.53802824501589e-04
4.55531250000000e+00 4.07357089629621e-02 3.52936548243785e-04
4.58218750000000e+00 4.05159197149130e-02 3.52066265538507e-04
4.60906250000000e+00 4.02973163382968e-02 3.51192088012057e-04
4.63593750000000e+00 4.00798924347520e-02 3.50314125439387e-04
4.66281250000000e+00 3.98636416404395e-02 3.49432485777666e-04
4.68968750000000e+00 3.96485576258562e-02 3.48547275199103e-04
4.71656250000000e+00 3.94346340956497e-02 3.47658598122975e-04
4.74343750000000e+00 3.92218647884344e-02 3.46766557247084e-04
4.77031250000000e+00 3.90102434766077e-02 3.45871253578337e-04
4.79718750000000e+00 3.87997639661680e-02 3.44972786462699e-04
4.82406250000000e+00 3.85904200965336e-02 3.44071253614595e-04
4.85093750000000e+00 3.83822057403620e-02 3.43166751145535e-04
4.87781250000000e+00 3.81751148033707e-02 3.42259373592125e-04
4.90468750000000e+00 3.79691412241591e-02 3.41349213943552e-04
4.93156250000000e+00 3.77642789740307e-02 3.40436363668461e-04
4.95843750000000e+00 3.75605220568167e-02 3.39520912741138e-04
4.98531250000000e+00 3.73578645087007e-02 3.38602949667249e-04
5.01218750000000e+00 3.71563003980439e-02 3.37682561509031e-04
5.03906250000000e+00 3.69558238252120e-02 3.36759833909900e-04
5.06593750000000e+00 3.67564289224017e-02 3.35834851118625e-04
5.09281250000000e+00 3.65581098534695e-02 3.34907696012890e-04
5.11968750000000e+00 3.63608608137610e-02 3.33978450122402e-04
5.14656250000000e+00 3.61646760299404e-02 3.33047193651591e-04
5.17343750000000e+00 3.59695497598223e-02 3.32114005501752e-04
5.20031250000000e+00 3.57754762922029e-02 3.31178963292820e-04
5.22718750000000e+00 3.55824499466933e-02 3.30242143384626e-04
5.25406250000000e+00 3.53904650735531e-02 3.29303620897736e-04
5.28093750000000e+00 3.51995160535251e-02 3.28363469733996e-04
5.30781250000000e+00 3.50095972976706e-02 3.27421762596480e-04
5.33468750000000e+00 3.48207032472060e-02 3.26478571009123e-04
5.36156250000000e+00 3.46328283733404e-02 3.25533965336005e-04
5.38843750000000e+00 3.44459671771130e-02 3.24588014800203e-04
5.41531250000000e+00 3.42601141892328e-02 3.23640787502321e-04
5.44218750000000e+00 3.40752639699185e-02 3.22692350438604e-04
5.46906250000000e+00 3.38914111087389e-02 3.21742769518725e-04
5.49593750000000e+00 3.37085502244547e-02 3.20792109583202e-04
5.52281250000000e+00 3.35266759648611e-02 3.19840434420567e-04
5.54968750000000e+00 3.33457830066312e-02 3.18887806784144e-04
5.57656250000000e+00 3.31658660551600e-02 3.17934288408483e-04
5.60343750000000e+00 3.29869198444094e-02 3.16979940025526e-04
5.63031250000000e+00 3.28089391367543e-02 3.16024821380471e-04
5.65718750000000e+00 3.26319187228292e-02 3.15068991247307e-04
5.68406250000000e+00 3.24558534213756e-02 3.14112507444104e-04
5.71093750000000e+00 3.22807380790905e-02 3.13155426847971e-04
5.73781250000000e+00 3.21065675704755e-02 3.12197805409770e-04
5.76468750000000e+00 3.19333367976868e-02 3.11239698168551e-04
5.79156250000000e+00 3.17610406903859e-02 3.10281159265689e-04
5.81843750000000e+00 3.15896742055913e-02 3.09322241958838e-04
5.84531250000000e+00 3.14192323275311e-02 3.08362998635610e-04
5.87218750000000e+00 3.12497100674957e-02 3.07403480826897e-04
5.89906250000000e+00 3.10811024636921e-02 3.06443739220111e-04
5.92593750000000e+00 3.09134045810987e-02 3.05483823672147e-04
5.95281250000000e+00 3.07466115113207e-02 3.04523783222022e-04
5.97968750000000e+00 3.05807183724466e-02 3.03563666103363e-04
6.00656250000000e+00 3.04157203089052e-02 3.02603519756697e-04
6.03343750000000e+00 3.02516124913233e-02 3.01643390841500e-04
6.06031250000000e+00 3.00883901163848e-02 3.00683325247979e-04
6.08718750000000e+00 2.99260484066898e-02 2.99723368108709e-04
6.11406250000000e+00 2.97645826106149e-02 2.98763563810122e-04
6.14093750000000e+00 2.96039880021738e-02 2.97803956003694e-04
6.16781250000000e+00 2.94442598808794e-02 2.96844587616911e-04
6.19468750000000e+00 2.92853935716061e-02 2.95885500864193e-04
6.22156250000000e+00 2.91273844244529e-02 2.94926737257542e-04
6.24843750000000e+00 2.89702278146071e-02 2.93968337616981e-04
6.27531250000000e+00 2.88139191422094e-02 2.93010342080893e-04
6.30218750000000e+00 2.86584538322189e-02 2.92052790116134e-04
6.32906250000000e+00 2.85038273342793e-02 2.91095720527937e-04
6.35593750000000e+00 2.83500351225858e-02 2.90139171469761e-04
6.38281250000000e+00 2.81970726957524e-02 2.89183180452924e-04
6.40968750000000e+00 2.80449355766804e-02 2.88227784356014e-04
6.43656250000000e+00 2.78936193124272e-02 2.87273019434184e-04
6.46343750000000e+00 2.77431194740761e-02 2.86318921328336e-04
6.49031250000000e+00 2.75934316566066e-02 2.85365525074150e-04
6.51718750000000e+00 2.74445514787653e-02 2.84412865110931e-04
6.54406250000000e+00 2.72964745829380e-02 2.83460975290248e-04
6.57093750000000e+00 2.71491966350219e-02 2.82509888884557e-04
6.59781250000000e+00 2.70027133242988e-02 2.81559638595624e-04
6.62468750000000e+00 2.68570203633091e-02 2.80610256562821e-04
6.65156250000000e+00 2.67121134877259e-02 2.79661774371290e-04
6.67843750000000e+00 2.65679884562307e-02 2.78714223059907e-04
6.70531250000000e+00 2.64246410503889e-02 2.77767633129244e-04
6.73218750000000e+00 2.62820670745263e-02 2.76822034549355e-04
6.75906250000000e+00 2.61402623556067e-02 2.75877456767401e-04
6.78593750000000e+00 2.59992227431094e-02 2.74933928715135e-04
6.81281250000000e+00 2.58589441089076e-02 2.73991478816365e-04
6.83968750000000e+00 2.57194223471480e-02 2.73050134994201e-04
6.86656250000000e+00 2.55806533741305e-02 2.72109924678300e-04
6.89343750000000e+00 2.54426331281882e-02 2.71170874811875e-04
6.92031250000000e+00 2.53053575695692e-02 2.70233011858655e-04
6.94718750000000e+00 2.51688226803181e-02 2.69296361809774e-04
6.97406250000000e+00 2.50330244641580e-02 2.68360950190450e-04
7.00093750000000e+00 2.48979589463744e-02 2.67426802066667e-04
7.02781250000000e+00 2.47636221736978e-02 2.66493942051694e-04
7.05468750000000e+00 2.46300102141889e-02 2.65562394312512e-04
7.08156250000000e+00 2.44971191571231e-02 2.64632182576183e-04
7.10843750000000e+00 2.43649451128759e-02 2.63703330136040e-04
7.13531250000000e+00 2.42334842128096e-02 2.62775859857862e-04
7.16218750000000e+00 2.41027326091593e-02 2.61849794185910e-04
7.18906250000000e+00 2.39726864749209e-02 2.60925155148887e-04
7.21593750000000e+00 2.38433420037390e-02 2.60001964365843e-04
7.24281250000000e+00 2.37146954097950e-02 2.59080243051916e-04
7.26968750000000e+00 2.35867429276971e-02 2.58160012024043e-04
7.29656250000000e+00 2.34594808123694e-02 2.57241291706532e-04
7.32343750000000e+00 2.33329053389424e-02 2.56324102136648e-04
7.35031250000000e+00 2.32070128026444e-02 2.55408462970040e-04
7.37718750000000e+00 2.30817995186927e-02 2.54494393486065e-04
7.40406250000000e+00 2.29572618221856e-02 2.53581912593099e-04
7.43093750000000e+00 2.28333960679956e-02 2.52671038833740e-04
7.45781250000000e+00 2.27101986306624e-02 2.51761790389950e-04
7.48468750000000e+00 2.25876659042867e-02 2.50854185088098e-04
7.51156250000000e+00 2.24657943024251e-02 2.49948240403927e-04
7.53843750000000e+00 2.23445802579846e-02 2.49043973467469e-04
7.56531250000000e+00 2.22240202231185e-02 2.48141401067884e-04
7.59218750000000e+00 2.21041106691223e-02 2.47240539658212e-04
7.61906250000000e+00 2.19848480863311e-02 2.46341405360090e-04
7.64593750000000e+00 2.18662289840157e-02 2.45444013968385e-04
7.67281250000000e+00 2.17482498902817e-02 2.44548380955716e-04
7.69968750000000e+00 2.16309073519669e-02 2.43654521476971e-04
7.72656250000000e+00 2.15141979345408e-02 2.42762450373743e-04
7.75343750000000e+00 2.13981182220039e-02 2.41872182178690e-04
7.78031250000000e+00 2.12826648167875e-02 2.40983731119863e-04
7.80718750000000e+00 2.11678343396547e-02 2.40097111124915e-04
7.83406250000000e+00 2.10536234296011e-02 2.39212335825308e-04
7.86093750000000e+00 2.09400287437566e-02 2.38329418560427e-04
7.88781250000000e+00 2.08270469572877e-02 2.37448372381633e-04
7.91468750000000e+00 2.07146747632997e-02 2.36569210056307e-04
7.94156250000000e+00 2.06029088727405e-02 2.35691944071782e-04
7.96843750000000e+00 2.04917460143040e-02 2.34816586639220e-04
7.99531250000000e+00 2.03811829343343e-02 2.33943149697481e-04
8.02218750000000e+00 2.02712163967306e-02 2.33071644916909e-04
8.04906250000000e+00 2.01618431828527e-02 2.32202083703038e-04
8.07593750000000e+00 2.00530600914262e-02 2.31334477200306e-04
8.10281250000000e+00 1.99448639384494e-02 2.30468836295692e-04
8.12968750000000e+00 1.98372515570997e-02 2.29605171622261e-04
8.15656250000000e+00 1.97302197976413e-02 2.28743493562702e-04
8.18343750000000e+00 1.96237655273325e-02 2.27883812252857e-04
8.21031250000000e+00 1.95178856303344e-02 2.27026137585098e-04
8.23718750000000e+00 1.94125770076197e-02 2.26170479211741e-04
8.26406250000000e+00 1.93078365768817e-02 2.25316846548423e-04
8.29093750000000e+00 1.92036612724444e-02 2.24465248777297e-04
8.31781250000000e+00 1.91000480451727e-02 2.23615694850357e-04
8.34468750000000e+00 1.89969938623827e-02 2.22768193492654e-04
8.37156250000000e+00 1.88944957077538e-02 2.21922753205420e-04
8.39843750000000e+00 1.87925505812397e-02 2.21079382269174e-04
8.42531250000000e+00 1.86911554989809e-02 2.20238088746832e-04
8.45218750000000e+00 1.85903074932171e-02 2.19398880486746e-04
8.47906250000000e+00 1.84900036122009e-02 2.18561765125668e-04
