Energy (eV)          EEDF (eV^-(3/2))     First Anisotropy
1.00555555555556e-02 3.70347845250584e-01 2.30209471436620e-04
3.01666666666667e-02 3.66809437815436e-01 3.79601427201550e-04
5.02777777777778e-02 3.63304837319630e-01 4.99688801167457e-04
7.03888888888889e-02 3.59833720762300e-01 5.90055629073674e-04
9.05000000000000e-02 3.56395768228486e-01 6.64710653190021e-04
1.10611111111111e-01 3.52990662840700e-01 7.28971545825507e-04
1.30722222222222e-01 3.49618090794096e-01 7.85600643231964e-04
1.50833333333333e-01 3.46277741253689e-01 8.36272206274396e-04
1.70944444444444e-01 3.42969306355259e-01 8.82100677473741e-04
1.91055555555556e-01 3.39692481176491e-01 9.23876560634852e-04
2.11166666666667e-01 3.36446963708399e-01 9.62187116799626e-04
2.31277777777778e-01 3.33232454828004e-01 9.97484278158391e-04
2.51388888888889e-01 3.30048658270308e-01 1.03012565252327e-03
2.71500000000000e-01 3.26895280600961e-01 1.06040067018393e-03
2.91611111111111e-01 3.23772031178332e-01 1.08854799628073e-03
3.11722222222222e-01 3.20678622160372e-01 1.11476755477288e-03
3.31833333333333e-01 3.17614768443237e-01 1.13922908100261e-03
3.51944444444445e-01 3.14580187647085e-01 1.16207835668036e-03
3.72055555555556e-01 3.11574600090047e-01 1.18344186196194e-03
3.92166666666667e-01 3.08597728762368e-01 1.20343030980317e-03
4.12277777777778e-01 3.05649299301025e-01 1.22214137691018e-03
4.32388888888889e-01 3.02729039964351e-01 1.23966184531819e-03
4.52500000000000e-01 2.99836681606986e-01 1.25606930470257e-03
4.72611111111111e-01 2.96971957648993e-01 1.27143351860869e-03
4.92722222222222e-01 2.94134604069922e-01 1.28581753776856e-03
5.12833333333333e-01 2.91324359365396e-01 1.29927861394689e-03
5.32944444444445e-01 2.88540964529538e-01 1.31186895335740e-03
5.53055555555556e-01 2.85784163031093e-01 1.32363634795049e-03
5.73166666666667e-01 2.83053700789754e-01 1.33462470567872e-03
5.93277777777778e-01 2.80349326152810e-01 1.34487449949752e-03
6.13388888888889e-01 2.77670789871914e-01 1.35442314998821e-03
6.33500000000000e-01 2.75017845080113e-01 1.36330535384556e-03
6.53611111111111e-01 2.72390247265087e-01 1.37155336503085e-03
6.73722222222222e-01 2.69787754258846e-01 1.37919724075491e-03
6.93833333333333e-01 2.67210126202951e-01 1.38626505575760e-03
7.13944444444445e-01 2.64657125530639e-01 1.39278308718096e-03
7.34055555555556e-01 2.62128516944932e-01 1.39877597887949e-03
7.54166666666667e-01 2.59624067396932e-01 1.40426688581749e-03
7.74277777777778e-01 2.57143546064375e-01 1.40927760187549e-03
7.94388888888889e-01 2.54686724330339e-01 1.41382867337621e-03
8.14500000000000e-01 2.52253375762176e-01 1.41793950066984e-03
8.34611111111111e-01 2.49843276087771e-01 1.42162842733793e-03
8.54722222222222e-01 2.47456203183614e-01 1.42491282216385e-03
8.74833333333333e-01 2.45091937045443e-01 1.42780915294304e-03
8.94944444444445e-01 2.42750259770985e-01 1.43033305098868e-03
9.15055555555556e-01 2.40430955539863e-01 1.43249937106624e-03
9.35166666666667e-01 2.38133810593705e-01 1.43432224532241e-03
9.55277777777778e-01 2.35858613216456e-01 1.43581513228928e-03
9.75388888888889e-01 2.33605153714857e-01 1.43699086151471e-03
9.95500000000000e-01 2.31373224399118e-01 1.43786167603094e-03
1.01561111111111e+00 2.29162619552843e-01 1.43843926399482e-03
1.03572222222222e+00 2.26973135449434e-01 1.43873479707742e-03
1.05583333333333e+00 2.24804570295225e-01 1.43875896537710e-03
1.07594444444444e+00 2.22656724224555e-01 1.43852200011159e-03
1.09605555555556e+00 2.20529399281343e-01 1.43803370239097e-03
1.11616666666667e+00 2.18422399400790e-01 1.43730346772345e-03
1.13627777777778e+00 2.16335530391420e-01 1.43634030869126e-03
1.15638888888889e+00 2.14268599917127e-01 1.43515287596909e-03
1.17650000000000e+00 2.12221417479440e-01 1.43374948068696e-03
1.19661111111111e+00 2.10193794383198e-01 1.43213810373417e-03
1.21672222222222e+00 2.08185543770124e-01 1.43032641850305e-03
1.23683333333333e+00 2.06196480549963e-01 1.42832181252414e-03
1.25694444444444e+00 2.04226421400871e-01 1.42613139303266e-03
1.27705555555556e+00 2.02275184752520e-01 1.42376200366871e-03
1.29716666666667e+00 2.00342590769318e-01 1.42122023722166e-03
1.31727777777778e+00 1.98428461333921e-01 1.41851244757306e-03
1.33738888888889e+00 1.96532620030774e-01 1.41564476090323e-03
1.35750000000000e+00 1.94654892129846e-01 1.41262308866058e-03
1.37761111111111e+00 1.92795104557179e-01 1.40945312992111e-03
1.39772222222222e+00 1.90953085919471e-01 1.40614038571071e-03
1.41783333333333e+00 1.89128666447247e-01 1.40269017282930e-03
1.43794444444444e+00 1.87321677993061e-01 1.39910762434777e-03
1.45805555555556e+00 1.85531954015998e-01 1.39539769996470e-03
1.47816666666667e+00 1.83759329566299e-01 1.39156519331180e-03
1.49827777777778e+00 1.82003641270211e-01 1.38761473886541e-03
1.51838888888889e+00 1.80264727314905e-01 1.38355081849222e-03
1.53850000000000e+00 1.78542427433559e-01 1.37937776976239e-03
1.55861111111111e+00 1.76836582879770e-01 1.37509978534142e-03
1.57872222222222e+00 1.75147036445742e-01 1.37072092289002e-03
1.59883333333333e+00 1.73473632414603e-01 1.36624511472485e-03
1.61894444444444e+00 1.71816216557241e-01 1.36167616616395e-03
1.63905555555556e+00 1.70174636118099e-01 1.35701776251846e-03
1.65916666666667e+00 1.68548739801070e-01 1.35227347359857e-03
1.67927777777778e+00 1.66938377755596e-01 1.34744675800838e-03
1.69938888888889e+00 1.65343401562836e-01 1.34254096724290e-03
1.71950000000000e+00 1.63763664221985e-01 1.33755935143136e-03
1.73961111111111e+00 1.62199020127844e-01 1.33250505744009e-03
1.75972222222222e+00 1.60649325084337e-01 1.32738113618461e-03
1.77983333333333e+00 1.59114436263989e-01 1.32219054982418e-03
1.79994444444444e+00 1.57594212203941e-01 1.31693616921760e-03
1.82005555555556e+00 1.56088512792908e-01 1.31162077895154e-03
1.84016666666667e+00 1.54597199258259e-01 1.30624708028202e-03
1.86027777777778e+00 1.53120134153251e-01 1.30081769395464e-03
1.88038888888889e+00 1.51657181344345e-01 1.29533516291021e-03
1.90050000000000e+00 1.50208205998664e-01 1.28980195648314e-03
1.92061111111111e+00 1.48773074564186e-01 1.28422046798309e-03
1.94072222222222e+00 1.47351654779797e-01 1.27859302035706e-03
1.96083333333333e+00 1.45943815640502e-01 1.27292187179545e-03
1.98094444444444e+00 1.44549427392969e-01 1.26720921288141e-03
2.00105555555556e+00 1.43168361523564e-01 1.26145717038283e-03
2.02116666666667e+00 1.41800490746500e-01 1.25566780926028e-03
2.04127777777778e+00 1.40445688992125e-01 1.24984313460130e-03
2.06138888888889e+00 1.39103831395296e-01 1.24398509348464e-03
2.08150000000000e+00 1.37774794283865e-01 1.23809557818313e-03
2.10161111111111e+00 1.36458455161104e-01 1.23217642359307e-03
2.12172222222222e+00 1.35154692713143e-01 1.22622941177050e-03
2.14183333333333e+00 1.33863386778868e-01 1.22025627644366e-03
2.16194444444444e+00 1.32584418345218e-01 1.21425870013521e-03
2.18205555555556e+00 1.31317669536219e-01 1.20823831712595e-03
2.20216666666667e+00 1.30063023602109e-01 1.20219671487544e-03
2.22227777777778e+00 1.28820364908595e-01 1.19613543539568e-03
2.24238888888889e+00 1.27589578926188e-01 1.19005597658002e-03
2.26250000000000e+00 1.26370552219647e-01 1.18395979472691e-03
2.28261111111111e+00 1.25163172432305e-01 1.17784830199888e-03
2.30272222222222e+00 1.23967328291522e-01 1.17172287014758e-03
2.32283333333333e+00 1.22782909582466e-01 1.16558483423300e-03
2.34294444444444e+00 1.21609807143330e-01 1.15943548985320e-03
2.36305555555556e+00 1.20447912855267e-01 1.15327609552427e-03
2.38316666666667e+00 1.19297119632426e-01 1.14710787371472e-03
2.40327777777778e+00 1.18157321412089e-01 1.14093201184881e-03
2.42338888888889e+00 1.17028413144893e-01 1.13474966328047e-03
2.44350000000000e+00 1.15910290785146e-01 1.12856194933193e-03
2.46361111111111e+00 1.14802851276805e-01 1.12236995687024e-03
2.48372222222222e+00 1.13705992557406e-01 1.11617474142281e-03
2.50383333333333e+00 1.12619613535099e-01 1.10997733029686e-03
2.52394444444444e+00 1.11543614083893e-01 1.10377871997841e-03
2.54405555555556e+00 1.10477895034432e-01 1.09757987808367e-03
2.56416666666667e+00 1.09422358164845e-01 1.09138174413007e-03
2.58427777777778e+00 1.08376906191708e-01 1.08518523028616e-03
2.60438888888889e+00 1.07341442761069e-01 1.07899122210138e-03
2.62450000000000e+00 1.06315872439571e-01 1.07280058018449e-03
2.64461111111111e+00 1.05300100701866e-01 1.06661413793817e-03
2.66472222222222e+00 1.04294033933373e-01 1.06043270420085e-03
2.68483333333333e+00 1.03297579410072e-01 1.05425706589753e-03
2.70494444444445e+00 1.02310645293856e-01 1.04808798563258e-03
2.72505555555556e+00 1.01333140624065e-01 1.04192620331563e-03
2.74516666666667e+00 1.00364975309100e-01 1.03577243674738e-03
2.76527777777778e+00 9.94060601181253e-02 1.02962738219071e-03
2.78538888888889e+00 9.84563066728435e-02 1.02349171492771e-03
2.80550000000000e+00 9.75156274393481e-02 1.01736609066226e-03
2.82561111111111e+00 9.65839357168061e-02 1.01125114342728e-03
2.84572222222222e+00 9.56611456393080e-02 1.00514748784850e-03
2.86583333333333e+00 9.47471721580220e-02 9.99055721420070e-04
2.88594444444445e+00 9.38419310366971e-02 9.92976422295699e-04
2.90605555555556e+00 9.29453388438996e-02 9.86910150660574e-04
2.92616666666667e+00 9.20573129453201e-02 9.80857449183592e-04
2.94627777777778e+00 9.11777714961642e-02 9.74818843458905e-04
2.96638888888889e+00 9.03066334336064e-02 9.68794842437552e-04
2.98650000000000e+00 8.94438184693183e-02 9.62785939613650e-04
3.00661111111111e+00 8.85892470792675e-02 9.56792611105128e-04
3.02672222222222e+00 8.77428405048683e-02 9.50815317609362e-04
3.04683333333333e+00 8.69045207371661e-02 9.44854506372112e-04
3.06694444444445e+00 8.60742105125262e-02 9.38910609171867e-04
3.08705555555556e+00 8.52518333055124e-02 9.32984043488829e-04
3.10716666666667e+00 8.44373133218318e-02 9.27075212858578e-04
3.12727777777778e+00 8.36305754913544e-02 9.21184507217977e-04
3.14738888888889e+00 8.28315454611918e-02 9.15312303243702e-04
3.16750000000000e+00 8.20401495888440e-02 9.09458965364705e-04
3.18761111111111e+00 8.12563149329890e-02 9.03624844010360e-04
3.20772222222222e+00 8.04799692540949e-02 8.97810277311167e-04
3.22783333333333e+00 7.97110410003615e-02 8.92015592813001e-04
3.24794444444444e+00 7.89494593036149e-02 8.86241105643743e-04
3.26805555555556e+00 7.81951539727759e-02 8.80487119517514e-04
3.28816666666667e+00 7.74480554873886e-02 8.74753927014218e-04
3.30827777777778e+00 7.67080949912176e-02 8.69041809853274e-04
3.32838888888889e+00 7.59752042858996e-02 8.63351039161913e-04
3.34850000000000e+00 7.52493158246577e-02 8.57681876346117e-04
3.36861111111111e+00 7.45303627039731e-02 8.52034571496309e-04
3.38872222222222e+00 7.38182786637831e-02 8.46409364873808e-04
3.40883333333333e+00 7.31129980749539e-02 8.40806488411123e-04
3.42894444444444e+00 7.24144559353913e-02 8.35226164048125e-04
3.44905555555556e+00 7.17225878640494e-02 8.29668604600232e-04
3.46916666666667e+00 7.10373300949954e-02 8.24134013981338e-04
3.48927777777778e+00 7.03586194715361e-02 8.18622587422426e-04
3.50938888888889e+00 6.96863934403953e-02 8.13134511685853e-04
3.52950000000000e+00 6.90205900459487e-02 8.07669965819043e-04
3.54961111111111e+00 6.83611479226830e-02 8.02229119706598e-04
3.56972222222222e+00 6.77080062950790e-02 7.96812135375270e-04
3.58983333333333e+00 6.70611049664233e-02 7.91419168312085e-04
3.60994444444444e+00 6.64203843151392e-02 7.86050365956546e-04
3.63005555555556e+00 6.57857852892913e-02 7.80705868455369e-04
3.65016666666667e+00 6.51572494011418e-02 7.75385808841424e-04
3.67027777777778e+00 6.45347187217629e-02 7.70090313209464e-04
3.69038888888889e+00 6.39181358756960e-02 7.64819500888613e-04
3.71050000000000e+00 6.33074440356642e-02 7.59573485097965e-04
3.73061111111111e+00 6.27025869157370e-02 7.54352371633087e-04
3.75072222222222e+00 6.21035087709755e-02 7.49156260015810e-04
3.77083333333333e+00 6.15101543874208e-02 7.43985244656464e-04
3.79094444444444e+00 6.09224690786439e-02 7.38839413488498e-04
3.81105555555556e+00 6.03403986807052e-02 7.33718848627522e-04
3.83116666666667e+00 5.97638895471618e-02 7.28623626515758e-04
3.85127777777778e+00 5.91928885441252e-02 7.23553818064100e-04
3.87138888888889e+00 5.86273430453632e-02 7.18509488791694e-04
3.89150000000000e+00 5.80672009274495e-02 7.13490699398624e-04
3.91161111111111e+00 5.75124105635628e-02 7.08497504575363e-04
3.93172222222222e+00 5.69629208229549e-02 7.03529954018840e-04
3.95183333333333e+00 5.64186810619760e-02 6.98588093460220e-04
3.97194444444444e+00 5.58796411208401e-02 6.93671963428999e-04
3.99205555555556e+00 5.53457513190022e-02 6.88781599830597e-04
4.01216666666667e+00 5.48169624505780e-02 6.83917034063674e-04
4.03227777777778e+00 5.42932257798114e-02 6.79078293135370e-04
4.05238888888889e+00 5.37744930365815e-02 6.74265399774646e-04
4.07250000000000e+00 5.32607164119537e-02 6.69478372934489e-04
4.09261111111111e+00 5.27518485525491e-02 6.64717226713324e-04
4.11272222222222e+00 5.22478425598840e-02 6.59981971255097e-04
4.13283333333333e+00 5.17486519823127e-02 6.55272613660279e-04
4.15294444444445e+00 5.12542308120018e-02 6.50589156867655e-04
4.17305555555556e+00 5.07645334806893e-02 6.45931600162146e-04
4.19316666666667e+00 5.02795148554850e-02 6.41299939270225e-04
4.21327777777778e+00 4.97991302347114e-02 6.36694166453815e-04
4.23338888888889e+00 4.93233353437840e-02 6.32114270602636e-04
4.25350000000000e+00 4.88520863311300e-02 6.27560237675897e-04
4.27361111111111e+00 4.83853397630712e-02 6.23032049725334e-04
4.29372222222222e+00 4.79230526230746e-02 6.18529685694386e-04
4.31383333333333e+00 4.74651823045073e-02 6.14053122227444e-04
4.33394444444445e+00 4.70116866078121e-02 6.09602332658026e-04
4.35405555555556e+00 4.65625237366185e-02 6.05177287456522e-04
4.37416666666667e+00 4.61176522938895e-02 6.00777954308029e-04
4.39427777777778e+00 4.56770312781078e-02 5.96404298189007e-04
4.41438888888889e+00 4.52406200794963e-02 5.92056281442693e-04
4.43450000000000e+00 4.48083784762752e-02 5.87733864168549e-04
4.45461111111111e+00 4.43802666300085e-02 5.83437003337514e-04
4.47472222222222e+00 4.39562450847948e-02 5.79165653502868e-04
4.49483333333333e+00 4.35362747607447e-02 5.74919767520374e-04
4.51494444444445e+00 4.31203169513493e-02 5.70699295632721e-04
4.53505555555556e+00 4.27083333199127e-02 5.66504185865237e-04
4.55516666666667e+00 4.23002858960179e-02 5.62334384089445e-04
4.57527777777778e+00 4.18961370720285e-02 5.58189834085724e-04
4.59538888888889e+00 4.14958495996224e-02 5.54070477605009e-04
4.61550000000000e+00 4.10993865863583e-02 5.49976254712934e-04
4.63561111111111e+00 4.07067114914417e-02 5.45907102988537e-04
4.65572222222222e+00 4.03177881248794e-02 5.41862958157603e-04
4.67583333333333e+00 3.99325806416014e-02 5.37843754734657e-04
4.69594444444445e+00 3.95510535390116e-02 5.33849425194372e-04
4.71605555555556e+00 3.91731716537154e-02 5.29879900321888e-04
4.73616666666667e+00 3.87989001582792e-02 5.25935109264820e-04
4.75627777777778e+00 3.84282045580207e-02 5.22014979584502e-04
4.77638888888889e+00 3.80610506878297e-02 5.18119437306433e-04
4.79650000000000e+00 3.76974047090191e-02 5.14248407225051e-04
4.81661111111111e+00 3.73372331054700e-02 5.10401812177960e-04
4.83672222222222e+00 3.69805026827689e-02 5.06579573611011e-04
4.85683333333333e+00 3.66271805629043e-02 5.02781612151385e-04
4.87694444444445e+00 3.62772341819904e-02 4.99007846857516e-04
4.89705555555556e+00 3.59306312872660e-02 4.95258195529924e-04
4.91716666666667e+00 3.55873399341214e-02 4.91532574753741e-04
4.93727777777778e+00 3.52473284831553e-02 4.87830899940533e-04
4.95738888888889e+00 3.49105655972580e-02 4.84153085369548e-04
4.97750000000000e+00 3.45770202387237e-02 4.80499044458048e-04
4.99761111111111e+00 3.42466616657384e-02 4.76868689103887e-04
5.01772222222222e+00 3.39194594315153e-02 4.73261930190352e-04
5.03783333333333e+00 3.35953833795044e-02 4.69678678098298e-04
5.05794444444445e+00 3.32744036412800e-02 4.66118842027114e-04
5.07805555555556e+00 3.29564906337878e-02 4.62582330270865e-04
5.09816666666667e+00 3.26416150566178e-02 4.59069050252999e-04
5.11827777777778e+00 3.23297478893050e-02 4.55578908560469e-04
5.13838888888889e+00 3.20208603886540e-02 4.52111810977388e-04
5.15850000000000e+00 3.17149240860901e-02 4.48667662725307e-04
5.17861111111111e+00 3.14119107844591e-02 4.45246367867396e-04
5.19872222222222e+00 3.11117925571710e-02 4.41847829760022e-04
5.21883333333333e+00 3.08145417438697e-02 4.38471951511052e-04
5.23894444444444e+00 3.05201309484742e-02 4.35118635364871e-04
5.25905555555556e+00 3.02285330366532e-02 4.31787782948125e-04
5.27916666666667e+00 2.99397211333242e-02 4.28479295297893e-04
5.29927777777778e+00 2.96536686201772e-02 4.25193072889524e-04
5.31938888888889e+00 2.93703491332211e-02 4.21929015664032e-04
5.33950000000000e+00 2.90897365603537e-02 4.18687023241789e-04
5.35961111111111e+00 2.88118050384448e-02 4.15466994382628e-04
5.37972222222222e+00 2.85365289524958e-02 4.12268827390191e-04
5.39983333333333e+00 2.82638829317235e-02 4.09092420522334e-04
5.41994444444444e+00 2.79938418477443e-02 4.05937671434074e-04
5.44005555555556e+00 2.77263808122582e-02 4.02804477396521e-04
5.46016666666667e+00 2.74614751747548e-02 3.99692735319716e-04
5.48027777777778e+00 2.71991005202419e-02 3.96602341775233e-04
5.50038888888889e+00 2.69392326669950e-02 3.93533193018384e-04
5.52050000000000e+00 2.66818476643288e-02 3.90485185178559e-04
5.54061111111111e+00 2.64269217899364e-02 3.87458213769810e-04
5.56072222222222e+00 2.61744315490729e-02 3.84452174053190e-04
5.58083333333333e+00 2.59243536710095e-02 3.81466961404769e-04
5.60094444444444e+00 2.56766651073522e-02 3.78502470810826e-04
5.62105555555556e+00 2.54313430299184e-02 3.75558597063094e-04
5.64116666666667e+00 2.51883648286316e-02 3.72635234777244e-04
5.66127777777778e+00 2.49477081094392e-02 3.69732278411042e-04
5.68138888888889e+00 2.47093506922471e-02 3.66849622282359e-04
5.70150000000000e+00 2.44732706088765e-02 3.63987160738842e-04
5.72161111111111e+00 2.42394461006363e-02 3.61144787714124e-04
5.74172222222222e+00 2.40078556175342e-02 3.58322397052938e-04
5.76183333333333e+00 2.37784778150648e-02 3.55519882841214e-04
5.78194444444444e+00 2.35512915526539e-02 3.52737138948544e-04
5.80205555555556e+00 2.33262758917108e-02 3.49974059202544e-04
5.82216666666667e+00 2.31034100936972e-02 3.47230537403634e-04
5.84227777777778e+00 2.28826736182173e-02 3.44506467339612e-04
5.86238888888889e+00 2.26640461211238e-02 3.41801742800068e-04
5.88250000000000e+00 2.24475074526434e-02 3.39116257727869e-04
5.90261111111111e+00 2.22330376551613e-02 3.36449905816636e-04
5.92272222222222e+00 2.20206169624641e-02 3.33802580802596e-04
5.94283333333333e+00 2.18102257968273e-02 3.31174176760945e-04
5.96294444444445e+00 2.16018447675779e-02 3.28564587691098e-04
5.98305555555556e+00 2.13954546693066e-02 3.25973707672470e-04
6.00316666666667e+00 2.11910364800979e-02 3.23401430876190e-04
6.02327777777778e+00 2.09885713597774e-02 3.20847651576736e-04
6.04338888888889e+00 2.07880406481747e-02 3.18312264163343e-04
6.06350000000000e+00 2.05894258634043e-02 3.15795163275356e-04
6.08361111111111e+00 2.03927086998434e-02 3.13296243437068e-04
6.10372222222222e+00 2.01978710274069e-02 3.10815399319864e-04
6.12383333333333e+00 2.00048948889075e-02 3.08352526008584e-04
6.14394444444445e+00 1.98137624987256e-02 3.05907518625341e-04
6.16405555555556e+00 1.96244562411705e-02 3.03480272468811e-04
6.18416666666667e+00 1.94369586688566e-02 3.01070683023491e-04
6.20427777777778e+00 1.92512525010959e-02 2.98678645968819e-04
6.22438888888889e+00 1.90673206223046e-02 2.96304057188159e-04
6.24450000000000e+00 1.88851460804264e-02 2.93946812889756e-04
6.26461111111111e+00 1.87047120850861e-02 2.91606809275427e-04
6.28472222222222e+00 1.85260020068991e-02 2.89283942776215e-04
6.30483333333333e+00 1.83489993750754e-02 2.86978110291815e-04
6.32494444444445e+00 1.81736878761916e-02 2.84689208849372e-04
6.34505555555556e+00 1.80000513526874e-02 2.82417135728187e-04
