Energy (eV)          EEDF (eV^-(3/2))     First Anisotropy
2.06578947368421e-03 3.67979656936567e+00 2.17819854040184e-03
6.19736842105263e-03 3.64641207598878e+00 3.59258659805929e-03
1.03289473684211e-02 3.61333045928795e+00 4.73140671203709e-03
1.44605263157895e-02 3.58054897148004e+00 5.58978211982823e-03
1.85921052631579e-02 3.54806488950476e+00 6.30007642409322e-03
2.27236842105263e-02 3.51587551536420e+00 6.91249789042429e-03
2.68552631578947e-02 3.48397817521874e+00 7.45310985709533e-03
3.09868421052632e-02 3.45237021974653e+00 7.93769874815490e-03
3.51184210526316e-02 3.42104902344027e+00 8.37676557935472e-03
3.92500000000000e-02 3.39001198480310e+00 8.77775413890931e-03
4.33815789473684e-02 3.35925652577149e+00 9.14619081898278e-03
4.75131578947368e-02 3.32878009182101e+00 9.48632580920135e-03
5.16447368421053e-02 3.29858015146758e+00 9.80152013323297e-03
5.57763157894737e-02 3.26865419631645e+00 1.00944923702767e-02
5.99078947368421e-02 3.23899974061756e+00 1.03674829505746e-02
6.40394736842105e-02 3.20961432127592e+00 1.06223675392415e-02
6.81710526315790e-02 3.18049549744694e+00 1.08607376623093e-02
7.23026315789474e-02 3.15164085051918e+00 1.10839595070557e-02
7.64342105263158e-02 3.12304798374080e+00 1.12932177550697e-02
8.05657894736842e-02 3.09471452218183e+00 1.14895488769188e-02
8.46973684210526e-02 3.06663811241763e+00 1.16738668682473e-02
8.88289473684210e-02 3.03881642234723e+00 1.18469833959831e-02
9.29605263157895e-02 3.01124714108756e+00 1.20096238299081e-02
9.70921052631579e-02 2.98392797866355e+00 1.21624401165766e-02
1.01223684210526e-01 2.95685666593003e+00 1.23060212483217e-02
1.05355263157895e-01 2.93003095420109e+00 1.24409018246299e-02
1.09486842105263e-01 2.90344861537217e+00 1.25675691641579e-02
1.13618421052632e-01 2.87710744147402e+00 1.26864692571890e-02
1.17750000000000e-01 2.85100524456878e+00 1.27980116972303e-02
1.21881578947368e-01 2.82513985677141e+00 1.29025739789303e-02
1.26013157894737e-01 2.79950912945043e+00 1.30005050432004e-02
1.30144736842105e-01 2.77411093367912e+00 1.30921283084305e-02
1.34276315789474e-01 2.74894315984509e+00 1.31777443971475e-02
1.38407894736842e-01 2.72400371747504e+00 1.32576334094264e-02
1.42539473684211e-01 2.69929053506118e+00 1.33320569229441e-02
1.46671052631579e-01 2.67480155988911e+00 1.34012597414854e-02
1.50802631578947e-01 2.65053475786738e+00 1.34654714300329e-02
1.54934210526316e-01 2.62648811335854e+00 1.35249076678833e-02
1.59065789473684e-01 2.60265962901168e+00 1.35797714458933e-02
1.63197368421053e-01 2.57904732559631e+00 1.36302541294407e-02
1.67328947368421e-01 2.55564924183851e+00 1.36765364055238e-02
1.71460526315789e-01 2.53246343425775e+00 1.37187891293290e-02
1.75592105263158e-01 2.50948797700543e+00 1.37571740830521e-02
1.79723684210526e-01 2.48672096170497e+00 1.37918446581742e-02
1.83855263157895e-01 2.46416049729322e+00 1.38229464705546e-02
1.87986842105263e-01 2.44180470986348e+00 1.38506179164104e-02
1.92118421052632e-01 2.41965174250979e+00 1.38749906761172e-02
1.96250000000000e-01 2.39769975517272e+00 1.38961901564824e-02
2.00381578947368e-01 2.37594692458959e+00 1.39143359537546e-02
2.04513157894737e-01 2.35439144383004e+00 1.39295422024403e-02
2.08644736842105e-01 2.33303152246286e+00 1.39419178913061e-02
2.12776315789474e-01 2.31186538630031e+00 1.39515672294127e-02
2.16907894736842e-01 2.29089127725070e+00 1.39585899222320e-02
2.21039473684211e-01 2.27010745317241e+00 1.39630814403125e-02
2.25171052631579e-01 2.24951218772916e+00 1.39651332667600e-02
2.29302631578947e-01 2.22910377024660e+00 1.39648331255948e-02
2.33434210526316e-01 2.20888050557027e+00 1.39622651928114e-02
2.37565789473684e-01 2.18884071392478e+00 1.39575102917709e-02
2.41697368421053e-01 2.16898273077414e+00 1.39506460742982e-02
2.45828947368421e-01 2.14930490668377e+00 1.39417471888606e-02
2.49960526315789e-01 2.12980560718339e+00 1.39308854369722e-02
2.54092105263158e-01 2.11048321263121e+00 1.39181299187587e-02
2.58223684210526e-01 2.09133611807943e+00 1.39035471686849e-02
2.62355263157895e-01 2.07236273314093e+00 1.38872012822484e-02
2.66486842105263e-01 2.05356148185718e+00 1.38691540343927e-02
2.70618421052632e-01 2.03493080256732e+00 1.38494649903082e-02
2.74750000000000e-01 2.01646914777844e+00 1.38281915983267e-02
2.78881578947368e-01 1.99817498409916e+00 1.38053893202660e-02
2.83013157894737e-01 1.98004679192403e+00 1.37811117006633e-02
2.87144736842105e-01 1.96208306549753e+00 1.37554104302513e-02
2.91276315789474e-01 1.94428231272494e+00 1.37283354606781e-02
2.95407894736842e-01 1.92664305504833e+00 1.36999350692213e-02
2.99539473684211e-01 1.90916382732385e+00 1.36702559305316e-02
3.03671052631579e-01 1.89184317769993e+00 1.36393431843267e-02
3.07802631578947e-01 1.87467966749676e+00 1.36072404993200e-02
3.11934210526316e-01 1.85767187108675e+00 1.35739901336454e-02
3.16065789473684e-01 1.84081837577616e+00 1.35396329920279e-02
3.20197368421053e-01 1.82411778168765e+00 1.35042086798851e-02
3.24328947368421e-01 1.80756870164415e+00 1.34677555546109e-02
3.28460526315789e-01 1.79116976105359e+00 1.34303107742245e-02
3.32592105263158e-01 1.77491959779470e+00 1.33919103435104e-02
3.36723684210526e-01 1.75881686210387e+00 1.33525891578500e-02
3.40855263157895e-01 1.74286021646305e+00 1.33123810448786e-02
3.44986842105263e-01 1.72704833548868e+00 1.32713188041019e-02
3.49118421052632e-01 1.71137990582152e+00 1.32294342446014e-02
3.53250000000000e-01 1.69585362601766e+00 1.31867582128501e-02
3.57381578947368e-01 1.68046820648102e+00 1.31433206514037e-02
3.61513157894737e-01 1.66522236923309e+00 1.30991506151115e-02
3.65644736842105e-01 1.65011484793113e+00 1.30542762855989e-02
3.69776315789474e-01 1.63514438772114e+00 1.30087250261333e-02
3.73907894736842e-01 1.62030974513363e+00 1.29625234015710e-02
3.78039473684211e-01 1.60560968798031e+00 1.29156972055003e-02
3.82171052631579e-01 1.59104299525178e+00 1.28682714861976e-02
3.86302631578947e-01 1.57660845701608e+00 1.28202705714647e-02
3.90434210526316e-01 1.56230487431820e+00 1.27717180924097e-02
3.94565789473684e-01 1.54813105908051e+00 1.27226370062283e-02
3.98697368421053e-01 1.53408583400402e+00 1.26730496180219e-02
4.02828947368421e-01 1.52016803247068e+00 1.26229776017276e-02
4.06960526315789e-01 1.50637649844642e+00 1.25724420202088e-02
4.11092105263158e-01 1.49271008638514e+00 1.25214633445197e-02
4.15223684210526e-01 1.47916766113357e+00 1.24700614724073e-02
4.19355263157895e-01 1.46574809783699e+00 1.24182557460848e-02
4.23486842105263e-01 1.45245028184574e+00 1.23660649693124e-02
4.27618421052632e-01 1.43927310862271e+00 1.23135074238196e-02
4.31750000000000e-01 1.42621548365155e+00 1.22606008789429e-02
4.35881578947368e-01 1.41327632237379e+00 1.22073626254395e-02
4.40013157894737e-01 1.40045455001395e+00 1.21538094776388e-02
4.44144736842105e-01 1.38774910157584e+00 1.20999577748533e-02
4.48276315789474e-01 1.37515892172531e+00 1.20458234140746e-02
4.52407894736842e-01 1.36268296470259e+00 1.19914218566306e-02
4.56539473684211e-01 1.35032019423544e+00 1.19367681407946e-02
4.60671052631579e-01 1.33806958345307e+00 1.18818768939459e-02
4.64802631578947e-01 1.32593011480084e+00 1.18267623443025e-02
4.68934210526316e-01 1.31390077995574e+00 1.17714383322435e-02
4.73065789473684e-01 1.30198057974266e+00 1.17159183212415e-02
4.77197368421053e-01 1.29016852405134e+00 1.16602154084103e-02
4.81328947368421e-01 1.27846363175420e+00 1.16043423347027e-02
4.85460526315789e-01 1.26686493062483e+00 1.15483114947695e-02
4.89592105263158e-01 1.25537145725719e+00 1.14921349464786e-02
4.93723684210526e-01 1.24398225698563e+00 1.14358244201247e-02
4.97855263157895e-01 1.23269638380561e+00 1.13793913273328e-02
5.01986842105263e-01 1.22151290029506e+00 1.13228467696753e-02
5.06118421052632e-01 1.21043087753656e+00 1.12662015470089e-02
5.10250000000000e-01 1.19944939504020e+00 1.12094661607791e-02
5.14381578947368e-01 1.18856754068702e+00 1.11526508362353e-02
5.18513157894737e-01 1.17778441059293e+00 1.10957655203506e-02
5.22644736842105e-01 1.16709910909451e+00 1.10388198793390e-02
5.26776315789474e-01 1.15651074865410e+00 1.09818233205528e-02
5.30907894736842e-01 1.14601844978614e+00 1.09247849943984e-02
5.35039473684211e-01 1.13562134098408e+00 1.08677138010114e-02
5.39171052631579e-01 1.12531855864802e+00 1.08106183967281e-02
5.43302631578947e-01 1.11510924701293e+00 1.07535072003632e-02
5.47434210526316e-01 1.10499255807763e+00 1.06963883992973e-02
5.51565789473684e-01 1.09496765153431e+00 1.06392699553893e-02
5.55697368421053e-01 1.08503369469873e+00 1.05821596107057e-02
5.59828947368421e-01 1.07518986244110e+00 1.05250648930874e-02
5.63960526315790e-01 1.06543533711749e+00 1.04679931215578e-02
5.68092105263158e-01 1.05576930850198e+00 1.04109514115702e-02
5.72223684210526e-01 1.04619097371929e+00 1.03539466801074e-02
5.76355263157895e-01 1.03669953717813e+00 1.02969856506324e-02
5.80486842105263e-01 1.02729421050512e+00 1.02400748579022e-02
5.84618421052632e-01 1.01797421247930e+00 1.01832206526460e-02
5.88750000000000e-01 1.00873876896722e+00 1.01264292023790e-02
5.92881578947368e-01 9.99587112873221e-01 1.00697065070992e-02
5.97013157894737e-01 9.90518484031707e-01 1.00130583960348e-02
6.01144736842105e-01 9.81532129188355e-01 9.95649052413759e-03
6.05276315789474e-01 9.72627301922651e-01 9.90000838773337e-03
6.09407894736842e-01 9.63803262585883e-01 9.84361732458930e-03
6.13539473684210e-01 9.55059278239712e-01 9.78732251776222e-03
6.17671052631579e-01 9.46394622595290e-01 9.73112899934664e-03
6.21802631578947e-01 9.37808575952929e-01 9.67504165412094e-03
6.25934210526316e-01 9.29300425142329e-01 9.61906522309722e-03
6.30065789473684e-01 9.20869463463338e-01 9.56320430698031e-03
6.34197368421053e-01 9.12514990627244e-01 9.50746336952963e-03
6.38328947368421e-01 9.04236312698623e-01 9.45184674083763e-03
6.42460526315789e-01 8.96032742037693e-01 9.39635862052655e-03
6.46592105263158e-01 8.87903597243196e-01 9.34100308085701e-03
6.50723684210526e-01 8.79848203095804e-01 9.28578406975872e-03
6.54855263157895e-01 8.71865890502028e-01 9.23070541378446e-03
6.58986842105263e-01 8.63955996438647e-01 9.17577082098854e-03
6.63118421052632e-01 8.56117863897635e-01 9.12098388373214e-03
6.67250000000000e-01 8.48350841831588e-01 9.06634807846979e-03
6.71381578947368e-01 8.40654285110443e-01 9.01186677732334e-03
6.75513157894737e-01 8.33027554435247e-01 8.95754324471792e-03
6.79644736842105e-01 8.25470016317966e-01 8.90338063384347e-03
6.83776315789474e-01 8.17981043017804e-01 8.84938199827831e-03
6.87907894736842e-01 8.10560012489065e-01 8.79555029132850e-03
6.92039473684210e-01 8.03206308329484e-01 8.74188836838033e-03
6.96171052631579e-01 7.95919319729029e-01 8.68839898919555e-03
7.00302631578947e-01 7.88698441419164e-01 8.63508482015106e-03
7.04434210526316e-01 7.81543073622576e-01 8.58194843642475e-03
7.08565789473684e-01 7.74452622003356e-01 8.52899232412848e-03
7.12697368421053e-01 7.67426497617627e-01 8.47621888238760e-03
7.16828947368421e-01 7.60464116864639e-01 8.42363042537190e-03
7.20960526315789e-01 7.53564901438284e-01 8.37122918428202e-03
7.25092105263158e-01 7.46728278279062e-01 8.31901730928459e-03
7.29223684210526e-01 7.39953679526487e-01 8.26699687140220e-03
7.33355263157895e-01 7.33240542471912e-01 8.21516986435951e-03
7.37486842105263e-01 7.26588309511796e-01 8.16353820638534e-03
7.41618421052632e-01 7.19996428101384e-01 8.11210374197367e-03
7.45750000000000e-01 7.13464350708816e-01 8.06086824125704e-03
7.49881578947368e-01 7.06991534777769e-01 8.00983340877129e-03
7.54013157894737e-01 7.00577442657830e-01 7.95900088035436e-03
7.58144736842105e-01 6.94221541584593e-01 7.90837221991610e-03
7.62276315789474e-01 6.87923303627089e-01 7.85794892828138e-03
7.66407894736842e-01 6.81682205643938e-01 7.80773244227808e-03
7.70539473684210e-01 6.75497729239893e-01 7.75772413623138e-03
7.74671052631579e-01 6.69369360722785e-01 7.70792532342481e-03
7.78802631578947e-01 6.63296591060848e-01 7.65833725752728e-03
7.82934210526316e-01 6.57278915840448e-01 7.60896113398856e-03
7.87065789473684e-01 6.51315835224177e-01 7.55979809140509e-03
7.91197368421053e-01 6.45406853909337e-01 7.51084921284940e-03
7.95328947368421e-01 6.39551481086803e-01 7.46211552717389e-03
7.99460526315789e-01 6.33749230400257e-01 7.41359801028705e-03
8.03592105263158e-01 6.27999619905784e-01 7.36529758639728e-03
8.07723684210526e-01 6.22302172031848e-01 7.31721512922998e-03
8.11855263157895e-01 6.16656413539617e-01 7.26935146321892e-03
8.15986842105263e-01 6.11061875483663e-01 7.22170736467059e-03
8.20118421052632e-01 6.05518093173003e-01 7.17428356290140e-03
8.24250000000000e-01 6.00024606132506e-01 7.12708073947468e-03
8.28381578947368e-01 5.94580958070828e-01 7.08009953495762e-03
8.32513157894737e-01 5.89186696823818e-01 7.03334054619381e-03
8.36644736842105e-01 5.83841374335797e-01 6.98680432347669e-03
8.40776315789474e-01 5.78544546616014e-01 6.94049137739021e-03
8.44907894736842e-01 5.73295773701769e-01 6.89440217785195e-03
8.49039473684211e-01 5.68094619621869e-01 6.84853715508691e-03
8.53171052631579e-01 5.62940652360414e-01 6.80289670058115e-03
8.57302631578947e-01 5.57833443820913e-01 6.75748116801439e-03
8.61434210526316e-01 5.52772569790728e-01 6.71229087417159e-03
8.65565789473684e-01 5.47757609905837e-01 6.66732609983715e-03
8.69697368421053e-01 5.42788147615914e-01 6.62258709066760e-03
8.73828947368421e-01 5.37863770149738e-01 6.57807405804458e-03
8.77960526315789e-01 5.32984068480900e-01 6.53378717991279e-03
8.82092105263158e-01 5.28148637293835e-01 6.48972660159794e-03
8.86223684210526e-01 5.23357074950150e-01 6.44589243660704e-03
8.90355263157895e-01 5.18608983455268e-01 6.40228476741161e-03
8.94486842105263e-01 5.13903968425364e-01 6.35890364621415e-03
8.98618421052632e-01 5.09241639054616e-01 6.31574909569931e-03
9.02750000000000e-01 5.04621608082733e-01 6.27282110825888e-03
9.06881578947368e-01 5.00043491767549e-01 6.23011965126530e-03
9.11013157894737e-01 4.95506909838787e-01 6.18764466472848e-03
9.15144736842105e-01 4.91011485480934e-01 6.14539605887565e-03
9.19276315789474e-01 4.86556845297094e-01 6.10337371950324e-03
9.23407894736842e-01 4.82142619277963e-01 6.06157750706662e-03
9.27539473684211e-01 4.77768440771102e-01 6.02000725732559e-03
9.31671052631579e-01 4.73433946450480e-01 5.97866278197508e-03
9.35802631578947e-01 4.69138776286295e-01 5.93754386926433e-03
9.39934210526316e-01 4.64882573515072e-01 5.89665028460209e-03
9.44065789473684e-01 4.60664984610026e-01 5.85598177114895e-03
9.48197368421053e-01 4.56485659251697e-01 5.81553805039681e-03
9.52328947368421e-01 4.52344250298860e-01 5.77531882273665e-03
9.56460526315789e-01 4.48240413759679e-01 5.73532376801485e-03
9.60592105263158e-01 4.44173808763147e-01 5.69555254607667e-03
9.64723684210526e-01 4.40144097530762e-01 5.65600479729939e-03
9.68855263157895e-01 4.36150945348476e-01 5.61668014311311e-03
9.72986842105263e-01 4.32194020538893e-01 5.57757818651092e-03
9.77118421052632e-01 4.28272994433719e-01 5.53869851254906e-03
9.81250000000000e-01 4.24387541346459e-01 5.50004068761909e-03
9.85381578947368e-01 4.20537338549047e-01 5.46160426360115e-03
9.89513157894737e-01 4.16722066233926e-01 5.42338877587496e-03
9.93644736842105e-01 4.12941407498676e-01 5.38539374127109e-03
9.97776315789474e-01 4.09195048315936e-01 5.34761866229453e-03
1.00190789473684e+00 4.05482677507319e-01 5.31006302171132e-03
1.00603947368421e+00 4.01803986731280e-01 5.27272629796703e-03
1.01017105263158e+00 3.98158670412666e-01 5.23560795403486e-03
1.01430263157895e+00 3.94546425765992e-01 5.19870742838936e-03
1.01843421052632e+00 3.90966952752751e-01 5.16202415199281e-03
1.02256578947368e+00 3.87419954056496e-01 5.12555754272655e-03
1.02669736842105e+00 3.83905135058124e-01 5.08930700576342e-03
1.03082894736842e+00 3.80422203811448e-01 5.05327193394787e-03
1.03496052631579e+00 3.76970871018921e-01 5.01745170818135e-03
1.03909210526316e+00 3.73550850007613e-01 4.98184568737089e-03
1.04322368421053e+00 3.70161856735953e-01 4.94645324021194e-03
1.04735526315789e+00 3.66803609677806e-01 4.91127372451908e-03
1.05148684210526e+00 3.63475829892085e-01 4.87630646611849e-03
1.05561842105263e+00 3.60178240968363e-01 4.84155079145811e-03
1.05975000000000e+00 3.56910569003906e-01 4.80700601710718e-03
1.06388157894737e+00 3.53672542580921e-01 4.77267145007222e-03
1.06801315789474e+00 3.50463892744016e-01 4.73854638810396e-03
1.07214473684211e+00 3.47284352977872e-01 4.70463012001047e-03
1.07627631578947e+00 3.44133659185094e-01 4.67092192595987e-03
1.08040789473684e+00 3.41011549664275e-01 4.63742106845065e-03
1.08453947368421e+00 3.37917765115103e-01 4.60412682074306e-03
1.08867105263158e+00 3.34852048535722e-01 4.57103844831914e-03
1.09280263157895e+00 3.31814145283065e-01 4.53815518994966e-03
1.09693421052632e+00 3.28803803024282e-01 4.50547628686807e-03
1.10106578947368e+00 3.25820771715780e-01 4.47300097334060e-03
1.10519736842105e+00 3.22864803582438e-01 4.44072847691401e-03
1.10932894736842e+00 3.19935653097057e-01 4.40865801866732e-03
1.11346052631579e+00 3.17033076959954e-01 4.37678881347078e-03
1.11759210526316e+00 3.14156834078747e-01 4.34512006178226e-03
1.12172368421053e+00 3.11306685572233e-01 4.31365097536880e-03
1.12585526315789e+00 3.08482394678343e-01 4.28238076049647e-03
1.12998684210526e+00 3.05683726807189e-01 4.25130860076228e-03
1.13411842105263e+00 3.02910449497170e-01 4.22043368348994e-03
1.13825000000000e+00 3.00162332395666e-01 4.18975519116661e-03
1.14238157894737e+00 2.97439147239890e-01 4.15927230165284e-03
1.14651315789474e+00 2.94740667837943e-01 4.12898418838605e-03
1.15064473684211e+00 2.92066670050026e-01 4.09889002058812e-03
1.15477631578947e+00 2.89416931769821e-01 4.06898896346670e-03
1.15890789473684e+00 2.86791232906042e-01 4.03928017083956e-03
1.16303947368421e+00 2.84189355385194e-01 4.00976280817729e-03
1.16717105263158e+00 2.81611083069885e-01 3.98043603750826e-03
1.17130263157895e+00 2.79056201804900e-01 3.95129900200183e-03
1.17543421052632e+00 2.76524499377920e-01 3.92235084961736e-03
1.17956578947368e+00 2.74015765501897e-01 3.89359072540695e-03
1.18369736842105e+00 2.71529791797571e-01 3.86501777167758e-03
1.18782894736842e+00 2.69066371776188e-01 3.83663112815780e-03
1.19196052631579e+00 2.66625300822337e-01 3.80842993216850e-03
1.19609210526316e+00 2.64206376176953e-01 3.78041331191753e-03
1.20022368421053e+00 2.61809396939257e-01 3.75258040737280e-03
1.20435526315789e+00 2.59434163993331e-01 3.72493035656117e-03
1.20848684210526e+00 2.57080480048716e-01 3.69746228157599e-03
1.21261842105263e+00 2.54748149604846e-01 3.67017530999980e-03
1.21675000000000e+00 2.52436978934810e-01 3.64306856790930e-03
1.22088157894737e+00 2.50146776069253e-01 3.61614118001240e-03
1.22501315789474e+00 2.47877350780437e-01 3.58939226978064e-03
1.22914473684211e+00 2.45628514566445e-01 3.56282095958572e-03
1.23327631578947e+00 2.43400080635522e-01 3.53642637083066e-03
1.23740789473684e+00 2.41191863890552e-01 3.51020761791521e-03
1.24153947368421e+00 2.39003680930272e-01 3.48416382695943e-03
1.24567105263158e+00 2.36835349983946e-01 3.45829412348825e-03
1.24980263157895e+00 2.34686690946709e-01 3.43259761985346e-03
1.25393421052632e+00 2.32557525347672e-01 3.40707343445148e-03
1.25806578947368e+00 2.30447676335102e-01 3.38172068542945e-03
1.26219736842105e+00 2.28356968661721e-01 3.35653849078972e-03
1.26632894736842e+00 2.26285228670168e-01 3.33152596849715e-03
1.27046052631579e+00 2.24232284278566e-01 3.30668223659050e-03
1.27459210526316e+00 2.22197964966227e-01 3.28200640769194e-03
1.27872368421053e+00 2.20182101774316e-01 3.25749760598596e-03
1.28285526315789e+00 2.18184527247032e-01 3.23315495603182e-03
1.28698684210526e+00 2.16205075462795e-01 3.20897757133660e-03
1.29111842105263e+00 2.14243582005326e-01 3.18496457178323e-03
1.29525000000000e+00 2.12299883949994e-01 3.16111507790638e-03
1.29938157894737e+00 2.10373819850275e-01 3.13742821098022e-03
1.30351315789474e+00 2.08465229724349e-01 3.11390309310166e-03
