Energy (eV)          EEDF (eV^-(3/2))     First Anisotropy
1.59444444444444e-01 4.62594909890073e-02 5.69694480275575e-05
4.78333333333333e-01 4.45160858243730e-02 9.26114085079947e-05
7.97222222222222e-01 4.28383852644188e-02 1.18446357909060e-04
1.11611111111111e+00 4.12239130661752e-02 1.35894066694287e-04
1.43500000000000e+00 3.96702863039276e-02 1.48739260460311e-04
1.75388888888889e+00 3.81752118804370e-02 1.58485303755510e-04
2.07277777777778e+00 3.67364830922071e-02 1.65945581380765e-04
2.39166666666667e+00 3.53519764127877e-02 1.71631488234754e-04
2.71055555555556e+00 3.40196483460170e-02 1.75894760605121e-04
3.02944444444444e+00 3.27375324099377e-02 1.78992213579899e-04
3.34833333333333e+00 3.15037362342907e-02 1.81119483073848e-04
3.66722222222222e+00 3.03164387676011e-02 1.82430367906270e-04
3.98611111111111e+00 2.91738875892611e-02 1.83048729636842e-04
4.30500000000000e+00 2.80743963230147e-02 1.83076226425361e-04
4.62388888888889e+00 2.70163421502566e-02 1.82597565527317e-04
4.94277777777778e+00 2.59981634074719e-02 1.81684200771626e-04
5.26166666666667e+00 2.50183572889337e-02 1.80397015227175e-04
5.58055555555556e+00 2.40754776259151e-02 1.78788318535268e-04
5.89944444444444e+00 2.31681327521836e-02 1.76903366264155e-04
6.21833333333333e+00 2.22949834499275e-02 1.74781538288022e-04
6.53722222222222e+00 2.14547409731341e-02 1.72457268017857e-04
6.85611111111111e+00 2.06461651454178e-02 1.69960786014319e-04
7.17500000000000e+00 1.98680625295527e-02 1.67318722809876e-04
7.49388888888889e+00 1.91192846669938e-02 1.64554603558008e-04
7.81277777777778e+00 1.83987263796613e-02 1.61689257736913e-04
8.13166666666667e+00 1.77053241419676e-02 1.58741161858587e-04
8.45055555555555e+00 1.70380545099571e-02 1.55726728863769e-04
8.76944444444444e+00 1.63959326107294e-02 1.52660553898961e-04
9.08833333333333e+00 1.57780106887884e-02 1.49555624730526e-04
9.40722222222222e+00 1.51833767071890e-02 1.46423502966506e-04
9.72611111111111e+00 1.46111530013885e-02 1.43274481024650e-04
1.00450000000000e+01 1.40604949838371e-02 1.40117718639747e-04
1.03638888888889e+01 1.35305898998826e-02 1.36961362924636e-04
1.06827777777778e+01 1.30206556199573e-02 1.33812653006465e-04
1.10016666666667e+01 1.25299394942054e-02 1.30678012313752e-04
1.13205555555556e+01 1.20577172382632e-02 1.27563131181126e-04
1.16394444444444e+01 1.16032918642360e-02 1.24473039452564e-04
1.19583333333333e+01 1.11659926519458e-02 1.21412171349733e-04
1.22772222222222e+01 1.07451741590034e-02 1.18384423418399e-04
1.25961111111111e+01 1.03402152681322e-02 1.15393206423292e-04
1.29150000000000e+01 9.95051827041589e-03 1.12441491726167e-04
1.32338888888889e+01 9.57550798590824e-03 1.09531853798968e-04
1.35527777777778e+01 9.21463090597623e-03 1.06666507568539e-04
1.38716666666667e+01 8.86735438532939e-03 1.03847342063836e-04
1.41905555555556e+01 8.53316585274965e-03 1.01075951932052e-04
1.45094444444444e+01 8.21157205454984e-03 9.83536651297522e-05
1.48283333333333e+01 7.90209832653691e-03 9.56815682471298e-05
1.51472222222222e+01 7.60428789343654e-03 9.30605295040958e-05
1.54661111111111e+01 7.31770119469578e-03 9.04912196555454e-05
1.57850000000000e+01 7.04191523570329e-03 8.79741308840904e-05
1.61038888888889e+01 6.77652296509156e-03 8.55095945168546e-05
1.64227777777778e+01 6.52113266889520e-03 8.30977965482181e-05
1.67416666666667e+01 6.27536739759565e-03 8.07387917549662e-05
1.70605555555556e+01 6.03886440796231e-03 7.84325172768275e-05
1.73794444444444e+01 5.81127462765299e-03 7.61788044683014e-05
1.76983333333333e+01 5.59226213998864e-03 7.39773898614486e-05
1.80172222222222e+01 5.38150368815716e-03 7.18279251846198e-05
1.83361111111111e+01 5.17868819809039e-03 6.97299865209584e-05
1.86550000000000e+01 4.98351631932683e-03 6.76830825973107e-05
1.89738888888889e+01 4.79569998415621e-03 6.56866626956354e-05
1.92927777777778e+01 4.61496197941686e-03 6.37401234791555e-05
1.96116666666667e+01 4.44103554045143e-03 6.18428152057761e-05
1.99305555555556e+01 4.27366395629802e-03 5.99940478632620e-05
2.02494444444444e+01 4.11260019079149e-03 5.81930964193534e-05
2.05683333333333e+01 3.95760651794258e-03 5.64392057074655e-05
2.08872222222222e+01 3.80845417106471e-03 5.47315948894108e-05
2.12061111111111e+01 3.66492300511800e-03 5.30694615298396e-05
2.15250000000000e+01 3.52680117178093e-03 5.14519852582978e-05
2.18438888888889e+01 3.39388480736805e-03 4.98783313270323e-05
2.21627777777778e+01 3.26597773007826e-03 4.83476535842019e-05
2.24816666666667e+01 3.14289115234561e-03 4.68590971611472e-05
2.28005555555556e+01 3.02444340153743e-03 4.54118012148323e-05
2.31194444444444e+01 2.91045965181020e-03 4.40049011840690e-05
2.34383333333333e+01 2.80077166607007e-03 4.26375308936746e-05
2.37572222222222e+01 2.69521754766163e-03 4.13088244600548e-05
2.40761111111111e+01 2.59364150141127e-03 4.00179180140227e-05
2.43950000000000e+01 2.49589360367765e-03 3.87639512183832e-05
2.47138888888889e+01 2.40182958144335e-03 3.75460687792233e-05
2.50327777777778e+01 2.31131059821354e-03 3.63634216263537e-05
2.53516666666667e+01 2.22420305028932e-03 3.52151679566046e-05
2.56705555555556e+01 2.14037836916258e-03 3.41004743624991e-05
2.59894444444444e+01 2.05971283175223e-03 3.30185166825485e-05
2.63083333333333e+01 1.98208737779149e-03 3.19684807917644e-05
2.66272222222222e+01 1.90738743409935e-03 3.09495632982564e-05
2.69461111111111e+01 1.83550274547276e-03 2.99609721535259e-05
2.72650000000000e+01 1.76632721195284e-03 2.90019271587478e-05
2.75838888888889e+01 1.69975873246174e-03 2.80716604977166e-05
2.79027777777778e+01 1.63569905337058e-03 2.71694170769654e-05
2.82216666666667e+01 1.57405362423459e-03 2.62944548006271e-05
2.85405555555556e+01 1.51473145797991e-03 2.54460449271376e-05
2.88594444444444e+01 1.45764499660901e-03 2.46234722625688e-05
2.91783333333333e+01 1.40270998196701e-03 2.38260353353295e-05
2.94972222222222e+01 1.34984533137954e-03 2.30530465279189e-05
2.98161111111111e+01 1.29897301797644e-03 2.23038321694892e-05
3.01350000000000e+01 1.25001795552606e-03 2.15777325760631e-05
3.04538888888889e+01 1.20290788776221e-03 2.08741021251979e-05
3.07727777777778e+01 1.15757328126601e-03 2.01923092162838e-05
3.10916666666667e+01 1.11394722331972e-03 1.95317362013432e-05
3.14105555555556e+01 1.07196532297936e-03 1.88917793844507e-05
3.17294444444444e+01 1.03156561603539e-03 1.82718489238715e-05
3.20483333333333e+01 9.92688473554892e-04 1.76713687335616e-05
3.23672222222222e+01 9.55276513871268e-04 1.70897763669261e-05
3.26861111111111e+01 9.19274517890122e-04 1.65265228846928e-05
3.30050000000000e+01 8.84629347587301e-04 1.59810726973796e-05
3.33238888888889e+01 8.51289867676957e-04 1.54529034404439e-05
3.36427777777778e+01 8.19206869833625e-04 1.49415057809414e-05
3.39616666666667e+01 7.88333000374254e-04 1.44463832125546e-05
3.42805555555556e+01 7.58622690258258e-04 1.39670519048716e-05
3.45994444444444e+01 7.30032087828787e-04 1.35030404942867e-05
3.49183333333333e+01 7.02518994088688e-04 1.30538898814527e-05
3.52372222222222e+01 6.76042800416132e-04 1.26191530233282e-05
3.55561111111111e+01 6.50564428627188e-04 1.21983947207091e-05
3.58750000000000e+01 6.26046273297434e-04 1.17911913944422e-05
3.61938888888889e+01 6.02452146321407e-04 1.13971308894240e-05
3.65127777777778e+01 5.79747223302236e-04 1.10158122374080e-05
3.68316666666667e+01 5.57897992355003e-04 1.06468454169254e-05
3.71505555555556e+01 5.36872204574340e-04 1.02898511547776e-05
3.74694444444444e+01 5.16638826435869e-04 9.94446069239927e-06
3.77883333333333e+01 4.97167993991454e-04 9.61031556092999e-06
3.81072222222222e+01 4.78430968790926e-04 9.28706735665442e-06
3.84261111111111e+01 4.60400095464794e-04 8.97437751720582e-06
3.87450000000000e+01 4.43048760905626e-04 8.67191709370769e-06
3.90638888888889e+01 4.26351355029797e-04 8.37936654529321e-06
3.93827777777778e+01 4.10283232848132e-04 8.09641550885634e-06
3.97016666666667e+01 3.94820678223729e-04 7.82276256995132e-06
4.00205555555556e+01 3.79940868821867e-04 7.55811506496132e-06
4.03394444444444e+01 3.65621842424837e-04 7.30218886215955e-06
4.06583333333333e+01 3.51842464516218e-04 7.05470815137560e-06
4.09772222222222e+01 3.38582397086977e-04 6.81540523645430e-06
4.12961111111111e+01 3.25822068617032e-04 6.58402033065336e-06
4.16150000000000e+01 3.13542645188198e-04 6.36030135156820e-06
4.19338888888889e+01 3.01726002713487e-04 6.14400373352604e-06
4.22527777777778e+01 2.90354700101072e-04 5.93489022515103e-06
4.25716666666667e+01 2.79411953599433e-04 5.73273068969503e-06
4.28905555555556e+01 2.68881611994882e-04 5.53730192861033e-06
4.32094444444444e+01 2.58748132772788e-04 5.34838749250885e-06
4.35283333333333e+01 2.48996559177196e-04 5.16577749971275e-06
4.38472222222222e+01 2.39612498135100e-04 4.98926845834626e-06
4.41661111111111e+01 2.30582099012601e-04 4.81866309199159e-06
4.44850000000000e+01 2.21892033171730e-04 4.65377016650364e-06
4.48038888888889e+01 2.13529474316055e-04 4.49440433019386e-06
4.51227777777778e+01 2.05482079502880e-04 4.34038594521196e-06
4.54416666666667e+01 1.97737970983476e-04 4.19154092210498e-06
4.57605555555556e+01 1.90285718651906e-04 4.04770057151115e-06
4.60794444444444e+01 1.83114323174491e-04 3.90870144839151e-06
4.63983333333333e+01 1.76213199755050e-04 3.77438520257524e-06
4.67172222222222e+01 1.69572162512056e-04 3.64459843279523e-06
4.70361111111111e+01 1.63181409444511e-04 3.51919254418237e-06
4.73550000000000e+01 1.57031507964448e-04 3.39802360752295e-06
4.76738888888889e+01 1.51113380986864e-04 3.28095222861129e-06
4.79927777777778e+01 1.45418293494599e-04 3.16784341244846e-06
4.83116666666667e+01 1.39937839684295e-04 3.05856643046391e-06
4.86305555555556e+01 1.34663930546409e-04 2.95299470029725e-06
4.89494444444444e+01 1.29588781926044e-04 2.85100566123252e-06
4.92683333333333e+01 1.24704903033719e-04 2.75248065470071e-06
4.95872222222222e+01 1.20005085389186e-04 2.65730480788093e-06
4.99061111111111e+01 1.15482392181884e-04 2.56536692034753e-06
5.02250000000000e+01 1.11130148032380e-04 2.47655935256966e-06
5.05438888888889e+01 1.06941929147822e-04 2.39077792196031e-06
5.08627777777778e+01 1.02911553815510e-04 2.30792179596953e-06
5.11816666666667e+01 9.90330733046129e-05 2.22789338781518e-06
5.15005555555556e+01 9.53007630771658e-05 2.15059826138058e-06
5.18194444444444e+01 9.17091143387963e-05 2.07594503363809e-06
5.21383333333333e+01 8.82528259078800e-05 2.00384528104628e-06
5.24572222222222e+01 8.49267963911461e-05 1.93421344854636e-06
5.27761111111111e+01 8.17261166541444e-05 1.86696676110152e-06
5.30950000000000e+01 7.86460625754886e-05 1.80202513693864e-06
5.34138888888889e+01 7.56820880796211e-05 1.73931110639539e-06
5.37327777777778e+01 7.28298184101375e-05 1.67874972912465e-06
5.40516666666667e+01 7.00850436900063e-05 1.62026851348913e-06
5.43705555555556e+01 6.74437127019877e-05 1.56379734262480e-06
5.46894444444444e+01 6.49019269091404e-05 1.50926839914540e-06
5.50083333333333e+01 6.24559347006772e-05 1.45661609291142e-06
5.53272222222222e+01 6.01021258546924e-05 1.40577699090387e-06
5.56461111111111e+01 5.78370262095623e-05 1.35668974915047e-06
5.59650000000000e+01 5.56572925361717e-05 1.30929504611264e-06
5.62838888888889e+01 5.35597076070504e-05 1.26353552021159e-06
5.66027777777778e+01 5.15411754365589e-05 1.21935570648565e-06
5.69216666666667e+01 4.95987167228725e-05 1.17670197500998e-06
5.72405555555556e+01 4.77294644466402e-05 1.13552247415514e-06
5.75594444444444e+01 4.59306596393375e-05 1.09576707314114e-06
5.78783333333333e+01 4.41996473110971e-05 1.05738730692631e-06
5.81972222222222e+01 4.25338725320176e-05 1.02033632276012e-06
5.85161111111111e+01 4.09308766611494e-05 9.84568828355149e-07
5.88350000000000e+01 3.93882937176037e-05 9.50041041261546e-07
5.91538888888889e+01 3.79038468908875e-05 9.16710641284388e-07
5.94727777777778e+01 3.64753451728032e-05 8.84536722480024e-07
5.97916666666667e+01 3.51006801313717e-05 8.53479746539754e-07
6.01105555555556e+01 3.37778227961696e-05 8.23501499677517e-07
6.04294444444444e+01 3.25048206636212e-05 7.94565049188599e-07
6.07483333333333e+01 3.12797948151512e-05 7.66634701770889e-07
6.10672222222222e+01 3.01009371439532e-05 7.39675963139211e-07
6.13861111111111e+01 2.89665076862680e-05 7.13655498896020e-07
6.17050000000000e+01 2.78748320532421e-05 6.88541096365015e-07
6.20238888888889e+01 2.68242989612338e-05 6.64301628653934e-07
6.23427777777778e+01 2.58133578484808e-05 6.40907018547748e-07
6.26616666666667e+01 2.48405165917704e-05 6.18328203476907e-07
6.29805555555556e+01 2.39043393023015e-05 5.96537103018654e-07
6.32994444444444e+01 2.30034442063499e-05 5.75506586278115e-07
6.36183333333333e+01 2.21365016058044e-05 5.55210440590164e-07
6.39372222222222e+01 2.13022319155689e-05 5.35623341213463e-07
6.42561111111111e+01 2.04994037749263e-05 5.16720821987322e-07
6.45750000000000e+01 1.97268322300815e-05 4.98479246744572e-07
6.48938888888889e+01 1.89833769863242e-05 4.80875782352852e-07
6.52127777777778e+01 1.82679407215205e-05 4.63888371721367e-07
6.55316666666667e+01 1.75794674700504e-05 4.47495707630770e-07
6.58505555555556e+01 1.69169410630112e-05 4.31677208391568e-07
6.61694444444445e+01 1.62793836283784e-05 4.16412993492629e-07
6.64883333333333e+01 1.56658541476903e-05 4.01683860233592e-07
6.68072222222222e+01 1.50754470671312e-05 3.87471261111057e-07
6.71261111111111e+01 1.45072909609558e-05 3.73757281935562e-07
6.74450000000000e+01 1.39605472452873e-05 3.60524620533567e-07
6.77638888888889e+01 1.34344089411506e-05 3.47756566636092e-07
6.80827777777778e+01 1.29280994810462e-05 3.35436981800110e-07
6.84016666666667e+01 1.24408715651660e-05 3.23550279954296e-07
6.87205555555555e+01 1.19720060575729e-05 3.12081409263227e-07
6.90394444444444e+01 1.15208109247741e-05 3.01015834034835e-07
6.93583333333333e+01 1.10866202142971e-05 2.90339517357336e-07
6.96772222222222e+01 1.06687930717619e-05 2.80038904304352e-07
6.99961111111111e+01 1.02667127949961e-05 2.70100905690437e-07
7.03150000000000e+01 9.87978592379759e-06 2.60512882274256e-07
7.06338888888889e+01 9.50744136452035e-06 2.51262629824729e-07
7.09527777777778e+01 9.14912954556170e-06 2.42338364248760e-07
7.12716666666667e+01 8.80432160784481e-06 2.33728707189020e-07
7.15905555555556e+01 8.47250862367579e-06 2.25422672571414e-07
7.19094444444444e+01 8.15320084557953e-06 2.17409653216969e-07
7.22283333333333e+01 7.84592698344458e-06 2.09679407992371e-07
7.25472222222222e+01 7.55023350891177e-06 2.02222049386086e-07
7.28661111111111e+01 7.26568398597752e-06 1.95028031496458e-07
7.31850000000000e+01 6.99185842682558e-06 1.88088138359321e-07
7.35038888888889e+01 6.72835267228723e-06 1.81393472902088e-07
7.38227777777778e+01 6.47477779422989e-06 1.74935445967283e-07
7.41416666666667e+01 6.23075952262143e-06 1.68705765687835e-07
7.44605555555556e+01 5.99593769273615e-06 1.62696427545795e-07
7.47794444444445e+01 5.76996571356092e-06 1.56899704499458e-07
7.50983333333333e+01 5.55251005623549e-06 1.51308137506893e-07
7.54172222222222e+01 5.34324976177287e-06 1.45914526366548e-07
7.57361111111111e+01 5.14187596733190e-06 1.40711920864645e-07
7.60550000000000e+01 4.94809145034354e-06 1.35693612178240e-07
7.63738888888889e+01 4.76161019005742e-06 1.30853124732358e-07
7.66927777777778e+01 4.58215694464515e-06 1.26184208123785e-07
7.70116666666667e+01 4.40946684570775e-06 1.21680829306730e-07
7.73305555555555e+01 4.24328500707734e-06 1.17337165269957e-07
7.76494444444444e+01 4.08336614861163e-06 1.13147595777722e-07
7.79683333333333e+01 3.92947423416661e-06 1.09106696401618e-07
7.82872222222222e+01 3.78138212321351e-06 1.05209231787609e-07
7.86061111111111e+01 3.63887123558507e-06 1.01450149150527e-07
7.89250000000000e+01 3.50173122885679e-06 9.78245719599675e-08
7.92438888888889e+01 3.36975968805018e-06 9.43277939548636e-08
7.95627777777778e+01 3.24276182637053e-06 9.09552732170841e-08
7.98816666666667e+01 3.12055019822312e-06 8.77026264391842e-08
8.02005555555556e+01 3.00294442237142e-06 8.45656235453109e-08
8.05194444444444e+01 2.88977091569896e-06 8.15401823677273e-08
8.08383333333333e+01 2.78086263700506e-06 7.86223635362704e-08
8.11572222222222e+01 2.67605884045646e-06 7.58083655416144e-08
8.14761111111111e+01 2.57520483833047e-06 7.30945199665649e-08
8.17950000000000e+01 2.47815177269989e-06 7.04772868599261e-08
8.21138888888889e+01 2.38475639583401e-06 6.79532503480051e-08
8.24327777777778e+01 2.29488085842518e-06 6.55191142959400e-08
8.27516666666667e+01 2.20839250647952e-06 6.31716981124376e-08
8.30705555555556e+01 2.12516368540216e-06 6.09079328081348e-08
8.33894444444445e+01 2.04507155158239e-06 5.87248571004261e-08
8.37083333333333e+01 1.96799789107951e-06 5.66196136738152e-08
8.40272222222222e+01 1.89382894514229e-06 5.45894455682948e-08
8.43461111111111e+01 1.82245524230381e-06 5.26316926914616e-08
8.46650000000000e+01 1.75377143680446e-06 5.07437884363926e-08
8.49838888888889e+01 1.68767615318047e-06 4.89232564711516e-08
8.53027777777778e+01 1.62407183640155e-06 4.71677075690362e-08
8.56216666666667e+01 1.56286460812332e-06 4.54748365444274e-08
8.59405555555556e+01 1.50396412804265e-06 4.38424193706787e-08
8.62594444444444e+01 1.44728346055772e-06 4.22683103357296e-08
8.65783333333333e+01 1.39273894645323e-06 4.07504393110933e-08
8.68972222222222e+01 1.34025007942167e-06 3.92868091148910e-08
8.72161111111111e+01 1.28973938723797e-06 3.78754929657526e-08
8.75350000000000e+01 1.24113231741253e-06 3.65146320148877e-08
8.78538888888889e+01 1.19435712720581e-06 3.52024330020005e-08
8.81727777777778e+01 1.14934477757716e-06 3.39371659437739e-08
8.84916666666667e+01 1.10602883145004e-06 3.27171618999037e-08
8.88105555555556e+01 1.06434535559607e-06 3.15408108697292e-08
8.91294444444444e+01 1.02423282627119e-06 3.04065597188629e-08
8.94483333333333e+01 9.85632038408204e-07 2.93129101883270e-08
8.97672222222222e+01 9.48486018231639e-07 2.82584169726063e-08
9.00861111111111e+01 9.12739939165905e-07 2.72416858642695e-08
9.04050000000000e+01 8.78341040912661e-07 2.62613719561923e-08
9.07238888888889e+01 8.45238551613730e-07 2.53161779330606e-08
9.10427777777778e+01 8.13383612803006e-07 2.44048523884806e-08
9.13616666666667e+01 7.82729207405702e-07 2.35261881989034e-08
9.16805555555556e+01 7.53230090303624e-07 2.26790209911933e-08
9.19994444444444e+01 7.24842721554537e-07 2.18622276336864e-08
9.23183333333333e+01 6.97525202128303e-07 2.10747247872020e-08
9.26372222222222e+01 6.71237212065024e-07 2.03154675064464e-08
9.29561111111111e+01 6.45939950963798e-07 1.95834478900800e-08
9.32750000000000e+01 6.21596080714313e-07 1.88776937731144e-08
9.35938888888889e+01 5.98169670411289e-07 1.81972674836246e-08
9.39127777777778e+01 5.75626143245838e-07 1.75412646193330e-08
9.42316666666667e+01 5.53932225548548e-07 1.69088128657272e-08
9.45505555555556e+01 5.33055897651842e-07 1.62990708812998e-08
9.48694444444444e+01 5.12966346629765e-07 1.57112272009578e-08
9.51883333333333e+01 4.93633920818880e-07 1.51444991829363e-08
9.55072222222222e+01 4.75030086053201e-07 1.45981319924905e-08
9.58261111111111e+01 4.57127383548480e-07 1.40713976210951e-08
9.61450000000000e+01 4.39899389373742e-07 1.35635939366757e-08
9.64638888888889e+01 4.23320675467087e-07 1.30740437801401e-08
9.67827777777778e+01 4.07366772052649e-07 1.26020940771699e-08
9.71016666666667e+01 3.92014131577099e-07 1.21471149803208e-08
9.74205555555556e+01 3.77240093935817e-07 1.17084990592140e-08
9.77394444444444e+01 3.63022853027160e-07 1.12856605046468e-08
9.80583333333333e+01 3.49341424567204e-07 1.08780343642343e-08
9.83772222222222e+01 3.36175615117500e-07 1.04850758048453e-08
9.86961111111111e+01 3.23505992280061e-07 1.01062594009043e-08
9.90150000000000e+01 3.11313856015643e-07 9.74107844539487e-09
9.93338888888889e+01 2.99581211054540e-07 9.38904429417033e-09
9.96527777777778e+01 2.88290740300384e-07 9.04968572188910e-09
9.99716666666667e+01 2.77425779307153e-07 8.72254829803040e-09
1.00290555555556e+02 2.66970291680532e-07 8.40719380741764e-09
1.00609444444444e+02 2.56908845367452e-07 8.10319966505115e-09
