Energy (eV)          EEDF (eV^-(3/2))     First Anisotropy
1.56060606060606e-03 6.85009841186643e+00 4.26568619433458e-03
4.68181818181818e-03 6.77906709632520e+00 7.03097685690698e-03
7.80303030303030e-03 6.70877233191877e+00 9.24761819066107e-03
1.09242424242424e-02 6.63920648106802e+00 1.09110281127540e-02
1.40454545454545e-02 6.57036198527274e+00 1.22813977803296e-02
1.71666666666667e-02 6.50223136475285e+00 1.34576174037542e-02
2.02878787878788e-02 6.43480721700370e+00 1.44911173572661e-02
2.34090909090909e-02 6.36808221632018e+00 1.54131054384018e-02
2.65303030303030e-02 6.30204911273203e+00 1.62443779212900e-02
2.96515151515152e-02 6.23670073195278e+00 1.69997024702260e-02
3.27727272727273e-02 6.17202997380998e+00 1.76900618583149e-02
3.58939393939394e-02 6.10802981176230e+00 1.83239169983848e-02
3.90151515151515e-02 6.04469329198077e+00 1.89079698666325e-02
4.21363636363636e-02 5.98201353306837e+00 1.94476502201716e-02
4.52575757575758e-02 5.91998372481163e+00 1.99474399371947e-02
4.83787878787879e-02 5.85859712761399e+00 2.04110969681050e-02
5.15000000000000e-02 5.79784707176781e+00 2.08418147355282e-02
5.46212121212121e-02 5.73772695662499e+00 2.12423384342631e-02
5.77424242424242e-02 5.67823025019537e+00 2.16150518210010e-02
6.08636363636364e-02 5.61935048811000e+00 2.19620432001120e-02
6.39848484848485e-02 5.56108127303105e+00 2.22851563951741e-02
6.71060606060606e-02 5.50341627395892e+00 2.25860307747147e-02
7.02272727272727e-02 5.44634922546807e+00 2.28661330389192e-02
7.33484848484849e-02 5.38987392725632e+00 2.31267828205181e-02
7.64696969696970e-02 5.33398424323435e+00 2.33691735030279e-02
7.95909090909091e-02 5.27867410094054e+00 2.35943892867843e-02
8.27121212121212e-02 5.22393749082036e+00 2.38034193273850e-02
8.58333333333333e-02 5.16976846576104e+00 2.39971695643106e-02
8.89545454545455e-02 5.11616114025261e+00 2.41764726747066e-02
9.20757575757576e-02 5.06310968981394e+00 2.43420964768013e-02
9.51969696969697e-02 5.01060835036067e+00 2.44947511223454e-02
9.83181818181818e-02 4.95865141753004e+00 2.46350952398496e-02
1.01439393939394e-01 4.90723324620994e+00 2.47637412568092e-02
1.04560606060606e-01 4.85634824977331e+00 2.48812600100183e-02
1.07681818181818e-01 4.80599089956491e+00 2.49881847495396e-02
1.10803030303030e-01 4.75615572421335e+00 2.50850146534017e-02
1.13924242424242e-01 4.70683730908234e+00 2.51722179016730e-02
1.17045454545455e-01 4.65803029568236e+00 2.52502344454112e-02
1.20166666666667e-01 4.60972938071962e+00 2.53194782846601e-02
1.23287878787879e-01 4.56192931664482e+00 2.53803396990226e-02
1.26409090909091e-01 4.51462490993827e+00 2.54331872462244e-02
1.29530303030303e-01 4.46781102093417e+00 2.54783693346758e-02
1.32651515151515e-01 4.42148256326108e+00 2.55162158021463e-02
1.35772727272727e-01 4.37563450329118e+00 2.55470392952280e-02
1.38893939393939e-01 4.33026185959283e+00 2.55711365145089e-02
1.42015151515152e-01 4.28535970238892e+00 2.55887893770259e-02
1.45136363636364e-01 4.24092315274059e+00 2.56002659279066e-02
1.48257575757576e-01 4.19694738287196e+00 2.56058213435761e-02
1.51378787878788e-01 4.15342761477728e+00 2.56056988527667e-02
1.54500000000000e-01 4.11035911999597e+00 2.56001303959045e-02
1.57621212121212e-01 4.06773721909832e+00 2.55893373707911e-02
1.60742424242424e-01 4.02555728117768e+00 2.55735312811338e-02
1.63863636363636e-01 3.98381472334761e+00 2.55529143326214e-02
1.66984848484848e-01 3.94250501024350e+00 2.55276800122563e-02
1.70106060606061e-01 3.90162365330956e+00 2.54980135007122e-02
1.73227272727273e-01 3.86116621098106e+00 2.54640922025162e-02
1.76348484848485e-01 3.82112828752215e+00 2.54260862417097e-02
1.79469696969697e-01 3.78150553277818e+00 2.53841587658315e-02
1.82590909090909e-01 3.74229364170283e+00 2.53384663501061e-02
1.85712121212121e-01 3.70348835389032e+00 2.52891593426799e-02
1.88833333333333e-01 3.66508545311317e+00 2.52363821860947e-02
1.91954545454545e-01 3.62708076686370e+00 2.51802737433707e-02
1.95075757575758e-01 3.58947016572398e+00 2.51209674973095e-02
1.98196969696970e-01 3.55224956345403e+00 2.50585918657155e-02
2.01318181818182e-01 3.51541491600380e+00 2.49932705003096e-02
2.04439393939394e-01 3.47896222125760e+00 2.49251224327231e-02
2.07560606060606e-01 3.44288751859930e+00 2.48542623170662e-02
2.10681818181818e-01 3.40718688848156e+00 2.47808006312090e-02
2.13803030303030e-01 3.37185645200083e+00 2.47048438660647e-02
2.16924242424242e-01 3.33689237047546e+00 2.46264947037847e-02
2.20045454545455e-01 3.30229084502863e+00 2.45458522077828e-02
2.23166666666667e-01 3.26804811603541e+00 2.44630119127486e-02
2.26287878787879e-01 3.23416046313994e+00 2.43780660195514e-02
2.29409090909091e-01 3.20062420442022e+00 2.42911035824194e-02
2.32530303030303e-01 3.16743569613351e+00 2.42022105717546e-02
2.35651515151515e-01 3.13459133232031e+00 2.41114700236340e-02
2.38772727272727e-01 3.10208754441288e+00 2.40189621589710e-02
2.41893939393939e-01 3.06992080084746e+00 2.39247644965220e-02
2.45015151515152e-01 3.03808760668046e+00 2.38289519795394e-02
2.48136363636364e-01 3.00658450309278e+00 2.37315970180413e-02
2.51257575757576e-01 2.97540806736601e+00 2.36327696252585e-02
2.54378787878788e-01 2.94455491215430e+00 2.35325375498657e-02
2.57500000000000e-01 2.91402168523651e+00 2.34309663019193e-02
2.60621212121212e-01 2.88380506915190e+00 2.33281192565188e-02
2.63742424242424e-01 2.85390178083981e+00 2.32240577328420e-02
2.66863636363636e-01 2.82430857128301e+00 2.31188410695425e-02
2.69984848484848e-01 2.79502222515466e+00 2.30125267137990e-02
2.73106060606061e-01 2.76603956037192e+00 2.29051702378171e-02
2.76227272727273e-01 2.73735742804440e+00 2.27968254392751e-02
2.79348484848485e-01 2.70897271183452e+00 2.26875444393931e-02
2.82469696969697e-01 2.68088232771918e+00 2.25773776889345e-02
2.85590909090909e-01 2.65308322365472e+00 2.24663740434764e-02
2.88712121212121e-01 2.62557237924523e+00 2.23545808180479e-02
2.91833333333333e-01 2.59834680541458e+00 2.22420438395096e-02
2.94954545454545e-01 2.57140354408158e+00 2.21288075118714e-02
2.98075757575758e-01 2.54473966775679e+00 2.20149148184992e-02
3.01196969696970e-01 2.51835227947236e+00 2.19004073989863e-02
3.04318181818182e-01 2.49223851221662e+00 2.17853256246627e-02
3.07439393939394e-01 2.46639552870703e+00 2.16697085936634e-02
3.10560606060606e-01 2.44082052108200e+00 2.15535941876162e-02
3.13681818181818e-01 2.41551071059557e+00 2.14370191106994e-02
3.16803030303030e-01 2.39046334731586e+00 2.13200189272269e-02
3.19924242424242e-01 2.36567570982610e+00 2.12026280978345e-02
3.23045454545455e-01 2.34114510492895e+00 2.10848800273476e-02
3.26166666666667e-01 2.31686886728600e+00 2.09668070583911e-02
3.29287878787879e-01 2.29284435933400e+00 2.08484405303004e-02
3.32409090909091e-01 2.26906897079026e+00 2.07298108373192e-02
3.35530303030303e-01 2.24554011843909e+00 2.06109474173148e-02
3.38651515151515e-01 2.22225524585115e+00 2.04918787943398e-02
3.41772727272727e-01 2.19921182310572e+00 2.03726326063277e-02
3.44893939393939e-01 2.17640734651587e+00 2.02532356318370e-02
3.48015151515152e-01 2.15383933835638e+00 2.01337138274695e-02
3.51136363636364e-01 2.13150534653650e+00 2.00140923174170e-02
3.54257575757576e-01 2.10940294450940e+00 1.98943954411488e-02
3.57378787878788e-01 2.08752973083081e+00 1.97746468007156e-02
3.60500000000000e-01 2.06588332895798e+00 1.96548692466470e-02
3.63621212121212e-01 2.04446138699142e+00 1.95350849118173e-02
3.66742424242424e-01 2.02326157741939e+00 1.94153152322995e-02
3.69863636363636e-01 2.00228159686509e+00 1.92955809675600e-02
3.72984848484849e-01 1.98151916583632e+00 1.91759022303359e-02
3.76106060606061e-01 1.96097202842797e+00 1.90562984740961e-02
3.79227272727273e-01 1.94063795222800e+00 1.89367885323487e-02
3.82348484848485e-01 1.92051472792221e+00 1.88173906577655e-02
3.85469696969697e-01 1.90060016910569e+00 1.86981225068381e-02
3.88590909090909e-01 1.88089211204517e+00 1.85790011673274e-02
3.91712121212121e-01 1.86138841544393e+00 1.84600431742488e-02
3.94833333333333e-01 1.84208696020927e+00 1.83412645253842e-02
3.97954545454546e-01 1.82298564922217e+00 1.82226807055574e-02
4.01075757575758e-01 1.80408240706646e+00 1.81043066732079e-02
4.04196969696970e-01 1.78537517993359e+00 1.79861568932506e-02
4.07318181818182e-01 1.76686193526791e+00 1.78682453698838e-02
4.10439393939394e-01 1.74854066159012e+00 1.77505856309499e-02
4.13560606060606e-01 1.73040936827875e+00 1.76331907505121e-02
4.16681818181818e-01 1.71246608535377e+00 1.75160733612935e-02
4.19803030303030e-01 1.69470886326274e+00 1.73992456667670e-02
4.22924242424242e-01 1.67713577266884e+00 1.72827194529078e-02
4.26045454545455e-01 1.65974490424133e+00 1.71665061076859e-02
4.29166666666667e-01 1.64253436841151e+00 1.70506166075307e-02
4.32287878787879e-01 1.62550229527812e+00 1.69350615445404e-02
4.35409090909091e-01 1.60864683429238e+00 1.68198511537222e-02
4.38530303030303e-01 1.59196615409459e+00 1.67049952977168e-02
4.41651515151515e-01 1.57545844231508e+00 1.65905034851499e-02
4.44772727272727e-01 1.55912190537738e+00 1.64763848801626e-02
4.47893939393939e-01 1.54295476830332e+00 1.63626483116983e-02
4.51015151515152e-01 1.52695527452016e+00 1.62493022897715e-02
4.54136363636364e-01 1.51112168563798e+00 1.61363549922267e-02
4.57257575757576e-01 1.49545228135704e+00 1.60238142879898e-02
4.60378787878788e-01 1.47994535918366e+00 1.59116877603928e-02
4.63500000000000e-01 1.46459923427800e+00 1.57999826925041e-02
4.66621212121212e-01 1.44941223927096e+00 1.56887060825807e-02
4.69742424242424e-01 1.43438272408302e+00 1.55778646516632e-02
4.72863636363636e-01 1.41950905574502e+00 1.54674648509795e-02
4.75984848484849e-01 1.40478961822068e+00 1.53575128756516e-02
4.79106060606061e-01 1.39022281220330e+00 1.52480146519931e-02
4.82227272727273e-01 1.37580705502596e+00 1.51389758575194e-02
4.85348484848485e-01 1.36154078040479e+00 1.50304019410656e-02
4.88469696969697e-01 1.34742243829733e+00 1.49222981088884e-02
4.91590909090909e-01 1.33345049473412e+00 1.48146693377871e-02
4.94712121212121e-01 1.31962343165197e+00 1.47075203812012e-02
4.97833333333333e-01 1.30593974672914e+00 1.46008557751617e-02
5.00954545454546e-01 1.29239795322204e+00 1.44946798499317e-02
5.04075757575758e-01 1.27899657977944e+00 1.43889967179701e-02
5.07196969696970e-01 1.26573417035605e+00 1.42838102912622e-02
5.10318181818182e-01 1.25260928398019e+00 1.41791242987712e-02
5.13439393939394e-01 1.23962049462218e+00 1.40749422733947e-02
5.16560606060606e-01 1.22676639103939e+00 1.39712675631810e-02
5.19681818181818e-01 1.21404557662291e+00 1.38681033362591e-02
5.22803030303030e-01 1.20145666924580e+00 1.37654525856535e-02
5.25924242424243e-01 1.18899830111296e+00 1.36633181339885e-02
5.29045454545455e-01 1.17666911861247e+00 1.35617026432222e-02
5.32166666666667e-01 1.16446778214766e+00 1.34606086034598e-02
5.35287878787879e-01 1.15239296605478e+00 1.33600383477752e-02
5.38409090909091e-01 1.14044335839517e+00 1.32599940671571e-02
5.41530303030303e-01 1.12861766083413e+00 1.31604777984806e-02
5.44651515151515e-01 1.11691458849993e+00 1.30614914339537e-02
5.47772727272727e-01 1.10533286984415e+00 1.29630367250309e-02
5.50893939393939e-01 1.09387124650357e+00 1.28651152862421e-02
5.54015151515152e-01 1.08252847316341e+00 1.27677286035669e-02
5.57136363636364e-01 1.07130331740371e+00 1.26708780239969e-02
5.60257575757576e-01 1.06019455962094e+00 1.25745647684987e-02
5.63378787878788e-01 1.04920099283948e+00 1.24787899451073e-02
5.66500000000000e-01 1.03832142259928e+00 1.23835545377635e-02
5.69621212121212e-01 1.02755466682610e+00 1.22888594144818e-02
5.72742424242424e-01 1.01689955570310e+00 1.21947053305468e-02
5.75863636363636e-01 1.00635493154372e+00 1.21010929316429e-02
5.78984848484849e-01 9.95919648665921e-01 1.20080227610868e-02
5.82106060606061e-01 9.85592573251498e-01 1.19154952501360e-02
5.85227272727273e-01 9.75372583271855e-01 1.18235107293683e-02
5.88348484848485e-01 9.65258568316705e-01 1.17320694401858e-02
5.91469696969697e-01 9.55249429490037e-01 1.16411715244978e-02
5.94590909090909e-01 9.45344079290714e-01 1.15508170318075e-02
5.97712121212121e-01 9.35541441494312e-01 1.14610059218315e-02
6.00833333333333e-01 9.25840451036209e-01 1.13717380670653e-02
6.03954545454546e-01 9.16240053895849e-01 1.12830132590578e-02
6.07075757575758e-01 9.06739206967963e-01 1.11948311994388e-02
6.10196969696970e-01 8.97336877992398e-01 1.11071915099378e-02
6.13318181818182e-01 8.88032045398410e-01 1.10200937425265e-02
6.16439393939394e-01 8.78823698208318e-01 1.09335373698996e-02
6.19560606060606e-01 8.69710835927659e-01 1.08475217916503e-02
6.22681818181818e-01 8.60692468436474e-01 1.07620463364217e-02
6.25803030303030e-01 8.51767615881753e-01 1.06771102640113e-02
6.28924242424242e-01 8.42935308570963e-01 1.05927127674330e-02
6.32045454545455e-01 8.34194586866686e-01 1.05088529782732e-02
6.35166666666667e-01 8.25544501069959e-01 1.04255299585010e-02
6.38287878787879e-01 8.16984111354613e-01 1.03427427091725e-02
6.41409090909091e-01 8.08512487627297e-01 1.02604901792497e-02
6.44530303030303e-01 8.00128709439159e-01 1.01787712569412e-02
6.47651515151515e-01 7.91831865885832e-01 1.00975847749973e-02
6.50772727272727e-01 7.83621055508471e-01 1.00169295124412e-02
6.53893939393939e-01 7.75495386195812e-01 9.93680419626428e-03
6.57015151515152e-01 7.67453975087239e-01 9.85720750610373e-03
6.60136363636364e-01 7.59495948465879e-01 9.77813806669607e-03
6.63257575757576e-01 7.51620441696900e-01 9.69959445557906e-03
6.66378787878788e-01 7.43826599100046e-01 9.62157521090566e-03
6.69500000000000e-01 7.36113573867944e-01 9.54407882348399e-03
6.72621212121212e-01 7.28480527974087e-01 9.46710374141709e-03
6.75742424242424e-01 7.20926632081792e-01 9.39064837152771e-03
6.78863636363636e-01 7.13451065454092e-01 9.31471108075312e-03
6.81984848484849e-01 7.06053015864562e-01 9.23929020024013e-03
6.85106060606061e-01 6.98731679499330e-01 9.16438401839870e-03
6.88227272727273e-01 6.91486260899205e-01 9.08999078773462e-03
6.91348484848485e-01 6.84315972843528e-01 9.01610873178430e-03
6.94469696969697e-01 6.77220036274637e-01 8.94273603780434e-03
6.97590909090909e-01 6.70197680213221e-01 8.86987086084755e-03
7.00712121212121e-01 6.63248141674545e-01 8.79751132493382e-03
7.03833333333333e-01 6.56370665585565e-01 8.72565552419769e-03
7.06954545454546e-01 6.49564504702884e-01 8.65430152648150e-03
7.10075757575758e-01 6.42828919522917e-01 8.58344736695020e-03
7.13196969696970e-01 6.36163178227696e-01 8.51309105415981e-03
7.16318181818182e-01 6.29566556578977e-01 8.44323057622330e-03
7.19439393939394e-01 6.23038337848426e-01 8.37386389410348e-03
7.22560606060606e-01 6.16577812739740e-01 8.30498894519981e-03
7.25681818181818e-01 6.10184279311579e-01 8.23660364431068e-03
7.28803030303030e-01 6.03857042901312e-01 8.16870588457501e-03
7.31924242424242e-01 5.97595416049530e-01 8.10129353839551e-03
7.35045454545455e-01 5.91398718425362e-01 8.03436446053996e-03
7.38166666666667e-01 5.85266276744985e-01 7.96791648234561e-03
7.41287878787879e-01 5.79197424721357e-01 7.90194741703704e-03
7.44409090909091e-01 5.73191502968746e-01 7.83645506513443e-03
7.47530303030303e-01 5.67247858938845e-01 7.77143720837634e-03
7.50651515151515e-01 5.61365846849869e-01 7.70689161282585e-03
7.53772727272727e-01 5.55544827616398e-01 7.64281602964309e-03
7.56893939393939e-01 5.49784168779936e-01 7.57920819584136e-03
7.60015151515152e-01 5.44083244440195e-01 7.51606583701817e-03
7.63136363636364e-01 5.38441435180358e-01 7.45338666203526e-03
7.66257575757576e-01 5.32858128020145e-01 7.39116836775765e-03
7.69378787878788e-01 5.27332716328670e-01 7.32940864387575e-03
7.72500000000000e-01 5.21864599765438e-01 7.26810516733600e-03
7.75621212121212e-01 5.16453184215116e-01 7.20725560508368e-03
7.78742424242424e-01 5.11097881722981e-01 7.14685761469398e-03
7.81863636363636e-01 5.05798110431044e-01 7.08690884498843e-03
7.84984848484849e-01 5.00553294514824e-01 7.02740693844414e-03
7.88106060606061e-01 4.95362864114794e-01 6.96834952631362e-03
7.91227272727273e-01 4.90226255292603e-01 6.90973423285206e-03
7.94348484848485e-01 4.85142909951504e-01 6.85155867962273e-03
7.97469696969697e-01 4.80112275781875e-01 6.79382048039375e-03
8.00590909090909e-01 4.75133806201203e-01 6.73651724356330e-03
8.03712121212121e-01 4.70206960294699e-01 6.67964657267253e-03
8.06833333333333e-01 4.65331202756533e-01 6.62320606690749e-03
8.09954545454545e-01 4.60506003831668e-01 6.56719332322611e-03
8.13075757575758e-01 4.55730839252951e-01 6.51160593188222e-03
8.16196969696970e-01 4.51005190200338e-01 6.45644148020107e-03
8.19318181818182e-01 4.46328543228199e-01 6.40169755642751e-03
8.22439393939394e-01 4.41700390215022e-01 6.34737174505104e-03
8.25560606060606e-01 4.37120228308203e-01 6.29346162895311e-03
8.28681818181818e-01 4.32587559869408e-01 6.23996478982143e-03
8.31803030303030e-01 4.28101892420509e-01 6.18687880855488e-03
8.34924242424242e-01 4.23662738590078e-01 6.13420126566097e-03
8.38045454545455e-01 4.19269616060426e-01 6.08192974310319e-03
8.41166666666667e-01 4.14922047510502e-01 6.03006182024518e-03
8.44287878787879e-01 4.10619560578257e-01 5.97859507717821e-03
8.47409090909091e-01 4.06361687794973e-01 5.92752709811321e-03
8.50530303030303e-01 4.02147966539296e-01 5.87685546714999e-03
8.53651515151515e-01 3.97977938986969e-01 5.82657777014835e-03
8.56772727272727e-01 3.93851152061095e-01 5.77669159505322e-03
8.59893939393939e-01 3.89767157382906e-01 5.72719453221156e-03
8.63015151515152e-01 3.85725511223048e-01 5.67808417600832e-03
8.66136363636364e-01 3.81725774449163e-01 5.62935812114848e-03
8.69257575757576e-01 3.77767512490896e-01 5.58101396563422e-03
8.72378787878788e-01 3.73850295279854e-01 5.53304931380244e-03
8.75500000000000e-01 3.69973697207191e-01 5.48546177245068e-03
8.78621212121212e-01 3.66137297077359e-01 5.43824895249723e-03
8.81742424242424e-01 3.62340678062354e-01 5.39140846923813e-03
8.84863636363636e-01 3.58583427656421e-01 5.34493794259843e-03
8.87984848484849e-01 3.54865137631237e-01 5.29883499858179e-03
8.91106060606061e-01 3.51185403987800e-01 5.25309726586296e-03
8.94227272727273e-01 3.47543826923898e-01 5.20772237845342e-03
8.97348484848485e-01 3.43940010779213e-01 5.16270797842333e-03
9.00469696969697e-01 3.40373563996178e-01 5.11805171235488e-03
9.03590909090909e-01 3.36844099077442e-01 5.07375123281563e-03
9.06712121212121e-01 3.33351232543757e-01 5.02980419855931e-03
9.09833333333333e-01 3.29894584892327e-01 4.98620827472249e-03
9.12954545454546e-01 3.26473780555563e-01 4.94296113410915e-03
9.16075757575758e-01 3.23088447856919e-01 4.90006045406803e-03
9.19196969696970e-01 3.19738218980685e-01 4.85750391888204e-03
9.22318181818182e-01 3.16422729921759e-01 4.81528922220925e-03
9.25439393939394e-01 3.13141620449551e-01 4.77341406383445e-03
9.28560606060606e-01 3.09894534068837e-01 4.73187615097853e-03
9.31681818181818e-01 3.06681117981034e-01 4.69067319845329e-03
9.34803030303030e-01 3.03501023045861e-01 4.64980292881146e-03
9.37924242424243e-01 3.00353903743410e-01 4.60926307249372e-03
9.41045454545455e-01 2.97239418136601e-01 4.56905136894822e-03
9.44166666666667e-01 2.94157227831063e-01 4.52916556380303e-03
9.47287878787879e-01 2.91106997947350e-01 4.48960341097935e-03
9.50409090909091e-01 2.88088397075497e-01 4.45036267485021e-03
9.53530303030303e-01 2.85101097242056e-01 4.41144112730165e-03
9.56651515151515e-01 2.82144773874462e-01 4.37283654887775e-03
9.59772727272727e-01 2.79219105765771e-01 4.33454672889279e-03
9.62893939393939e-01 2.76323775039755e-01 4.29656946554008e-03
9.66015151515152e-01 2.73458467116371e-01 4.25890256688627e-03
9.69136363636364e-01 2.70622870674913e-01 4.22154384828041e-03
9.72257575757576e-01 2.67816677628245e-01 4.18449113424933e-03
9.75378787878788e-01 2.65039583081203e-01 4.14774226043706e-03
9.78500000000000e-01 2.62291285300199e-01 4.11129507091366e-03
9.81621212121212e-01 2.59571485680437e-01 4.07514741919353e-03
9.84742424242424e-01 2.56879888713471e-01 4.03929716831591e-03
