Energy (eV)          EEDF (eV^-(3/2))     First Anisotropy
7.32432432432432e-03 5.71402264055033e-01 3.49574722111384e-04
2.19729729729730e-02 5.66092508834555e-01 5.76503282914488e-04
3.66216216216216e-02 5.60832094500343e-01 7.59081376415046e-04
5.12702702702703e-02 5.55620562568484e-01 8.96595283292406e-04
6.59189189189189e-02 5.50457458789394e-01 1.01030127825671e-03
8.05675675675676e-02 5.45342333152524e-01 1.10826498339237e-03
9.52162162162162e-02 5.40274739814770e-01 1.19467462148175e-03
1.09864864864865e-01 5.35254237061192e-01 1.27206775122047e-03
1.24513513513514e-01 5.30280387358640e-01 1.34213285211992e-03
1.39162162162162e-01 5.25352757138096e-01 1.40606718287443e-03
1.53810810810811e-01 5.20470916939971e-01 1.46475986819108e-03
1.68459459459459e-01 5.15634441228205e-01 1.51889490970635e-03
1.83108108108108e-01 5.10842908454508e-01 1.56901335941015e-03
1.97756756756757e-01 5.06095901012668e-01 1.61555297769739e-03
2.12405405405405e-01 5.01393005126673e-01 1.65887462972207e-03
2.27054054054054e-01 4.96733810890530e-01 1.69928050306151e-03
2.41702702702703e-01 4.92117912227195e-01 1.73702707903798e-03
2.56351351351351e-01 4.87544906793198e-01 1.77233458027656e-03
2.71000000000000e-01 4.83014396003576e-01 1.80539401267248e-03
2.85648648648649e-01 4.78525984993647e-01 1.83637253015784e-03
3.00297297297297e-01 4.74079282535268e-01 1.86541756651253e-03
3.14945945945946e-01 4.69673901052005e-01 1.89266007401945e-03
3.29594594594595e-01 4.65309456582770e-01 1.91821710954740e-03
3.44243243243243e-01 4.60985568706898e-01 1.94219390167757e-03
3.58891891891892e-01 4.56701860552513e-01 1.96468552967312e-03
3.73540540540541e-01 4.52457958761552e-01 1.98577831305647e-03
3.88189189189189e-01 4.48253493421814e-01 2.00555095082601e-03
4.02837837837838e-01 4.44088098070326e-01 2.02407547164570e-03
4.17486486486487e-01 4.39961409659615e-01 2.04141804379827e-03
4.32135135135135e-01 4.35873068495353e-01 2.05763964943929e-03
4.46783783783784e-01 4.31822718245033e-01 2.07279666413169e-03
4.61432432432432e-01 4.27810005869103e-01 2.08694135428339e-03
4.76081081081081e-01 4.23834581617785e-01 2.10012229993243e-03
4.90729729729730e-01 4.19896098999411e-01 2.11238477158895e-03
5.05378378378378e-01 4.15994214725893e-01 2.12377104926186e-03
5.20027027027027e-01 4.12128588707238e-01 2.13432070108239e-03
5.34675675675676e-01 4.08298884020969e-01 2.14407083688012e-03
5.49324324324324e-01 4.04504766860989e-01 2.15305632329362e-03
5.63972972972973e-01 4.00745906530307e-01 2.16130997383789e-03
5.78621621621622e-01 3.97021975411454e-01 2.16886272607975e-03
5.93270270270270e-01 3.93332648918319e-01 2.17574379156138e-03
6.07918918918919e-01 3.89677605487514e-01 2.18198078957468e-03
6.22567567567568e-01 3.86056526549659e-01 2.18759987499013e-03
6.37216216216216e-01 3.82469096483895e-01 2.19262584568791e-03
6.51864864864865e-01 3.78915002608177e-01 2.19708223923241e-03
6.66513513513514e-01 3.75393935151381e-01 2.20099142768971e-03
6.81162162162162e-01 3.71905587210224e-01 2.20437469568700e-03
6.95810810810811e-01 3.68449654743621e-01 2.20725231493069e-03
7.10459459459459e-01 3.65025836525884e-01 2.20964361243513e-03
7.25108108108108e-01 3.61633834135442e-01 2.21156702877703e-03
7.39756756756757e-01 3.58273351928317e-01 2.21304017875801e-03
7.54405405405405e-01 3.54944096998728e-01 2.21407990059918e-03
7.69054054054054e-01 3.51645779167268e-01 2.21470230097628e-03
7.83702702702703e-01 3.48378110955182e-01 2.21492280272594e-03
7.98351351351351e-01 3.45140807546767e-01 2.21475618273927e-03
8.13000000000000e-01 3.41933586777144e-01 2.21421660681486e-03
8.27648648648649e-01 3.38756169107291e-01 2.21331766784666e-03
8.42297297297297e-01 3.35608277588110e-01 2.21207241542361e-03
8.56945945945946e-01 3.32489637847900e-01 2.21049338316794e-03
8.71594594594595e-01 3.29399978068109e-01 2.20859261979496e-03
8.86243243243243e-01 3.26339028948944e-01 2.20638171251678e-03
9.00891891891892e-01 3.23306523696647e-01 2.20387180874438e-03
9.15540540540541e-01 3.20302197999921e-01 2.20107364171469e-03
9.30189189189189e-01 3.17325789996991e-01 2.19799754919436e-03
9.44837837837838e-01 3.14377040262742e-01 2.19465349089032e-03
9.59486486486486e-01 3.11455691785808e-01 2.19105106987032e-03
9.74135135135135e-01 3.08561489936981e-01 2.18719954712272e-03
9.88783783783784e-01 3.05694182459138e-01 2.18310785778431e-03
1.00343243243243e+00 3.02853519433487e-01 2.17878462815218e-03
1.01808108108108e+00 3.00039253258237e-01 2.17423818373198e-03
1.03272972972973e+00 2.97251138646481e-01 2.16947656112270e-03
1.04737837837838e+00 2.94488932611046e-01 2.16450753806705e-03
1.06202702702703e+00 2.91752394370073e-01 2.15933863121047e-03
1.07667567567568e+00 2.89041285405756e-01 2.15397709792342e-03
1.09132432432432e+00 2.86355369416712e-01 2.14842996212989e-03
1.10597297297297e+00 2.83694412297313e-01 2.14270401889102e-03
1.12062162162162e+00 2.81058182117422e-01 2.13680584367823e-03
1.13527027027027e+00 2.78446449102107e-01 2.13074179673726e-03
1.14991891891892e+00 2.75858985633799e-01 2.12451804482217e-03
1.16456756756757e+00 2.73295566165256e-01 2.11814056008428e-03
1.17921621621622e+00 2.70755967267754e-01 2.11161511842350e-03
1.19386486486486e+00 2.68239967588775e-01 2.10494732039594e-03
1.20851351351351e+00 2.65747347832685e-01 2.09814259333685e-03
1.22316216216216e+00 2.63277890741661e-01 2.09120619778512e-03
1.23781081081081e+00 2.60831381076763e-01 2.08414323361904e-03
1.25245945945946e+00 2.58407605599157e-01 2.07695864195826e-03
1.26710810810811e+00 2.56006353070224e-01 2.06965722259872e-03
1.28175675675676e+00 2.53627414176532e-01 2.06224363134935e-03
1.29640540540541e+00 2.51270581568740e-01 2.05472237700375e-03
1.31105405405405e+00 2.48935649824291e-01 2.04709783837153e-03
1.32570270270270e+00 2.46622415429489e-01 2.03937426478207e-03
1.34035135135135e+00 2.44330676761820e-01 2.03155578049951e-03
1.35500000000000e+00 2.42060234072341e-01 2.02364638541600e-03
1.36964864864865e+00 2.39810889484456e-01 2.01564996977203e-03
1.38429729729730e+00 2.37582446927682e-01 2.00757031085786e-03
1.39894594594595e+00 2.35374712169993e-01 1.99941106943837e-03
1.41359459459459e+00 2.33187492784262e-01 1.99117580428315e-03
1.42824324324324e+00 2.31020598131460e-01 1.98286797187405e-03
1.44289189189189e+00 2.28873839344091e-01 1.97449092966773e-03
1.45754054054054e+00 2.26747029309713e-01 1.96604793604876e-03
1.47218918918919e+00 2.24639982668707e-01 1.95754216298346e-03
1.48683783783784e+00 2.22552515755497e-01 1.94897669244521e-03
1.50148648648649e+00 2.20484446625545e-01 1.94035451262366e-03
1.51613513513514e+00 2.18435595025031e-01 1.93167853050289e-03
1.53078378378378e+00 2.16405782375133e-01 1.92295157110419e-03
1.54543243243243e+00 2.14394831756462e-01 1.91417637995208e-03
1.56008108108108e+00 2.12402567893669e-01 1.90535562545963e-03
1.57472972972973e+00 2.10428817140147e-01 1.89649189837153e-03
1.58937837837838e+00 2.08473407475015e-01 1.88758772259327e-03
1.60402702702703e+00 2.06536168451461e-01 1.87864555154211e-03
1.61867567567568e+00 2.04616931218866e-01 1.86966776432627e-03
1.63332432432432e+00 2.02715528495658e-01 1.86065667658183e-03
1.64797297297297e+00 2.00831794554702e-01 1.85161453939977e-03
1.66262162162162e+00 1.98965565208905e-01 1.84254354116895e-03
1.67727027027027e+00 1.97116677796879e-01 1.83344580677621e-03
1.69191891891892e+00 1.95284971179417e-01 1.82432340714153e-03
1.70656756756757e+00 1.93470285693221e-01 1.81517835563790e-03
1.72121621621622e+00 1.91672463169490e-01 1.80601260436768e-03
1.73586486486486e+00 1.89891346909204e-01 1.79682805374483e-03
1.75051351351351e+00 1.88126781669459e-01 1.78762655129426e-03
1.76516216216216e+00 1.86378613649943e-01 1.77840989309842e-03
1.77981081081081e+00 1.84646690479545e-01 1.76917982520485e-03
1.79445945945946e+00 1.82930861203057e-01 1.75993804265858e-03
1.80910810810811e+00 1.81230976277270e-01 1.75068619783956e-03
1.82375675675676e+00 1.79546887529963e-01 1.74142589702906e-03
1.83840540540541e+00 1.77878448175198e-01 1.73215869685722e-03
1.85305405405405e+00 1.76225512791041e-01 1.72288611270877e-03
1.86770270270270e+00 1.74587937306885e-01 1.71360961745245e-03
1.88235135135135e+00 1.72965578990907e-01 1.70433064256328e-03
1.89700000000000e+00 1.71358296437618e-01 1.69505057709652e-03
1.91164864864865e+00 1.69765949563731e-01 1.68577077513429e-03
1.92629729729730e+00 1.68188399571173e-01 1.67649255252357e-03
1.94094594594595e+00 1.66625508959967e-01 1.66721718351003e-03
1.95559459459459e+00 1.65077141507859e-01 1.65794590826747e-03
1.97024324324324e+00 1.63543162258425e-01 1.64867993162246e-03
1.98489189189189e+00 1.62023437509332e-01 1.63942042395878e-03
1.99954054054054e+00 1.60517834800677e-01 1.63016852017123e-03
2.01418918918919e+00 1.59026222910718e-01 1.62092532635094e-03
2.02883783783784e+00 1.57548471822423e-01 1.61169191670814e-03
2.04348648648649e+00 1.56084452734334e-01 1.60246933040477e-03
2.05813513513514e+00 1.54634038041877e-01 1.59325857832486e-03
2.07278378378378e+00 1.53197101326241e-01 1.58406064182520e-03
2.08743243243243e+00 1.51773517343357e-01 1.57487647347158e-03
2.10208108108108e+00 1.50363162012993e-01 1.56570699775968e-03
2.11672972972973e+00 1.48965912407932e-01 1.55655311007318e-03
2.13137837837838e+00 1.47581646749641e-01 1.54741568262731e-03
2.14602702702703e+00 1.46210244378350e-01 1.53829556160431e-03
2.16067567567568e+00 1.44851585761998e-01 1.52919356420932e-03
2.17532432432432e+00 1.43505552479277e-01 1.52011048470281e-03
2.18997297297297e+00 1.42172027209299e-01 1.51104709319083e-03
2.20462162162162e+00 1.40850893721388e-01 1.50200413621734e-03
2.21927027027027e+00 1.39542036864941e-01 1.49298233575202e-03
2.23391891891892e+00 1.38245342565094e-01 1.48398239456409e-03
2.24856756756757e+00 1.36960697795535e-01 1.47500499354550e-03
2.26321621621622e+00 1.35687990586035e-01 1.46605078896329e-03
2.27786486486486e+00 1.34427110006846e-01 1.45712041792071e-03
2.29251351351351e+00 1.33177946159032e-01 1.44821449720199e-03
2.30716216216216e+00 1.31940390164894e-01 1.43933362376293e-03
2.32181081081081e+00 1.30714334158478e-01 1.43047837521279e-03
2.33645945945946e+00 1.29499671276177e-01 1.42164930883889e-03
2.35110810810811e+00 1.28296295652444e-01 1.41284696641928e-03
2.36575675675676e+00 1.27104102395353e-01 1.40407187174890e-03
2.38040540540541e+00 1.25922987592787e-01 1.39532452810302e-03
2.39505405405405e+00 1.24752848298234e-01 1.38660542313259e-03
2.40970270270270e+00 1.23593582521806e-01 1.37791502777131e-03
2.42435135135135e+00 1.22445089221362e-01 1.36925379663722e-03
2.43900000000000e+00 1.21307268293693e-01 1.36062216710391e-03
2.45364864864865e+00 1.20180020570315e-01 1.35202056367424e-03
2.46829729729730e+00 1.19063247795171e-01 1.34344939567873e-03
2.48294594594595e+00 1.17956852629831e-01 1.33490905491729e-03
2.49759459459459e+00 1.16860738640379e-01 1.32639992011322e-03
2.51224324324324e+00 1.15774810289008e-01 1.31792235588079e-03
2.52689189189189e+00 1.14698972925696e-01 1.30947671306156e-03
2.54154054054054e+00 1.13633132779960e-01 1.30106332784319e-03
2.55618918918919e+00 1.12577196956734e-01 1.29268252574276e-03
2.57083783783784e+00 1.11531073416011e-01 1.28433461946775e-03
2.58548648648649e+00 1.10494670977175e-01 1.27601990672613e-03
2.60013513513514e+00 1.09467899306911e-01 1.26773867428472e-03
2.61478378378378e+00 1.08450668911319e-01 1.25949119699858e-03
2.62943243243243e+00 1.07442891128124e-01 1.25127773809424e-03
2.64408108108108e+00 1.06444478118944e-01 1.24309854944852e-03
2.65872972972973e+00 1.05455342861636e-01 1.23495387075990e-03
2.67337837837838e+00 1.04475399146313e-01 1.22684393313887e-03
2.68802702702703e+00 1.03504561556938e-01 1.21876895714037e-03
2.70267567567568e+00 1.02542745474855e-01 1.21072915075035e-03
2.71732432432432e+00 1.01589867067727e-01 1.20272471304739e-03
2.73197297297297e+00 1.00645843282225e-01 1.19475583329594e-03
2.74662162162162e+00 9.97105918367941e-02 1.18682269118214e-03
2.76127027027027e+00 9.87840312144830e-02 1.17892545603469e-03
2.77591891891892e+00 9.78660806590819e-02 1.17106429010452e-03
2.79056756756757e+00 9.69566601582707e-02 1.16323934673929e-03
2.80521621621622e+00 9.60556904465345e-02 1.15545076851618e-03
2.81986486486486e+00 9.51630929949328e-02 1.14769869058831e-03
2.83451351351351e+00 9.42787900042531e-02 1.13998323983663e-03
2.84916216216216e+00 9.34027043982325e-02 1.13230453506978e-03
2.86381081081081e+00 9.25347598168402e-02 1.12466268722136e-03
2.87845945945946e+00 9.16748806096206e-02 1.11705779862149e-03
2.89310810810811e+00 9.08229918319925e-02 1.10948996596309e-03
2.90775675675676e+00 8.99790192299729e-02 1.10195927862479e-03
2.92240540540541e+00 8.91428892425153e-02 1.09446581695615e-03
2.93705405405405e+00 8.83145289921386e-02 1.08700965530521e-03
2.95170270270270e+00 8.74938662785736e-02 1.07959086123115e-03
2.96635135135135e+00 8.66808295724742e-02 1.07220949567177e-03
2.98100000000000e+00 8.58753480091802e-02 1.06486561226169e-03
2.99564864864865e+00 8.50773513851568e-02 1.05755926004887e-03
3.01029729729730e+00 8.42867701439697e-02 1.05029048193942e-03
3.02494594594595e+00 8.35035353781879e-02 1.04305931310814e-03
3.03959459459459e+00 8.27275788207025e-02 1.03586578377293e-03
3.05424324324324e+00 8.19588328387744e-02 1.02870991845912e-03
3.06889189189189e+00 8.11972304281430e-02 1.02159173614237e-03
3.08354054054054e+00 8.04427052071852e-02 1.01451124961033e-03
3.09818918918919e+00 7.96951914134964e-02 1.00746846795358e-03
3.11283783783784e+00 7.89546238910027e-02 1.00046339512364e-03
3.12748648648649e+00 7.82209380914919e-02 9.93496028459490e-04
3.14213513513514e+00 7.74940700665654e-02 9.86566361232054e-04
3.15678378378378e+00 7.67739564620646e-02 9.79674381958489e-04
3.17143243243243e+00 7.60605345125483e-02 9.72820074523853e-04
3.18608108108108e+00 7.53537420358245e-02 9.66003418301652e-04
3.20072972972973e+00 7.46535174275289e-02 9.59224387561141e-04
3.21537837837838e+00 7.39597996578739e-02 9.52482953727472e-04
3.23002702702703e+00 7.32725282599271e-02 9.45779084057999e-04
3.24467567567568e+00 7.25916433307907e-02 9.39112740289529e-04
3.25932432432432e+00 7.19170855242145e-02 9.32483880948637e-04
3.27397297297297e+00 7.12487960454212e-02 9.25892460716488e-04
3.28862162162162e+00 7.05867166459858e-02 9.19338430531591e-04
3.30327027027027e+00 6.99307896187564e-02 9.12821737036879e-04
3.31791891891892e+00 6.92809577947469e-02 9.06342324655447e-04
3.33256756756757e+00 6.86371645323449e-02 8.99900134363143e-04
3.34721621621622e+00 6.79993537182270e-02 8.93495102434906e-04
3.36186486486486e+00 6.73674697605028e-02 8.87127162567056e-04
3.37651351351351e+00 6.67414575838683e-02 8.80796245285964e-04
3.39116216216216e+00 6.61212626248069e-02 8.74502278035825e-04
3.40581081081081e+00 6.55068308268341e-02 8.68245185265670e-04
3.42045945945946e+00 6.48981086357851e-02 8.62024887916561e-04
3.43510810810811e+00 6.42950429968703e-02 8.55841305308698e-04
3.44975675675676e+00 6.36975813448430e-02 8.49694354014677e-04
3.46440540540541e+00 6.31056716046641e-02 8.43583946708805e-04
3.47905405405405e+00 6.25192621852018e-02 8.37509994096805e-04
3.49370270270270e+00 6.19383019747337e-02 8.31472404369255e-04
3.50835135135135e+00 6.13627403364940e-02 8.25471083276026e-04
3.52300000000000e+00 6.07925271042591e-02 8.19505933648202e-04
3.53764864864865e+00 6.02276125795418e-02 8.13576857133942e-04
3.55229729729730e+00 5.96679475225242e-02 8.07683753153622e-04
3.56694594594595e+00 5.91134831525362e-02 8.01826517832895e-04
3.58159459459459e+00 5.85641711422018e-02 7.96005045778462e-04
3.59624324324324e+00 5.80199636132263e-02 7.90219229569127e-04
3.61089189189189e+00 5.74808131322245e-02 7.84468959819290e-04
3.62554054054054e+00 5.69466727065860e-02 7.78754124732906e-04
3.64018918918919e+00 5.64174957818054e-02 7.73074611701571e-04
3.65483783783784e+00 5.58932362331147e-02 7.67430306335574e-04
3.66948648648649e+00 5.53738483658044e-02 7.61821091474483e-04
3.68413513513514e+00 5.48592869097830e-02 7.56246848821883e-04
3.69878378378378e+00 5.43495070156306e-02 7.50707458471807e-04
3.71343243243243e+00 5.38444642506903e-02 7.45202798962977e-04
3.72808108108108e+00 5.33441145951964e-02 7.39732747332661e-04
3.74272972972973e+00 5.28484144384363e-02 7.34297178704014e-04
3.75737837837838e+00 5.23573205762330e-02 7.28895967741914e-04
3.77202702702703e+00 5.18707902033026e-02 7.23528987763095e-04
3.78667567567568e+00 5.13887809134280e-02 7.18196109827641e-04
3.80132432432432e+00 5.09112506944519e-02 7.12897204228824e-04
3.81597297297297e+00 5.04381579246138e-02 7.07632140055517e-04
3.83062162162162e+00 4.99694613689242e-02 7.02400785238083e-04
3.84527027027027e+00 4.95051201755699e-02 6.97203006164227e-04
3.85991891891892e+00 4.90450938735219e-02 6.92038669020272e-04
3.87456756756757e+00 4.85893423654756e-02 6.86907638965775e-04
3.88921621621622e+00 4.81378259279143e-02 6.81809779290873e-04
3.90386486486487e+00 4.76905052064517e-02 6.76744952789297e-04
3.91851351351351e+00 4.72473412124017e-02 6.71713021351426e-04
3.93316216216216e+00 4.68082953193807e-02 6.66713846003233e-04
3.94781081081081e+00 4.63733292599409e-02 6.61747286945157e-04
3.96245945945946e+00 4.59424051222347e-02 6.56813203196561e-04
3.97710810810811e+00 4.55154853477638e-02 6.51911453819361e-04
3.99175675675676e+00 4.50925327249221e-02 6.47041897159758e-04
4.00640540540541e+00 4.46735103889591e-02 6.42204390074273e-04
4.02105405405405e+00 4.42583818176894e-02 6.37398789182287e-04
4.03570270270270e+00 4.38471108283096e-02 6.32624950490412e-04
4.05035135135135e+00 4.34396615742458e-02 6.27882729425368e-04
4.06500000000000e+00 4.30359985420278e-02 6.23171980503040e-04
4.07964864864865e+00 4.26360865491562e-02 6.18492558457084e-04
4.09429729729730e+00 4.22398907381300e-02 6.13844317535349e-04
4.10894594594595e+00 4.18473765763346e-02 6.09227110781677e-04
4.12359459459459e+00 4.14585098520498e-02 6.04640791191558e-04
4.13824324324324e+00 4.10732566714672e-02 6.00085211362533e-04
4.15289189189189e+00 4.06915834557369e-02 5.95560223521999e-04
4.16754054054054e+00 4.03134569380406e-02 5.91065679218829e-04
4.18218918918919e+00 3.99388441615702e-02 5.86601430365004e-04
4.19683783783784e+00 3.95677124740012e-02 5.82167328582549e-04
4.21148648648649e+00 3.92000295273199e-02 5.77763224537071e-04
4.22613513513514e+00 3.88357632741064e-02 5.73388969004353e-04
4.24078378378378e+00 3.84748819647413e-02 5.69044412545123e-04
4.25543243243243e+00 3.81173541446381e-02 5.64729405528498e-04
4.27008108108108e+00 3.77631486515026e-02 5.60443798155384e-04
4.28472972972973e+00 3.74122346126159e-02 5.56187440173469e-04
4.29937837837838e+00 3.70645814429372e-02 5.51960181828689e-04
4.31402702702703e+00 3.67201588400411e-02 5.47761873265030e-04
4.32867567567568e+00 3.63789367838901e-02 5.43592363911995e-04
4.34332432432432e+00 3.60408855334081e-02 5.39451503459129e-04
4.35797297297297e+00 3.57059756238870e-02 5.35339141555734e-04
4.37262162162162e+00 3.53741778644204e-02 5.31255127830426e-04
4.38727027027027e+00 3.50454633353580e-02 5.27199311625827e-04
4.40191891891892e+00 3.47198033865111e-02 5.23171542877239e-04
4.41656756756757e+00 3.43971696324628e-02 5.19171671555398e-04
4.43121621621622e+00 3.40775339523021e-02 5.15199547097931e-04
4.44586486486487e+00 3.37608684864314e-02 5.11255019309408e-04
4.46051351351351e+00 3.34471456341381e-02 5.07337938081943e-04
4.47516216216216e+00 3.31363380511893e-02 5.03448153411627e-04
4.48981081081081e+00 3.28284186474486e-02 4.99585515414733e-04
4.50445945945946e+00 3.25233605845143e-02 4.95749874082491e-04
4.51910810810811e+00 3.22211372740370e-02 4.91941080084454e-04
4.53375675675676e+00 3.19217223734193e-02 4.88158984256082e-04
4.54840540540541e+00 3.16250897855162e-02 4.84403437076183e-04
4.56305405405405e+00 3.13312136556905e-02 4.80674289489773e-04
4.57770270270270e+00 3.10400683695587e-02 4.76971392650220e-04
4.59235135135135e+00 3.07516285507594e-02 4.73294597932835e-04
4.60700000000000e+00 3.04658690587409e-02 4.69643756706469e-04
4.62164864864865e+00 3.01827649871709e-02 4.66018721075925e-04
