Energy (eV)          EEDF (eV^-(3/2))     First Anisotropy
5.16666666666667e-02 3.61697229378542e-02 2.35781584259716e-05
1.55000000000000e-01 3.57932115096056e-02 3.88622440666009e-05
2.58333333333333e-01 3.54206194034370e-02 5.11121865648979e-05
3.61666666666667e-01 3.50519058235729e-02 6.03035122076509e-05
4.65000000000000e-01 3.46870303954665e-02 6.78745703548936e-05
5.68333333333333e-01 3.43259531648261e-02 7.43720643437103e-05
6.71666666666667e-01 3.39686345948244e-02 8.00803376938919e-05
7.75000000000000e-01 3.36150355592770e-02 8.51719390299141e-05
8.78333333333333e-01 3.32651173389655e-02 8.97618578528167e-05
9.81666666666667e-01 3.29188416186247e-02 9.39317538767669e-05
1.08500000000000e+00 3.25761704822458e-02 9.77423611999791e-05
1.18833333333333e+00 3.22370664045421e-02 1.01240470282614e-04
1.29166666666667e+00 3.19014922570899e-02 1.04463146251084e-04
1.39500000000000e+00 3.15694112945309e-02 1.07440420334855e-04
1.49833333333333e+00 3.12407871519556e-02 1.10197081706045e-04
1.60166666666667e+00 3.09155838477002e-02 1.12753916521324e-04
1.70500000000000e+00 3.05937657721138e-02 1.15128589651751e-04
1.80833333333333e+00 3.02752976845487e-02 1.17336286775167e-04
1.91166666666667e+00 2.99601447149245e-02 1.19390194727939e-04
2.01500000000000e+00 2.96482723541517e-02 1.21301866733004e-04
2.11833333333333e+00 2.93396464509638e-02 1.23081503436321e-04
2.22166666666667e+00 2.90342332126501e-02 1.24738174642765e-04
2.32500000000000e+00 2.87319991966481e-02 1.26279995614559e-04
2.42833333333333e+00 2.84329113073252e-02 1.27714267709044e-04
2.53166666666667e+00 2.81369367961268e-02 1.29047593869269e-04
2.63500000000000e+00 2.78440432540450e-02 1.30285973463398e-04
2.73833333333333e+00 2.75541986084062e-02 1.31434879759955e-04
2.84166666666667e+00 2.72673711225945e-02 1.32499325673282e-04
2.94500000000000e+00 2.69835293892082e-02 1.33483919091753e-04
3.04833333333333e+00 2.67026423268843e-02 1.34392908751832e-04
3.15166666666667e+00 2.64246791797066e-02 1.35230224316346e-04
3.25500000000000e+00 2.61496095109214e-02 1.35999510757603e-04
3.35833333333333e+00 2.58774031998160e-02 1.36704157085883e-04
3.46166666666667e+00 2.56080304408901e-02 1.37347322149198e-04
3.56500000000000e+00 2.53414617380374e-02 1.37931957113172e-04
3.66833333333333e+00 2.50776679014897e-02 1.38460824272880e-04
3.77166666666667e+00 2.48166200468076e-02 1.38936514417285e-04
3.87500000000000e+00 2.45582895894607e-02 1.39361462154069e-04
3.97833333333333e+00 2.43026482418409e-02 1.39737958681489e-04
4.08166666666667e+00 2.40496680121184e-02 1.40068163917922e-04
4.18500000000000e+00 2.37993211991647e-02 1.40354117322082e-04
4.28833333333333e+00 2.35515803896414e-02 1.40597746825750e-04
4.39166666666667e+00 2.33064184567520e-02 1.40800877578114e-04
4.49500000000000e+00 2.30638085554682e-02 1.40965239817616e-04
4.59833333333333e+00 2.28237241196942e-02 1.41092475275593e-04
4.70166666666667e+00 2.25861388609410e-02 1.41184143653680e-04
4.80500000000000e+00 2.23510267638224e-02 1.41241728500790e-04
4.90833333333333e+00 2.21183620832948e-02 1.41266641899299e-04
5.01166666666667e+00 2.18881193432758e-02 1.41260229378049e-04
5.11500000000000e+00 2.16602733323805e-02 1.41223774400260e-04
5.21833333333333e+00 2.14347991012386e-02 1.41158501852710e-04
5.32166666666667e+00 2.12116719610714e-02 1.41065581850375e-04
5.42500000000000e+00 2.09908674796479e-02 1.40946133232617e-04
5.52833333333333e+00 2.07723614786769e-02 1.40801226198998e-04
5.63166666666667e+00 2.05561300323561e-02 1.40631885310395e-04
5.73500000000000e+00 2.03421494635285e-02 1.40439092261227e-04
5.83833333333333e+00 2.01303963411483e-02 1.40223787894838e-04
5.94166666666667e+00 1.99208474788138e-02 1.39986874610013e-04
6.04500000000000e+00 1.97134799311061e-02 1.39729218594193e-04
6.14833333333333e+00 1.95082709911290e-02 1.39451651379959e-04
6.25166666666667e+00 1.93051981890328e-02 1.39154971803350e-04
6.35500000000000e+00 1.91042392885224e-02 1.38839947828612e-04
6.45833333333333e+00 1.89053722844693e-02 1.38507317760053e-04
6.56166666666667e+00 1.87085754014332e-02 1.38157791856939e-04
6.66500000000000e+00 1.85138270903273e-02 1.37792053843691e-04
6.76833333333333e+00 1.83211060261008e-02 1.37410761859457e-04
6.87166666666667e+00 1.81303911062643e-02 1.37014549805815e-04
6.97500000000000e+00 1.79416614477014e-02 1.36604028611255e-04
7.07833333333333e+00 1.77548963844195e-02 1.36179786978724e-04
7.18166666666667e+00 1.75700754660843e-02 1.35742392522646e-04
7.28500000000000e+00 1.73871784549680e-02 1.35292392838843e-04
7.38833333333333e+00 1.72061853237669e-02 1.34830316094815e-04
7.49166666666667e+00 1.70270762541486e-02 1.34356671998527e-04
7.59500000000000e+00 1.68498316338279e-02 1.33871952712424e-04
7.69833333333333e+00 1.66744320544505e-02 1.33376633320167e-04
7.80166666666667e+00 1.65008583101551e-02 1.32871172659505e-04
7.90500000000000e+00 1.63290913947703e-02 1.32356014109924e-04
8.00833333333333e+00 1.61591124997611e-02 1.31831585961523e-04
8.11166666666667e+00 1.59909030128103e-02 1.31298302136932e-04
8.21500000000000e+00 1.58244445151284e-02 1.30756562875465e-04
8.31833333333333e+00 1.56597187794616e-02 1.30206755023927e-04
8.42166666666667e+00 1.54967077686945e-02 1.29649252667039e-04
8.52500000000000e+00 1.53353936332661e-02 1.29084417726044e-04
8.62833333333333e+00 1.51757587092391e-02 1.28512600186785e-04
8.73166666666667e+00 1.50177855169237e-02 1.27934138654020e-04
8.83500000000000e+00 1.48614567583962e-02 1.27349360878665e-04
8.93833333333333e+00 1.47067553156253e-02 1.26758583935223e-04
9.04166666666667e+00 1.45536642491210e-02 1.26162114712223e-04
9.14500000000000e+00 1.44021667955479e-02 1.25560250379448e-04
9.24833333333333e+00 1.42522463659097e-02 1.24953278524242e-04
9.35166666666667e+00 1.41038865442214e-02 1.24341477587943e-04
9.45500000000000e+00 1.39570710852150e-02 1.23725117282228e-04
9.55833333333333e+00 1.38117839125787e-02 1.23104458691926e-04
9.66166666666667e+00 1.36680091176546e-02 1.22479754665423e-04
9.76500000000000e+00 1.35257309572311e-02 1.21851250187575e-04
9.86833333333333e+00 1.33849338518358e-02 1.21219182455133e-04
9.97166666666667e+00 1.32456023844597e-02 1.20583781140218e-04
1.00750000000000e+01 1.31077212988381e-02 1.19945269164004e-04
1.01783333333333e+01 1.29712754957620e-02 1.19303861960982e-04
1.02816666666667e+01 1.28362500359002e-02 1.18659768144723e-04
1.03850000000000e+01 1.27026301340595e-02 1.18013190685192e-04
1.04883333333333e+01 1.25704011577077e-02 1.17364325380316e-04
1.05916666666667e+01 1.24395486291710e-02 1.16713361926292e-04
1.06950000000000e+01 1.23100582201904e-02 1.16060484937123e-04
1.07983333333333e+01 1.21819157504847e-02 1.15405872471786e-04
1.09016666666667e+01 1.20551071897735e-02 1.14749697043047e-04
1.10050000000000e+01 1.19296186526104e-02 1.14092126579181e-04
1.11083333333333e+01 1.18054363969854e-02 1.13433323005621e-04
1.12116666666667e+01 1.16825468261877e-02 1.12773443197352e-04
1.13150000000000e+01 1.15609364838988e-02 1.12112639887545e-04
1.14183333333333e+01 1.14405920528323e-02 1.11451060302332e-04
1.15216666666667e+01 1.13215003564505e-02 1.10788847061258e-04
1.16250000000000e+01 1.12036483543004e-02 1.10126139036981e-04
1.17283333333333e+01 1.10870231406908e-02 1.09463070041681e-04
1.18316666666667e+01 1.09716119462743e-02 1.08799769679526e-04
1.19350000000000e+01 1.08574021336110e-02 1.08136364161097e-04
1.20383333333333e+01 1.07443811958824e-02 1.07472975039876e-04
1.21416666666667e+01 1.06325367583498e-02 1.06809720020240e-04
1.22450000000000e+01 1.05218565741309e-02 1.06146713729882e-04
1.23483333333333e+01 1.04123285229511e-02 1.05484066504713e-04
1.24516666666667e+01 1.03039406124867e-02 1.04821885155560e-04
1.25550000000000e+01 1.01966809743434e-02 1.04160273701498e-04
1.26583333333333e+01 1.00905378628422e-02 1.03499332201525e-04
1.27616666666667e+01 9.98549965625811e-03 1.02839157482754e-04
1.28650000000000e+01 9.88155485298741e-03 1.02179843837330e-04
1.29683333333333e+01 9.77869207036844e-03 1.01521481899189e-04
1.30716666666667e+01 9.67690004582313e-03 1.00864159336300e-04
1.31750000000000e+01 9.57616763320284e-03 1.00207961513536e-04
1.32783333333333e+01 9.47648380164273e-03 9.95529704128810e-05
1.33816666666667e+01 9.37783763661386e-03 9.88992652920275e-05
1.34850000000000e+01 9.28021833643730e-03 9.82469233153573e-05
1.35883333333333e+01 9.18361521117148e-03 9.75960185159813e-05
1.36916666666667e+01 9.08801768358157e-03 9.69466224227886e-05
1.37950000000000e+01 8.99341528581257e-03 9.62988046614937e-05
1.38983333333333e+01 8.89979765830872e-03 9.56526319569062e-05
1.40016666666667e+01 8.80715455070663e-03 9.50081687303784e-05
1.41050000000000e+01 8.71547581865839e-03 9.43654776727220e-05
1.42083333333333e+01 8.62475142278245e-03 9.37246187851388e-05
1.43116666666667e+01 8.53497142948607e-03 9.30856499488084e-05
1.44150000000000e+01 8.44612600793050e-03 9.24486274713424e-05
1.45183333333333e+01 8.35820542901245e-03 9.18136051648627e-05
1.46216666666667e+01 8.27120006612114e-03 9.11806348893512e-05
1.47250000000000e+01 8.18510039223804e-03 9.05497670741479e-05
1.48283333333333e+01 8.09989697894805e-03 8.99210498317201e-05
1.49316666666667e+01 8.01558049713613e-03 8.92945294762663e-05
1.50350000000000e+01 7.93214171421443e-03 8.86702510216488e-05
1.51383333333333e+01 7.84957149316247e-03 8.80482573294421e-05
1.52416666666667e+01 7.76786079316780e-03 8.74285896041692e-05
1.53450000000000e+01 7.68700066697389e-03 8.68112878689684e-05
1.54483333333333e+01 7.60698225994861e-03 8.61963901465509e-05
1.55516666666667e+01 7.52779681067295e-03 8.55839329323323e-05
1.56550000000000e+01 7.44943564840363e-03 8.49739516490451e-05
1.57583333333333e+01 7.37189019216890e-03 8.43664798592912e-05
1.58616666666667e+01 7.29515195130942e-03 8.37615497177564e-05
1.59650000000000e+01 7.21921252304950e-03 8.31591924058806e-05
1.60683333333333e+01 7.14406359161974e-03 8.25594373747277e-05
1.61716666666667e+01 7.06969692875335e-03 8.19623127773963e-05
1.62750000000000e+01 6.99610439136074e-03 8.13678458847797e-05
1.63783333333333e+01 6.92327792067819e-03 8.07760623575458e-05
1.64816666666667e+01 6.85120954272290e-03 8.01869866597527e-05
1.65850000000000e+01 6.77989136606587e-03 7.96006424566799e-05
1.66883333333333e+01 6.70931558100574e-03 7.90170519147455e-05
1.67916666666667e+01 6.63947445998574e-03 7.84362360972931e-05
1.68950000000000e+01 6.57036035545987e-03 7.78582153453931e-05
1.69983333333333e+01 6.50196569909142e-03 7.72830086045723e-05
1.71016666666667e+01 6.43428300213441e-03 7.67106338036628e-05
1.72050000000000e+01 6.36730485338871e-03 7.61411082194270e-05
1.73083333333333e+01 6.30102391842243e-03 7.55744478290294e-05
1.74116666666667e+01 6.23543293992049e-03 7.50106676727845e-05
1.75150000000000e+01 6.17052473572440e-03 7.44497822033993e-05
1.76183333333333e+01 6.10629219807784e-03 7.38918046631414e-05
1.77216666666667e+01 6.04272829394479e-03 7.33367474312908e-05
1.78250000000000e+01 5.97982606312989e-03 7.27846223587334e-05
1.79283333333333e+01 5.91757861754662e-03 7.22354401688395e-05
1.80316666666667e+01 5.85597914150715e-03 7.16892107903583e-05
1.81350000000000e+01 5.79502088991951e-03 7.11459436780753e-05
1.82383333333333e+01 5.73469718757776e-03 7.06056472364433e-05
1.83416666666667e+01 5.67500142942553e-03 7.00683291386042e-05
1.84450000000000e+01 5.61592707882655e-03 6.95339966337829e-05
1.85483333333333e+01 5.55746766687602e-03 6.90026559927594e-05
1.86516666666667e+01 5.49961679263992e-03 6.84743128136770e-05
1.87550000000000e+01 5.44236812149536e-03 6.79489723167813e-05
1.88583333333333e+01 5.38571538446268e-03 6.74266388108709e-05
1.89616666666667e+01 5.32965237842217e-03 6.69073159865129e-05
1.90650000000000e+01 5.27417296452116e-03 6.63910071987065e-05
1.91683333333333e+01 5.21927106752614e-03 6.58777149534803e-05
1.92716666666667e+01 5.16494067601865e-03 6.53674411890958e-05
1.93750000000000e+01 5.11117584086598e-03 6.48601875471987e-05
1.94783333333333e+01 5.05797067459279e-03 6.43559548787468e-05
1.95816666666667e+01 5.00531935155771e-03 6.38547435137650e-05
1.96850000000000e+01 4.95321610648468e-03 6.33565535215021e-05
1.97883333333333e+01 4.90165523385371e-03 6.28613842349256e-05
1.98916666666667e+01 4.85063108805930e-03 6.23692345095425e-05
1.99950000000000e+01 4.80013808200007e-03 6.18801029730600e-05
2.00983333333333e+01 4.75017068648777e-03 6.13939875677211e-05
2.02016666666667e+01 4.70072343038910e-03 6.09108857986709e-05
2.03050000000000e+01 4.65179089927090e-03 6.04307949735989e-05
2.04083333333333e+01 4.60336773482691e-03 5.99537117622056e-05
2.05116666666667e+01 4.55544863500429e-03 5.94796324345883e-05
2.06150000000000e+01 4.50802835270176e-03 5.90085530913081e-05
2.07183333333333e+01 4.46110169521381e-03 5.85404692393035e-05
2.08216666666667e+01 4.41466352434283e-03 5.80753760207407e-05
2.09250000000000e+01 4.36870875514813e-03 5.76132684339303e-05
2.10283333333333e+01 4.32323235540682e-03 5.71541409250431e-05
2.11316666666667e+01 4.27822934571289e-03 5.66979876078502e-05
2.12350000000000e+01 4.23369479827464e-03 5.62448024758754e-05
2.13383333333333e+01 4.18962383639198e-03 5.57945790093006e-05
2.14416666666667e+01 4.14601163454323e-03 5.53473103859942e-05
2.15450000000000e+01 4.10285341722903e-03 5.49029896852800e-05
2.16483333333333e+01 4.06014445846554e-03 5.44616095094377e-05
2.17516666666667e+01 4.01788008185979e-03 5.40231621863889e-05
2.18550000000000e+01 3.97605565949823e-03 5.35876399654495e-05
2.19583333333333e+01 3.93466661145520e-03 5.31550346528595e-05
2.20616666666667e+01 3.89370840585789e-03 5.27253378064901e-05
2.21650000000000e+01 3.85317655781742e-03 5.22985409239220e-05
2.22683333333333e+01 3.81306662895227e-03 5.18746350914509e-05
2.23716666666667e+01 3.77337422744354e-03 5.14536111711535e-05
2.24750000000000e+01 3.73409500700690e-03 5.10354599816223e-05
2.25783333333333e+01 3.69522466643041e-03 5.06201719599245e-05
2.26816666666667e+01 3.65675894962094e-03 5.02077373413586e-05
2.27850000000000e+01 3.61869364461514e-03 4.97981463331558e-05
2.28883333333333e+01 3.58102458313133e-03 4.93913887888867e-05
2.29916666666667e+01 3.54374764060769e-03 4.89874543812139e-05
2.30950000000000e+01 3.50685873525068e-03 4.85863327688566e-05
2.31983333333333e+01 3.47035382760060e-03 4.81880132829679e-05
2.33016666666667e+01 3.43422892056211e-03 4.77924850931780e-05
2.34050000000000e+01 3.39848005848863e-03 4.73997373681019e-05
2.35083333333333e+01 3.36310332676107e-03 4.70097589732286e-05
2.36116666666667e+01 3.32809485181139e-03 4.66225386305372e-05
2.37150000000000e+01 3.29345080024141e-03 4.62380650728109e-05
2.38183333333333e+01 3.25916737841438e-03 4.58563267525950e-05
2.39216666666667e+01 3.22524083247210e-03 4.54773119956553e-05
2.40250000000000e+01 3.19166744748670e-03 4.51010091493625e-05
2.41283333333333e+01 3.15844354706476e-03 4.47274063022882e-05
2.42316666666667e+01 3.12556549335837e-03 4.43564914317559e-05
2.43350000000000e+01 3.09302968624873e-03 4.39882525465409e-05
2.44383333333333e+01 3.06083256296223e-03 4.36226774167030e-05
2.45416666666667e+01 3.02897059807612e-03 4.32597537154776e-05
2.46450000000000e+01 2.99744030273250e-03 4.28994691565205e-05
2.47483333333333e+01 2.96623822426606e-03 4.25418112335805e-05
2.48516666666667e+01 2.93536094620485e-03 4.21867673569598e-05
2.49550000000000e+01 2.90480508751335e-03 4.18343249855315e-05
2.50583333333333e+01 2.87456730223163e-03 4.14844713758861e-05
2.51616666666667e+01 2.84464427947150e-03 4.11371937135804e-05
2.52650000000000e+01 2.81503274268761e-03 4.07924792401332e-05
2.53683333333333e+01 2.78572944932762e-03 4.04503150112825e-05
2.54716666666667e+01 2.75673119082413e-03 4.01106880232442e-05
2.55750000000000e+01 2.72803479189272e-03 3.97735853348865e-05
2.56783333333333e+01 2.69963711019275e-03 3.94389938347485e-05
2.57816666666667e+01 2.67153503631552e-03 3.91069003625129e-05
2.58850000000000e+01 2.64372549310807e-03 3.87772918265552e-05
2.59883333333333e+01 2.61620543534439e-03 3.84501549793976e-05
2.60916666666667e+01 2.58897184971005e-03 3.81254765345779e-05
2.61950000000000e+01 2.56202175415085e-03 3.78032432797623e-05
2.62983333333333e+01 2.53535219755401e-03 3.74834418603166e-05
2.64016666666667e+01 2.50896025972967e-03 3.71660588917599e-05
2.65050000000000e+01 2.48284305078338e-03 3.68510810686198e-05
2.66083333333333e+01 2.45699771080698e-03 3.65384949558073e-05
2.67116666666667e+01 2.43142140985727e-03 3.62282870968333e-05
2.68150000000000e+01 2.40611134735134e-03 3.59204441185778e-05
2.69183333333333e+01 2.38106475176695e-03 3.56149525301804e-05
2.70216666666667e+01 2.35627888061856e-03 3.53117988271877e-05
2.71250000000000e+01 2.33175101987467e-03 3.50109695923899e-05
2.72283333333333e+01 2.30747848366734e-03 3.47124513019492e-05
2.73316666666667e+01 2.28345861426589e-03 3.44162304256402e-05
2.74350000000000e+01 2.25968878151535e-03 3.41222935239154e-05
2.75383333333333e+01 2.23616638255492e-03 3.38306270609918e-05
2.76416666666667e+01 2.21288884178950e-03 3.35412175013410e-05
2.77450000000000e+01 2.18985361034850e-03 3.32540514031351e-05
2.78483333333333e+01 2.16705816581285e-03 3.29691152380336e-05
2.79516666666667e+01 2.14450001218471e-03 3.26863954840679e-05
2.80550000000000e+01 2.12217667936578e-03 3.24058787156062e-05
2.81583333333333e+01 2.10008572289267e-03 3.21275514295948e-05
2.82616666666667e+01 2.07822472390491e-03 3.18514001349794e-05
2.83650000000000e+01 2.05659128864202e-03 3.15774114393257e-05
2.84683333333333e+01 2.03518304818705e-03 3.13055718812744e-05
2.85716666666667e+01 2.01399765843303e-03 3.10358680166346e-05
2.86750000000000e+01 1.99303279959813e-03 3.07682865017906e-05
2.87783333333333e+01 1.97228617597703e-03 3.05028139321389e-05
2.88816666666667e+01 1.95175551590605e-03 3.02394369249854e-05
2.89850000000000e+01 1.93143857129572e-03 2.99781421998630e-05
2.90883333333333e+01 1.91133311738973e-03 2.97189164227294e-05
2.91916666666667e+01 1.89143695272889e-03 2.94617462857932e-05
2.92950000000000e+01 1.87174789870045e-03 2.92066185848608e-05
2.93983333333333e+01 1.85226379930439e-03 2.89535200690837e-05
2.95016666666667e+01 1.83298252111642e-03 2.87024375178295e-05
2.96050000000000e+01 1.81390195285333e-03 2.84533578151765e-05
2.97083333333333e+01 1.79502000514647e-03 2.82062678050021e-05
2.98116666666667e+01 1.77633461050387e-03 2.79611543650171e-05
2.99150000000000e+01 1.75784372289106e-03 2.77180044785174e-05
3.00183333333333e+01 1.73954531751151e-03 2.74768050946169e-05
3.01216666666667e+01 1.72143739076797e-03 2.72375431995542e-05
3.02250000000000e+01 1.70351795985821e-03 2.70002058858023e-05
3.03283333333333e+01 1.68578506256219e-03 2.67647802172624e-05
3.04316666666667e+01 1.66823675720278e-03 2.65312532979448e-05
3.05350000000000e+01 1.65087112225580e-03 2.62996123385440e-05
3.06383333333333e+01 1.63368625614377e-03 2.60698445264061e-05
3.07416666666667e+01 1.61668027719607e-03 2.58419370916846e-05
3.08450000000000e+01 1.59985132327280e-03 2.56158773714786e-05
3.09483333333333e+01 1.58319755156485e-03 2.53916526844010e-05
3.10516666666667e+01 1.56671713855365e-03 2.51692503943079e-05
3.11550000000000e+01 1.55040827964834e-03 2.49486579720877e-05
3.12583333333333e+01 1.53426918899191e-03 2.47298628746596e-05
3.13616666666667e+01 1.51829809942071e-03 2.45128526063738e-05
3.14650000000000e+01 1.50249326211436e-03 2.42976147785418e-05
3.15683333333333e+01 1.48685294640785e-03 2.40841369927053e-05
3.16716666666667e+01 1.47137543975083e-03 2.38724068997930e-05
3.17750000000000e+01 1.45605904736983e-03 2.36624122574760e-05
3.18783333333333e+01 1.44090209208612e-03 2.34541408175560e-05
3.19816666666667e+01 1.42590291427485e-03 2.32475803829579e-05
3.20850000000000e+01 1.41105987153916e-03 2.30427188629986e-05
3.21883333333333e+01 1.39637133853359e-03 2.28395441647406e-05
3.22916666666667e+01 1.38183570692319e-03 2.26380442479062e-05
3.23950000000000e+01 1.36745138506899e-03 2.24382071781383e-05
3.24983333333333e+01 1.35321679785691e-03 2.22400210221712e-05
3.26016666666667e+01 1.33913038665678e-03 2.20434739007491e-05
