Energy (eV)          EEDF (eV^-(3/2))     First Anisotropy
7.08730158730159e-05 2.70715413223814e+02 0.00000000000000e+00
2.12619047619048e-04 2.69235143315383e+02 0.00000000000000e+00
3.54365079365079e-04 2.67762967512116e+02 0.00000000000000e+00
4.96111111111111e-04 2.66298841555442e+02 0.00000000000000e+00
6.37857142857143e-04 2.64842721428847e+02 0.00000000000000e+00
7.79603174603175e-04 2.63394563356506e+02 0.00000000000000e+00
9.21349206349206e-04 2.61954323801963e+02 0.00000000000000e+00
1.06309523809524e-03 2.60521959466819e+02 0.00000000000000e+00
1.20484126984127e-03 2.59097427289430e+02 0.00000000000000e+00
1.34658730158730e-03 2.57680684443616e+02 0.00000000000000e+00
1.48833333333333e-03 2.56271688337368e+02 0.00000000000000e+00
1.63007936507936e-03 2.54870396611569e+02 0.00000000000000e+00
1.77182539682540e-03 2.53476767138725e+02 0.00000000000000e+00
1.91357142857143e-03 2.52090758021690e+02 0.00000000000000e+00
2.05531746031746e-03 2.50712327592416e+02 0.00000000000000e+00
2.19706349206349e-03 2.49341434410692e+02 0.00000000000000e+00
2.33880952380952e-03 2.47978037262903e+02 0.00000000000000e+00
2.48055555555556e-03 2.46622095160792e+02 0.00000000000000e+00
2.62230158730159e-03 2.45273567340221e+02 0.00000000000000e+00
2.76404761904762e-03 2.43932413259955e+02 0.00000000000000e+00
2.90579365079365e-03 2.42598592600434e+02 0.00000000000000e+00
3.04753968253968e-03 2.41272065262567e+02 0.00000000000000e+00
3.18928571428571e-03 2.39952791366524e+02 0.00000000000000e+00
3.33103174603175e-03 2.38640731250539e+02 0.00000000000000e+00
3.47277777777778e-03 2.37335845469715e+02 0.00000000000000e+00
3.61452380952381e-03 2.36038094794839e+02 0.00000000000000e+00
3.75626984126984e-03 2.34747440211203e+02 0.00000000000000e+00
3.89801587301587e-03 2.33463842917433e+02 0.00000000000000e+00
4.03976190476190e-03 2.32187264324319e+02 0.00000000000000e+00
4.18150793650794e-03 2.30917666053657e+02 0.00000000000000e+00
4.32325396825397e-03 2.29655009937094e+02 0.00000000000000e+00
4.46500000000000e-03 2.28399258014983e+02 0.00000000000000e+00
4.60674603174603e-03 2.27150372535238e+02 0.00000000000000e+00
4.74849206349206e-03 2.25908315952203e+02 0.00000000000000e+00
4.89023809523810e-03 2.24673050925519e+02 0.00000000000000e+00
5.03198412698413e-03 2.23444540319008e+02 0.00000000000000e+00
5.17373015873016e-03 2.22222747199547e+02 0.00000000000000e+00
5.31547619047619e-03 2.21007634835966e+02 0.00000000000000e+00
5.45722222222222e-03 2.19799166697943e+02 0.00000000000000e+00
5.59896825396825e-03 2.18597306454898e+02 0.00000000000000e+00
5.74071428571429e-03 2.17402017974911e+02 0.00000000000000e+00
5.88246031746032e-03 2.16213265323630e+02 0.00000000000000e+00
6.02420634920635e-03 2.15031012763189e+02 0.00000000000000e+00
6.16595238095238e-03 2.13855224751141e+02 0.00000000000000e+00
6.30769841269841e-03 2.12685865939381e+02 0.00000000000000e+00
6.44944444444444e-03 2.11522901173089e+02 0.00000000000000e+00
6.59119047619048e-03 2.10366295489672e+02 0.00000000000000e+00
6.73293650793651e-03 2.09216014117709e+02 0.00000000000000e+00
6.87468253968254e-03 2.08072022475912e+02 0.00000000000000e+00
7.01642857142857e-03 2.06934286172083e+02 0.00000000000000e+00
7.15817460317460e-03 2.05802771002079e+02 0.00000000000000e+00
7.29992063492063e-03 2.04677442948786e+02 0.00000000000000e+00
7.44166666666667e-03 2.03558268181094e+02 0.00000000000000e+00
7.58341269841270e-03 2.02445213052882e+02 0.00000000000000e+00
7.72515873015873e-03 2.01338244102007e+02 0.00000000000000e+00
7.86690476190476e-03 2.00237328049295e+02 0.00000000000000e+00
8.00865079365079e-03 1.99142431797542e+02 0.00000000000000e+00
8.15039682539682e-03 1.98053522430522e+02 0.00000000000000e+00
8.29214285714286e-03 1.96970567211992e+02 0.00000000000000e+00
8.43388888888889e-03 1.95893533584712e+02 0.00000000000000e+00
8.57563492063492e-03 1.94822389169462e+02 0.00000000000000e+00
8.71738095238095e-03 1.93757101764077e+02 0.00000000000000e+00
8.85912698412698e-03 1.92697639342466e+02 0.00000000000000e+00
9.00087301587302e-03 1.91643970053663e+02 0.00000000000000e+00
9.14261904761905e-03 1.90596062220859e+02 0.00000000000000e+00
9.28436507936508e-03 1.89553884340454e+02 0.00000000000000e+00
9.42611111111111e-03 1.88517405081110e+02 0.00000000000000e+00
9.56785714285714e-03 1.87486593282810e+02 0.00000000000000e+00
9.70960317460317e-03 1.86461417955917e+02 0.00000000000000e+00
9.85134920634921e-03 1.85441848280247e+02 0.00000000000000e+00
9.99309523809524e-03 1.84427853604139e+02 0.00000000000000e+00
1.01348412698413e-02 1.83419403443537e+02 0.00000000000000e+00
1.02765873015873e-02 1.82416467481070e+02 0.00000000000000e+00
1.04183333333333e-02 1.81419015565143e+02 0.00000000000000e+00
1.05600793650794e-02 1.80427017709029e+02 0.00000000000000e+00
1.07018253968254e-02 1.79440444089969e+02 0.00000000000000e+00
1.08435714285714e-02 1.78459265048275e+02 0.00000000000000e+00
1.09853174603175e-02 1.77483451086436e+02 0.00000000000000e+00
1.11270634920635e-02 1.76512972868235e+02 0.00000000000000e+00
1.12688095238095e-02 1.75547801217865e+02 0.00000000000000e+00
1.14105555555556e-02 1.74587907119051e+02 0.00000000000000e+00
1.15523015873016e-02 1.73633261714180e+02 0.00000000000000e+00
1.16940476190476e-02 1.72683836303432e+02 0.00000000000000e+00
1.18357936507937e-02 1.71739602343916e+02 0.00000000000000e+00
1.19775396825397e-02 1.70800531448815e+02 0.00000000000000e+00
1.21192857142857e-02 1.69866595386531e+02 0.00000000000000e+00
1.22610317460317e-02 1.68937766079836e+02 0.00000000000000e+00
1.24027777777778e-02 1.68014015605026e+02 0.00000000000000e+00
1.25445238095238e-02 1.67095316191086e+02 0.00000000000000e+00
1.26862698412698e-02 1.66181640218851e+02 0.00000000000000e+00
1.28280158730159e-02 1.65272960220181e+02 0.00000000000000e+00
1.29697619047619e-02 1.64369248877126e+02 0.00000000000000e+00
1.31115079365079e-02 1.63470479021115e+02 0.00000000000000e+00
1.32532539682540e-02 1.62576623632132e+02 0.00000000000000e+00
1.33950000000000e-02 1.61687655837908e+02 0.00000000000000e+00
1.35367460317460e-02 1.60803548913109e+02 0.00000000000000e+00
1.36784920634921e-02 1.59924276278538e+02 0.00000000000000e+00
1.38202380952381e-02 1.59049811500330e+02 0.00000000000000e+00
1.39619841269841e-02 1.58180128289162e+02 0.00000000000000e+00
1.41037301587302e-02 1.57315200499460e+02 0.00000000000000e+00
1.42454761904762e-02 1.56455002128614e+02 0.00000000000000e+00
1.43872222222222e-02 1.55599507316197e+02 0.00000000000000e+00
1.45289682539683e-02 1.54748690343184e+02 0.00000000000000e+00
1.46707142857143e-02 1.53902525631185e+02 0.00000000000000e+00
1.48124603174603e-02 1.53060987741670e+02 0.00000000000000e+00
1.49542063492063e-02 1.52224051375207e+02 0.00000000000000e+00
1.50959523809524e-02 1.51391691370702e+02 0.00000000000000e+00
1.52376984126984e-02 1.50563882704640e+02 0.00000000000000e+00
1.53794444444444e-02 1.49740600490337e+02 0.00000000000000e+00
1.55211904761905e-02 1.48921819977187e+02 0.00000000000000e+00
1.56629365079365e-02 1.48107516549921e+02 0.00000000000000e+00
1.58046825396825e-02 1.47297665727866e+02 0.00000000000000e+00
1.59464285714286e-02 1.46492243164209e+02 0.00000000000000e+00
1.60881746031746e-02 1.45691224645265e+02 0.00000000000000e+00
1.62299206349206e-02 1.44894586089751e+02 0.00000000000000e+00
1.63716666666667e-02 1.44102303548057e+02 0.00000000000000e+00
1.65134126984127e-02 1.43314353201532e+02 0.00000000000000e+00
1.66551587301587e-02 1.42530711361765e+02 0.00000000000000e+00
1.67969047619048e-02 1.41751354469872e+02 0.00000000000000e+00
1.69386507936508e-02 1.40976259095788e+02 0.00000000000000e+00
1.70803968253968e-02 1.40205401937566e+02 0.00000000000000e+00
1.72221428571429e-02 1.39438759820672e+02 0.00000000000000e+00
1.73638888888889e-02 1.38676309697292e+02 0.00000000000000e+00
1.75056349206349e-02 1.37918028645634e+02 0.00000000000000e+00
1.76473809523810e-02 1.37163893869245e+02 0.00000000000000e+00
1.77891269841270e-02 1.36413882696322e+02 0.00000000000000e+00
1.79308730158730e-02 1.35667972579032e+02 0.00000000000000e+00
1.80726190476190e-02 1.34926141092832e+02 0.00000000000000e+00
1.82143650793651e-02 1.34188365935796e+02 0.00000000000000e+00
1.83561111111111e-02 1.33454624927947e+02 0.00000000000000e+00
1.84978571428571e-02 1.32724896010587e+02 0.00000000000000e+00
1.86396031746032e-02 1.31999157245633e+02 0.00000000000000e+00
1.87813492063492e-02 1.31277386814961e+02 0.00000000000000e+00
1.89230952380952e-02 1.30559563019749e+02 0.00000000000000e+00
1.90648412698413e-02 1.29845664279822e+02 0.00000000000000e+00
1.92065873015873e-02 1.29135669133006e+02 0.00000000000000e+00
1.93483333333333e-02 1.28429556234484e+02 0.00000000000000e+00
1.94900793650794e-02 1.27727304356149e+02 0.00000000000000e+00
1.96318253968254e-02 1.27028892385972e+02 0.00000000000000e+00
1.97735714285714e-02 1.26334299327362e+02 0.00000000000000e+00
1.99153174603175e-02 1.25643504298539e+02 0.00000000000000e+00
2.00570634920635e-02 1.24956486531904e+02 0.00000000000000e+00
2.01988095238095e-02 1.24273225373414e+02 0.00000000000000e+00
2.03405555555556e-02 1.23593700281963e+02 0.00000000000000e+00
2.04823015873016e-02 1.22917890828765e+02 0.00000000000000e+00
2.06240476190476e-02 1.22245776696735e+02 0.00000000000000e+00
2.07657936507936e-02 1.21577337679886e+02 0.00000000000000e+00
2.09075396825397e-02 1.20912553682714e+02 0.00000000000000e+00
2.10492857142857e-02 1.20251404719597e+02 0.00000000000000e+00
2.11910317460317e-02 1.19593870914197e+02 0.00000000000000e+00
2.13327777777778e-02 1.18939932498857e+02 0.00000000000000e+00
2.14745238095238e-02 1.18289569814011e+02 0.00000000000000e+00
2.16162698412698e-02 1.17642763307589e+02 0.00000000000000e+00
2.17580158730159e-02 1.16999493534435e+02 0.00000000000000e+00
2.18997619047619e-02 1.16359741155717e+02 0.00000000000000e+00
2.20415079365079e-02 1.15723486938347e+02 0.00000000000000e+00
2.21832539682540e-02 1.15090711754405e+02 0.00000000000000e+00
2.23250000000000e-02 1.14461396580561e+02 0.00000000000000e+00
2.24667460317460e-02 1.13835522497505e+02 0.00000000000000e+00
2.26084920634921e-02 1.13213070689378e+02 0.00000000000000e+00
2.27502380952381e-02 1.12594022443206e+02 0.00000000000000e+00
2.28919841269841e-02 1.11978359148336e+02 0.00000000000000e+00
2.30337301587302e-02 1.11366062295879e+02 0.00000000000000e+00
2.31754761904762e-02 1.10757113478154e+02 0.00000000000000e+00
2.33172222222222e-02 1.10151494388129e+02 0.00000000000000e+00
2.34589682539683e-02 1.09549186818880e+02 0.00000000000000e+00
2.36007142857143e-02 1.08950172663033e+02 0.00000000000000e+00
2.37424603174603e-02 1.08354433912228e+02 0.00000000000000e+00
2.38842063492063e-02 1.07761952656576e+02 0.00000000000000e+00
2.40259523809524e-02 1.07172711084115e+02 0.00000000000000e+00
2.41676984126984e-02 1.06586691480281e+02 0.00000000000000e+00
2.43094444444444e-02 1.06003876227375e+02 0.00000000000000e+00
2.44511904761905e-02 1.05424247804027e+02 0.00000000000000e+00
2.45929365079365e-02 1.04847788784678e+02 0.00000000000000e+00
2.47346825396825e-02 1.04274481839049e+02 0.00000000000000e+00
2.48764285714286e-02 1.03704309731624e+02 0.00000000000000e+00
2.50181746031746e-02 1.03137255321131e+02 0.00000000000000e+00
2.51599206349206e-02 1.02573301560026e+02 0.00000000000000e+00
2.53016666666667e-02 1.02012431493980e+02 0.00000000000000e+00
2.54434126984127e-02 1.01454628261371e+02 0.00000000000000e+00
2.55851587301587e-02 1.00899875092776e+02 0.00000000000000e+00
2.57269047619048e-02 1.00348155310468e+02 0.00000000000000e+00
2.58686507936508e-02 9.97994523279124e+01 0.00000000000000e+00
2.60103968253968e-02 9.92537496492699e+01 0.00000000000000e+00
2.61521428571429e-02 9.87110308689006e+01 0.00000000000000e+00
2.62938888888889e-02 9.81712796708706e+01 0.00000000000000e+00
2.64356349206349e-02 9.76344798284613e+01 0.00000000000000e+00
2.65773809523810e-02 9.71006152036815e+01 0.00000000000000e+00
2.67191269841270e-02 9.65696697467828e+01 0.00000000000000e+00
2.68608730158730e-02 9.60416274957763e+01 0.00000000000000e+00
2.70026190476190e-02 9.55164725759534e+01 0.00000000000000e+00
2.71443650793651e-02 9.49941891994082e+01 0.00000000000000e+00
2.72861111111111e-02 9.44747616645630e+01 0.00000000000000e+00
2.74278571428571e-02 9.39581743556961e+01 0.00000000000000e+00
2.75696031746032e-02 9.34444117424726e+01 0.00000000000000e+00
2.77113492063492e-02 9.29334583794772e+01 0.00000000000000e+00
2.78530952380952e-02 9.24252989057503e+01 0.00000000000000e+00
2.79948412698413e-02 9.19199180443255e+01 0.00000000000000e+00
2.81365873015873e-02 9.14173006017710e+01 0.00000000000000e+00
2.82783333333333e-02 9.09174314677327e+01 0.00000000000000e+00
2.84200793650794e-02 9.04202956144794e+01 0.00000000000000e+00
2.85618253968254e-02 8.99258780964520e+01 0.00000000000000e+00
2.87035714285714e-02 8.94341640498130e+01 0.00000000000000e+00
2.88453174603175e-02 8.89451386920006e+01 0.00000000000000e+00
2.89870634920635e-02 8.84587873212839e+01 0.00000000000000e+00
2.91288095238095e-02 8.79750953163209e+01 0.00000000000000e+00
2.92705555555556e-02 8.74940481357191e+01 0.00000000000000e+00
2.94123015873016e-02 8.70156313175981e+01 0.00000000000000e+00
2.95540476190476e-02 8.65398304791550e+01 0.00000000000000e+00
2.96957936507936e-02 8.60666313162320e+01 0.00000000000000e+00
2.98375396825397e-02 8.55960196028863e+01 0.00000000000000e+00
2.99792857142857e-02 8.51279811909624e+01 0.00000000000000e+00
3.01210317460317e-02 8.46625020096670e+01 0.00000000000000e+00
3.02627777777778e-02 8.41995680651454e+01 0.00000000000000e+00
3.04045238095238e-02 8.37391654400617e+01 0.00000000000000e+00
3.05462698412698e-02 8.32812802931796e+01 0.00000000000000e+00
3.06880158730159e-02 8.28258988589465e+01 0.00000000000000e+00
3.08297619047619e-02 8.23730074470800e+01 0.00000000000000e+00
3.09715079365079e-02 8.19225924421558e+01 0.00000000000000e+00
3.11132539682540e-02 8.14746403031988e+01 0.00000000000000e+00
3.12550000000000e-02 8.10291375632759e+01 0.00000000000000e+00
3.13967460317460e-02 8.05860708290910e+01 0.00000000000000e+00
3.15384920634921e-02 8.01454267805825e+01 0.00000000000000e+00
3.16802380952381e-02 7.97071921705226e+01 0.00000000000000e+00
3.18219841269841e-02 7.92713538241196e+01 0.00000000000000e+00
3.19637301587302e-02 7.88378986386212e+01 0.00000000000000e+00
3.21054761904762e-02 7.84068135829209e+01 0.00000000000000e+00
3.22472222222222e-02 7.79780856971662e+01 0.00000000000000e+00
3.23889682539683e-02 7.75517020923690e+01 0.00000000000000e+00
3.25307142857143e-02 7.71276499500182e+01 0.00000000000000e+00
3.26724603174603e-02 7.67059165216941e+01 0.00000000000000e+00
3.28142063492063e-02 7.62864891286851e+01 0.00000000000000e+00
3.29559523809524e-02 7.58693551616071e+01 0.00000000000000e+00
3.30976984126984e-02 7.54545020800238e+01 0.00000000000000e+00
3.32394444444444e-02 7.50419174120699e+01 0.00000000000000e+00
3.33811904761905e-02 7.46315887540760e+01 0.00000000000000e+00
3.35229365079365e-02 7.42235037701963e+01 0.00000000000000e+00
3.36646825396825e-02 7.38176501920370e+01 0.00000000000000e+00
3.38064285714286e-02 7.34140158182878e+01 0.00000000000000e+00
3.39481746031746e-02 7.30125885143553e+01 0.00000000000000e+00
3.40899206349206e-02 7.26133562119976e+01 0.00000000000000e+00
3.42316666666667e-02 7.22163069089622e+01 0.00000000000000e+00
3.43734126984127e-02 7.18214286686247e+01 0.00000000000000e+00
3.45151587301587e-02 7.14287096196301e+01 0.00000000000000e+00
3.46569047619048e-02 7.10381379555359e+01 0.00000000000000e+00
3.47986507936508e-02 7.06497019344569e+01 0.00000000000000e+00
3.49403968253968e-02 7.02633898787129e+01 0.00000000000000e+00
3.50821428571429e-02 6.98791901744767e+01 0.00000000000000e+00
3.52238888888889e-02 6.94970912714257e+01 0.00000000000000e+00
3.53656349206349e-02 6.91170816823944e+01 0.00000000000000e+00
3.55073809523809e-02 6.87391499830289e+01 0.00000000000000e+00
3.56491269841270e-02 6.83632848114437e+01 0.00000000000000e+00
3.57908730158730e-02 6.79894748678798e+01 0.00000000000000e+00
3.59326190476190e-02 6.76177089143654e+01 0.00000000000000e+00
3.60743650793651e-02 6.72479757743779e+01 0.00000000000000e+00
3.62161111111111e-02 6.68802643325076e+01 0.00000000000000e+00
3.63578571428571e-02 6.65145635341239e+01 0.00000000000000e+00
3.64996031746032e-02 6.61508623850430e+01 0.00000000000000e+00
3.66413492063492e-02 6.57891499511969e+01 0.00000000000000e+00
3.67830952380952e-02 6.54294153583053e+01 0.00000000000000e+00
3.69248412698413e-02 6.50716477915483e+01 0.00000000000000e+00
3.70665873015873e-02 6.47158364952411e+01 0.00000000000000e+00
3.72083333333333e-02 6.43619707725114e+01 0.00000000000000e+00
3.73500793650794e-02 6.40100399849769e+01 0.00000000000000e+00
3.74918253968254e-02 6.36600335524261e+01 0.00000000000000e+00
3.76335714285714e-02 6.33119409524999e+01 0.00000000000000e+00
3.77753174603175e-02 6.29657517203754e+01 0.00000000000000e+00
3.79170634920635e-02 6.26214554484515e+01 0.00000000000000e+00
3.80588095238095e-02 6.22790417860354e+01 0.00000000000000e+00
3.82005555555556e-02 6.19385004390321e+01 0.00000000000000e+00
3.83423015873016e-02 6.15998211696347e+01 0.00000000000000e+00
3.84840476190476e-02 6.12629937960162e+01 0.00000000000000e+00
3.86257936507936e-02 6.09280081920240e+01 0.00000000000000e+00
3.87675396825397e-02 6.05948542868754e+01 0.00000000000000e+00
3.89092857142857e-02 6.02635220648542e+01 0.00000000000000e+00
3.90510317460317e-02 5.99340015650104e+01 0.00000000000000e+00
3.91927777777778e-02 5.96062828808604e+01 0.00000000000000e+00
3.93345238095238e-02 5.92803561600891e+01 0.00000000000000e+00
3.94762698412698e-02 5.89562116042537e+01 0.00000000000000e+00
3.96180158730159e-02 5.86338394684893e+01 0.00000000000000e+00
3.97597619047619e-02 5.83132300612159e+01 0.00000000000000e+00
3.99015079365079e-02 5.79943737438471e+01 0.00000000000000e+00
4.00432539682540e-02 5.76772609304999e+01 0.00000000000000e+00
4.01850000000000e-02 5.73618820877070e+01 0.00000000000000e+00
4.03267460317460e-02 5.70482277341301e+01 0.00000000000000e+00
4.04684920634921e-02 5.67362884402746e+01 0.00000000000000e+00
4.06102380952381e-02 5.64260548282067e+01 0.00000000000000e+00
4.07519841269841e-02 5.61175175712705e+01 0.00000000000000e+00
4.08937301587302e-02 5.58106673938087e+01 0.00000000000000e+00
4.10354761904762e-02 5.55054950708829e+01 0.00000000000000e+00
4.11772222222222e-02 5.52019914279968e+01 0.00000000000000e+00
4.13189682539683e-02 5.49001473408200e+01 0.00000000000000e+00
4.14607142857143e-02 5.45999537349140e+01 0.00000000000000e+00
4.16024603174603e-02 5.43014015854593e+01 0.00000000000000e+00
4.17442063492064e-02 5.40044819169838e+01 0.00000000000000e+00
4.18859523809524e-02 5.37091858030936e+01 0.00000000000000e+00
4.20276984126984e-02 5.34155043662040e+01 0.00000000000000e+00
4.21694444444444e-02 5.31234287772728e+01 0.00000000000000e+00
4.23111904761905e-02 5.28329502555352e+01 0.00000000000000e+00
4.24529365079365e-02 5.25440600682393e+01 0.00000000000000e+00
4.25946825396825e-02 5.22567495303840e+01 0.00000000000000e+00
4.27364285714286e-02 5.19710100044576e+01 0.00000000000000e+00
4.28781746031746e-02 5.16868329001784e+01 0.00000000000000e+00
4.30199206349206e-02 5.14042096742362e+01 0.00000000000000e+00
4.31616666666667e-02 5.11231318300355e+01 0.00000000000000e+00
4.33034126984127e-02 5.08435909174402e+01 0.00000000000000e+00
4.34451587301587e-02 5.05655785325195e+01 0.00000000000000e+00
4.35869047619048e-02 5.02890863172953e+01 0.00000000000000e+00
4.37286507936508e-02 5.00141059594906e+01 0.00000000000000e+00
4.38703968253968e-02 4.97406291922801e+01 0.00000000000000e+00
4.40121428571429e-02 4.94686477940415e+01 0.00000000000000e+00
4.41538888888889e-02 4.91981535881079e+01 0.00000000000000e+00
4.42956349206349e-02 4.89291384425229e+01 0.00000000000000e+00
4.44373809523810e-02 4.86615942697951e+01 0.00000000000000e+00
4.45791269841270e-02 4.83955130266556e+01 0.00000000000000e+00
4.47208730158730e-02 4.81308867138162e+01 0.00000000000000e+00
