Energy (eV)          EEDF (eV^-(3/2))     First Anisotropy
3.41346153846154e-02 3.40716607334440e-02 1.77202308308976e-05
1.02403846153846e-01 3.38463535186260e-02 2.92627652181933e-05
1.70673076923077e-01 3.36225362019337e-02 3.86344778206427e-05
2.38942307692308e-01 3.34001989336597e-02 4.57568682475015e-05
3.07211538461538e-01 3.31793319248964e-02 5.16992065276963e-05
3.75480769230769e-01 3.29599254532396e-02 5.68656122624949e-05
4.43750000000000e-01 3.27419698605813e-02 6.14651403879737e-05
5.12019230769231e-01 3.25254555531351e-02 6.56239874216775e-05
5.80288461538461e-01 3.23103729995580e-02 6.94258191387584e-05
6.48557692307692e-01 3.20967127320436e-02 7.29297476115865e-05
7.16826923076923e-01 3.18844653453869e-02 7.61795150813852e-05
7.85096153846154e-01 3.16736214968641e-02 7.92086533934736e-05
8.53365384615385e-01 3.14641719049461e-02 8.20435941546743e-05
9.21634615384615e-01 3.12561073497791e-02 8.47056487801786e-05
9.89903846153846e-01 3.10494186724707e-02 8.72123253784440e-05
1.05817307692308e+00 3.08440967750882e-02 8.95782364638394e-05
1.12644230769231e+00 3.06401326192366e-02 9.18157434628582e-05
1.19471153846154e+00 3.04375172265020e-02 9.39354261038058e-05
1.26298076923077e+00 3.02362416778450e-02 9.59464320013850e-05
1.33125000000000e+00 3.00362971132073e-02 9.78567419749998e-05
1.39951923076923e+00 2.98376747296773e-02 9.96733740657803e-05
1.46778846153846e+00 2.96403657855301e-02 1.01402544058211e-04
1.53605769230769e+00 2.94443615953101e-02 1.03049792890274e-04
1.60432692307692e+00 2.92496535309988e-02 1.04620088081073e-04
1.67259615384615e+00 2.90562330216341e-02 1.06117906663994e-04
1.74086538461538e+00 2.88640915529329e-02 1.07547302974798e-04
1.80913461538462e+00 2.86732206669164e-02 1.08911964680372e-04
1.87740384615385e+00 2.84836119615325e-02 1.10215259462081e-04
1.94567307692308e+00 2.82952570902960e-02 1.11460274205836e-04
2.01394230769231e+00 2.81081477619152e-02 1.12649848128550e-04
2.08221153846154e+00 2.79222757399275e-02 1.13786600954746e-04
2.15048076923077e+00 2.77376328423361e-02 1.14872957026946e-04
2.21875000000000e+00 2.75542109412503e-02 1.15911166176855e-04
2.28701923076923e+00 2.73720019617242e-02 1.16903321279455e-04
2.35528846153846e+00 2.71909978838477e-02 1.17851374102352e-04
2.42355769230769e+00 2.70111907399077e-02 1.18757149171814e-04
2.49182692307692e+00 2.68325726148802e-02 1.19622355305351e-04
2.56009615384615e+00 2.66551356460818e-02 1.20448596241462e-04
2.62836538461538e+00 2.64788720228231e-02 1.21237379912047e-04
2.69663461538462e+00 2.63037739860652e-02 1.21990126662699e-04
2.76490384615385e+00 2.61298338280764e-02 1.22708176563481e-04
2.83317307692308e+00 2.59570438920963e-02 1.23392795932977e-04
2.90144230769231e+00 2.57853965719970e-02 1.24045183177966e-04
2.96971153846154e+00 2.56148843119482e-02 1.24666474033931e-04
3.03798076923077e+00 2.54454996060845e-02 1.25257746281919e-04
3.10625000000000e+00 2.52772349981752e-02 1.25820024103629e-04
3.17451923076923e+00 2.51100830807669e-02 1.26354281632606e-04
3.24278846153846e+00 2.49440364964636e-02 1.26861446646925e-04
3.31105769230769e+00 2.47790879359764e-02 1.27342403943387e-04
3.37932692307692e+00 2.46152301383511e-02 1.27797997921367e-04
3.44759615384615e+00 2.44524558906484e-02 1.28229035322798e-04
3.51586538461538e+00 2.42907580276267e-02 1.28636287643720e-04
3.58413461538461e+00 2.41301294314262e-02 1.29020493343984e-04
3.65240384615385e+00 2.39705630312550e-02 1.29382359874914e-04
3.72067307692308e+00 2.38120518030796e-02 1.29722565544148e-04
3.78894230769231e+00 2.36545887693148e-02 1.30041761233682e-04
3.85721153846154e+00 2.34981669985165e-02 1.30340571984265e-04
3.92548076923077e+00 2.33427796050764e-02 1.30619598459625e-04
3.99375000000000e+00 2.31884197489193e-02 1.30879418381524e-04
4.06201923076923e+00 2.30350806348234e-02 1.31120587543553e-04
4.13028846153846e+00 2.28827555132678e-02 1.31343641139421e-04
4.19855769230769e+00 2.27314376789767e-02 1.31549095009337e-04
4.26682692307692e+00 2.25811204710145e-02 1.31737446400741e-04
4.33509615384615e+00 2.24317972724930e-02 1.31909174990524e-04
4.40336538461538e+00 2.22834615102794e-02 1.32064743761123e-04
4.47163461538462e+00 2.21361066547078e-02 1.32204599818948e-04
4.53990384615385e+00 2.19897262192908e-02 1.32329175159333e-04
4.60817307692308e+00 2.18443137604349e-02 1.32438887382874e-04
4.67644230769231e+00 2.16998628771567e-02 1.32534140366987e-04
4.74471153846154e+00 2.15563672108009e-02 1.32615324895568e-04
4.81298076923077e+00 2.14138204447603e-02 1.32682819250439e-04
4.88125000000000e+00 2.12722163041980e-02 1.32736989833764e-04
4.94951923076923e+00 2.11315485554866e-02 1.32778191490353e-04
5.01778846153846e+00 2.09918110067949e-02 1.32806768135321e-04
5.08605769230769e+00 2.08529975069463e-02 1.32823053354136e-04
5.15432692307692e+00 2.07151019454401e-02 1.32827370635807e-04
5.22259615384615e+00 2.05781182521831e-02 1.32820033855565e-04
5.29086538461538e+00 2.04420403972218e-02 1.32801347665967e-04
5.35913461538461e+00 2.03068623904776e-02 1.32771607866933e-04
5.42740384615385e+00 2.01725782814822e-02 1.32731101755765e-04
5.49567307692308e+00 2.00391821591169e-02 1.32680108458909e-04
5.56394230769231e+00 1.99066681513514e-02 1.32618899246700e-04
5.63221153846154e+00 1.97750304249859e-02 1.32547737831704e-04
5.70048076923077e+00 1.96442631853942e-02 1.32466880652057e-04
5.76875000000000e+00 1.95143606762682e-02 1.32376577196806e-04
5.83701923076923e+00 1.93853171791441e-02 1.32277070092349e-04
5.90528846153846e+00 1.92571270138190e-02 1.32168595459779e-04
5.97355769230769e+00 1.91297845374263e-02 1.32051383261212e-04
6.04182692307692e+00 1.90032841444146e-02 1.31925657347672e-04
6.11009615384615e+00 1.88776202663001e-02 1.31791635727657e-04
6.17836538461538e+00 1.87527873714223e-02 1.31649530767927e-04
6.24663461538461e+00 1.86287799647003e-02 1.31499549385198e-04
6.31490384615385e+00 1.85055925873902e-02 1.31341893228977e-04
6.38317307692308e+00 1.83832198168459e-02 1.31176758856404e-04
6.45144230769231e+00 1.82616562662799e-02 1.31004337899491e-04
6.51971153846154e+00 1.81408965845260e-02 1.30824817224908e-04
6.58798076923077e+00 1.80209354558041e-02 1.30638379086975e-04
6.65625000000000e+00 1.79017675994859e-02 1.30445201322044e-04
6.72451923076923e+00 1.77833877696868e-02 1.30245457344035e-04
6.79278846153846e+00 1.76657907555667e-02 1.30039316376070e-04
6.86105769230769e+00 1.75489713805644e-02 1.29826943677231e-04
6.92932692307692e+00 1.74329245023500e-02 1.29608500518582e-04
6.99759615384615e+00 1.73176450125984e-02 1.29384144351433e-04
7.06586538461538e+00 1.72031278367650e-02 1.29154028921373e-04
7.13413461538461e+00 1.70893679338614e-02 1.28918304377825e-04
7.20240384615385e+00 1.69763602962340e-02 1.28677117379208e-04
7.27067307692308e+00 1.68640999493439e-02 1.28430611194125e-04
7.33894230769231e+00 1.67525819515472e-02 1.28178925798817e-04
7.40721153846154e+00 1.66418013938782e-02 1.27922197970799e-04
7.47548076923077e+00 1.65317533998328e-02 1.27660561378984e-04
7.54375000000000e+00 1.64224331251540e-02 1.27394146711885e-04
7.61201923076923e+00 1.63138357574762e-02 1.27123081636510e-04
7.68028846153846e+00 1.62059565165439e-02 1.26847490962635e-04
7.74855769230769e+00 1.60987906535676e-02 1.26567496804882e-04
7.81682692307692e+00 1.59923334511602e-02 1.26283218530450e-04
7.88509615384615e+00 1.58865802231295e-02 1.25994772874124e-04
7.95336538461538e+00 1.57815263142719e-02 1.25702274008111e-04
8.02163461538461e+00 1.56771671001675e-02 1.25405833609466e-04
8.08990384615385e+00 1.55734979869763e-02 1.25105560925100e-04
8.15817307692308e+00 1.54705144112367e-02 1.24801562834712e-04
8.22644230769231e+00 1.53682118396636e-02 1.24493943911645e-04
8.29471153846154e+00 1.52665857689497e-02 1.24182806481588e-04
8.36298076923077e+00 1.51656317255669e-02 1.23868250679423e-04
8.43125000000000e+00 1.50653452655693e-02 1.23550374540073e-04
8.49951923076923e+00 1.49657219742808e-02 1.23229273943392e-04
8.56778846153846e+00 1.48667574664541e-02 1.22905042738258e-04
8.63605769230769e+00 1.47684473857218e-02 1.22577772865615e-04
8.70432692307692e+00 1.46707874045238e-02 1.22247554296354e-04
8.77259615384615e+00 1.45737732239174e-02 1.21914475115103e-04
8.84086538461538e+00 1.44774005733873e-02 1.21578621565540e-04
8.90913461538461e+00 1.43816652106583e-02 1.21240078094359e-04
8.97740384615384e+00 1.42865629215082e-02 1.20898927393804e-04
9.04567307692308e+00 1.41920895195824e-02 1.20555250442972e-04
9.11394230769231e+00 1.40982408462097e-02 1.20209126547940e-04
9.18221153846154e+00 1.40050127702190e-02 1.19860633380603e-04
9.25048076923077e+00 1.39124011877577e-02 1.19509847016414e-04
9.31875000000000e+00 1.38204020221108e-02 1.19156842002312e-04
9.38701923076923e+00 1.37290112234248e-02 1.18801691297802e-04
9.45528846153846e+00 1.36382247688221e-02 1.18444466372807e-04
9.52355769230769e+00 1.35480386619290e-02 1.18085237305120e-04
9.59182692307692e+00 1.34584489327988e-02 1.17724072716675e-04
9.66009615384615e+00 1.33694516377370e-02 1.17361039837535e-04
9.72836538461538e+00 1.32810428591279e-02 1.16996204536683e-04
9.79663461538461e+00 1.31932187052619e-02 1.16629631352003e-04
9.86490384615385e+00 1.31059753101641e-02 1.16261383519361e-04
9.93317307692308e+00 1.30193088334246e-02 1.15891523000938e-04
1.00014423076923e+01 1.29332154600289e-02 1.15520110456501e-04
1.00697115384615e+01 1.28476914003592e-02 1.15147205636577e-04
1.01379807692308e+01 1.27627328889315e-02 1.14772866618469e-04
1.02062500000000e+01 1.26783361867620e-02 1.14397150283616e-04
1.02745192307692e+01 1.25944975787410e-02 1.14020112914689e-04
1.03427884615385e+01 1.25112133743261e-02 1.13641809653596e-04
1.04110576923077e+01 1.24284799065907e-02 1.13262294004710e-04
1.04793269230769e+01 1.23462935344496e-02 1.12881618402371e-04
1.05475961538462e+01 1.22646506400910e-02 1.12499835040276e-04
1.06158653846154e+01 1.21835476288679e-02 1.12116994278781e-04
1.06841346153846e+01 1.21029809314375e-02 1.11733145473847e-04
1.07524038461538e+01 1.20229470012849e-02 1.11348337781291e-04
1.08206730769231e+01 1.19434423146180e-02 1.10962618608019e-04
1.08889423076923e+01 1.18644633724221e-02 1.10576034416796e-04
1.09572115384615e+01 1.17860066980757e-02 1.10188631507235e-04
1.10254807692308e+01 1.17080688372437e-02 1.09800454509604e-04
1.10937500000000e+01 1.16306463598545e-02 1.09411547165404e-04
1.11620192307692e+01 1.15537358578024e-02 1.09021952847205e-04
1.12302884615385e+01 1.14773339455183e-02 1.08631714052961e-04
1.12985576923077e+01 1.14014372591544e-02 1.08240871964389e-04
1.13668269230769e+01 1.13260424584531e-02 1.07849466942873e-04
1.14350961538462e+01 1.12511462245659e-02 1.07457539256682e-04
1.15033653846154e+01 1.11767452599486e-02 1.07065127674804e-04
1.15716346153846e+01 1.11028362901604e-02 1.06672270193602e-04
1.16399038461538e+01 1.10294160617581e-02 1.06279004742736e-04
1.17081730769231e+01 1.09564813421941e-02 1.05885367817098e-04
1.17764423076923e+01 1.08840289215474e-02 1.05491395182961e-04
1.18447115384615e+01 1.08120556104921e-02 1.05097122564125e-04
1.19129807692308e+01 1.07405582401952e-02 1.04702584310813e-04
1.19812500000000e+01 1.06695336639844e-02 1.04307814085243e-04
1.20495192307692e+01 1.05989787553875e-02 1.03912845317829e-04
1.21177884615385e+01 1.05288904086071e-02 1.03517710758943e-04
1.21860576923077e+01 1.04592655378160e-02 1.03122442086042e-04
1.22543269230769e+01 1.03901010787378e-02 1.02727070339169e-04
1.23225961538462e+01 1.03213939867817e-02 1.02331626561313e-04
1.23908653846154e+01 1.02531412369430e-02 1.01936140553898e-04
1.24591346153846e+01 1.01853398253254e-02 1.01540641516464e-04
1.25274038461538e+01 1.01179867673386e-02 1.01145158668799e-04
1.25956730769231e+01 1.00510790976013e-02 1.00749720039578e-04
1.26639423076923e+01 9.98461387140730e-03 1.00354353088475e-04
1.27322115384615e+01 9.91858816298524e-03 9.99590853113175e-05
1.28004807692308e+01 9.85299906540132e-03 9.95639430609242e-05
1.28687500000000e+01 9.78784369197351e-03 9.91689521515826e-05
1.29370192307692e+01 9.72311917459008e-03 9.87741382610489e-05
1.30052884615385e+01 9.65882266410548e-03 9.83795265325732e-05
1.30735576923077e+01 9.59495132972960e-03 9.79851412250557e-05
1.31418269230769e+01 9.53150236037020e-03 9.75910060970534e-05
1.32100961538462e+01 9.46847296303063e-03 9.71971449725776e-05
1.32783653846154e+01 9.40586036271525e-03 9.68035806372052e-05
1.33466346153846e+01 9.34366180372408e-03 9.64103354031260e-05
1.34149038461538e+01 9.28187454810282e-03 9.60174316592507e-05
1.34831730769231e+01 9.22049587555044e-03 9.56248907962676e-05
1.35514423076923e+01 9.15952308466761e-03 9.52327337565286e-05
1.36197115384615e+01 9.09895349145819e-03 9.48409815694643e-05
1.36879807692308e+01 9.03878442923727e-03 9.44496543047584e-05
1.37562500000000e+01 8.97901324983640e-03 9.40587716070287e-05
1.38245192307692e+01 8.91963732215421e-03 9.36683530512630e-05
1.38927884615385e+01 8.86065403248824e-03 9.32784177889103e-05
1.39610576923077e+01 8.80206078400286e-03 9.28889842359797e-05
1.40293269230769e+01 8.74385499787513e-03 9.25000704127295e-05
1.40975961538462e+01 8.68603411191152e-03 9.21116944450269e-05
1.41658653846154e+01 8.62859558045891e-03 9.17238735832200e-05
1.42341346153846e+01 8.57153687551050e-03 9.13366247027064e-05
1.43024038461538e+01 8.51485548536666e-03 9.09499647916665e-05
1.43706730769231e+01 8.45854891454781e-03 9.05639099953167e-05
1.44389423076923e+01 8.40261468486192e-03 9.01784761033011e-05
1.45072115384615e+01 8.34705033410858e-03 8.97936790246298e-05
1.45754807692308e+01 8.29185341599247e-03 8.94095338565893e-05
1.46437500000000e+01 8.23702150115490e-03 8.90260553589448e-05
1.47120192307692e+01 8.18255217591912e-03 8.86432582690315e-05
1.47802884615385e+01 8.12844304256951e-03 8.82611569865738e-05
1.48485576923077e+01 8.07469171888631e-03 8.78797652952967e-05
1.49168269230769e+01 8.02129583912753e-03 8.74990966641873e-05
1.49850961538462e+01 7.96825305283000e-03 8.71191646928423e-05
1.50533653846154e+01 7.91556102472585e-03 8.67399822378952e-05
1.51216346153846e+01 7.86321743569107e-03 8.63615618575195e-05
1.51899038461538e+01 7.81121998158373e-03 8.59839162448761e-05
1.52581730769231e+01 7.75956637316234e-03 8.56070573768316e-05
1.53264423076923e+01 7.70825433700216e-03 8.52309969469640e-05
1.53947115384615e+01 7.65728161437003e-03 8.48557467878566e-05
1.54629807692308e+01 7.60664596114340e-03 8.44813180414651e-05
1.55312500000000e+01 7.55634514869639e-03 8.41077215806041e-05
1.55995192307692e+01 7.50637696280969e-03 8.37349682890391e-05
1.56677884615385e+01 7.45673920390609e-03 8.33630687803045e-05
1.57360576923077e+01 7.40742968664232e-03 8.29920331489224e-05
1.58043269230769e+01 7.35844624075350e-03 8.26218712382605e-05
1.58725961538462e+01 7.30978671001012e-03 8.22525930368989e-05
1.59408653846154e+01 7.26144895214004e-03 8.18842078995523e-05
1.60091346153846e+01 7.21343083964482e-03 8.15167249426265e-05
1.60774038461538e+01 7.16573025878843e-03 8.11501534301937e-05
1.61456730769231e+01 7.11834510952085e-03 8.07845020145596e-05
1.62139423076923e+01 7.07127330626731e-03 8.04197791217358e-05
1.62822115384615e+01 7.02451277694807e-03 8.00559933275946e-05
1.63504807692308e+01 6.97806146290286e-03 7.96931526175576e-05
1.64187500000000e+01 6.93191731965454e-03 7.93312647619592e-05
1.64870192307692e+01 6.88607831595871e-03 7.89703375654499e-05
1.65552884615385e+01 6.84054243400315e-03 7.86103786158898e-05
1.66235576923077e+01 6.79530766904855e-03 7.82513950617559e-05
1.66918269230769e+01 6.75037203015702e-03 7.78933938507295e-05
1.67600961538462e+01 6.70573353928195e-03 7.75363820831333e-05
1.68283653846154e+01 6.66139023119527e-03 7.71803663161195e-05
1.68966346153846e+01 6.61734015419213e-03 7.68253529162996e-05
1.69649038461538e+01 6.57358136920789e-03 7.64713484040315e-05
1.70331730769231e+01 6.53011194974688e-03 7.61183587749600e-05
1.71014423076923e+01 6.48692998256416e-03 7.57663898437813e-05
1.71697115384615e+01 6.44403356680903e-03 7.54154475798818e-05
1.72379807692308e+01 6.40142081395471e-03 7.50655374457800e-05
1.73062500000000e+01 6.35908984845832e-03 7.47166647319999e-05
1.73745192307692e+01 6.31703880693003e-03 7.43688347795467e-05
1.74427884615385e+01 6.27526583830215e-03 7.40220527553481e-05
1.75110576923077e+01 6.23376910351219e-03 7.36763234528977e-05
1.75793269230769e+01 6.19254677613310e-03 7.33316515051404e-05
1.76475961538462e+01 6.15159704157675e-03 7.29880417001247e-05
1.77158653846154e+01 6.11091809702627e-03 7.26454983587216e-05
1.77841346153846e+01 6.07050815204612e-03 7.23040256494866e-05
1.78524038461538e+01 6.03036542780880e-03 7.19636278962586e-05
1.79206730769231e+01 5.99048815702866e-03 7.16243089712228e-05
1.79889423076923e+01 5.95087458455238e-03 7.12860726019641e-05
1.80572115384615e+01 5.91152296660854e-03 7.09489226714326e-05
1.81254807692308e+01 5.87243157074227e-03 7.06128626259623e-05
1.81937500000000e+01 5.83359867638728e-03 7.02778957744916e-05
1.82620192307692e+01 5.79502257413735e-03 6.99440254873330e-05
1.83302884615385e+01 5.75670156589018e-03 6.96112549951118e-05
1.83985576923077e+01 5.71863396456701e-03 6.92795872100473e-05
1.84668269230769e+01 5.68081809465925e-03 6.89490249161864e-05
1.85350961538462e+01 5.64325229152961e-03 6.86195710517068e-05
1.86033653846154e+01 5.60593490134933e-03 6.82912281517197e-05
1.86716346153846e+01 5.56886428162755e-03 6.79639986298280e-05
1.87399038461538e+01 5.53203880053250e-03 6.76378850532925e-05
1.88081730769231e+01 5.49545683683004e-03 6.73128895994661e-05
1.88764423076923e+01 5.45911678039638e-03 6.69890143304227e-05
1.89447115384615e+01 5.42301703155889e-03 6.66662614613695e-05
1.90129807692308e+01 5.38715600103558e-03 6.63446328303583e-05
1.90812500000000e+01 5.35153211043189e-03 6.60241301659863e-05
1.91495192307692e+01 5.31614379160060e-03 6.57047552652241e-05
1.92177884615385e+01 5.28098948676428e-03 6.53865098132115e-05
1.92860576923077e+01 5.24606764826676e-03 6.50693952228699e-05
1.93543269230769e+01 5.21137673904838e-03 6.47534128051421e-05
1.94225961538462e+01 5.17691523203129e-03 6.44385640217899e-05
1.94908653846154e+01 5.14268161006132e-03 6.41248499859103e-05
1.95591346153846e+01 5.10867436636840e-03 6.38122717140271e-05
1.96274038461538e+01 5.07489200396930e-03 6.35008303725711e-05
1.96956730769231e+01 5.04133303561064e-03 6.31905267905142e-05
1.97639423076923e+01 5.00799598421504e-03 6.28813617053100e-05
1.98322115384615e+01 4.97487938230092e-03 6.25733360033805e-05
1.99004807692308e+01 4.94198177192630e-03 6.22664502445562e-05
1.99687500000000e+01 4.90930170512140e-03 6.19607049018788e-05
2.00370192307692e+01 4.87683774332487e-03 6.16561005209020e-05
2.01052884615385e+01 4.84458845748820e-03 6.13526375580128e-05
2.01735576923077e+01 4.81255242785503e-03 6.10503162363614e-05
2.02418269230769e+01 4.78072824437515e-03 6.07491366983907e-05
2.03100961538462e+01 4.74911450616275e-03 6.04490992324684e-05
2.03783653846154e+01 4.71770982144260e-03 6.01502038247027e-05
2.04466346153846e+01 4.68651280795136e-03 5.98524503849004e-05
2.05149038461538e+01 4.65552209241092e-03 5.95558389675808e-05
2.05831730769231e+01 4.62473631047568e-03 5.92603693345806e-05
2.06514423076923e+01 4.59415410712158e-03 5.89660411755561e-05
2.07197115384615e+01 4.56377413613423e-03 5.86728543236717e-05
2.07879807692308e+01 4.53359506005702e-03 5.83808083287094e-05
2.08562500000000e+01 4.50361555056838e-03 5.80899026721131e-05
2.09245192307692e+01 4.47383428798431e-03 5.78001369098531e-05
2.09927884615385e+01 4.44424996134754e-03 5.75115105272237e-05
2.10610576923077e+01 4.41486126823122e-03 5.72240228093419e-05
2.11293269230769e+01 4.38566691510014e-03 5.69376729779601e-05
2.11975961538462e+01 4.35666561683249e-03 5.66524603948309e-05
2.12658653846154e+01 4.32785609667004e-03 5.63683841591798e-05
2.13341346153846e+01 4.29923708656850e-03 5.60854433104581e-05
2.14024038461538e+01 4.27080732673237e-03 5.58036370267303e-05
2.14706730769231e+01 4.24256556556614e-03 5.55229642317601e-05
2.15389423076923e+01 4.21451056001407e-03 5.52434237928968e-05
