Energy (eV)          EEDF (eV^-(3/2))     First Anisotropy
9.32000000000000e-03 2.53785436793064e-01 1.34202386410172e-04
2.79600000000000e-02 2.52037875232840e-01 2.21588232312530e-04
4.66000000000000e-02 2.50302347346776e-01 2.92473758681916e-04
6.52400000000000e-02 2.48578770271687e-01 3.46296962025516e-04
8.38800000000000e-02 2.46867061714610e-01 3.91162124271238e-04
1.02520000000000e-01 2.45167139949193e-01 4.30133399820958e-04
1.21160000000000e-01 2.43478923811832e-01 4.64796505780363e-04
1.39800000000000e-01 2.41802332697808e-01 4.96109017621813e-04
1.58440000000000e-01 2.40137286557441e-01 5.24706020652977e-04
1.77080000000000e-01 2.38483705892270e-01 5.51036382724950e-04
1.95720000000000e-01 2.36841511751259e-01 5.75432380879083e-04
2.14360000000000e-01 2.35210625727026e-01 5.98148822805132e-04
2.33000000000000e-01 2.33590969952101e-01 6.19386633599928e-04
2.51640000000000e-01 2.31982467095206e-01 6.39307874294117e-04
2.70280000000000e-01 2.30385040357567e-01 6.58045731199050e-04
2.88920000000000e-01 2.28798613469242e-01 6.75711402001027e-04
3.07560000000000e-01 2.27223110685485e-01 6.92398986566131e-04
3.26200000000000e-01 2.25658456783125e-01 7.08189049802297e-04
3.44840000000000e-01 2.24104577056977e-01 7.23151274369599e-04
3.63480000000000e-01 2.22561397316274e-01 7.37346473572968e-04
3.82120000000000e-01 2.21028843881125e-01 7.50828144423831e-04
4.00760000000000e-01 2.19506843578998e-01 7.63643683733045e-04
4.19400000000000e-01 2.17995323741226e-01 7.75835352968806e-04
4.38040000000000e-01 2.16494212199535e-01 7.87441052887689e-04
4.56680000000000e-01 2.15003437282602e-01 7.98494952119668e-04
4.75320000000000e-01 2.13522927812630e-01 8.09028002210260e-04
4.93960000000000e-01 2.12052613101954e-01 8.19068363376709e-04
5.12600000000000e-01 2.10592422949658e-01 8.28641759317308e-04
5.31240000000000e-01 2.09142287638233e-01 8.37771775105826e-04
5.49880000000000e-01 2.07702137930239e-01 8.46480109024123e-04
5.68520000000000e-01 2.06271905065007e-01 8.54786786812565e-04
5.87160000000000e-01 2.04851520755352e-01 8.62710345026150e-04
6.05800000000000e-01 2.03440917184312e-01 8.70267988815116e-04
6.24440000000000e-01 2.02040027001912e-01 8.77475728395597e-04
6.43080000000000e-01 2.00648783321947e-01 8.84348497655956e-04
6.61720000000000e-01 1.99267119718791e-01 8.90900257701537e-04
6.80360000000000e-01 1.97894970224221e-01 8.97144087633865e-04
6.99000000000000e-01 1.96532269324271e-01 9.03092264454731e-04
7.17640000000000e-01 1.95178951956104e-01 9.08756333662225e-04
7.36280000000000e-01 1.93834953504903e-01 9.14147171845009e-04
7.54920000000000e-01 1.92500209800788e-01 9.19275042367659e-04
7.73560000000000e-01 1.91174657115751e-01 9.24149645067470e-04
7.92200000000000e-01 1.89858232160614e-01 9.28780160740873e-04
8.10840000000000e-01 1.88550872082007e-01 9.33175291079803e-04
8.29480000000000e-01 1.87252514459368e-01 9.37343294621493e-04
8.48120000000000e-01 1.85963097301960e-01 9.41292019193791e-04
8.66760000000000e-01 1.84682559045915e-01 9.45028931270181e-04
8.85400000000000e-01 1.83410838551292e-01 9.48561142591838e-04
9.04040000000000e-01 1.82147875099157e-01 9.51895434366150e-04
9.22680000000000e-01 1.80893608388687e-01 9.55038279309712e-04
9.41320000000000e-01 1.79647978534288e-01 9.57995861769334e-04
9.59960000000000e-01 1.78410926062739e-01 9.60774096125572e-04
9.78600000000000e-01 1.77182391910349e-01 9.63378643657543e-04
9.97240000000000e-01 1.75962317420138e-01 9.65814928025607e-04
1.01588000000000e+00 1.74750644339037e-01 9.68088149510735e-04
1.03452000000000e+00 1.73547314815109e-01 9.70203298132324e-04
1.05316000000000e+00 1.72352271394780e-01 9.72165165752557e-04
1.07180000000000e+00 1.71165457020103e-01 9.73978357263381e-04
1.09044000000000e+00 1.69986815026032e-01 9.75647300941108e-04
1.10908000000000e+00 1.68816289137711e-01 9.77176258044577e-04
1.12772000000000e+00 1.67653823467797e-01 9.78569331724730e-04
1.14636000000000e+00 1.66499362513782e-01 9.79830475306509e-04
1.16500000000000e+00 1.65352851155349e-01 9.80963499997236e-04
1.18364000000000e+00 1.64214234651737e-01 9.81972082070150e-04
1.20228000000000e+00 1.63083458639132e-01 9.82859769567432e-04
1.22092000000000e+00 1.61960469128065e-01 9.83629988562220e-04
1.23956000000000e+00 1.60845212500838e-01 9.84286049015262e-04
1.25820000000000e+00 1.59737635508965e-01 9.84831150258832e-04
1.27684000000000e+00 1.58637685270626e-01 9.85268386136924e-04
1.29548000000000e+00 1.57545309268146e-01 9.85600749828553e-04
1.31412000000000e+00 1.56460455345484e-01 9.85831138378265e-04
1.33276000000000e+00 1.55383071705745e-01 9.85962356955688e-04
1.35140000000000e+00 1.54313106908708e-01 9.85997122864631e-04
1.37004000000000e+00 1.53250509868365e-01 9.85938069319450e-04
1.38868000000000e+00 1.52195229850490e-01 9.85787749005683e-04
1.40732000000000e+00 1.51147216470207e-01 9.85548637440594e-04
1.42596000000000e+00 1.50106419689593e-01 9.85223136146680e-04
1.44460000000000e+00 1.49072789815282e-01 9.84813575652093e-04
1.46324000000000e+00 1.48046277496098e-01 9.84322218329218e-04
1.48188000000000e+00 1.47026833720696e-01 9.83751261081921e-04
1.50052000000000e+00 1.46014409815221e-01 9.83102837892437e-04
1.51916000000000e+00 1.45008957440985e-01 9.82379022236243e-04
1.53780000000000e+00 1.44010428592162e-01 9.81581829373537e-04
1.55644000000000e+00 1.43018775593489e-01 9.80713218525697e-04
1.57508000000000e+00 1.42033951097998e-01 9.79775094943358e-04
1.59372000000000e+00 1.41055908084749e-01 9.78769311873132e-04
1.61236000000000e+00 1.40084599856587e-01 9.77697672429194e-04
1.63100000000000e+00 1.39119980037914e-01 9.76561931375249e-04
1.64964000000000e+00 1.38162002572472e-01 9.75363796822446e-04
1.66828000000000e+00 1.37210621721148e-01 9.74104931848378e-04
1.68692000000000e+00 1.36265792059785e-01 9.72786956041258e-04
1.70556000000000e+00 1.35327468477017e-01 9.71411446974085e-04
1.72420000000000e+00 1.34395606172114e-01 9.69979941612526e-04
1.74284000000000e+00 1.33470160652843e-01 9.68493937660302e-04
1.76148000000000e+00 1.32551087733343e-01 9.66954894845573e-04
1.78012000000000e+00 1.31638343532016e-01 9.65364236151584e-04
1.79876000000000e+00 1.30731884469433e-01 9.63723348994695e-04
1.81740000000000e+00 1.29831667266252e-01 9.62033586352287e-04
1.83604000000000e+00 1.28937648941150e-01 9.60296267843606e-04
1.85468000000000e+00 1.28049786808773e-01 9.58512680765867e-04
1.87332000000000e+00 1.27168038477700e-01 9.56684081087907e-04
1.89196000000000e+00 1.26292361848414e-01 9.54811694403585e-04
1.91060000000000e+00 1.25422715111294e-01 9.52896716847030e-04
1.92924000000000e+00 1.24559056744621e-01 9.50940315971700e-04
1.94788000000000e+00 1.23701345512593e-01 9.48943631594972e-04
1.96652000000000e+00 1.22849540463358e-01 9.46907776609909e-04
1.98516000000000e+00 1.22003600927055e-01 9.44833837765958e-04
2.00380000000000e+00 1.21163486513878e-01 9.42722876419916e-04
2.02244000000000e+00 1.20329157112141e-01 9.40575929258828e-04
2.04108000000000e+00 1.19500572886370e-01 9.38394008995962e-04
2.05972000000000e+00 1.18677694275395e-01 9.36178105041094e-04
2.07836000000000e+00 1.17860481990464e-01 9.33929184146510e-04
2.09700000000000e+00 1.17048897013366e-01 9.31648191029526e-04
2.11564000000000e+00 1.16242900594570e-01 9.29336048972805e-04
2.13428000000000e+00 1.15442454251372e-01 9.26993660403536e-04
2.15292000000000e+00 1.14647519766059e-01 9.24621907452242e-04
2.17156000000000e+00 1.13858059184088e-01 9.22221652492280e-04
2.19020000000000e+00 1.13074034812264e-01 9.19793738660669e-04
2.20884000000000e+00 1.12295409216953e-01 9.17338990361220e-04
2.22748000000000e+00 1.11522145222284e-01 9.14858213750878e-04
2.24612000000000e+00 1.10754205908380e-01 9.12352197209540e-04
2.26476000000000e+00 1.09991554609594e-01 9.09821711794416e-04
2.28340000000000e+00 1.09234154912755e-01 9.07267511679554e-04
2.30204000000000e+00 1.08481970655437e-01 9.04690334580965e-04
2.32068000000000e+00 1.07734965924224e-01 9.02090902168161e-04
2.33932000000000e+00 1.06993105053000e-01 8.99469920462417e-04
2.35796000000000e+00 1.06256352621247e-01 8.96828080222420e-04
2.37660000000000e+00 1.05524673452350e-01 8.94166057317889e-04
2.39524000000000e+00 1.04798032611919e-01 8.91484513091671e-04
2.41388000000000e+00 1.04076395406124e-01 8.88784094710352e-04
2.43252000000000e+00 1.03359727380034e-01 8.86065435504375e-04
2.45116000000000e+00 1.02647994315975e-01 8.83329155297810e-04
2.46980000000000e+00 1.01941162231894e-01 8.80575860727937e-04
2.48844000000000e+00 1.01239197379739e-01 8.77806145555766e-04
2.50708000000000e+00 1.00542066243847e-01 8.75020590966998e-04
2.52572000000000e+00 9.98497355393407e-02 8.72219765864141e-04
2.54436000000000e+00 9.91621722105441e-02 8.69404227150290e-04
2.56300000000000e+00 9.84793434294011e-02 8.66574520004619e-04
2.58164000000000e+00 9.78012165939089e-02 8.63731178149939e-04
2.60028000000000e+00 9.71277593265616e-02 8.60874724112710e-04
2.61892000000000e+00 9.64589394728043e-02 8.58005669475597e-04
2.63756000000000e+00 9.57947250994974e-02 8.55124515122987e-04
2.65620000000000e+00 9.51350844933926e-02 8.52231751479757e-04
2.67484000000000e+00 9.44799861596182e-02 8.49327858743317e-04
2.69348000000000e+00 9.38293988201758e-02 8.46413307109413e-04
2.71212000000000e+00 9.31832914124464e-02 8.43488556991751e-04
2.73076000000000e+00 9.25416330877077e-02 8.40554059235479e-04
2.74940000000000e+00 9.19043932096612e-02 8.37610255325211e-04
2.76804000000000e+00 9.12715413529692e-02 8.34657577587527e-04
2.78668000000000e+00 9.06430473018024e-02 8.31696449387781e-04
2.80532000000000e+00 9.00188810483971e-02 8.28727285322093e-04
2.82396000000000e+00 8.93990127916224e-02 8.25750491404202e-04
2.84260000000000e+00 8.87834129355574e-02 8.22766465247441e-04
2.86124000000000e+00 8.81720520880782e-02 8.19775596242017e-04
2.87988000000000e+00 8.75649010594545e-02 8.16778265727782e-04
2.89852000000000e+00 8.69619308609558e-02 8.13774847162764e-04
2.91716000000000e+00 8.63631127034676e-02 8.10765706287127e-04
2.93580000000000e+00 8.57684179961166e-02 8.07751201283285e-04
2.95444000000000e+00 8.51778183449056e-02 8.04731682932049e-04
2.97308000000000e+00 8.45912855513581e-02 8.01707494764643e-04
2.99172000000000e+00 8.40087916111716e-02 7.98678973211197e-04
3.01036000000000e+00 8.34303087128808e-02 7.95646447745568e-04
3.02900000000000e+00 8.28558092365295e-02 7.92610241026677e-04
3.04764000000000e+00 8.22852657523520e-02 7.89570669036290e-04
3.06628000000000e+00 8.17186510194634e-02 7.86528041213615e-04
3.08492000000000e+00 8.11559379845592e-02 7.83482660586754e-04
3.10356000000000e+00 8.05970997806233e-02 7.80434823900846e-04
3.12220000000000e+00 8.00421097256452e-02 7.77384821743351e-04
3.14084000000000e+00 7.94909413213463e-02 7.74332938666306e-04
3.15948000000000e+00 7.89435682519148e-02 7.71279453305731e-04
3.17812000000000e+00 7.83999643827489e-02 7.68224638498365e-04
3.19676000000000e+00 7.78601037592091e-02 7.65168761395663e-04
3.21540000000000e+00 7.73239606053793e-02 7.62112083575108e-04
3.23404000000000e+00 7.67915093228355e-02 7.59054861149044e-04
3.25268000000000e+00 7.62627244894241e-02 7.55997344871085e-04
3.27132000000000e+00 7.57375808580482e-02 7.52939780240082e-04
3.28996000000000e+00 7.52160533554615e-02 7.49882407601749e-04
3.30860000000000e+00 7.46981170810719e-02 7.46825462248021e-04
3.32724000000000e+00 7.41837473057521e-02 7.43769174514261e-04
3.34588000000000e+00 7.36729194706592e-02 7.40713769874298e-04
3.36452000000000e+00 7.31656091860620e-02 7.37659469033311e-04
3.38316000000000e+00 7.26617922301764e-02 7.34606488018771e-04
3.40180000000000e+00 7.21614445480091e-02 7.31555038269387e-04
3.42044000000000e+00 7.16645422502092e-02 7.28505326722124e-04
3.43908000000000e+00 7.11710616119271e-02 7.25457555897316e-04
3.45772000000000e+00 7.06809790716823e-02 7.22411923981987e-04
3.47636000000000e+00 7.01942712302379e-02 7.19368624911404e-04
3.49500000000000e+00 6.97109148494840e-02 7.16327848448919e-04
3.51364000000000e+00 6.92308868513277e-02 7.13289780264068e-04
3.53228000000000e+00 6.87541643165915e-02 7.10254602008993e-04
3.55092000000000e+00 6.82807244839188e-02 7.07222491393460e-04
3.56956000000000e+00 6.78105447486873e-02 7.04193622258155e-04
3.58820000000000e+00 6.73436026619297e-02 7.01168164646420e-04
3.60684000000000e+00 6.68798759292618e-02 6.98146284874628e-04
3.62548000000000e+00 6.64193424098183e-02 6.95128145601133e-04
3.64412000000000e+00 6.59619801151951e-02 6.92113905893604e-04
3.66276000000000e+00 6.55077672084001e-02 6.89103721295219e-04
3.68140000000000e+00 6.50566820028102e-02 6.86097743889451e-04
3.70004000000000e+00 6.46087029611360e-02 6.83096122363470e-04
3.71868000000000e+00 6.41638086943936e-02 6.80099002070391e-04
3.73732000000000e+00 6.37219779608828e-02 6.77106525090089e-04
3.75596000000000e+00 6.32831896651738e-02 6.74118830288995e-04
3.77460000000000e+00 6.28474228570993e-02 6.71136053378689e-04
3.79324000000000e+00 6.24146567307543e-02 6.68158326973214e-04
3.81188000000000e+00 6.19848706235032e-02 6.65185780645262e-04
3.83052000000000e+00 6.15580440149927e-02 6.62218540981405e-04
3.84916000000000e+00 6.11341565261721e-02 6.59256731636168e-04
3.86780000000000e+00 6.07131879183208e-02 6.56300473384992e-04
3.88644000000000e+00 6.02951180920814e-02 6.53349884176190e-04
3.90508000000000e+00 5.98799270865003e-02 6.50405079182048e-04
3.92372000000000e+00 5.94675950780746e-02 6.47466170848672e-04
3.94236000000000e+00 5.90581023798059e-02 6.44533268945163e-04
3.96100000000000e+00 5.86514294402598e-02 6.41606480611686e-04
3.97964000000000e+00 5.82475568426329e-02 6.38685910406509e-04
3.99828000000000e+00 5.78464653038254e-02 6.35771660352543e-04
4.01692000000000e+00 5.74481356735205e-02 6.32863829982566e-04
4.03556000000000e+00 5.70525489332703e-02 6.29962516383834e-04
4.05420000000000e+00 5.66596861955873e-02 6.27067814241832e-04
4.07284000000000e+00 5.62695287030432e-02 6.24179815883089e-04
4.09148000000000e+00 5.58820578273728e-02 6.21298611317394e-04
4.11012000000000e+00 5.54972550685846e-02 6.18424288279131e-04
4.12876000000000e+00 5.51151020540781e-02 6.15556932267660e-04
4.14740000000000e+00 5.47355805377658e-02 6.12696626587254e-04
4.16604000000000e+00 5.43586723992025e-02 6.09843452386177e-04
4.18468000000000e+00 5.39843596427202e-02 6.06997488694938e-04
4.20332000000000e+00 5.36126243965684e-02 6.04158812464028e-04
4.22196000000000e+00 5.32434489120614e-02 6.01327498600868e-04
4.24060000000000e+00 5.28768155627304e-02 5.98503620006085e-04
4.25924000000000e+00 5.25127068434824e-02 5.95687247609084e-04
4.27788000000000e+00 5.21511053697639e-02 5.92878450403112e-04
4.29652000000000e+00 5.17919938767311e-02 5.90077295479659e-04
4.31516000000000e+00 5.14353552184257e-02 5.87283848062110e-04
4.33380000000000e+00 5.10811723669560e-02 5.84498171538834e-04
4.35244000000000e+00 5.07294284116841e-02 5.81720327495814e-04
4.37108000000000e+00 5.03801065584184e-02 5.78950375748589e-04
4.38972000000000e+00 5.00331901286119e-02 5.76188374373605e-04
4.40836000000000e+00 4.96886625585654e-02 5.73434379739039e-04
4.42700000000000e+00 4.93465073986375e-02 5.70688446535152e-04
4.44564000000000e+00 4.90067083124584e-02 5.67950627804035e-04
4.46428000000000e+00 4.86692490761502e-02 5.65220974968746e-04
4.48292000000000e+00 4.83341135775524e-02 5.62499537862086e-04
4.50156000000000e+00 4.80012858154526e-02 5.59786364754815e-04
4.52020000000000e+00 4.76707498988223e-02 5.57081502383353e-04
4.53884000000000e+00 4.73424900460583e-02 5.54384995977018e-04
4.55748000000000e+00 4.70164905842293e-02 5.51696889284757e-04
4.57612000000000e+00 4.66927359483276e-02 5.49017224601513e-04
4.59476000000000e+00 4.63712106805255e-02 5.46346042794014e-04
4.61340000000000e+00 4.60518994294379e-02 5.43683383326101e-04
4.63204000000000e+00 4.57347869493890e-02 5.41029284283769e-04
4.65068000000000e+00 4.54198580996842e-02 5.38383782399703e-04
4.66932000000000e+00 4.51070978438878e-02 5.35746913077363e-04
4.68796000000000e+00 4.47964912491044e-02 5.33118710414639e-04
4.70660000000000e+00 4.44880234852664e-02 5.30499207227145e-04
4.72524000000000e+00 4.41816798244256e-02 5.27888435071137e-04
4.74388000000000e+00 4.38774456400502e-02 5.25286424266008e-04
4.76252000000000e+00 4.35753064063266e-02 5.22693203916386e-04
4.78116000000000e+00 4.32752476974654e-02 5.20108801933846e-04
4.79980000000000e+00 4.29772551870130e-02 5.17533245058315e-04
4.81844000000000e+00 4.26813146471677e-02 5.14966558879131e-04
4.83708000000000e+00 4.23874119480999e-02 5.12408767855653e-04
4.85572000000000e+00 4.20955330572777e-02 5.09859895337551e-04
4.87436000000000e+00 4.18056640387972e-02 5.07319963584786e-04
4.89300000000000e+00 4.15177910527165e-02 5.04788993787228e-04
4.91164000000000e+00 4.12319003543957e-02 5.02267006083999e-04
4.93028000000000e+00 4.09479782938399e-02 4.99754019582473e-04
4.94892000000000e+00 4.06660113150479e-02 4.97250052376862e-04
4.96756000000000e+00 4.03859859553649e-02 4.94755121566600e-04
4.98620000000000e+00 4.01078888448396e-02 4.92269243274413e-04
5.00484000000000e+00 3.98317067055859e-02 4.89792432664029e-04
5.02348000000000e+00 3.95574263511491e-02 4.87324703957694e-04
5.04212000000000e+00 3.92850346858761e-02 4.84866070453273e-04
5.06076000000000e+00 3.90145187042901e-02 4.82416544541112e-04
5.07940000000000e+00 3.87458654904701e-02 4.79976137720734e-04
5.09804000000000e+00 3.84790622174335e-02 4.77544860617131e-04
5.11668000000000e+00 3.82140961465241e-02 4.75122722996744e-04
5.13532000000000e+00 3.79509546268041e-02 4.72709733783303e-04
5.15396000000000e+00 3.76896250944496e-02 4.70305901073424e-04
5.17260000000000e+00 3.74300950721509e-02 4.67911232151786e-04
5.19124000000000e+00 3.71723521685169e-02 4.65525733506214e-04
5.20988000000000e+00 3.69163840774835e-02 4.63149410842466e-04
5.22852000000000e+00 3.66621785777258e-02 4.60782269098789e-04
5.24716000000000e+00 3.64097235320745e-02 4.58424312460197e-04
5.26580000000000e+00 3.61590068869371e-02 4.56075544372497e-04
5.28444000000000e+00 3.59100166717214e-02 4.53735967556231e-04
5.30308000000000e+00 3.56627409982647e-02 4.51405584020222e-04
5.32172000000000e+00 3.54171680602660e-02 4.49084395074924e-04
5.34036000000000e+00 3.51732861327222e-02 4.46772401345719e-04
5.35900000000000e+00 3.49310835713683e-02 4.44469602785835e-04
5.37764000000000e+00 3.46905488121215e-02 4.42175998689043e-04
5.39628000000000e+00 3.44516703705291e-02 4.39891587702226e-04
5.41492000000000e+00 3.42144368412200e-02 4.37616367837781e-04
5.43356000000000e+00 3.39788368973604e-02 4.35350336485701e-04
5.45220000000000e+00 3.37448592901129e-02 4.33093490425535e-04
5.47084000000000e+00 3.35124928480991e-02 4.30845825838183e-04
5.48948000000000e+00 3.32817264768668e-02 4.28607338317388e-04
5.50812000000000e+00 3.30525491583598e-02 4.26378022881172e-04
5.52676000000000e+00 3.28249499503920e-02 4.24157873983022e-04
5.54540000000000e+00 3.25989179861252e-02 4.21946885522874e-04
5.56404000000000e+00 3.23744424735498e-02 4.19745050857995e-04
5.58268000000000e+00 3.21515126949698e-02 4.17552362813595e-04
5.60132000000000e+00 3.19301180064911e-02 4.15368813693355e-04
5.61996000000000e+00 3.17102478375134e-02 4.13194395289788e-04
5.63860000000000e+00 3.14918916902250e-02 4.11029098894329e-04
5.65724000000000e+00 3.12750391391022e-02 4.08872915307319e-04
5.67588000000000e+00 3.10596798304112e-02 4.06725834847897e-04
5.69452000000000e+00 3.08458034817137e-02 4.04587847363690e-04
5.71316000000000e+00 3.06333998813762e-02 4.02458942240266e-04
5.73180000000000e+00 3.04224588880823e-02 4.00339108410545e-04
5.75044000000000e+00 3.02129704303484e-02 3.98228334364042e-04
5.76908000000000e+00 3.00049245060430e-02 3.96126608155879e-04
5.78772000000000e+00 2.97983111819091e-02 3.94033917415760e-04
5.80636000000000e+00 2.95931205930898e-02 3.91950249356751e-04
5.82500000000000e+00 2.93893429426577e-02 3.89875590783900e-04
5.84364000000000e+00 2.91869685011466e-02 3.87809928102739e-04
5.86228000000000e+00 2.89859876060872e-02 3.85753247327709e-04
5.88092000000000e+00 2.87863906615459e-02 3.83705534090373e-04
