Energy (eV)          EEDF (eV^-(3/2))     First Anisotropy
8.06250000000000e-03 1.72422076867416e+00 1.57821609398676e-03
2.41875000000000e-02 1.68746188816146e+00 2.58700062682323e-03
4.03125000000000e-02 1.65148667486890e+00 3.36495093049380e-03
5.64375000000000e-02 1.61627842169589e+00 3.92629112977687e-03
7.25625000000000e-02 1.58182077772268e+00 4.37051486231256e-03
8.86875000000000e-02 1.54809774061686e+00 4.73610105527461e-03
1.04812500000000e-01 1.51509364920177e+00 5.04339096805514e-03
1.20937500000000e-01 1.48279317618334e+00 5.30492063816766e-03
1.37062500000000e-01 1.45118132103205e+00 5.52916825299642e-03
1.53187500000000e-01 1.42024340301653e+00 5.72223936957798e-03
1.69312500000000e-01 1.38996505438580e+00 5.88873528040261e-03
1.85437500000000e-01 1.36033221369679e+00 6.03224504374458e-03
2.01562500000000e-01 1.33133111928407e+00 6.15564463580007e-03
2.17687500000000e-01 1.30294830286895e+00 6.26128904536461e-03
2.33812500000000e-01 1.27517058330462e+00 6.35114113459561e-03
2.49937500000000e-01 1.24798506045485e+00 6.42686123610561e-03
2.66062500000000e-01 1.22137910920303e+00 6.48987134596162e-03
2.82187500000000e-01 1.19534037358899e+00 6.54140230247273e-03
2.98312500000000e-01 1.16985676107086e+00 6.58252922957544e-03
3.14437500000000e-01 1.14491643690919e+00 6.61419867761872e-03
3.30562500000000e-01 1.12050781867083e+00 6.63724975855276e-03
3.46687500000000e-01 1.09661957084999e+00 6.65243085138140e-03
3.62812500000000e-01 1.07324059960398e+00 6.66041298307930e-03
3.78937500000000e-01 1.05036004760111e+00 6.66180067542532e-03
3.95062500000000e-01 1.02796728897854e+00 6.65714083310197e-03
4.11187500000000e-01 1.00605192440754e+00 6.64693009851737e-03
4.27312500000000e-01 9.84603776263971e-01 6.63162099251008e-03
4.43437500000000e-01 9.63612883901771e-01 6.61162708349995e-03
4.59562500000000e-01 9.43069499027134e-01 6.58732737164805e-03
4.75687500000000e-01 9.22964081171368e-01 6.55907003310319e-03
4.91812500000000e-01 9.03287293260237e-01 6.52717563829452e-03
5.07937500000000e-01 8.84029997277771e-01 6.49193993462814e-03
5.24062500000000e-01 8.65183250022519e-01 6.45363626585899e-03
5.40187500000000e-01 8.46738298954271e-01 6.41251768640758e-03
5.56312500000000e-01 8.28686578129328e-01 6.36881881795984e-03
5.72437500000000e-01 8.11019704222429e-01 6.32275748708048e-03
5.88562500000000e-01 7.93729472633481e-01 6.27453617573519e-03
6.04687500000000e-01 7.76807853677301e-01 6.22434331115425e-03
6.20812500000000e-01 7.60246988854577e-01 6.17235441706845e-03
6.36937500000000e-01 7.44039187202337e-01 6.11873314478482e-03
6.53062500000000e-01 7.28176921722222e-01 6.06363219966047e-03
6.69187500000000e-01 7.12652825884903e-01 6.00719417614780e-03
6.85312500000000e-01 6.97459690209018e-01 5.94955231261678e-03
7.01437500000000e-01 6.82590458913052e-01 5.89083117552946e-03
7.17562500000000e-01 6.68038226638587e-01 5.83114728118313e-03
7.33687500000000e-01 6.53796235243415e-01 5.77060966209931e-03
7.49812500000000e-01 6.39857870663015e-01 5.70932038418024e-03
7.65937500000000e-01 6.26216659838943e-01 5.64737501994530e-03
7.82062500000000e-01 6.12866267712708e-01 5.58486308247628e-03
7.98187500000000e-01 5.99800494283731e-01 5.52186842411429e-03
8.14312500000000e-01 5.87013271730027e-01 5.45846960345435e-03
8.30437500000000e-01 5.74498661590278e-01 5.39474022375652e-03
8.46562500000000e-01 5.62250852005972e-01 5.33074924552239e-03
8.62687500000000e-01 5.50264155022343e-01 5.26656127566954e-03
8.78812500000000e-01 5.38533003946852e-01 5.20223683546133e-03
8.94937500000000e-01 5.27051950763983e-01 5.13783260911012e-03
9.11062500000000e-01 5.15815663605149e-01 5.07340167476270e-03
9.27187500000000e-01 5.04818924272545e-01 5.00899371939641e-03
9.43312500000000e-01 4.94056625815784e-01 4.94465523899415e-03
9.59437500000000e-01 4.83523770160200e-01 4.88042972522571e-03
9.75562500000000e-01 4.73215465785714e-01 4.81635783974051e-03
9.91687500000000e-01 4.63126925455179e-01 4.75247757706728e-03
1.00781250000000e+00 4.53253463991164e-01 4.68882441702019e-03
1.02393750000000e+00 4.43590496100127e-01 4.62543146742560e-03
1.04006250000000e+00 4.34133534242979e-01 4.56232959790649e-03
1.05618750000000e+00 4.24878186551043e-01 4.49954756539553e-03
1.07231250000000e+00 4.15820154786448e-01 4.43711213198646e-03
1.08843750000000e+00 4.06955232345997e-01 4.37504817567913e-03
1.10456250000000e+00 3.98279302307599e-01 4.31337879452577e-03
1.12068750000000e+00 3.89788335518346e-01 4.25212540464256e-03
1.13681250000000e+00 3.81478388723349e-01 4.19130783251100e-03
1.15293750000000e+00 3.73345602734470e-01 4.13094440195859e-03
1.16906250000000e+00 3.65386200638090e-01 4.07105201617658e-03
1.18518750000000e+00 3.57596486041087e-01 4.01164623510392e-03
1.20131250000000e+00 3.49972841354215e-01 3.95274134848027e-03
1.21743750000000e+00 3.42511726112067e-01 3.89435044484730e-03
1.23356250000000e+00 3.35209675328868e-01 3.83648547675628e-03
1.24968750000000e+00 3.28063297889310e-01 3.77915732242034e-03
1.26581250000000e+00 3.21069274973704e-01 3.72237584403187e-03
1.28193750000000e+00 3.14224358516695e-01 3.66614994294972e-03
1.29806250000000e+00 3.07525369698845e-01 3.61048761194552e-03
1.31418750000000e+00 3.00969197470370e-01 3.55539598468545e-03
1.33031250000000e+00 2.94552797106347e-01 3.50088138261074e-03
1.34643750000000e+00 2.88273188792732e-01 3.44694935936924e-03
1.36256250000000e+00 2.82127456242511e-01 3.39360474294014e-03
1.37868750000000e+00 2.76112745341362e-01 3.34085167558345e-03
1.39481250000000e+00 2.70226262822187e-01 3.28869365173845e-03
1.41093750000000e+00 2.64465274967902e-01 3.23713355398510e-03
1.42706250000000e+00 2.58827106341884e-01 3.18617368717734e-03
1.44318750000000e+00 2.53309138545480e-01 3.13581581084815e-03
1.45931250000000e+00 2.47908809002011e-01 3.08606116998091e-03
1.47543750000000e+00 2.42623609766693e-01 3.03691052423586e-03
1.49156250000000e+00 2.37451086361932e-01 2.98836417571360e-03
1.50768750000000e+00 2.32388836637456e-01 2.94042199533438e-03
1.52381250000000e+00 2.27434509654735e-01 2.89308344790573e-03
1.53993750000000e+00 2.22585804595197e-01 2.84634761594721e-03
1.55606250000000e+00 2.17840469691709e-01 2.80021322233667e-03
1.57218750000000e+00 2.13196301182849e-01 2.75467865183899e-03
1.58831250000000e+00 2.08651142289462e-01 2.70974197157456e-03
1.60443750000000e+00 2.04202882213042e-01 2.66540095048083e-03
1.62056250000000e+00 1.99849455155460e-01 2.62165307781859e-03
1.63668750000000e+00 1.95588839359601e-01 2.57849558077052e-03
1.65281250000000e+00 1.91419056170445e-01 2.53592544117708e-03
1.66893750000000e+00 1.87338169116169e-01 2.49393941145270e-03
1.68506250000000e+00 1.83344283008835e-01 2.45253402972277e-03
1.70118750000000e+00 1.79435543064259e-01 2.41170563421932e-03
1.71731250000000e+00 1.75610134040635e-01 2.37145037697177e-03
1.73343750000000e+00 1.71866279395525e-01 2.33176423682702e-03
1.74956250000000e+00 1.68202240460826e-01 2.29264303183060e-03
1.76568750000000e+00 1.64616315635318e-01 2.25408243100027e-03
1.78181250000000e+00 1.61106839594434e-01 2.21607796552086e-03
1.79793750000000e+00 1.57672182516870e-01 2.17862503938780e-03
1.81406250000000e+00 1.54310749327691e-01 2.14171893952563e-03
1.83018750000000e+00 1.51020978957565e-01 2.10535484540603e-03
1.84631250000000e+00 1.47801343617793e-01 2.06952783818920e-03
1.86243750000000e+00 1.44650348090799e-01 2.03423290941081e-03
1.87856250000000e+00 1.41566529035737e-01 1.99946496923550e-03
1.89468750000000e+00 1.38548454308912e-01 1.96521885429762e-03
1.91081250000000e+00 1.35594722298678e-01 1.93148933514789e-03
1.92693750000000e+00 1.32703961274529e-01 1.89827112332450e-03
1.94306250000000e+00 1.29874828750053e-01 1.86555887806583e-03
1.95918750000000e+00 1.27106010859474e-01 1.83334721268148e-03
1.97531250000000e+00 1.24396221747488e-01 1.80163070059714e-03
1.99143750000000e+00 1.21744202972105e-01 1.77040388108825e-03
2.00756250000000e+00 1.19148722920214e-01 1.73966126471686e-03
2.02368750000000e+00 1.16608576235624e-01 1.70939733848505e-03
2.03981250000000e+00 1.14122583259283e-01 1.67960657071810e-03
2.05593750000000e+00 1.11689589481439e-01 1.65028341568943e-03
2.07206250000000e+00 1.09308465005481e-01 1.62142231799931e-03
2.08818750000000e+00 1.06978104023205e-01 1.59301771671828e-03
2.10431250000000e+00 1.04697424301273e-01 1.56506404930632e-03
2.12043750000000e+00 1.02465366678615e-01 1.53755575531761e-03
2.13656250000000e+00 1.00280894574552e-01 1.51048727990076e-03
2.15268750000000e+00 9.81429935073969e-02 1.48385307710390e-03
2.16881250000000e+00 9.60506706233281e-02 1.45764761299330e-03
2.18493750000000e+00 9.40029542352988e-02 1.43186536859399e-03
2.20106250000000e+00 9.19988933717816e-02 1.40650084266066e-03
2.21718750000000e+00 9.00375573351313e-02 1.38154855428629e-03
2.23331250000000e+00 8.81180352693634e-02 1.35700304535618e-03
2.24943750000000e+00 8.62394357371474e-02 1.33285888285412e-03
2.26556250000000e+00 8.44008863058177e-02 1.30911066102756e-03
2.28168750000000e+00 8.26015331422111e-02 1.28575300341826e-03
2.29781250000000e+00 8.08405406161415e-02 1.26278056476449e-03
2.31393750000000e+00 7.91170909123284e-02 1.24018803278078e-03
2.33006250000000e+00 7.74303836505986e-02 1.21797012982058e-03
2.34618750000000e+00 7.57796355141851e-02 1.19612161442758e-03
2.36231250000000e+00 7.41640798859498e-02 1.17463728278034e-03
2.37843750000000e+00 7.25829664923627e-02 1.15351197003568e-03
2.39456250000000e+00 7.10355610550695e-02 1.13274055157511e-03
2.41068750000000e+00 6.95211449498894e-02 1.11231794415901e-03
2.42681250000000e+00 6.80390148730810e-02 1.09223910699275e-03
2.44293750000000e+00 6.65884825147245e-02 1.07249904270894e-03
2.45906250000000e+00 6.51688742390662e-02 1.05309279826981e-03
2.47518750000000e+00 6.37795307716782e-02 1.03401546579325e-03
2.49131250000000e+00 6.24198068932874e-02 1.01526218330636e-03
2.50743750000000e+00 6.10890711401321e-02 9.96828135429892e-04
2.52356250000000e+00 5.97867055107062e-02 9.78708553996673e-04
2.53968750000000e+00 5.85121051787558e-02 9.60898718607595e-04
2.55581250000000e+00 5.72646782123945e-02 9.43393957127798e-04
2.57193750000000e+00 5.60438452992064e-02 9.26189646126113e-04
2.58806250000000e+00 5.48490394772106e-02 9.09281211260593e-04
2.60418750000000e+00 5.36797058715598e-02 8.92664127612658e-04
2.62031250000000e+00 5.25353014368543e-02 8.76333919972436e-04
2.63643750000000e+00 5.14152947049474e-02 8.60286163077738e-04
2.65256250000000e+00 5.03191655381292e-02 8.44516481809013e-04
2.66868750000000e+00 4.92464048875716e-02 8.29020551342507e-04
2.68481250000000e+00 4.81965145569224e-02 8.13794097263699e-04
2.70093750000000e+00 4.71690069709407e-02 7.98832895643113e-04
2.71706250000000e+00 4.61634049490637e-02 7.84132773076430e-04
2.73318750000000e+00 4.51792414838014e-02 7.69689606690818e-04
2.74931250000000e+00 4.42160595238554e-02 7.55499324119199e-04
2.76543750000000e+00 4.32734117618617e-02 7.41557903444192e-04
2.78156250000000e+00 4.23508604266586e-02 7.27861373113392e-04
2.79768750000000e+00 4.14479770799833e-02 7.14405811827517e-04
2.81381250000000e+00 4.05643424175021e-02 7.01187348402964e-04
2.82993750000000e+00 3.96995460740836e-02 6.88202161610175e-04
2.84606250000000e+00 3.88531864332225e-02 6.75446479989199e-04
2.86218750000000e+00 3.80248704405267e-02 6.62916581643776e-04
2.87831250000000e+00 3.72142134211800e-02 6.50608794015194e-04
2.89443750000000e+00 3.64208389012976e-02 6.38519493637087e-04
2.91056250000000e+00 3.56443784330888e-02 6.26645105872357e-04
2.92668750000000e+00 3.48844714237480e-02 6.14982104633365e-04
2.94281250000000e+00 3.41407649679932e-02 6.03527012086318e-04
2.95893750000000e+00 3.34129136841747e-02 5.92276398341012e-04
2.97506250000000e+00 3.27005795538780e-02 5.81226881126771e-04
2.99118750000000e+00 3.20034317649456e-02 5.70375125455515e-04
3.00731250000000e+00 3.13211465578464e-02 5.59717843272915e-04
3.02343750000000e+00 3.06534070753196e-02 5.49251793098423e-04
3.03956250000000e+00 2.99999032152246e-02 5.38973779654939e-04
3.05568750000000e+00 2.93603314865272e-02 5.28880653488953e-04
3.07181250000000e+00 2.87343948683572e-02 5.18969310581827e-04
3.08793750000000e+00 2.81218026720696e-02 5.09236691952971e-04
3.10406250000000e+00 2.75222704062477e-02 4.99679783255561e-04
3.12018750000000e+00 2.69355196445830e-02 4.90295614365397e-04
3.13631250000000e+00 2.63612778965728e-02 4.81081258963594e-04
3.15243750000000e+00 2.57992784809738e-02 4.72033834113580e-04
3.16856250000000e+00 2.52492604019538e-02 4.63150499833012e-04
3.18468750000000e+00 2.47109682278840e-02 4.54428458661157e-04
3.20081250000000e+00 2.41841519727144e-02 4.45864955222188e-04
3.21693750000000e+00 2.36685669798795e-02 4.37457275784892e-04
3.23306250000000e+00 2.31639738086779e-02 4.29202747819250e-04
3.24918750000000e+00 2.26701381230748e-02 4.21098739550345e-04
3.26531250000000e+00 2.21868305828749e-02 4.13142659509943e-04
3.28143750000000e+00 2.17138267372157e-02 4.05331956086220e-04
3.29756250000000e+00 2.12509069203308e-02 3.97664117071942e-04
3.31368750000000e+00 2.07978561495361e-02 3.90136669211495e-04
3.32981250000000e+00 2.03544640253905e-02 3.82747177747091e-04
3.34593750000000e+00 1.99205246339854e-02 3.75493245964454e-04
3.36206250000000e+00 1.94958364513164e-02 3.68372514738310e-04
3.37818750000000e+00 1.90802022496953e-02 3.61382662077952e-04
3.39431250000000e+00 1.86734290061556e-02 3.54521402673174e-04
3.41043750000000e+00 1.82753278128119e-02 3.47786487440822e-04
3.42656250000000e+00 1.78857137891300e-02 3.41175703072200e-04
3.44268750000000e+00 1.75044059960670e-02 3.34686871581546e-04
3.45881250000000e+00 1.71312273520424e-02 3.28317849855880e-04
3.47493750000000e+00 1.67660045507004e-02 3.22066529206317e-04
3.49106250000000e+00 1.64085679804251e-02 3.15930834921112e-04
3.50718750000000e+00 1.60587516455722e-02 3.09908725820621e-04
3.52331250000000e+00 1.57163930893797e-02 3.03998193814310e-04
3.53943750000000e+00 1.53813333185214e-02 2.98197263460035e-04
3.55556250000000e+00 1.50534167292703e-02 2.92503991525670e-04
3.57168750000000e+00 1.47324910352349e-02 2.86916466553306e-04
3.58781250000000e+00 1.44184071966363e-02 2.81432808426121e-04
3.60393750000000e+00 1.41110193510936e-02 2.76051167938045e-04
3.62006250000000e+00 1.38101847458845e-02 2.70769726366309e-04
3.63618750000000e+00 1.35157636716500e-02 2.65586695047074e-04
3.65231250000000e+00 1.32276193975126e-02 2.60500314954194e-04
3.66843750000000e+00 1.29456181075776e-02 2.55508856281159e-04
3.68456250000000e+00 1.26696288387883e-02 2.50610618026398e-04
3.70068750000000e+00 1.23995234201059e-02 2.45803927581972e-04
3.71681250000000e+00 1.21351764129863e-02 2.41087140325747e-04
3.73293750000000e+00 1.18764650531256e-02 2.36458639217124e-04
3.74906250000000e+00 1.16232691934473e-02 2.31916834396381e-04
3.76518750000000e+00 1.13754712483061e-02 2.27460162787667e-04
3.78131250000000e+00 1.11329561388795e-02 2.23087087705761e-04
3.79743750000000e+00 1.08956112397252e-02 2.18796098466589e-04
3.81356250000000e+00 1.06633263264769e-02 2.14585710001556e-04
3.82968750000000e+00 1.04359935246555e-02 2.10454462475769e-04
3.84581250000000e+00 1.02135072595714e-02 2.06400920910135e-04
3.86193750000000e+00 9.99576420729539e-03 2.02423674807384e-04
3.87806250000000e+00 9.78266324667405e-03 1.98521337782076e-04
3.89418750000000e+00 9.57410541236861e-03 1.94692547194553e-04
3.91031250000000e+00 9.36999384889488e-03 1.90935963788926e-04
3.92643750000000e+00 9.17023376564298e-03 1.87250271335064e-04
3.94256250000000e+00 8.97473239285603e-03 1.83634176274610e-04
3.95868750000000e+00 8.78339893854732e-03 1.80086407371050e-04
3.97481250000000e+00 8.59614454633597e-03 1.76605715363823e-04
3.99093750000000e+00 8.41288225418154e-03 1.73190872626488e-04
4.00706250000000e+00 8.23352695399829e-03 1.69840672828945e-04
4.02318750000000e+00 8.05799535213054e-03 1.66553930603716e-04
4.03931250000000e+00 7.88620593067058e-03 1.63329481216275e-04
4.05543750000000e+00 7.71807890960127e-03 1.60166180239419e-04
4.07156250000000e+00 7.55353620974576e-03 1.57062903231695e-04
4.08768750000000e+00 7.39250141650701e-03 1.54018545419841e-04
4.10381250000000e+00 7.23489974438047e-03 1.51032021385252e-04
4.11993750000000e+00 7.08065800222318e-03 1.48102264754459e-04
4.13606250000000e+00 6.92970455926344e-03 1.45228227893587e-04
4.15218750000000e+00 6.78196931183499e-03 1.42408881606792e-04
4.16831250000000e+00 6.63738365082052e-03 1.39643214838662e-04
4.18443750000000e+00 6.49588042978916e-03 1.36930234380543e-04
4.20056250000000e+00 6.35739393381327e-03 1.34268964580779e-04
4.21668750000000e+00 6.22185984895009e-03 1.31658447058872e-04
4.23281250000000e+00 6.08921523237390e-03 1.29097740423478e-04
4.24893750000000e+00 5.95939848314506e-03 1.26585919994268e-04
4.26506250000000e+00 5.83234931360215e-03 1.24122077527609e-04
4.28118750000000e+00 5.70800872136401e-03 1.21705320946030e-04
4.29731250000000e+00 5.58631896192871e-03 1.19334774071463e-04
4.31343750000000e+00 5.46722352185666e-03 1.17009576362218e-04
4.32956250000000e+00 5.35066709252542e-03 1.14728882653665e-04
4.34568750000000e+00 5.23659554444408e-03 1.12491862902600e-04
4.36181250000000e+00 5.12495590211518e-03 1.10297701935254e-04
4.37793750000000e+00 5.01569631943258e-03 1.08145599198921e-04
4.39406250000000e+00 4.90876605560383e-03 1.06034768517169e-04
4.41018750000000e+00 4.80411545158586e-03 1.03964437848607e-04
4.42631250000000e+00 4.70169590702301e-03 1.01933849049173e-04
4.44243750000000e+00 4.60145985767675e-03 9.99422576379022e-05
4.45856250000000e+00 4.50336075333655e-03 9.79889325661505e-05
4.47468750000000e+00 4.40735303620171e-03 9.60731559902411e-05
4.49081250000000e+00 4.31339211972405e-03 9.41942230474886e-05
4.50693750000000e+00 4.22143436790165e-03 9.23514416355821e-05
4.52306250000000e+00 4.13143707501400e-03 9.05441321952692e-05
4.53918750000000e+00 4.04335844578927e-03 8.87716274963294e-05
4.55531250000000e+00 3.95715757599432e-03 8.70332724267908e-05
4.57143750000000e+00 3.87279443343849e-03 8.53284237853464e-05
4.58756250000000e+00 3.79022983938250e-03 8.36564500769570e-05
4.60368750000000e+00 3.70942545034353e-03 8.20167313115841e-05
4.61981250000000e+00 3.63034374028832e-03 8.04086588060173e-05
4.63593750000000e+00 3.55294798320589e-03 7.88316349887759e-05
4.65206250000000e+00 3.47720223605168e-03 7.72850732080388e-05
4.66818750000000e+00 3.40307132205547e-03 7.57683975425616e-05
4.68431250000000e+00 3.33052081438506e-03 7.42810426155580e-05
4.70043750000000e+00 3.25951702015822e-03 7.28224534114998e-05
4.71656250000000e+00 3.19002696479553e-03 7.13920850957988e-05
4.73268750000000e+00 3.12201837670680e-03 6.99894028373426e-05
4.74881250000000e+00 3.05545967230398e-03 6.86138816338444e-05
4.76493750000000e+00 2.99031994133348e-03 6.72650061399707e-05
4.78106250000000e+00 2.92656893252134e-03 6.59422704982100e-05
4.79718750000000e+00 2.86417703952433e-03 6.46451781724500e-05
4.81331250000000e+00 2.80311528718060e-03 6.33732417842292e-05
4.82943750000000e+00 2.74335531805341e-03 6.21259829516240e-05
4.84556250000000e+00 2.68486937926184e-03 6.09029321307384e-05
4.86168750000000e+00 2.62763030959212e-03 5.97036284597653e-05
4.87781250000000e+00 2.57161152688382e-03 5.85276196055730e-05
4.89393750000000e+00 2.51678701568497e-03 5.73744616127987e-05
4.91006250000000e+00 2.46313131517031e-03 5.62437187554065e-05
4.92618750000000e+00 2.41061950731712e-03 5.51349633906705e-05
4.94231250000000e+00 2.35922720533315e-03 5.40477758155652e-05
4.95843750000000e+00 2.30893054233127e-03 5.29817441255126e-05
4.97456250000000e+00 2.25970616024554e-03 5.19364640754649e-05
4.99068750000000e+00 2.21153119898356e-03 5.09115389432850e-05
5.00681250000000e+00 2.16438328581015e-03 4.99065793953916e-05
5.02293750000000e+00 2.11824052495727e-03 4.89212033546408e-05
5.03906250000000e+00 2.07308148745556e-03 4.79550358704087e-05
5.05518750000000e+00 2.02888520118255e-03 4.70077089908438e-05
5.07131250000000e+00 1.98563114112310e-03 4.60788616372562e-05
5.08743750000000e+00 1.94329921983746e-03 4.51681394806211e-05
