Energy (eV)          EEDF (eV^-(3/2))     First Anisotropy
1.52000000000000e-02 1.21695682014099e-01 6.44463867715724e-05
4.56000000000000e-02 1.20858394362543e-01 1.06410943173990e-04
7.60000000000000e-02 1.20026867396896e-01 1.40452361130606e-04
1.06400000000000e-01 1.19201061482696e-01 1.66300424647587e-04
1.36800000000000e-01 1.18380937258117e-01 1.87846890783025e-04
1.67200000000000e-01 1.17566455632143e-01 2.06563184551403e-04
1.97600000000000e-01 1.16757577782707e-01 2.23210770516344e-04
2.28000000000000e-01 1.15954265154843e-01 2.38249474738804e-04
2.58400000000000e-01 1.15156479458851e-01 2.51984261697432e-04
2.88800000000000e-01 1.14364182668470e-01 2.64630673605415e-04
3.19200000000000e-01 1.13577337019066e-01 2.76348265614648e-04
3.49600000000000e-01 1.12795905005833e-01 2.87259392156310e-04
3.80000000000000e-01 1.12019849382004e-01 2.97460533398362e-04
4.10400000000000e-01 1.11249133157075e-01 3.07029507181399e-04
4.40800000000000e-01 1.10483719595047e-01 3.16030265914741e-04
4.71200000000000e-01 1.09723572212666e-01 3.24516203277127e-04
5.01600000000000e-01 1.08968654777694e-01 3.32532502772872e-04
5.32000000000000e-01 1.08218931307173e-01 3.40117848606888e-04
5.62400000000000e-01 1.07474366065717e-01 3.47305699504024e-04
5.92800000000000e-01 1.06734923563805e-01 3.54125255287958e-04
6.23200000000000e-01 1.06000568556089e-01 3.60602202649689e-04
6.53600000000000e-01 1.05271266039717e-01 3.66759299104439e-04
6.84000000000000e-01 1.04546981252660e-01 3.72616836306221e-04
7.14400000000000e-01 1.03827679672062e-01 3.78193012016428e-04
7.44800000000000e-01 1.03113327012586e-01 3.83504231941880e-04
7.75200000000000e-01 1.02403889224788e-01 3.88565357050262e-04
8.05600000000000e-01 1.01699332493486e-01 3.93389908011173e-04
8.36000000000000e-01 1.00999623236156e-01 3.97990235569209e-04
8.66400000000000e-01 1.00304728101326e-01 4.02377663586948e-04
8.96800000000000e-01 9.96146139669883e-02 4.06562609969563e-04
9.27200000000000e-01 9.89292479390202e-02 4.10554689543015e-04
9.57600000000000e-01 9.82485973496167e-02 4.14362802097143e-04
9.88000000000000e-01 9.75726297557327e-02 4.17995208147859e-04
1.01840000000000e+00 9.69013129375371e-02 4.21459594466457e-04
1.04880000000000e+00 9.62346148968771e-02 4.24763131030886e-04
1.07920000000000e+00 9.55725038557524e-02 4.27912520744878e-04
1.10960000000000e+00 9.49149482548011e-02 4.30914043026940e-04
1.14000000000000e+00 9.42619167517953e-02 4.33773592177504e-04
1.17040000000000e+00 9.36133782201471e-02 4.36496711276810e-04
1.20080000000000e+00 9.29693017474250e-02 4.39088622240147e-04
1.23120000000000e+00 9.23296566338804e-02 4.41554252555701e-04
1.26160000000000e+00 9.16944123909843e-02 4.43898259146976e-04
1.29200000000000e+00 9.10635387399743e-02 4.46125049733196e-04
1.32240000000000e+00 9.04370056104111e-02 4.48238802004983e-04
1.35280000000000e+00 8.98147831387454e-02 4.50243480885723e-04
1.38320000000000e+00 8.91968416668942e-02 4.52142854110198e-04
1.41360000000000e+00 8.85831517408274e-02 4.53940506319410e-04
1.44400000000000e+00 8.79736841091639e-02 4.55639851843117e-04
1.47440000000000e+00 8.73684097217770e-02 4.57244146318618e-04
1.50480000000000e+00 8.67672997284101e-02 4.58756497274521e-04
1.53520000000000e+00 8.61703254773015e-02 4.60179873791710e-04
1.56560000000000e+00 8.55774585138186e-02 4.61517115339642e-04
1.59600000000000e+00 8.49886705791016e-02 4.62770939873722e-04
1.62640000000000e+00 8.44039336087167e-02 4.63943951269154e-04
1.65680000000000e+00 8.38232197313182e-02 4.65038646157649e-04
1.68720000000000e+00 8.32465012673203e-02 4.66057420225819e-04
1.71760000000000e+00 8.26737507275776e-02 4.67002574026838e-04
1.74800000000000e+00 8.21049408120747e-02 4.67876318351474e-04
1.77840000000000e+00 8.15400444086253e-02 4.68680779199761e-04
1.80880000000000e+00 8.09790345915794e-02 4.69418002389226e-04
1.83920000000000e+00 8.04218846205406e-02 4.70089957832605e-04
1.86960000000000e+00 7.98685679390908e-02 4.70698543514161e-04
1.90000000000000e+00 7.93190581735249e-02 4.71245589190532e-04
1.93040000000000e+00 7.87733291315933e-02 4.71732859839738e-04
1.96080000000000e+00 7.82313548012540e-02 4.72162058879348e-04
1.99120000000000e+00 7.76931093494321e-02 4.72534831172994e-04
2.02160000000000e+00 7.71585671207891e-02 4.72852765842217e-04
2.05200000000000e+00 7.66277026364993e-02 4.73117398899233e-04
2.08240000000000e+00 7.61004905930363e-02 4.73330215714863e-04
2.11280000000000e+00 7.55769058609659e-02 4.73492653334183e-04
2.14320000000000e+00 7.50569234837493e-02 4.73606102651579e-04
2.17360000000000e+00 7.45405186765528e-02 4.73671910455913e-04
2.20400000000000e+00 7.40276668250666e-02 4.73691381355081e-04
2.23440000000000e+00 7.35183434843319e-02 4.73665779589130e-04
2.26480000000000e+00 7.30125243775754e-02 4.73596330739746e-04
2.29520000000000e+00 7.25101853950523e-02 4.73484223343418e-04
2.32560000000000e+00 7.20113025928971e-02 4.73330610415254e-04
2.35600000000000e+00 7.15158521919823e-02 4.73136610889315e-04
2.38640000000000e+00 7.10238105767848e-02 4.72903310981340e-04
2.41680000000000e+00 7.05351542942605e-02 4.72631765478921e-04
2.44720000000000e+00 7.00498600527267e-02 4.72322998964170e-04
2.47760000000000e+00 6.95679047207512e-02 4.71978006973060e-04
2.50800000000000e+00 6.90892653260501e-02 4.71597757095534e-04
2.53840000000000e+00 6.86139190543929e-02 4.71183190020294e-04
2.56880000000000e+00 6.81418432485153e-02 4.70735220527709e-04
2.59920000000000e+00 6.76730154070386e-02 4.70254738433968e-04
2.62960000000000e+00 6.72074131833976e-02 4.69742609489462e-04
2.66000000000000e+00 6.67450143847755e-02 4.69199676234367e-04
2.69040000000000e+00 6.62857969710459e-02 4.68626758813755e-04
2.72080000000000e+00 6.58297390537224e-02 4.68024655754705e-04
2.75120000000000e+00 6.53768188949152e-02 4.67394144707704e-04
2.78160000000000e+00 6.49270149062949e-02 4.66735983154321e-04
2.81200000000000e+00 6.44803056480638e-02 4.66050909082983e-04
2.84240000000000e+00 6.40366698279335e-02 4.65339641634887e-04
2.87280000000000e+00 6.35960863001105e-02 4.64602881721589e-04
2.90320000000000e+00 6.31585340642881e-02 4.63841312615741e-04
2.93360000000000e+00 6.27239922646451e-02 4.63055600516526e-04
2.96400000000000e+00 6.22924401888524e-02 4.62246395091168e-04
2.99440000000000e+00 6.18638572670851e-02 4.61414329993800e-04
3.02480000000000e+00 6.14382230710423e-02 4.60560023362820e-04
3.05520000000000e+00 6.10155173129736e-02 4.59684078297864e-04
3.08560000000000e+00 6.05957198447117e-02 4.58787083317519e-04
3.11600000000000e+00 6.01788106567122e-02 4.57869612798654e-04
3.14640000000000e+00 5.97647698771000e-02 4.56932227398376e-04
3.17680000000000e+00 5.93535777707220e-02 4.55975474459498e-04
3.20720000000000e+00 5.89452147382063e-02 4.54999888400165e-04
3.23760000000000e+00 5.85396613150282e-02 4.54005991088638e-04
3.26800000000000e+00 5.81368981705824e-02 4.52994292203857e-04
3.29840000000000e+00 5.77369061072614e-02 4.51965289582341e-04
3.32880000000000e+00 5.73396660595407e-02 4.50919469552291e-04
3.35920000000000e+00 5.69451590930700e-02 4.49857307255414e-04
3.38960000000000e+00 5.65533664037706e-02 4.48779266956929e-04
3.42000000000000e+00 5.61642693169392e-02 4.47685802344440e-04
3.45040000000000e+00 5.57778492863576e-02 4.46577356816087e-04
3.48080000000000e+00 5.53940878934089e-02 4.45454363758516e-04
3.51120000000000e+00 5.50129668461997e-02 4.44317246815235e-04
3.54160000000000e+00 5.46344679786878e-02 4.43166420145457e-04
3.57200000000000e+00 5.42585732498167e-02 4.42002288674188e-04
3.60240000000000e+00 5.38852647426555e-02 4.40825248333733e-04
3.63280000000000e+00 5.35145246635448e-02 4.39635686297021e-04
3.66320000000000e+00 5.31463353412489e-02 4.38433981203270e-04
3.69360000000000e+00 5.27806792261133e-02 4.37220503376035e-04
3.72400000000000e+00 5.24175388892279e-02 4.35995615034141e-04
3.75440000000000e+00 5.20568970215969e-02 4.34759670495805e-04
3.78480000000000e+00 5.16987364333134e-02 4.33513016376158e-04
3.81520000000000e+00 5.13430400527399e-02 4.32255991778377e-04
3.84560000000000e+00 5.09897909256949e-02 4.30988928478845e-04
3.87600000000000e+00 5.06389722146445e-02 4.29712151106497e-04
3.90640000000000e+00 5.02905671979001e-02 4.28425977316522e-04
3.93680000000000e+00 4.99445592688213e-02 4.27130717958764e-04
3.96720000000000e+00 4.96009319350242e-02 4.25826677240949e-04
3.99760000000000e+00 4.92596688175954e-02 4.24514152886924e-04
4.02800000000000e+00 4.89207536503114e-02 4.23193436290197e-04
4.05840000000000e+00 4.85841702788631e-02 4.21864812662802e-04
4.08880000000000e+00 4.82499026600858e-02 4.20528561179810e-04
4.11920000000000e+00 4.79179348611948e-02 4.19184955119656e-04
4.14960000000000e+00 4.75882510590255e-02 4.17834262000259e-04
4.18000000000000e+00 4.72608355392796e-02 4.16476743711236e-04
4.21040000000000e+00 4.69356726957760e-02 4.15112656642359e-04
4.24080000000000e+00 4.66127470297067e-02 4.13742251808308e-04
4.27120000000000e+00 4.62920431488983e-02 4.12365774970001e-04
4.30160000000000e+00 4.59735457670782e-02 4.10983466752388e-04
4.33200000000000e+00 4.56572397031463e-02 4.09595562758998e-04
4.36240000000000e+00 4.53431098804506e-02 4.08202293683426e-04
4.39280000000000e+00 4.50311413260697e-02 4.06803885417622e-04
4.42320000000000e+00 4.47213191700982e-02 4.05400559157272e-04
4.45360000000000e+00 4.44136286449382e-02 4.03992531504404e-04
4.48400000000000e+00 4.41080550845956e-02 4.02580014567194e-04
4.51440000000000e+00 4.38045839239810e-02 4.01163216057046e-04
4.54480000000000e+00 4.35032006982152e-02 3.99742339383188e-04
4.57520000000000e+00 4.32038910419400e-02 3.98317583744811e-04
4.60560000000000e+00 4.29066406886334e-02 3.96889144220684e-04
4.63600000000000e+00 4.26114354699294e-02 3.95457211856538e-04
4.66640000000000e+00 4.23182613149432e-02 3.94021973750183e-04
4.69680000000000e+00 4.20271042495997e-02 3.92583613134412e-04
4.72720000000000e+00 4.17379503959683e-02 3.91142309457827e-04
4.75760000000000e+00 4.14507859716007e-02 3.89698238463668e-04
4.78800000000000e+00 4.11655972888745e-02 3.88251572266609e-04
4.81840000000000e+00 4.08823707543405e-02 3.86802479427623e-04
4.84880000000000e+00 4.06010928680745e-02 3.85351125027063e-04
4.87920000000000e+00 4.03217502230346e-02 3.83897670735863e-04
4.90960000000000e+00 4.00443295044215e-02 3.82442274885118e-04
4.94000000000000e+00 3.97688174890440e-02 3.80985092533843e-04
4.97040000000000e+00 3.94952010446888e-02 3.79526275535151e-04
5.00080000000000e+00 3.92234671294946e-02 3.78065972600857e-04
5.03120000000000e+00 3.89536027913303e-02 3.76604329364544e-04
5.06160000000000e+00 3.86855951671779e-02 3.75141488443128e-04
5.09200000000000e+00 3.84194314825191e-02 3.73677589496891e-04
5.12240000000000e+00 3.81550990507265e-02 3.72212769288260e-04
5.15280000000000e+00 3.78925852724590e-02 3.70747161739108e-04
5.18320000000000e+00 3.76318776350611e-02 3.69280897986723e-04
5.21360000000000e+00 3.73729637119666e-02 3.67814106438572e-04
5.24400000000000e+00 3.71158311621064e-02 3.66346912825735e-04
5.27440000000000e+00 3.68604677293198e-02 3.64879440255095e-04
5.30480000000000e+00 3.66068612417710e-02 3.63411809260450e-04
5.33520000000000e+00 3.63549996113683e-02 3.61944137852438e-04
5.36560000000000e+00 3.61048708331884e-02 3.60476541567278e-04
5.39600000000000e+00 3.58564629849037e-02 3.59009133514480e-04
5.42640000000000e+00 3.56097642262145e-02 3.57542024423467e-04
5.45680000000000e+00 3.53647627982845e-02 3.56075322689194e-04
5.48720000000000e+00 3.51214470231801e-02 3.54609134416797e-04
5.51760000000000e+00 3.48798053033141e-02 3.53143563465222e-04
5.54800000000000e+00 3.46398261208925e-02 3.51678711489863e-04
5.57840000000000e+00 3.44014980373660e-02 3.50214677984385e-04
5.60880000000000e+00 3.41648096928844e-02 3.48751560321550e-04
5.63920000000000e+00 3.39297498057551e-02 3.47289453793184e-04
5.66960000000000e+00 3.36963071719059e-02 3.45828451649394e-04
5.70000000000000e+00 3.34644706643502e-02 3.44368645136853e-04
5.73040000000000e+00 3.32342292326574e-02 3.42910123536267e-04
5.76080000000000e+00 3.30055719024255e-02 3.41452974199114e-04
5.79120000000000e+00 3.27784877747584e-02 3.39997282583613e-04
5.82160000000000e+00 3.25529660257463e-02 3.38543132289847e-04
5.85200000000000e+00 3.23289959059500e-02 3.37090605094309e-04
5.88240000000000e+00 3.21065667398880e-02 3.35639780983651e-04
5.91280000000000e+00 3.18856679255282e-02 3.34190738187698e-04
5.94320000000000e+00 3.16662889337822e-02 3.32743553211892e-04
5.97360000000000e+00 3.14484193080039e-02 3.31298300868993e-04
6.00400000000000e+00 3.12320486634903e-02 3.29855054310175e-04
6.03440000000000e+00 3.10171666869873e-02 3.28413885055470e-04
6.06480000000000e+00 3.08037631361977e-02 3.26974863023617e-04
6.09520000000000e+00 3.05918278392930e-02 3.25538056561348e-04
6.12560000000000e+00 3.03813506944289e-02 3.24103532472020e-04
6.15600000000000e+00 3.01723216692635e-02 3.22671356043715e-04
6.18640000000000e+00 2.99647308004789e-02 3.21241591076805e-04
6.21680000000000e+00 2.97585681933069e-02 3.19814299910916e-04
6.24720000000000e+00 2.95538240210569e-02 3.18389543451420e-04
6.27760000000000e+00 2.93504885246477e-02 3.16967381195383e-04
6.30800000000000e+00 2.91485520121423e-02 3.15547871257011e-04
6.33840000000000e+00 2.89480048582858e-02 3.14131070392607e-04
6.36880000000000e+00 2.87488375040469e-02 3.12717034025051e-04
6.39920000000000e+00 2.85510404561620e-02 3.11305816267787e-04
6.42960000000000e+00 2.83546042866830e-02 3.09897469948351e-04
6.46000000000000e+00 2.81595196325276e-02 3.08492046631493e-04
6.49040000000000e+00 2.79657771950330e-02 3.07089596641807e-04
6.52080000000000e+00 2.77733677395131e-02 3.05690169085947e-04
6.55120000000000e+00 2.75822820948180e-02 3.04293811874440e-04
6.58160000000000e+00 2.73925111528968e-02 3.02900571743098e-04
6.61200000000000e+00 2.72040458683636e-02 3.01510494273942e-04
6.64240000000000e+00 2.70168772580666e-02 3.00123623915842e-04
6.67280000000000e+00 2.68309964006594e-02 2.98740004004745e-04
6.70320000000000e+00 2.66463944361760e-02 2.97359676783461e-04
6.73360000000000e+00 2.64630625656087e-02 2.95982683421185e-04
6.76400000000000e+00 2.62809920504885e-02 2.94609064032541e-04
6.79440000000000e+00 2.61001742124684e-02 2.93238857696376e-04
6.82480000000000e+00 2.59206004329101e-02 2.91872102474160e-04
6.85520000000000e+00 2.57422621524732e-02 2.90508835428075e-04
6.88560000000000e+00 2.55651508707067e-02 2.89149092638773e-04
6.91600000000000e+00 2.53892581456445e-02 2.87792909222755e-04
6.94640000000000e+00 2.52145755934025e-02 2.86440319349473e-04
6.97680000000000e+00 2.50410948877794e-02 2.85091356258159e-04
7.00720000000000e+00 2.48688077598595e-02 2.83746052274328e-04
7.03760000000000e+00 2.46977059976187e-02 2.82404438825912e-04
7.06800000000000e+00 2.45277814455330e-02 2.81066546459226e-04
7.09840000000000e+00 2.43590260041901e-02 2.79732404854589e-04
7.12880000000000e+00 2.41914316299027e-02 2.78402042841628e-04
7.15920000000000e+00 2.40249903343258e-02 2.77075488414351e-04
7.18960000000000e+00 2.38596941840754e-02 2.75752768745995e-04
7.22000000000000e+00 2.36955353003507e-02 2.74433910203485e-04
7.25040000000000e+00 2.35325058585584e-02 2.73118938361777e-04
7.28080000000000e+00 2.33705980879398e-02 2.71807878017916e-04
7.31120000000000e+00 2.32098042712003e-02 2.70500753204752e-04
7.34160000000000e+00 2.30501167441417e-02 2.69197587204541e-04
7.37200000000000e+00 2.28915278952969e-02 2.67898402562198e-04
7.40240000000000e+00 2.27340301655669e-02 2.66603221098385e-04
7.43280000000000e+00 2.25776160478606e-02 2.65312063922392e-04
7.46320000000000e+00 2.24222780867373e-02 2.64024951444761e-04
7.49360000000000e+00 2.22680088780506e-02 2.62741903389654e-04
7.52400000000000e+00 2.21148010685962e-02 2.61462938807060e-04
7.55440000000000e+00 2.19626473557612e-02 2.60188076084758e-04
7.58480000000000e+00 2.18115404871759e-02 2.58917332960151e-04
7.61520000000000e+00 2.16614732603679e-02 2.57650726531810e-04
7.64560000000000e+00 2.15124385224194e-02 2.56388273270795e-04
7.67600000000000e+00 2.13644291696259e-02 2.55129989031897e-04
7.70640000000000e+00 2.12174381471575e-02 2.53875889064608e-04
7.73680000000000e+00 2.10714584487228e-02 2.52625988023929e-04
7.76720000000000e+00 2.09264831162350e-02 2.51380299980999e-04
7.79760000000000e+00 2.07825052394801e-02 2.50138838433502e-04
7.82800000000000e+00 2.06395179557875e-02 2.48901616315941e-04
7.85840000000000e+00 2.04975144497032e-02 2.47668646009735e-04
7.88880000000000e+00 2.03564879526645e-02 2.46439939353147e-04
7.91920000000000e+00 2.02164317426778e-02 2.45215507651033e-04
7.94960000000000e+00 2.00773391439977e-02 2.43995361684386e-04
7.98000000000000e+00 1.99392035268095e-02 2.42779511719818e-04
8.01040000000000e+00 1.98020183069124e-02 2.41567967518826e-04
8.04080000000000e+00 1.96657769454062e-02 2.40360738346859e-04
8.07120000000000e+00 1.95304729483797e-02 2.39157832982316e-04
8.10160000000000e+00 1.93960998666006e-02 2.37959259725356e-04
8.13200000000000e+00 1.92626512952086e-02 2.36765026406563e-04
8.16240000000000e+00 1.91301208734101e-02 2.35575140395469e-04
8.19280000000000e+00 1.89985022841747e-02 2.34389608608899e-04
8.22320000000000e+00 1.88677892539342e-02 2.33208437519264e-04
8.25360000000000e+00 1.87379755522839e-02 2.32031633162672e-04
8.28400000000000e+00 1.86090549916853e-02 2.30859201146858e-04
8.31440000000000e+00 1.84810214271711e-02 2.29691146659032e-04
8.34480000000000e+00 1.83538687560525e-02 2.28527474473602e-04
8.37520000000000e+00 1.82275909176285e-02 2.27368188959765e-04
8.40560000000000e+00 1.81021818928965e-02 2.26213294088965e-04
8.43600000000000e+00 1.79776357042659e-02 2.25062793442207e-04
8.46640000000000e+00 1.78539464152728e-02 2.23916690217297e-04
8.49680000000000e+00 1.77311081302972e-02 2.22774987235931e-04
8.52720000000000e+00 1.76091149942823e-02 2.21637686950698e-04
8.55760000000000e+00 1.74879611924549e-02 2.20504791451934e-04
8.58800000000000e+00 1.73676409500483e-02 2.19376302474466e-04
8.61840000000000e+00 1.72481485320275e-02 2.18252221404285e-04
8.64880000000000e+00 1.71294782428155e-02 2.17132549285071e-04
8.67920000000000e+00 1.70116244260216e-02 2.16017286824615e-04
8.70960000000000e+00 1.68945814641724e-02 2.14906434401171e-04
8.74000000000000e+00 1.67783437784436e-02 2.13799992069687e-04
8.77040000000000e+00 1.66629058283940e-02 2.12697959567901e-04
8.80080000000000e+00 1.65482621117019e-02 2.11600336322367e-04
8.83120000000000e+00 1.64344071639024e-02 2.10507121454419e-04
8.86160000000000e+00 1.63213355581270e-02 2.09418313785973e-04
8.89200000000000e+00 1.62090419048451e-02 2.08333911845273e-04
8.92240000000000e+00 1.60975208516070e-02 2.07253913872543e-04
8.95280000000000e+00 1.59867670827888e-02 2.06178317825517e-04
8.98320000000000e+00 1.58767753193391e-02 2.05107121384956e-04
9.01360000000000e+00 1.57675403185272e-02 2.04040321959974e-04
9.04400000000000e+00 1.56590568736932e-02 2.02977916693339e-04
9.07440000000000e+00 1.55513198140002e-02 2.01919902466701e-04
9.10480000000000e+00 1.54443240041873e-02 2.00866275905688e-04
9.13520000000000e+00 1.53380643443254e-02 1.99817033384979e-04
9.16560000000000e+00 1.52325357695734e-02 1.98772171033232e-04
9.19600000000000e+00 1.51277332499377e-02 1.97731684737972e-04
9.22640000000000e+00 1.50236517900314e-02 1.96695570150394e-04
9.25680000000000e+00 1.49202864288372e-02 1.95663822690096e-04
9.28720000000000e+00 1.48176322394702e-02 1.94636437549724e-04
9.31760000000000e+00 1.47156843289434e-02 1.93613409699528e-04
9.34800000000000e+00 1.46144378379344e-02 1.92594733891887e-04
9.37840000000000e+00 1.45138879405539e-02 1.91580404665719e-04
9.40880000000000e+00 1.44140298441154e-02 1.90570416350863e-04
9.43920000000000e+00 1.43148587889070e-02 1.89564763072359e-04
9.46960000000000e+00 1.42163700479644e-02 1.88563438754639e-04
9.50000000000000e+00 1.41185589268458e-02 1.87566437125714e-04
9.53040000000000e+00 1.40214207634078e-02 1.86573751721265e-04
9.56080000000000e+00 1.39249509275835e-02 1.85585375888661e-04
9.59120000000000e+00 1.38291448211616e-02 1.84601302790858e-04
