Energy (eV)          EEDF (eV^-(3/2))     First Anisotropy
4.62500000000000e-04 6.86620555472235e+01 4.05531397608907e-02
1.38750000000000e-03 6.76817456317178e+01 6.67109909033229e-02
2.31250000000000e-03 6.67154319114163e+01 8.73963394283431e-02
3.23750000000000e-03 6.57629145581832e+01 1.02709509614405e-01
4.16250000000000e-03 6.48239965969112e+01 1.15152774896622e-01
5.08750000000000e-03 6.38984838647722e+01 1.25682964662369e-01
6.01250000000000e-03 6.29861849710631e+01 1.34800574148517e-01
6.93750000000000e-03 6.20869112576270e+01 1.42810995473430e-01
7.86250000000000e-03 6.12004767598391e+01 1.49918839095592e-01
8.78750000000000e-03 6.03266981681508e+01 1.56270166702865e-01
9.71250000000000e-03 5.94653947901820e+01 1.61974159751836e-01
1.06375000000000e-02 5.86163885133546e+01 1.67115344626644e-01
1.15625000000000e-02 5.77795037680608e+01 1.71760993456709e-01
1.24875000000000e-02 5.69545674913553e+01 1.75965855709046e-01
1.34125000000000e-02 5.61414090911674e+01 1.79775318206355e-01
1.43375000000000e-02 5.53398604110235e+01 1.83227592422441e-01
1.52625000000000e-02 5.45497556952732e+01 1.86355274431827e-01
1.61875000000000e-02 5.37709315548119e+01 1.89186486058040e-01
1.71125000000000e-02 5.30032269332933e+01 1.91745728102113e-01
1.80375000000000e-02 5.22464830738232e+01 1.94054530547511e-01
1.89625000000000e-02 5.15005434861301e+01 1.96131956403613e-01
1.98875000000000e-02 5.07652539142037e+01 1.97994997961167e-01
2.08125000000000e-02 5.00404623043956e+01 1.99658892582553e-01
2.17375000000000e-02 4.93260187739753e+01 2.01137377374820e-01
2.26625000000000e-02 4.86217755801358e+01 2.02442896791326e-01
2.35875000000000e-02 4.79275870894407e+01 2.03586773520940e-01
2.45125000000000e-02 4.72433097477085e+01 2.04579350414699e-01
2.54375000000000e-02 4.65688020503261e+01 2.05430109323876e-01
2.63625000000000e-02 4.59039245129866e+01 2.06147771354832e-01
2.72875000000000e-02 4.52485396428449e+01 2.06740382034359e-01
2.82125000000000e-02 4.46025119100845e+01 2.07215384122074e-01
2.91375000000000e-02 4.39657077198913e+01 2.07579680233466e-01
3.00625000000000e-02 4.33379953848264e+01 2.07839686998960e-01
3.09875000000000e-02 4.27192450975944e+01 2.08001382146100e-01
3.19125000000000e-02 4.21093289041997e+01 2.08070345628310e-01
3.28375000000000e-02 4.15081206774865e+01 2.08051795716479e-01
3.37625000000000e-02 4.09154960910561e+01 2.07950620805785e-01
3.46875000000000e-02 4.03313325935575e+01 2.07771407559151e-01
3.56125000000000e-02 3.97555093833439e+01 2.07518465903739e-01
3.65375000000000e-02 3.91879073834921e+01 2.07195851311879e-01
3.74625000000000e-02 3.86284092171776e+01 2.06807384728645e-01
3.83875000000000e-02 3.80768991834023e+01 2.06356670451841e-01
3.93125000000000e-02 3.75332632330676e+01 2.05847112223535e-01
4.02375000000000e-02 3.69973889453901e+01 2.05281927753829e-01
4.11625000000000e-02 3.64691655046537e+01 2.04664161865535e-01
4.20875000000000e-02 3.59484836772932e+01 2.03996698421784e-01
4.30125000000000e-02 3.54352357893057e+01 2.03282271176133e-01
4.39375000000000e-02 3.49293157039840e+01 2.02523473665874e-01
4.48625000000000e-02 3.44306187999684e+01 2.01722768253327e-01
4.57875000000000e-02 3.39390419496116e+01 2.00882494406322e-01
4.67125000000000e-02 3.34544834976521e+01 2.00004876297517e-01
4.76375000000000e-02 3.29768432401931e+01 1.99092029792330e-01
4.85625000000000e-02 3.25060224039803e+01 1.98145968886841e-01
4.94875000000000e-02 3.20419236259766e+01 1.97168611649654e-01
5.04125000000000e-02 3.15844509332278e+01 1.96161785715404e-01
5.13375000000000e-02 3.11335097230158e+01 1.95127233372270e-01
5.22625000000000e-02 3.06890067432957e+01 1.94066616280896e-01
5.31875000000000e-02 3.02508500734115e+01 1.92981519858186e-01
5.41125000000000e-02 2.98189491050874e+01 1.91873457355749e-01
5.50375000000000e-02 2.93932145236909e+01 1.90743873659575e-01
5.59625000000000e-02 2.89735582897625e+01 1.89594148834866e-01
5.68875000000000e-02 2.85598936208102e+01 1.88425601437365e-01
5.78125000000000e-02 2.81521349733631e+01 1.87239491610477e-01
5.87375000000000e-02 2.77501980252814e+01 1.86037023985536e-01
5.96625000000000e-02 2.73539996583192e+01 1.84819350400883e-01
6.05875000000000e-02 2.69634579409362e+01 1.83587572453931e-01
6.15125000000000e-02 2.65784921113547e+01 1.82342743899059e-01
6.24375000000000e-02 2.61990225608584e+01 1.81085872902996e-01
6.33625000000000e-02 2.58249708173299e+01 1.79817924168280e-01
6.42875000000000e-02 2.54562595290230e+01 1.78539820934444e-01
6.52125000000000e-02 2.50928124485670e+01 1.77252446865748e-01
6.61375000000000e-02 2.47345544171989e+01 1.75956647833468e-01
6.70625000000000e-02 2.43814113492214e+01 1.74653233600090e-01
6.79875000000000e-02 2.40333102166819e+01 1.73342979412167e-01
6.89125000000000e-02 2.36901790342712e+01 1.72026627507988e-01
6.98375000000000e-02 2.33519468444371e+01 1.70704888545739e-01
7.07625000000000e-02 2.30185437027108e+01 1.69378442957365e-01
7.16875000000000e-02 2.26899006632430e+01 1.68047942232936e-01
7.26125000000000e-02 2.23659497645459e+01 1.66714010139964e-01
7.35375000000000e-02 2.20466240154396e+01 1.65377243881705e-01
7.44625000000000e-02 2.17318573811983e+01 1.64038215198273e-01
7.53875000000000e-02 2.14215847698951e+01 1.62697471414033e-01
7.63125000000000e-02 2.11157420189409e+01 1.61355536434506e-01
7.72375000000000e-02 2.08142658818165e+01 1.60012911695783e-01
7.81625000000000e-02 2.05170940149931e+01 1.58670077069242e-01
7.90875000000000e-02 2.02241649650402e+01 1.57327491724138e-01
8.00125000000000e-02 1.99354181559175e+01 1.55985594950485e-01
8.09375000000000e-02 1.96507938764479e+01 1.54644806944461e-01
8.18625000000000e-02 1.93702332679699e+01 1.53305529558408e-01
8.27875000000000e-02 1.90936783121654e+01 1.51968147017398e-01
8.37125000000000e-02 1.88210718190626e+01 1.50633026604155e-01
8.46375000000000e-02 1.85523574152087e+01 1.49300519314028e-01
8.55625000000000e-02 1.82874795320127e+01 1.47970960481638e-01
8.64875000000000e-02 1.80263833942541e+01 1.46644670380639e-01
8.74125000000000e-02 1.77690150087554e+01 1.45321954797992e-01
8.83375000000000e-02 1.75153211532167e+01 1.44003105584083e-01
8.92625000000000e-02 1.72652493652100e+01 1.42688401179879e-01
9.01875000000000e-02 1.70187479313298e+01 1.41378107122262e-01
9.11125000000000e-02 1.67757658764994e+01 1.40072476528662e-01
9.20375000000000e-02 1.65362529534294e+01 1.38771750561958e-01
9.29625000000000e-02 1.63001596322266e+01 1.37476158876622e-01
9.38875000000000e-02 1.60674370901523e+01 1.36185920047005e-01
9.48125000000000e-02 1.58380372015249e+01 1.34901241978596e-01
9.57375000000000e-02 1.56119125277690e+01 1.33622322303086e-01
9.66625000000000e-02 1.53890163076042e+01 1.32349348757950e-01
9.75875000000000e-02 1.51693024473762e+01 1.31082499551278e-01
9.85125000000000e-02 1.49527255115241e+01 1.29821943712525e-01
9.94375000000000e-02 1.47392407131849e+01 1.28567841429809e-01
1.00362500000000e-01 1.45288039049320e+01 1.27320344374382e-01
1.01287500000000e-01 1.43213715696455e+01 1.26079596012804e-01
1.02212500000000e-01 1.41169008115132e+01 1.24845731907377e-01
1.03137500000000e-01 1.39153493471599e+01 1.23618880005360e-01
1.04062500000000e-01 1.37166754969038e+01 1.22399160917441e-01
1.04987500000000e-01 1.35208381761369e+01 1.21186688185901e-01
1.05912500000000e-01 1.33277968868292e+01 1.19981568542946e-01
1.06837500000000e-01 1.31375117091539e+01 1.18783902159594e-01
1.07762500000000e-01 1.29499432932323e+01 1.17593782885514e-01
1.08687500000000e-01 1.27650528509963e+01 1.16411298480185e-01
1.09612500000000e-01 1.25828021481674e+01 1.15236530835753e-01
1.10537500000000e-01 1.24031534963498e+01 1.14069556191904e-01
1.11462500000000e-01 1.22260697452373e+01 1.12910445343073e-01
1.12387500000000e-01 1.20515142749298e+01 1.11759263838301e-01
1.13312500000000e-01 1.18794509883616e+01 1.10616072174034e-01
1.14237500000000e-01 1.17098443038361e+01 1.09480925980142e-01
1.15162500000000e-01 1.15426591476677e+01 1.08353876199420e-01
1.16087500000000e-01 1.13778609469291e+01 1.07234969260821e-01
1.17012500000000e-01 1.12154156223016e+01 1.06124247246669e-01
1.17937500000000e-01 1.10552895810276e+01 1.05021748054091e-01
1.18862500000000e-01 1.08974497099641e+01 1.03927505550850e-01
1.19787500000000e-01 1.07418633687349e+01 1.02841549725850e-01
1.20712500000000e-01 1.05884983829807e+01 1.01763906834458e-01
1.21637500000000e-01 1.04373230377058e+01 1.00694599538868e-01
1.22562500000000e-01 1.02883060707196e+01 9.96336470436852e-02
1.23487500000000e-01 1.01414166661715e+01 9.85810652268893e-02
1.24412500000000e-01 9.99662444817868e+00 9.75368667663681e-02
1.25337500000000e-01 9.85389947454448e+00 9.65010612621849e-02
1.26262500000000e-01 9.71321223056638e+00 9.54736553547047e-02
1.27187500000000e-01 9.57453362293262e+00 9.44546528387497e-02
1.28112500000000e-01 9.43783497370591e+00 9.34440547739415e-02
1.29037500000000e-01 9.30308801439291e+00 9.24418595913266e-02
1.29962500000000e-01 9.17026488009854e+00 9.14480631964436e-02
1.30887500000000e-01 9.03933810376363e+00 9.04626590689533e-02
1.31812500000000e-01 8.91028061048496e+00 8.94856383589552e-02
1.32737500000000e-01 8.78306571191622e+00 8.85169899800918e-02
1.33662500000000e-01 8.65766710074911e+00 8.75567006995620e-02
1.34587500000000e-01 8.53405884527311e+00 8.66047552251563e-02
1.35512500000000e-01 8.41221538401292e+00 8.56611362894019e-02
1.36437500000000e-01 8.29211152044254e+00 8.47258247309274e-02
1.37362500000000e-01 8.17372241777473e+00 8.37987995731385e-02
1.38287500000000e-01 8.05702359382494e+00 8.28800381002866e-02
1.39212500000000e-01 7.94199091594853e+00 8.19695159310391e-02
1.40137500000000e-01 7.82860059605027e+00 8.10672070896214e-02
1.41062500000000e-01 7.71682918566510e+00 8.01730840746064e-02
1.41987500000000e-01 7.60665357110909e+00 7.92871179254383e-02
1.42912500000000e-01 7.49805096869976e+00 7.84092782867701e-02
1.43837500000000e-01 7.39099892004443e+00 7.75395334706791e-02
1.44762500000000e-01 7.28547528739602e+00 7.66778505168337e-02
1.45687500000000e-01 7.18145824907509e+00 7.58241952506748e-02
1.46612500000000e-01 7.07892629495722e+00 7.49785323396821e-02
1.47537500000000e-01 6.97785822202484e+00 7.41408253477906e-02
1.48462500000000e-01 6.87823312998259e+00 7.33110367879971e-02
1.49387500000000e-01 6.78003041693525e+00 7.24891281732458e-02
1.50312500000000e-01 6.68322977512737e+00 7.16750600656316e-02
1.51237500000000e-01 6.58781118674377e+00 7.08687921239672e-02
1.52162500000000e-01 6.49375491976994e+00 7.00702831497853e-02
1.53087500000000e-01 6.40104152391162e+00 6.92794911318126e-02
1.54012500000000e-01 6.30965182657253e+00 6.84963732889720e-02
1.54937500000000e-01 6.21956692888964e+00 6.77208861119501e-02
1.55862500000000e-01 6.13076820182497e+00 6.69529854033863e-02
1.56787500000000e-01 6.04323728231322e+00 6.61926263167297e-02
1.57712500000000e-01 5.95695606946437e+00 6.54397633937834e-02
1.58637500000000e-01 5.87190672082057e+00 6.46943506010038e-02
1.59562500000000e-01 5.78807164866637e+00 6.39563413645809e-02
1.60487500000000e-01 5.70543351639171e+00 6.32256886043398e-02
1.61412500000000e-01 5.62397523490680e+00 6.25023447665002e-02
1.62337500000000e-01 5.54367995910821e+00 6.17862618553308e-02
1.63262500000000e-01 5.46453108439539e+00 6.10773914637355e-02
1.64187500000000e-01 5.38651224323690e+00 6.03756848027938e-02
1.65112500000000e-01 5.30960730178576e+00 5.96810927302988e-02
1.66037500000000e-01 5.23380035654303e+00 5.89935657783262e-02
1.66962500000000e-01 5.15907573106906e+00 5.83130541798523e-02
1.67887500000000e-01 5.08541797274168e+00 5.76395078944567e-02
1.68812500000000e-01 5.01281184956071e+00 5.69728766331411e-02
1.69737500000000e-01 4.94124234699807e+00 5.63131098822897e-02
1.70662500000000e-01 4.87069466489285e+00 5.56601569267896e-02
1.71587500000000e-01 4.80115421439072e+00 5.50139668723523e-02
1.72512500000000e-01 4.73260661492704e+00 5.43744886670482e-02
1.73437500000000e-01 4.66503769125306e+00 5.37416711220761e-02
1.74362500000000e-01 4.59843347050454e+00 5.31154629318106e-02
1.75287500000000e-01 4.53278017931225e+00 5.24958126931291e-02
1.76212500000000e-01 4.46806424095370e+00 5.18826689240461e-02
1.77137500000000e-01 4.40427227254560e+00 5.12759800816787e-02
1.78062500000000e-01 4.34139108227628e+00 5.06756945795631e-02
1.78987500000000e-01 4.27940766667779e+00 5.00817608043444e-02
1.79912500000000e-01 4.21830920793677e+00 4.94941271318528e-02
1.80837500000000e-01 4.15808307124387e+00 4.89127419425887e-02
1.81762500000000e-01 4.09871680218090e+00 4.83375536366330e-02
1.82687500000000e-01 4.04019812414536e+00 4.77685106480033e-02
1.83612500000000e-01 3.98251493581166e+00 4.72055614584692e-02
1.84537500000000e-01 3.92565530862871e+00 4.66486546108459e-02
1.85462500000000e-01 3.86960748435309e+00 4.60977387217816e-02
1.86387500000000e-01 3.81435987261756e+00 4.55527624940514e-02
1.87312500000000e-01 3.75990104853422e+00 4.50136747283745e-02
1.88237500000000e-01 3.70621975033191e+00 4.44804243347732e-02
1.89162500000000e-01 3.65330487702736e+00 4.39529603434825e-02
1.90087500000000e-01 3.60114548612953e+00 4.34312319154236e-02
1.91012500000000e-01 3.54973079137681e+00 4.29151883522580e-02
1.91937500000000e-01 3.49905016050646e+00 4.24047791060360e-02
1.92862500000000e-01 3.44909311305592e+00 4.18999537884489e-02
1.93787500000000e-01 3.39984931819551e+00 4.14006621796911e-02
1.94712500000000e-01 3.35130859259207e+00 4.09068542369611e-02
1.95637500000000e-01 3.30346089830314e+00 4.04184801025988e-02
1.96562500000000e-01 3.25629634070113e+00 3.99354901118686e-02
1.97487500000000e-01 3.20980516642716e+00 3.94578348004115e-02
1.98412500000000e-01 3.16397776137418e+00 3.89854649113657e-02
1.99337500000000e-01 3.11880464869878e+00 3.85183314021687e-02
2.00262500000000e-01 3.07427648686143e+00 3.80563854510539e-02
2.01187500000000e-01 3.03038406769474e+00 3.75995784632474e-02
2.02112500000000e-01 2.98711831449922e+00 3.71478620768763e-02
2.03037500000000e-01 2.94447028016631e+00 3.67011881685953e-02
2.03962500000000e-01 2.90243114532816e+00 3.62595088589445e-02
2.04887500000000e-01 2.86099221653381e+00 3.58227765174407e-02
2.05812500000000e-01 2.82014492445145e+00 3.53909437674175e-02
2.06737500000000e-01 2.77988082209635e+00 3.49639634906162e-02
2.07662500000000e-01 2.74019158308406e+00 3.45417888315402e-02
2.08587500000000e-01 2.70106899990854e+00 3.41243732015750e-02
2.09512500000000e-01 2.66250498224493e+00 3.37116702828832e-02
2.10437500000000e-01 2.62449155527648e+00 3.33036340320883e-02
2.11362500000000e-01 2.58702085804546e+00 3.29002186837432e-02
2.12287500000000e-01 2.55008514182748e+00 3.25013787535939e-02
2.13212500000000e-01 2.51367676852917e+00 3.21070690416508e-02
2.14137500000000e-01 2.47778820910864e+00 3.17172446350657e-02
2.15062500000000e-01 2.44241204201850e+00 3.13318609108263e-02
2.15987500000000e-01 2.40754095167116e+00 3.09508735382711e-02
2.16912500000000e-01 2.37316772692597e+00 3.05742384814313e-02
2.17837500000000e-01 2.33928525959803e+00 3.02019120012044e-02
2.18762500000000e-01 2.30588654298826e+00 2.98338506573675e-02
2.19687500000000e-01 2.27296467043443e+00 2.94700113104354e-02
2.20612500000000e-01 2.24051283388292e+00 2.91103511233638e-02
2.21537500000000e-01 2.20852432248082e+00 2.87548275631074e-02
2.22462500000000e-01 2.17699252118824e+00 2.84033984020376e-02
2.23387500000000e-01 2.14591090941027e+00 2.80560217192202e-02
2.24312500000000e-01 2.11527305964862e+00 2.77126559015662e-02
2.25237500000000e-01 2.08507263617243e+00 2.73732596448499e-02
2.26162500000000e-01 2.05530339370806e+00 2.70377919546050e-02
2.27087500000000e-01 2.02595917614764e+00 2.67062121469009e-02
2.28012500000000e-01 1.99703391527597e+00 2.63784798490031e-02
2.28937500000000e-01 1.96852162951573e+00 2.60545549999263e-02
2.29862500000000e-01 1.94041642269042e+00 2.57343978508751e-02
2.30787500000000e-01 1.91271248280517e+00 2.54179689655819e-02
2.31712500000000e-01 1.88540408084476e+00 2.51052292205463e-02
2.32637500000000e-01 1.85848556958895e+00 2.47961398051774e-02
2.33562500000000e-01 1.83195138244467e+00 2.44906622218412e-02
2.34487500000000e-01 1.80579603229483e+00 2.41887582858202e-02
2.35412500000000e-01 1.78001411036368e+00 2.38903901251852e-02
2.36337500000000e-01 1.75460028509825e+00 2.35955201805830e-02
2.37262500000000e-01 1.72954930106586e+00 2.33041112049449e-02
2.38187500000000e-01 1.70485597786728e+00 2.30161262631158e-02
2.39112500000000e-01 1.68051520906552e+00 2.27315287314106e-02
2.40037500000000e-01 1.65652196112977e+00 2.24502822970977e-02
2.40962500000000e-01 1.63287127239456e+00 2.21723509578124e-02
2.41887500000000e-01 1.60955825203367e+00 2.18976990209059e-02
2.42812500000000e-01 1.58657807904878e+00 2.16262911027265e-02
2.43737500000000e-01 1.56392600127246e+00 2.13580921278428e-02
2.44662500000000e-01 1.54159733438550e+00 2.10930673282069e-02
2.45587500000000e-01 1.51958746094819e+00 2.08311822422583e-02
2.46512500000000e-01 1.49789182944548e+00 2.05724027139767e-02
2.47437500000000e-01 1.47650595334574e+00 2.03166948918799e-02
2.48362500000000e-01 1.45542541017295e+00 2.00640252279719e-02
2.49287500000000e-01 1.43464584059221e+00 1.98143604766427e-02
2.50212500000000e-01 1.41416294750822e+00 1.95676676935232e-02
2.51137500000000e-01 1.39397249517665e+00 1.93239142342943e-02
2.52062500000000e-01 1.37407030832826e+00 1.90830677534530e-02
2.52987500000000e-01 1.35445227130543e+00 1.88450962030405e-02
2.53912500000000e-01 1.33511432721111e+00 1.86099678313293e-02
2.54837500000000e-01 1.31605247706983e+00 1.83776511814746e-02
2.55762500000000e-01 1.29726277900078e+00 1.81481150901287e-02
2.56687500000000e-01 1.27874134740262e+00 1.79213286860227e-02
2.57612500000000e-01 1.26048435214996e+00 1.76972613885164e-02
2.58537500000000e-01 1.24248801780135e+00 1.74758829061178e-02
2.59462500000000e-01 1.22474862281850e+00 1.72571632349725e-02
2.60387500000000e-01 1.20726249879670e+00 1.70410726573241e-02
2.61312500000000e-01 1.19002602970621e+00 1.68275817399510e-02
2.62237500000000e-01 1.17303565114450e+00 1.66166613325783e-02
2.63162500000000e-01 1.15628784959915e+00 1.64082825662632e-02
2.64087500000000e-01 1.13977916172125e+00 1.62024168517596e-02
2.65012500000000e-01 1.12350617360924e+00 1.59990358778629e-02
2.65937500000000e-01 1.10746552010290e+00 1.57981116097326e-02
2.66862500000000e-01 1.09165388408749e+00 1.55996162871972e-02
2.67787500000000e-01 1.07606799580773e+00 1.54035224230417e-02
2.68712500000000e-01 1.06070463219170e+00 1.52098028012777e-02
2.69637500000000e-01 1.04556061618430e+00 1.50184304753991e-02
2.70562500000000e-01 1.03063281609024e+00 1.48293787666218e-02
2.71487500000000e-01 1.01591814492643e+00 1.46426212621115e-02
2.72412500000000e-01 1.00141355978364e+00 1.44581318131983e-02
2.73337500000000e-01 9.87116061197201e-01 1.42758845335787e-02
2.74262500000000e-01 9.73022692526749e-01 1.40958537975081e-02
2.75187500000000e-01 9.59130539344818e-01 1.39180142379835e-02
2.76112500000000e-01 9.45436728834145e-01 1.37423407449167e-02
2.77037500000000e-01 9.31938429193587e-01 1.35688084632994e-02
2.77962500000000e-01 9.18632849052526e-01 1.33973927913605e-02
2.78887500000000e-01 9.05517236893623e-01 1.32280693787175e-02
2.79812500000000e-01 8.92588880483827e-01 1.30608141245219e-02
2.80737500000000e-01 8.79845106313494e-01 1.28956031755992e-02
2.81662500000000e-01 8.67283279043526e-01 1.27324129245842e-02
2.82587500000000e-01 8.54900800960397e-01 1.25712200080526e-02
2.83512500000000e-01 8.42695111438956e-01 1.24120013046502e-02
2.84437500000000e-01 8.30663686412913e-01 1.22547339332177e-02
2.85362500000000e-01 8.18804037852868e-01 1.20993952509156e-02
2.86287500000000e-01 8.07113713251807e-01 1.19459628513467e-02
2.87212500000000e-01 7.95590295117936e-01 1.17944145626779e-02
2.88137500000000e-01 7.84231400474754e-01 1.16447284457619e-02
2.89062500000000e-01 7.73034680368274e-01 1.14968827922586e-02
2.89987500000000e-01 7.61997819381267e-01 1.13508561227586e-02
2.90912500000000e-01 7.51118535154449e-01 1.12066271849061e-02
2.91837500000000e-01 7.40394577914504e-01 1.10641749515250e-02
