Energy (eV)          EEDF (eV^-(3/2))     First Anisotropy
8.76530612244898e-03 2.86478631094042e-01 1.52899767590740e-04
2.62959183673469e-02 2.84467300661749e-01 2.52443321653256e-04
4.38265306122449e-02 2.82470091523946e-01 3.33154056410500e-04
6.13571428571429e-02 2.80486904542381e-01 3.94409972023362e-04
7.88877551020408e-02 2.78517641265470e-01 4.45447993881606e-04
9.64183673469388e-02 2.76562203939519e-01 4.89761208521994e-04
1.13948979591837e-01 2.74620495500222e-01 5.29157648830540e-04
1.31479591836735e-01 2.72692419539081e-01 5.64729339590966e-04
1.49010204081633e-01 2.70777880361107e-01 5.97200666137098e-04
1.66540816326531e-01 2.68876782924737e-01 6.27083706169253e-04
1.84071428571429e-01 2.66989032856541e-01 6.54757595847933e-04
2.01602040816327e-01 2.65114536436540e-01 6.80513127183227e-04
2.19132653061225e-01 2.63253200622707e-01 7.04579640705398e-04
2.36663265306122e-01 2.61404933015458e-01 7.27142150685420e-04
2.54193877551020e-01 2.59569641864210e-01 7.48352733466849e-04
2.71724489795918e-01 2.57747236055937e-01 7.68338378686879e-04
2.89255102040816e-01 2.55937625131420e-01 7.87206568235534e-04
3.06785714285714e-01 2.54140719259062e-01 8.05049341018672e-04
3.24316326530612e-01 2.52356429238067e-01 8.21946316939977e-04
3.41846938775510e-01 2.50584666488797e-01 8.37966991842140e-04
3.59377551020408e-01 2.48825343064301e-01 8.53172510387193e-04
3.76908163265306e-01 2.47078371629445e-01 8.67617054586779e-04
3.94438775510204e-01 2.45343665462311e-01 8.81348943231517e-04
4.11969387755102e-01 2.43621138445716e-01 8.94411514766102e-04
4.29500000000000e-01 2.41910705075732e-01 9.06843845653085e-04
4.47030612244898e-01 2.40212280444255e-01 9.18681339178768e-04
4.64561224489796e-01 2.38525780239332e-01 9.29956210140412e-04
4.82091836734694e-01 2.36851120737518e-01 9.40697888919496e-04
4.99622448979592e-01 2.35188218810324e-01 9.50933362494146e-04
5.17153061224490e-01 2.33536991909203e-01 9.60687462867776e-04
5.34683673469388e-01 2.31897358065181e-01 9.69983110585959e-04
5.52214285714286e-01 2.30269235881862e-01 9.78841523263149e-04
5.69744897959184e-01 2.28652544540361e-01 9.87282396631850e-04
5.87275510204082e-01 2.27047203786110e-01 9.95324061250145e-04
6.04806122448980e-01 2.25453133927993e-01 1.00298361697997e-03
6.22336734693878e-01 2.23870255831885e-01 1.01027705049624e-03
6.39867346938776e-01 2.22298490924444e-01 1.01721933979198e-03
6.57397959183673e-01 2.20737761181318e-01 1.02382454625288e-03
6.74928571428571e-01 2.19187989125952e-01 1.03010589442353e-03
6.92459183673469e-01 2.17649097823545e-01 1.03607584282664e-03
7.09989795918367e-01 2.16121010883974e-01 1.04174614834244e-03
7.27520408163265e-01 2.14603652451128e-01 1.04712792373734e-03
7.45051020408163e-01 2.13096947201464e-01 1.05223168769338e-03
7.62581632653061e-01 2.11600820338337e-01 1.05706740980662e-03
7.80112244897959e-01 2.10115197594229e-01 1.06164455237588e-03
7.97642857142857e-01 2.08640005221011e-01 1.06597210817836e-03
8.15173469387755e-01 2.07175169988322e-01 1.07005863328236e-03
8.32704081632653e-01 2.05720619178214e-01 1.07391227688323e-03
8.50234693877551e-01 2.04276280586831e-01 1.07754080962130e-03
8.67765306122449e-01 2.02842082515445e-01 1.08095164942953e-03
8.85295918367347e-01 2.01417953768707e-01 1.08415188355859e-03
9.02826530612245e-01 2.00003823651133e-01 1.08714829024196e-03
9.20357142857143e-01 1.98599621962079e-01 1.08994735711856e-03
9.37887755102041e-01 1.97205278996836e-01 1.09255529953119e-03
9.55418367346939e-01 1.95820725538517e-01 1.09497807739908e-03
9.72948979591837e-01 1.94445892856206e-01 1.09722140960279e-03
9.90479591836735e-01 1.93080712700178e-01 1.09929078732194e-03
1.00801020408163e+00 1.91725117302650e-01 1.10119148738738e-03
1.02554081632653e+00 1.90379039370215e-01 1.10292858416840e-03
1.04307142857143e+00 1.89042412084447e-01 1.10450696076157e-03
1.06060204081633e+00 1.87715169093414e-01 1.10593132195610e-03
1.07813265306122e+00 1.86397244498940e-01 1.10720619510466e-03
1.09566326530612e+00 1.85088572890056e-01 1.10833594458890e-03
1.11319387755102e+00 1.83789089302548e-01 1.10932478512697e-03
1.13072448979592e+00 1.82498729228334e-01 1.11017678406339e-03
1.14825510204082e+00 1.81217428601198e-01 1.11089586402878e-03
1.16578571428571e+00 1.79945123827162e-01 1.11148581445753e-03
1.18331632653061e+00 1.78681751747353e-01 1.11195030268035e-03
1.20084693877551e+00 1.77427249646300e-01 1.11229287249573e-03
1.21837755102041e+00 1.76181555248900e-01 1.11251695434224e-03
1.23590816326531e+00 1.74944606707384e-01 1.11262586389105e-03
1.25343877551020e+00 1.73716342628259e-01 1.11262281138073e-03
1.27096938775510e+00 1.72496702038881e-01 1.11251091066422e-03
1.28850000000000e+00 1.71285624394711e-01 1.11229317883583e-03
1.30603061224490e+00 1.70083049567185e-01 1.11197253633570e-03
1.32356122448980e+00 1.68888917868362e-01 1.11155181502303e-03
1.34109183673469e+00 1.67703170020004e-01 1.11103376604494e-03
1.35862244897959e+00 1.66525747160043e-01 1.11042105881781e-03
1.37615306122449e+00 1.65356590831278e-01 1.10971628049642e-03
1.39368367346939e+00 1.64195643003992e-01 1.10892194306953e-03
1.41121428571429e+00 1.63042846047253e-01 1.10804049029626e-03
1.42874489795918e+00 1.61898142734726e-01 1.10707429438189e-03
1.44627551020408e+00 1.60761476241877e-01 1.10602566248477e-03
1.46380612244898e+00 1.59632790135512e-01 1.10489683367473e-03
1.48133673469388e+00 1.58512028394083e-01 1.10368998503979e-03
1.49886734693878e+00 1.57399135381544e-01 1.10240723769071e-03
1.51639795918367e+00 1.56294055852461e-01 1.10105065496924e-03
1.53392857142857e+00 1.55196734942197e-01 1.09962224112590e-03
1.55145918367347e+00 1.54107118185659e-01 1.09812394682742e-03
1.56898979591837e+00 1.53025151492891e-01 1.09655767458355e-03
1.58652040816327e+00 1.51950781153680e-01 1.09492527510974e-03
1.60405102040816e+00 1.50883953834926e-01 1.09322855246968e-03
1.62158163265306e+00 1.49824616571519e-01 1.09146926075628e-03
1.63911224489796e+00 1.48772716783271e-01 1.08964910896079e-03
1.65664285714286e+00 1.47728202252543e-01 1.08776976579000e-03
1.67417346938776e+00 1.46691021128309e-01 1.08583285757667e-03
1.69170408163265e+00 1.45661121917568e-01 1.08383996662134e-03
1.70923469387755e+00 1.44638453501030e-01 1.08179263566152e-03
1.72676530612245e+00 1.43622965112151e-01 1.07969237230226e-03
1.74429591836735e+00 1.42614606340795e-01 1.07754064537605e-03
1.76182653061224e+00 1.41613327130771e-01 1.07533888916998e-03
1.77935714285714e+00 1.40619077771805e-01 1.07308850010184e-03
1.79688775510204e+00 1.39631808913789e-01 1.07079084074590e-03
1.81441836734694e+00 1.38651471547455e-01 1.06844724383452e-03
1.83194897959184e+00 1.37678017007621e-01 1.06605901009725e-03
1.84947959183673e+00 1.36711396965618e-01 1.06362740648979e-03
1.86701020408163e+00 1.35751563442534e-01 1.06115366993562e-03
1.88454081632653e+00 1.34798468791032e-01 1.05863901104970e-03
1.90207142857143e+00 1.33852065698292e-01 1.05608461063922e-03
1.91960204081633e+00 1.32912307183686e-01 1.05349162327478e-03
1.93713265306122e+00 1.31979146591673e-01 1.05086117408597e-03
1.95466326530612e+00 1.31052537603885e-01 1.04819436217773e-03
1.97219387755102e+00 1.30132434222290e-01 1.04549226403526e-03
1.98972448979592e+00 1.29218790771807e-01 1.04275593140338e-03
2.00725510204082e+00 1.28311561893569e-01 1.03998638951564e-03
2.02478571428571e+00 1.27410702556196e-01 1.03718464029561e-03
2.04231632653061e+00 1.26516168039907e-01 1.03435166555290e-03
2.05984693877551e+00 1.25627913938890e-01 1.03148842368566e-03
2.07737755102041e+00 1.24745896159108e-01 1.02859585275677e-03
2.09490816326531e+00 1.23870070911978e-01 1.02567486746545e-03
2.11243877551020e+00 1.23000394724683e-01 1.02272636209987e-03
2.12996938775510e+00 1.22136824425411e-01 1.01975121348573e-03
2.14750000000000e+00 1.21279317145459e-01 1.01675027895891e-03
2.16503061224490e+00 1.20427830313216e-01 1.01372439465164e-03
2.18256122448980e+00 1.19582321663808e-01 1.01067437827562e-03
2.20009183673469e+00 1.18742749225137e-01 1.00760103190683e-03
2.21762244897959e+00 1.17909071319780e-01 1.00450514000212e-03
2.23515306122449e+00 1.17081246559270e-01 1.00138746771507e-03
2.25268367346939e+00 1.16259233853120e-01 9.98248763528349e-04
2.27021428571429e+00 1.15442992395601e-01 9.95089761886394e-04
2.28774489795918e+00 1.14632481667473e-01 9.91911180216830e-04
2.30527551020408e+00 1.13827661433980e-01 9.88713721470891e-04
2.32280612244898e+00 1.13028491739452e-01 9.85498071380327e-04
2.34033673469388e+00 1.12234932915603e-01 9.82264900905237e-04
2.35786734693878e+00 1.11446945569190e-01 9.79014868687672e-04
2.37539795918367e+00 1.10664490583544e-01 9.75748619191806e-04
2.39292857142857e+00 1.09887529113424e-01 9.72466781113080e-04
2.41045918367347e+00 1.09116022592793e-01 9.69169969702511e-04
2.42798979591837e+00 1.08349932723116e-01 9.65858789096347e-04
2.44552040816327e+00 1.07589221474741e-01 9.62533829560298e-04
2.46305102040816e+00 1.06833851085026e-01 9.59195669740935e-04
2.48058163265306e+00 1.06083784053465e-01 9.55844874123995e-04
2.49811224489796e+00 1.05338983148868e-01 9.52481995206337e-04
2.51564285714286e+00 1.04599411398397e-01 9.49107575676111e-04
2.53317346938776e+00 1.03865032088796e-01 9.45722146680725e-04
2.55070408163265e+00 1.03135808761746e-01 9.42326226336348e-04
2.56823469387755e+00 1.02411705220598e-01 9.38920321796689e-04
2.58576530612245e+00 1.01692685519962e-01 9.35504931330025e-04
2.60329591836735e+00 1.00978713966810e-01 9.32080541776060e-04
2.62082653061224e+00 1.00269755118715e-01 9.28647630555672e-04
2.63835714285714e+00 9.95657737794559e-02 9.25206663322446e-04
2.65588775510204e+00 9.88667350052295e-02 9.21758095903010e-04
2.67341836734694e+00 9.81726040948893e-02 9.18302376246741e-04
2.69094897959184e+00 9.74833465909221e-02 9.14839942819265e-04
2.70847959183673e+00 9.67989282752415e-02 9.11371223213672e-04
2.72601020408163e+00 9.61193151750374e-02 9.07896636002985e-04
2.74354081632653e+00 9.54444735534810e-02 9.04416592602181e-04
2.76107142857143e+00 9.47743699106012e-02 9.00931494925668e-04
2.77860204081633e+00 9.41089709816315e-02 8.97441737191201e-04
2.79613265306122e+00 9.34482437330201e-02 8.93947703752621e-04
2.81366326530612e+00 9.27921553678424e-02 8.90449770843093e-04
2.83119387755102e+00 9.21406733170642e-02 8.86948308327756e-04
2.84872448979592e+00 9.14937652403165e-02 8.83443678217357e-04
2.86625510204082e+00 9.08513990220747e-02 8.79936233378279e-04
2.88378571428571e+00 9.02135427767574e-02 8.76426319199425e-04
2.90131632653061e+00 8.95801648403980e-02 8.72914275269315e-04
2.91884693877551e+00 8.89512337713363e-02 8.69400433219903e-04
2.93637755102041e+00 8.83267183486642e-02 8.65885118352915e-04
2.95390816326531e+00 8.77065875685991e-02 8.62368647641438e-04
2.97143877551020e+00 8.70908106492084e-02 8.58851331302984e-04
2.98896938775510e+00 8.64793570225691e-02 8.55333474381530e-04
3.00650000000000e+00 8.58721963353736e-02 8.51815375373940e-04
3.02403061224490e+00 8.52692984454532e-02 8.48297325034626e-04
3.04156122448980e+00 8.46706334262318e-02 8.44779607881483e-04
3.05909183673469e+00 8.40761715592445e-02 8.41262503711787e-04
3.07662244897959e+00 8.34858833346744e-02 8.37746286274239e-04
3.09415306122449e+00 8.28997394480191e-02 8.34231222111051e-04
3.11168367346939e+00 8.23177108042933e-02 8.30717572001800e-04
3.12921428571429e+00 8.17397685108834e-02 8.27205592416096e-04
3.14674489795918e+00 8.11658838780246e-02 8.23695533599111e-04
3.16427551020408e+00 8.05960284173817e-02 8.20187640980602e-04
3.18180612244898e+00 8.00301738388770e-02 8.16682153397871e-04
3.19933673469388e+00 7.94682920545923e-02 8.13179304460634e-04
3.21686734693878e+00 7.89103551720280e-02 8.09679323925913e-04
3.23439795918367e+00 7.83563354945138e-02 8.06182436472288e-04
3.25192857142857e+00 7.78062055181641e-02 8.02688860628884e-04
3.26945918367347e+00 7.72599379355631e-02 7.99198810085278e-04
3.28698979591837e+00 7.67175056293208e-02 7.95712495010754e-04
3.30452040816327e+00 7.61788816724326e-02 7.92230120291971e-04
3.32205102040816e+00 7.56440393269474e-02 7.88751886813016e-04
3.33958163265306e+00 7.51129520410683e-02 7.85277989818353e-04
3.35711224489796e+00 7.45855934525780e-02 7.81808620153111e-04
3.37464285714286e+00 7.40619373827512e-02 7.78343965513151e-04
3.39217346938776e+00 7.35419578366604e-02 7.74884209314308e-04
3.40970408163265e+00 7.30256290003900e-02 7.71429529701952e-04
3.42723469387755e+00 7.25129252442748e-02 7.67980100742615e-04
3.44476530612245e+00 7.20038211170748e-02 7.64536093624861e-04
3.46229591836735e+00 7.14982913462378e-02 7.61097675036419e-04
3.47982653061225e+00 7.09963108366495e-02 7.57665008330114e-04
3.49735714285714e+00 7.04978546679784e-02 7.54238252015243e-04
3.51488775510204e+00 7.00028980976891e-02 7.50817560887214e-04
3.53241836734694e+00 6.95114165555328e-02 7.47403087166625e-04
3.54994897959184e+00 6.90233856437655e-02 7.43994979456164e-04
3.56747959183673e+00 6.85387811345961e-02 7.40593381825104e-04
3.58501020408163e+00 6.80575789730360e-02 7.37198434895471e-04
3.60254081632653e+00 6.75797552716233e-02 7.33810276937315e-04
3.62007142857143e+00 6.71052863106054e-02 7.30429042374120e-04
3.63760204081633e+00 6.66341485367649e-02 7.27054862846544e-04
3.65513265306122e+00 6.61663185609857e-02 7.23687865821654e-04
3.67266326530612e+00 6.57017731609073e-02 7.20328175624093e-04
3.69019387755102e+00 6.52404892759289e-02 7.16975914475841e-04
3.70772448979592e+00 6.47824440073561e-02 7.13631201533823e-04
3.72525510204082e+00 6.43276146160581e-02 7.10294152043821e-04
3.74278571428571e+00 6.38759785249807e-02 7.06964878332366e-04
3.76031632653061e+00 6.34275133143581e-02 7.03643490807321e-04
3.77784693877551e+00 6.29821967218298e-02 7.00330096580850e-04
3.79537755102041e+00 6.25400066413382e-02 6.97024800441768e-04
3.81290816326531e+00 6.21009211208930e-02 6.93727703572848e-04
3.83043877551020e+00 6.16649183649143e-02 6.90438904493636e-04
3.84796938775510e+00 6.12319767296933e-02 6.87158500011202e-04
3.86550000000000e+00 6.08020747234801e-02 6.83886584331998e-04
3.88303061224490e+00 6.03751910043303e-02 6.80623248279759e-04
3.90056122448980e+00 5.99513043823245e-02 6.77368580202895e-04
3.91809183673469e+00 5.95303938152145e-02 6.74122666890067e-04
3.93562244897959e+00 5.91124384084866e-02 6.70885592711564e-04
3.95315306122449e+00 5.86974174132887e-02 6.67657438863005e-04
3.97068367346939e+00 5.82853102285320e-02 6.64438284239207e-04
3.98821428571429e+00 5.78760963967146e-02 6.61228206315413e-04
4.00574489795918e+00 5.74697556039632e-02 6.58027279921847e-04
4.02327551020408e+00 5.70662676790263e-02 6.54835578100035e-04
4.04080612244898e+00 5.66656125912938e-02 6.51653170960166e-04
4.05833673469388e+00 5.62677704527588e-02 6.48480126512038e-04
4.07586734693878e+00 5.58727215140532e-02 6.45316511503946e-04
4.09339795918367e+00 5.54804461644665e-02 6.42162390630228e-04
4.11092857142857e+00 5.50909249300376e-02 6.39017825832053e-04
4.12845918367347e+00 5.47041384754137e-02 6.35882877098087e-04
4.14598979591837e+00 5.43200676000450e-02 6.32757603272620e-04
4.16352040816327e+00 5.39386932381853e-02 6.29642060925013e-04
4.18105102040816e+00 5.35599964579478e-02 6.26536305135006e-04
4.19858163265306e+00 5.31839584594801e-02 6.23440388438114e-04
4.21611224489796e+00 5.28105605767008e-02 6.20354361587739e-04
4.23364285714286e+00 5.24397842736846e-02 6.17278274324596e-04
4.25117346938776e+00 5.20716111446448e-02 6.14212174644941e-04
4.26870408163265e+00 5.17060229121742e-02 6.11156108154118e-04
4.28623469387755e+00 5.13430014288914e-02 6.08110118801105e-04
4.30376530612245e+00 5.09825286739690e-02 6.05074249620340e-04
4.32129591836735e+00 5.06245867531005e-02 6.02048541688180e-04
4.33882653061224e+00 5.02691578976144e-02 5.99033034843998e-04
4.35635714285714e+00 4.99162244627910e-02 5.96027766716345e-04
4.37388775510204e+00 4.95657689294014e-02 5.93032773422602e-04
4.39141836734694e+00 4.92177739004067e-02 5.90048090275768e-04
4.40894897959184e+00 4.88722221009109e-02 5.87073751108254e-04
4.42647959183673e+00 4.85290963765374e-02 5.84109787673938e-04
4.44401020408163e+00 4.81883796948893e-02 5.81156230323025e-04
4.46154081632653e+00 4.78500551423768e-02 5.78213108683465e-04
4.47907142857143e+00 4.75141059241574e-02 5.75280450697451e-04
4.49660204081633e+00 4.71805153633043e-02 5.72358283284242e-04
4.51413265306122e+00 4.68492668992531e-02 5.69446631440367e-04
4.53166326530612e+00 4.65203440891662e-02 5.66545518882779e-04
4.54919387755102e+00 4.61937306049156e-02 5.63654968698436e-04
4.56672448979592e+00 4.58694102330113e-02 5.60775002719394e-04
4.58425510204082e+00 4.55473668731027e-02 5.57905640969698e-04
4.60178571428571e+00 4.52275845392740e-02 5.55046902285770e-04
4.61931632653061e+00 4.49100473571417e-02 5.52198804942966e-04
4.63684693877551e+00 4.45947395637744e-02 5.49361365765752e-04
4.65437755102041e+00 4.42816455069105e-02 5.46534600737347e-04
4.67190816326531e+00 4.39707496435249e-02 5.43718524167904e-04
4.68943877551020e+00 4.36620365410389e-02 5.40913149286378e-04
4.70696938775510e+00 4.33554908745590e-02 5.38118488838107e-04
4.72450000000000e+00 4.30510974267864e-02 5.35334554507061e-04
4.74203061224490e+00 4.27488410866320e-02 5.32561356403966e-04
4.75956122448980e+00 4.24487068503657e-02 5.29798903637138e-04
4.77709183673469e+00 4.21506798189599e-02 5.27047204889256e-04
4.79462244897959e+00 4.18547451979908e-02 5.24306267858580e-04
4.81215306122449e+00 4.15608882963017e-02 5.21576098763778e-04
4.82968367346939e+00 4.12690945270945e-02 5.18856702894878e-04
4.84721428571429e+00 4.09793494053726e-02 5.16148085169678e-04
4.86474489795918e+00 4.06916385478363e-02 5.13450249339085e-04
4.88227551020408e+00 4.04059476721698e-02 5.10763198528283e-04
4.89980612244898e+00 4.01222625957601e-02 5.08086934493528e-04
4.91733673469388e+00 3.98405692367184e-02 5.05421458147772e-04
4.93486734693878e+00 3.95608536114449e-02 5.02766770091942e-04
4.95239795918367e+00 3.92831018345163e-02 5.00122870098123e-04
4.96992857142857e+00 3.90073001174498e-02 4.97489756651110e-04
4.98745918367347e+00 3.87334347696722e-02 4.94867427455830e-04
5.00498979591837e+00 3.84614921961758e-02 4.92255879950106e-04
5.02252040816327e+00 3.81914588974011e-02 4.89655110569788e-04
5.04005102040816e+00 3.79233214685679e-02 4.87065115247481e-04
5.05758163265306e+00 3.76570665984897e-02 4.84485888725007e-04
5.07511224489796e+00 3.73926810704815e-02 4.81917425037899e-04
5.09264285714286e+00 3.71301517601251e-02 4.79359718005010e-04
5.11017346938776e+00 3.68694656351471e-02 4.76812760750249e-04
5.12770408163265e+00 3.66106097542739e-02 4.74276545278022e-04
5.14523469387755e+00 3.63535712680939e-02 4.71751062941067e-04
5.16276530612245e+00 3.60983374169052e-02 4.69236304913244e-04
5.18029591836735e+00 3.58448955305897e-02 4.66732261509538e-04
5.19782653061224e+00 3.55932330279851e-02 4.64238922646096e-04
5.21535714285714e+00 3.53433374157872e-02 4.61756277204039e-04
5.23288775510204e+00 3.50951962893567e-02 4.59284313476129e-04
5.25041836734694e+00 3.48487973306674e-02 4.56823019618348e-04
5.26794897959184e+00 3.46041283081762e-02 4.54372383207239e-04
5.28547959183673e+00 3.43611770757627e-02 4.51932390846618e-04
5.30301020408163e+00 3.41199315734958e-02 4.49503028599051e-04
5.32054081632653e+00 3.38803798256566e-02 4.47084282421987e-04
5.33807142857143e+00 3.36425099406057e-02 4.44676137538610e-04
5.35560204081633e+00 3.34063101101941e-02 4.42278578862298e-04
5.37313265306122e+00 3.31717686087455e-02 4.39891590407557e-04
5.39066326530612e+00 3.29388737937744e-02 4.37515155702276e-04
5.40819387755102e+00 3.27076141041001e-02 4.35149258204458e-04
5.42572448979592e+00 3.24779780597112e-02 4.32793880892275e-04
5.44325510204082e+00 3.22499542607830e-02 4.30449005899677e-04
5.46078571428571e+00 3.20235313883594e-02 4.28114614914611e-04
5.47831632653061e+00 3.17986982025346e-02 4.25790689581625e-04
5.49584693877551e+00 3.15754435423169e-02 4.23477210919401e-04
5.51337755102041e+00 3.13537563250746e-02 4.21174159712614e-04
5.53090816326531e+00 3.11336255455933e-02 4.18881515966439e-04
