Energy (eV)          EEDF (eV^-(3/2))     First Anisotropy
1.11625000000000e-04 2.70283164371801e+02 0.00000000000000e+00
3.34875000000000e-04 2.67959115348369e+02 0.00000000000000e+00
5.58125000000000e-04 2.65655049825625e+02 0.00000000000000e+00
7.81375000000000e-04 2.63370795974191e+02 0.00000000000000e+00
1.00462500000000e-03 2.61106183442035e+02 0.00000000000000e+00
1.22787500000000e-03 2.58861043341887e+02 0.00000000000000e+00
1.45112500000000e-03 2.56635208238660e+02 0.00000000000000e+00
1.67437500000000e-03 2.54428512136967e+02 0.00000000000000e+00
1.89762500000000e-03 2.52240790468742e+02 0.00000000000000e+00
2.12087500000000e-03 2.50071880080969e+02 0.00000000000000e+00
2.34412500000000e-03 2.47921619223517e+02 0.00000000000000e+00
2.56737500000000e-03 2.45789847537071e+02 0.00000000000000e+00
2.79062500000000e-03 2.43676406041179e+02 0.00000000000000e+00
3.01387500000000e-03 2.41581137122393e+02 0.00000000000000e+00
3.23712500000000e-03 2.39503884522517e+02 0.00000000000000e+00
3.46037500000000e-03 2.37444493326949e+02 0.00000000000000e+00
3.68362500000000e-03 2.35402809953135e+02 0.00000000000000e+00
3.90687500000000e-03 2.33378682139108e+02 0.00000000000000e+00
4.13012500000000e-03 2.31371958932138e+02 0.00000000000000e+00
4.35337500000000e-03 2.29382490677473e+02 0.00000000000000e+00
4.57662500000000e-03 2.27410129007178e+02 0.00000000000000e+00
4.79987500000000e-03 2.25454726829070e+02 0.00000000000000e+00
5.02312500000000e-03 2.23516138315747e+02 0.00000000000000e+00
5.24637500000000e-03 2.21594218893718e+02 0.00000000000000e+00
5.46962500000000e-03 2.19688825232614e+02 0.00000000000000e+00
5.69287500000000e-03 2.17799815234504e+02 0.00000000000000e+00
5.91612500000000e-03 2.15927048023295e+02 0.00000000000000e+00
6.13937500000000e-03 2.14070383934229e+02 0.00000000000000e+00
6.36262500000000e-03 2.12229684503464e+02 0.00000000000000e+00
6.58587500000000e-03 2.10404812457749e+02 0.00000000000000e+00
6.80912500000000e-03 2.08595631704187e+02 0.00000000000000e+00
7.03237500000000e-03 2.06802007320087e+02 0.00000000000000e+00
7.25562500000000e-03 2.05023805542899e+02 0.00000000000000e+00
7.47887500000000e-03 2.03260893760239e+02 0.00000000000000e+00
7.70212500000000e-03 2.01513140500001e+02 0.00000000000000e+00
7.92537500000000e-03 1.99780415420552e+02 0.00000000000000e+00
8.14862500000000e-03 1.98062589301009e+02 0.00000000000000e+00
8.37187500000000e-03 1.96359534031605e+02 0.00000000000000e+00
8.59512500000000e-03 1.94671122604135e+02 0.00000000000000e+00
8.81837500000000e-03 1.92997229102481e+02 0.00000000000000e+00
9.04162500000000e-03 1.91337728693226e+02 0.00000000000000e+00
9.26487500000000e-03 1.89692497616339e+02 0.00000000000000e+00
9.48812500000000e-03 1.88061413175951e+02 0.00000000000000e+00
9.71137500000000e-03 1.86444353731201e+02 0.00000000000000e+00
9.93462500000000e-03 1.84841198687167e+02 0.00000000000000e+00
1.01578750000000e-02 1.83251828485868e+02 0.00000000000000e+00
1.03811250000000e-02 1.81676124597355e+02 0.00000000000000e+00
1.06043750000000e-02 1.80113969510863e+02 0.00000000000000e+00
1.08276250000000e-02 1.78565246726054e+02 0.00000000000000e+00
1.10508750000000e-02 1.77029840744327e+02 0.00000000000000e+00
1.12741250000000e-02 1.75507637060202e+02 0.00000000000000e+00
1.14973750000000e-02 1.73998522152784e+02 0.00000000000000e+00
1.17206250000000e-02 1.72502383477295e+02 0.00000000000000e+00
1.19438750000000e-02 1.71019109456681e+02 0.00000000000000e+00
1.21671250000000e-02 1.69548589473291e+02 0.00000000000000e+00
1.23903750000000e-02 1.68090713860630e+02 0.00000000000000e+00
1.26136250000000e-02 1.66645373895176e+02 0.00000000000000e+00
1.28368750000000e-02 1.65212461788273e+02 0.00000000000000e+00
1.30601250000000e-02 1.63791870678095e+02 0.00000000000000e+00
1.32833750000000e-02 1.62383494621676e+02 0.00000000000000e+00
1.35066250000000e-02 1.60987228587007e+02 0.00000000000000e+00
1.37298750000000e-02 1.59602968445203e+02 0.00000000000000e+00
1.39531250000000e-02 1.58230610962741e+02 0.00000000000000e+00
1.41763750000000e-02 1.56870053793756e+02 0.00000000000000e+00
1.43996250000000e-02 1.55521195472414e+02 0.00000000000000e+00
1.46228750000000e-02 1.54183935405341e+02 0.00000000000000e+00
1.48461250000000e-02 1.52858173864122e+02 0.00000000000000e+00
1.50693750000000e-02 1.51543811977864e+02 0.00000000000000e+00
1.52926250000000e-02 1.50240751725823e+02 0.00000000000000e+00
1.55158750000000e-02 1.48948895930093e+02 0.00000000000000e+00
1.57391250000000e-02 1.47668148248358e+02 0.00000000000000e+00
1.59623750000000e-02 1.46398413166710e+02 0.00000000000000e+00
1.61856250000000e-02 1.45139595992523e+02 0.00000000000000e+00
1.64088750000000e-02 1.43891602847394e+02 0.00000000000000e+00
1.66321250000000e-02 1.42654340660137e+02 0.00000000000000e+00
1.68553750000000e-02 1.41427717159848e+02 0.00000000000000e+00
1.70786250000000e-02 1.40211640869021e+02 0.00000000000000e+00
1.73018750000000e-02 1.39006021096723e+02 0.00000000000000e+00
1.75251250000000e-02 1.37810767931836e+02 0.00000000000000e+00
1.77483750000000e-02 1.36625792236349e+02 0.00000000000000e+00
1.79716250000000e-02 1.35451005638709e+02 0.00000000000000e+00
1.81948750000000e-02 1.34286320527234e+02 0.00000000000000e+00
1.84181250000000e-02 1.33131650043575e+02 0.00000000000000e+00
1.86413750000000e-02 1.31986908076244e+02 0.00000000000000e+00
1.88646250000000e-02 1.30852009254185e+02 0.00000000000000e+00
1.90878750000000e-02 1.29726868940414e+02 0.00000000000000e+00
1.93111250000000e-02 1.28611403225702e+02 0.00000000000000e+00
1.95343750000000e-02 1.27505528922321e+02 0.00000000000000e+00
1.97576250000000e-02 1.26409163557839e+02 0.00000000000000e+00
1.99808750000000e-02 1.25322225368966e+02 0.00000000000000e+00
2.02041250000000e-02 1.24244633295464e+02 0.00000000000000e+00
2.04273750000000e-02 1.23176306974094e+02 0.00000000000000e+00
2.06506250000000e-02 1.22117166732626e+02 0.00000000000000e+00
2.08738750000000e-02 1.21067133583899e+02 0.00000000000000e+00
2.10971250000000e-02 1.20026129219928e+02 0.00000000000000e+00
2.13203750000000e-02 1.18994076006064e+02 0.00000000000000e+00
2.15436250000000e-02 1.17970896975207e+02 0.00000000000000e+00
2.17668750000000e-02 1.16956515822063e+02 0.00000000000000e+00
2.19901250000000e-02 1.15950856897453e+02 0.00000000000000e+00
2.22133750000000e-02 1.14953845202674e+02 0.00000000000000e+00
2.24366250000000e-02 1.13965406383907e+02 0.00000000000000e+00
2.26598750000000e-02 1.12985466726666e+02 0.00000000000000e+00
2.28831250000000e-02 1.12013953150306e+02 0.00000000000000e+00
2.31063750000000e-02 1.11050793202570e+02 0.00000000000000e+00
2.33296250000000e-02 1.10095915054190e+02 0.00000000000000e+00
2.35528750000000e-02 1.09149247493523e+02 0.00000000000000e+00
2.37761250000000e-02 1.08210719921247e+02 0.00000000000000e+00
2.39993750000000e-02 1.07280262345093e+02 0.00000000000000e+00
2.42226250000000e-02 1.06357805374623e+02 0.00000000000000e+00
2.44458750000000e-02 1.05443280216062e+02 0.00000000000000e+00
2.46691250000000e-02 1.04536618667160e+02 0.00000000000000e+00
2.48923750000000e-02 1.03637753112109e+02 0.00000000000000e+00
2.51156250000000e-02 1.02746616516502e+02 0.00000000000000e+00
2.53388750000000e-02 1.01863142422331e+02 0.00000000000000e+00
2.55621250000000e-02 1.00987264943032e+02 0.00000000000000e+00
2.57853750000000e-02 1.00118918758571e+02 0.00000000000000e+00
2.60086250000000e-02 9.92580391105736e+01 0.00000000000000e+00
2.62318750000000e-02 9.84045617974950e+01 0.00000000000000e+00
2.64551250000000e-02 9.75584231698313e+01 0.00000000000000e+00
2.66783750000000e-02 9.67195601253739e+01 0.00000000000000e+00
2.69016250000000e-02 9.58879101045026e+01 0.00000000000000e+00
2.71248750000000e-02 9.50634110855209e+01 0.00000000000000e+00
2.73481250000000e-02 9.42460015800301e+01 0.00000000000000e+00
2.75713750000000e-02 9.34356206283440e+01 0.00000000000000e+00
2.77946250000000e-02 9.26322077949424e+01 0.00000000000000e+00
2.80178750000000e-02 9.18357031639644e+01 0.00000000000000e+00
2.82411250000000e-02 9.10460473347398e+01 0.00000000000000e+00
2.84643750000000e-02 9.02631814173593e+01 0.00000000000000e+00
2.86876250000000e-02 8.94870470282828e+01 0.00000000000000e+00
2.89108750000000e-02 8.87175862859850e+01 0.00000000000000e+00
2.91341250000000e-02 8.79547418066393e+01 0.00000000000000e+00
2.93573750000000e-02 8.71984566998377e+01 0.00000000000000e+00
2.95806250000000e-02 8.64486745643486e+01 0.00000000000000e+00
2.98038750000000e-02 8.57053394839104e+01 0.00000000000000e+00
3.00271250000000e-02 8.49683960230615e+01 0.00000000000000e+00
3.02503750000000e-02 8.42377892230059e+01 0.00000000000000e+00
3.04736250000000e-02 8.35134645975149e+01 0.00000000000000e+00
3.06968750000000e-02 8.27953681288634e+01 0.00000000000000e+00
3.09201250000000e-02 8.20834462638015e+01 0.00000000000000e+00
3.11433750000000e-02 8.13776459095610e+01 0.00000000000000e+00
3.13666250000000e-02 8.06779144298952e+01 0.00000000000000e+00
3.15898750000000e-02 7.99841996411545e+01 0.00000000000000e+00
3.18131250000000e-02 7.92964498083935e+01 0.00000000000000e+00
3.20363750000000e-02 7.86146136415138e+01 0.00000000000000e+00
3.22596250000000e-02 7.79386402914386e+01 0.00000000000000e+00
3.24828750000000e-02 7.72684793463202e+01 0.00000000000000e+00
3.27061250000000e-02 7.66040808277810e+01 0.00000000000000e+00
3.29293750000000e-02 7.59453951871860e+01 0.00000000000000e+00
3.31526250000000e-02 7.52923733019475e+01 0.00000000000000e+00
3.33758750000000e-02 7.46449664718621e+01 0.00000000000000e+00
3.35991250000000e-02 7.40031264154785e+01 0.00000000000000e+00
3.38223750000000e-02 7.33668052664969e+01 0.00000000000000e+00
3.40456250000000e-02 7.27359555701991e+01 0.00000000000000e+00
3.42688750000000e-02 7.21105302799099e+01 0.00000000000000e+00
3.44921250000000e-02 7.14904827534882e+01 0.00000000000000e+00
3.47153750000000e-02 7.08757667498486e+01 0.00000000000000e+00
3.49386250000000e-02 7.02663364255132e+01 0.00000000000000e+00
3.51618750000000e-02 6.96621463311922e+01 0.00000000000000e+00
3.53851250000000e-02 6.90631514083950e+01 0.00000000000000e+00
3.56083750000000e-02 6.84693069860694e+01 0.00000000000000e+00
3.58316250000000e-02 6.78805687772707e+01 0.00000000000000e+00
3.60548750000000e-02 6.72968928758583e+01 0.00000000000000e+00
3.62781250000000e-02 6.67182357532221e+01 0.00000000000000e+00
3.65013750000000e-02 6.61445542550355e+01 0.00000000000000e+00
3.67246250000000e-02 6.55758055980377e+01 0.00000000000000e+00
3.69478750000000e-02 6.50119473668425e+01 0.00000000000000e+00
3.71711250000000e-02 6.44529375107757e+01 0.00000000000000e+00
3.73943750000000e-02 6.38987343407387e+01 0.00000000000000e+00
3.76176250000000e-02 6.33492965260997e+01 0.00000000000000e+00
3.78408750000000e-02 6.28045830916111e+01 0.00000000000000e+00
3.80641250000000e-02 6.22645534143539e+01 0.00000000000000e+00
3.82873750000000e-02 6.17291672207082e+01 0.00000000000000e+00
3.85106250000000e-02 6.11983845833499e+01 0.00000000000000e+00
3.87338750000000e-02 6.06721659182725e+01 0.00000000000000e+00
3.89571250000000e-02 6.01504719818356e+01 0.00000000000000e+00
3.91803750000000e-02 5.96332638678379e+01 0.00000000000000e+00
3.94036250000000e-02 5.91205030046161e+01 0.00000000000000e+00
3.96268750000000e-02 5.86121511521677e+01 0.00000000000000e+00
3.98501250000000e-02 5.81081703993000e+01 0.00000000000000e+00
4.00733750000000e-02 5.76085231608020e+01 0.00000000000000e+00
4.02966250000000e-02 5.71131721746421e+01 0.00000000000000e+00
4.05198750000000e-02 5.66220804991887e+01 0.00000000000000e+00
4.07431250000000e-02 5.61352115104558e+01 0.00000000000000e+00
4.09663750000000e-02 5.56525288993709e+01 0.00000000000000e+00
4.11896250000000e-02 5.51739966690680e+01 0.00000000000000e+00
4.14128750000000e-02 5.46995791322026e+01 0.00000000000000e+00
4.16361250000000e-02 5.42292409082902e+01 0.00000000000000e+00
4.18593750000000e-02 5.37629469210681e+01 0.00000000000000e+00
4.20826250000000e-02 5.33006623958794e+01 0.00000000000000e+00
4.23058750000000e-02 5.28423528570794e+01 0.00000000000000e+00
4.25291250000000e-02 5.23879841254648e+01 0.00000000000000e+00
4.27523750000000e-02 5.19375223157245e+01 0.00000000000000e+00
4.29756250000000e-02 5.14909338339128e+01 0.00000000000000e+00
4.31988750000000e-02 5.10481853749438e+01 0.00000000000000e+00
4.34221250000000e-02 5.06092439201078e+01 0.00000000000000e+00
4.36453750000000e-02 5.01740767346089e+01 0.00000000000000e+00
4.38686250000000e-02 4.97426513651236e+01 0.00000000000000e+00
4.40918750000000e-02 4.93149356373806e+01 0.00000000000000e+00
4.43151250000000e-02 4.88908976537613e+01 0.00000000000000e+00
4.45383750000000e-02 4.84705057909212e+01 0.00000000000000e+00
4.47616250000000e-02 4.80537286974313e+01 0.00000000000000e+00
4.49848750000000e-02 4.76405352914401e+01 0.00000000000000e+00
4.52081250000000e-02 4.72308947583556e+01 0.00000000000000e+00
4.54313750000000e-02 4.68247765485472e+01 0.00000000000000e+00
4.56546250000000e-02 4.64221503750677e+01 0.00000000000000e+00
4.58778750000000e-02 4.60229862113941e+01 0.00000000000000e+00
4.61011250000000e-02 4.56272542891887e+01 0.00000000000000e+00
4.63243750000000e-02 4.52349250960790e+01 0.00000000000000e+00
4.65476250000000e-02 4.48459693734567e+01 0.00000000000000e+00
4.67708750000000e-02 4.44603581142957e+01 0.00000000000000e+00
4.69941250000000e-02 4.40780625609891e+01 0.00000000000000e+00
4.72173750000000e-02 4.36990542032039e+01 0.00000000000000e+00
4.74406250000000e-02 4.33233047757556e+01 0.00000000000000e+00
4.76638750000000e-02 4.29507862564998e+01 0.00000000000000e+00
4.78871250000000e-02 4.25814708642424e+01 0.00000000000000e+00
4.81103750000000e-02 4.22153310566680e+01 0.00000000000000e+00
4.83336250000000e-02 4.18523395282857e+01 0.00000000000000e+00
4.85568750000000e-02 4.14924692083928e+01 0.00000000000000e+00
4.87801250000000e-02 4.11356932590560e+01 0.00000000000000e+00
4.90033750000000e-02 4.07819850731098e+01 0.00000000000000e+00
4.92266250000000e-02 4.04313182721725e+01 0.00000000000000e+00
4.94498750000000e-02 4.00836667046785e+01 0.00000000000000e+00
4.96731250000000e-02 3.97390044439286e+01 0.00000000000000e+00
4.98963750000000e-02 3.93973057861559e+01 0.00000000000000e+00
5.01196250000000e-02 3.90585452486094e+01 0.00000000000000e+00
5.03428750000000e-02 3.87226975676531e+01 0.00000000000000e+00
5.05661250000000e-02 3.83897376968825e+01 0.00000000000000e+00
5.07893750000000e-02 3.80596408052560e+01 0.00000000000000e+00
5.10126250000000e-02 3.77323822752439e+01 0.00000000000000e+00
5.12358750000000e-02 3.74079377009917e+01 0.00000000000000e+00
5.14591250000000e-02 3.70862828865006e+01 0.00000000000000e+00
5.16823750000000e-02 3.67673938438228e+01 0.00000000000000e+00
5.19056250000000e-02 3.64512467912725e+01 0.00000000000000e+00
5.21288750000000e-02 3.61378181516524e+01 0.00000000000000e+00
5.23521250000000e-02 3.58270845504955e+01 0.00000000000000e+00
5.25753750000000e-02 3.55190228143218e+01 0.00000000000000e+00
5.27986250000000e-02 3.52136099689101e+01 0.00000000000000e+00
5.30218750000000e-02 3.49108232375847e+01 0.00000000000000e+00
5.32451250000000e-02 3.46106400395166e+01 0.00000000000000e+00
5.34683750000000e-02 3.43130379880399e+01 0.00000000000000e+00
5.36916250000000e-02 3.40179948889819e+01 0.00000000000000e+00
5.39148750000000e-02 3.37254887390082e+01 0.00000000000000e+00
5.41381250000000e-02 3.34354977239816e+01 0.00000000000000e+00
5.43613750000000e-02 3.31480002173350e+01 0.00000000000000e+00
5.45846250000000e-02 3.28629747784594e+01 0.00000000000000e+00
5.48078750000000e-02 3.25804001511041e+01 0.00000000000000e+00
5.50311250000000e-02 3.23002552617918e+01 0.00000000000000e+00
5.52543750000000e-02 3.20225192182469e+01 0.00000000000000e+00
5.54776250000000e-02 3.17471713078379e+01 0.00000000000000e+00
5.57008750000000e-02 3.14741909960318e+01 0.00000000000000e+00
5.59241250000000e-02 3.12035579248637e+01 0.00000000000000e+00
5.61473750000000e-02 3.09352519114179e+01 0.00000000000000e+00
5.63706250000000e-02 3.06692529463229e+01 0.00000000000000e+00
5.65938750000000e-02 3.04055411922593e+01 0.00000000000000e+00
5.68171250000000e-02 3.01440969824803e+01 0.00000000000000e+00
5.70403750000000e-02 2.98849008193451e+01 0.00000000000000e+00
5.72636250000000e-02 2.96279333728644e+01 0.00000000000000e+00
5.74868750000000e-02 2.93731754792597e+01 0.00000000000000e+00
5.77101250000000e-02 2.91206081395331e+01 0.00000000000000e+00
5.79333750000000e-02 2.88702125180514e+01 0.00000000000000e+00
5.81566250000000e-02 2.86219699411407e+01 0.00000000000000e+00
5.83798750000000e-02 2.83758618956939e+01 0.00000000000000e+00
5.86031250000000e-02 2.81318700277903e+01 0.00000000000000e+00
5.88263750000000e-02 2.78899761413269e+01 0.00000000000000e+00
5.90496250000000e-02 2.76501621966608e+01 0.00000000000000e+00
5.92728750000000e-02 2.74124103092644e+01 0.00000000000000e+00
5.94961250000000e-02 2.71767027483917e+01 0.00000000000000e+00
5.97193750000000e-02 2.69430219357555e+01 0.00000000000000e+00
5.99426250000000e-02 2.67113504442168e+01 0.00000000000000e+00
6.01658750000000e-02 2.64816709964852e+01 0.00000000000000e+00
6.03891250000000e-02 2.62539664638303e+01 0.00000000000000e+00
6.06123750000000e-02 2.60282198648042e+01 0.00000000000000e+00
6.08356250000000e-02 2.58044143639753e+01 0.00000000000000e+00
6.10588750000000e-02 2.55825332706726e+01 0.00000000000000e+00
6.12821250000000e-02 2.53625600377411e+01 0.00000000000000e+00
6.15053750000000e-02 2.51444782603075e+01 0.00000000000000e+00
6.17286250000000e-02 2.49282716745571e+01 0.00000000000000e+00
6.19518750000000e-02 2.47139241565208e+01 0.00000000000000e+00
6.21751250000000e-02 2.45014197208726e+01 0.00000000000000e+00
6.23983750000000e-02 2.42907425197374e+01 0.00000000000000e+00
6.26216250000000e-02 2.40818768415091e+01 0.00000000000000e+00
6.28448750000000e-02 2.38748071096793e+01 0.00000000000000e+00
6.30681250000000e-02 2.36695178816748e+01 0.00000000000000e+00
6.32913750000000e-02 2.34659938477070e+01 0.00000000000000e+00
6.35146250000000e-02 2.32642198296292e+01 0.00000000000000e+00
6.37378750000000e-02 2.30641807798053e+01 0.00000000000000e+00
6.39611250000000e-02 2.28658617799872e+01 0.00000000000000e+00
6.41843750000000e-02 2.26692480402026e+01 0.00000000000000e+00
6.44076250000000e-02 2.24743248976518e+01 0.00000000000000e+00
6.46308750000000e-02 2.22810778156140e+01 0.00000000000000e+00
6.48541250000000e-02 2.20894923823637e+01 0.00000000000000e+00
6.50773750000000e-02 2.18995543100956e+01 0.00000000000000e+00
6.53006250000000e-02 2.17112494338590e+01 0.00000000000000e+00
6.55238750000000e-02 2.15245637105016e+01 0.00000000000000e+00
6.57471250000000e-02 2.13394832176222e+01 0.00000000000000e+00
6.59703750000000e-02 2.11559941525322e+01 0.00000000000000e+00
6.61936250000000e-02 2.09740828312265e+01 0.00000000000000e+00
6.64168750000000e-02 2.07937356873630e+01 0.00000000000000e+00
6.66401250000000e-02 2.06149392712505e+01 0.00000000000000e+00
6.68633750000000e-02 2.04376802488462e+01 0.00000000000000e+00
6.70866250000000e-02 2.02619454007608e+01 0.00000000000000e+00
6.73098750000000e-02 2.00877216212730e+01 0.00000000000000e+00
6.75331250000000e-02 1.99149959173520e+01 0.00000000000000e+00
6.77563750000000e-02 1.97437554076882e+01 0.00000000000000e+00
6.79796250000000e-02 1.95739873217333e+01 0.00000000000000e+00
6.82028750000000e-02 1.94056789987472e+01 0.00000000000000e+00
6.84261250000000e-02 1.92388178868541e+01 0.00000000000000e+00
6.86493750000000e-02 1.90733915421064e+01 0.00000000000000e+00
6.88726250000000e-02 1.89093876275567e+01 0.00000000000000e+00
6.90958750000000e-02 1.87467939123378e+01 0.00000000000000e+00
6.93191250000000e-02 1.85855982707503e+01 0.00000000000000e+00
6.95423750000000e-02 1.84257886813586e+01 0.00000000000000e+00
6.97656250000000e-02 1.82673532260943e+01 0.00000000000000e+00
6.99888750000000e-02 1.81102800893673e+01 0.00000000000000e+00
7.02121250000000e-02 1.79545575571847e+01 0.00000000000000e+00
7.04353750000000e-02 1.78001740162772e+01 0.00000000000000e+00
