Energy (eV)          EEDF (eV^-(3/2))     First Anisotropy
7.33333333333333e-03 4.25462102771805e-01 2.36548050232889e-04
2.20000000000000e-02 4.22209319794722e-01 3.90427447804890e-04
3.66666666666667e-02 4.18981405315567e-01 5.14930214383746e-04
5.13333333333333e-02 4.15778169189817e-01 6.09225357609927e-04
6.60000000000000e-02 4.12599422744608e-01 6.87628560242173e-04
8.06666666666667e-02 4.09444978754734e-01 7.55558503949823e-04
9.53333333333333e-02 4.06314651416115e-01 8.15822364838332e-04
1.10000000000000e-01 4.03208256339963e-01 8.70117080302171e-04
1.24666666666667e-01 4.00125610587197e-01 9.19569250720283e-04
1.39333333333333e-01 3.97066532560384e-01 9.64975948343702e-04
1.54000000000000e-01 3.94030842077863e-01 1.00692780104088e-03
1.68666666666667e-01 3.91018360355376e-01 1.04587819242398e-03
1.83333333333333e-01 3.88028909936328e-01 1.08218498867924e-03
1.98000000000000e-01 3.85062314739947e-01 1.11613711640447e-03
2.12666666666667e-01 3.82118400046611e-01 1.14797225961812e-03
2.27333333333333e-01 3.79196992442872e-01 1.17788905351284e-03
2.42000000000000e-01 3.76297919855619e-01 1.20605574728635e-03
2.56666666666667e-01 3.73421011539193e-01 1.23261652816234e-03
2.71333333333333e-01 3.70566098029733e-01 1.25769622227674e-03
2.86000000000000e-01 3.67733011170623e-01 1.28140386234757e-03
3.00666666666667e-01 3.64921584100658e-01 1.30383545118897e-03
3.15333333333333e-01 3.62131651214859e-01 1.32507611775248e-03
3.30000000000000e-01 3.59363048183977e-01 1.34520182782431e-03
3.44666666666667e-01 3.56615611943400e-01 1.36428076690203e-03
3.59333333333333e-01 3.53889180658711e-01 1.38237445471768e-03
3.74000000000000e-01 3.51183593740933e-01 1.39953865833569e-03
3.88666666666667e-01 3.48498691835973e-01 1.41582415545137e-03
4.03333333333333e-01 3.45834316793847e-01 1.43127736323609e-03
4.18000000000000e-01 3.43190311680722e-01 1.44594086614313e-03
4.32666666666667e-01 3.40566520768802e-01 1.45985386986257e-03
4.47333333333333e-01 3.37962789508464e-01 1.47305258066648e-03
4.62000000000000e-01 3.35378964537831e-01 1.48557052987397e-03
4.76666666666667e-01 3.32814893673027e-01 1.49743886022611e-03
4.91333333333333e-01 3.30270425882692e-01 1.50868656710175e-03
5.06000000000000e-01 3.27745411295609e-01 1.51934070798369e-03
5.20666666666667e-01 3.25239701191272e-01 1.52942659199375e-03
5.35333333333333e-01 3.22753147976403e-01 1.53896793993825e-03
5.50000000000000e-01 3.20285605190990e-01 1.54798702501957e-03
5.64666666666667e-01 3.17836927499159e-01 1.55650480339267e-03
5.79333333333333e-01 3.15406970667375e-01 1.56454102413348e-03
5.94000000000000e-01 3.12995591569193e-01 1.57211432692324e-03
6.08666666666667e-01 3.10602648176400e-01 1.57924233508327e-03
6.23333333333333e-01 3.08227999538669e-01 1.58594173337345e-03
6.38000000000000e-01 3.05871505787250e-01 1.59222833770139e-03
6.52666666666667e-01 3.03533028126353e-01 1.59811716338961e-03
6.67333333333333e-01 3.01212428814086e-01 1.60362248158904e-03
6.82000000000000e-01 2.98909571165242e-01 1.60875787020057e-03
6.96666666666667e-01 2.96624319542928e-01 1.61353626526770e-03
7.11333333333333e-01 2.94356539340615e-01 1.61797000275255e-03
7.26000000000000e-01 2.92106096984184e-01 1.62207085648408e-03
7.40666666666667e-01 2.89872859923767e-01 1.62585007773291e-03
7.55333333333333e-01 2.87656696616808e-01 1.62931842671216e-03
7.70000000000000e-01 2.85457476529460e-01 1.63248620134840e-03
7.84666666666667e-01 2.83275070128649e-01 1.63536326837741e-03
7.99333333333333e-01 2.81109348866021e-01 1.63795908747092e-03
8.14000000000000e-01 2.78960185178808e-01 1.64028273337714e-03
8.28666666666667e-01 2.76827452482083e-01 1.64234292080097e-03
8.43333333333333e-01 2.74711025153525e-01 1.64414802313490e-03
8.58000000000000e-01 2.72610778533817e-01 1.64570608971934e-03
8.72666666666667e-01 2.70526588919097e-01 1.64702486607816e-03
8.87333333333333e-01 2.68458333546458e-01 1.64811180863274e-03
9.02000000000000e-01 2.66405890593951e-01 1.64897409831041e-03
9.16666666666667e-01 2.64369139173217e-01 1.64961865724794e-03
9.31333333333333e-01 2.62347959315667e-01 1.65005216047013e-03
9.46000000000000e-01 2.60342231972138e-01 1.65028104672496e-03
9.60666666666667e-01 2.58351839005703e-01 1.65031153245851e-03
9.75333333333333e-01 2.56376663178478e-01 1.65014962116727e-03
9.90000000000000e-01 2.54416588150972e-01 1.64980111209941e-03
1.00466666666667e+00 2.52471498475081e-01 1.64927161209141e-03
1.01933333333333e+00 2.50541279581458e-01 1.64856654428649e-03
1.03400000000000e+00 2.48625817773050e-01 1.64769114935401e-03
1.04866666666667e+00 2.46725000245873e-01 1.64665050601481e-03
1.06333333333333e+00 2.44838715022074e-01 1.64544953269357e-03
1.07800000000000e+00 2.42966850998050e-01 1.64409298164937e-03
1.09266666666667e+00 2.41109297936607e-01 1.64258546824002e-03
1.10733333333333e+00 2.39265946409340e-01 1.64093146583189e-03
1.12200000000000e+00 2.37436687841461e-01 1.63913530054489e-03
1.13666666666667e+00 2.35621414504223e-01 1.63720117853512e-03
1.15133333333333e+00 2.33820019460564e-01 1.63513318043383e-03
1.16600000000000e+00 2.32032396606957e-01 1.63293525567846e-03
1.18066666666667e+00 2.30258440666070e-01 1.63061124806333e-03
1.19533333333333e+00 2.28498047135416e-01 1.62816488985676e-03
1.21000000000000e+00 2.26751112326485e-01 1.62559979585311e-03
1.22466666666667e+00 2.25017533357615e-01 1.62291948739438e-03
1.23933333333333e+00 2.23297208105431e-01 1.62012738627844e-03
1.25400000000000e+00 2.21590035241467e-01 1.61722680863449e-03
1.26866666666667e+00 2.19895914225257e-01 1.61422098758211e-03
1.28333333333333e+00 2.18214745258337e-01 1.61111306701644e-03
1.29800000000000e+00 2.16546429318569e-01 1.60790609538535e-03
1.31266666666667e+00 2.14890868153440e-01 1.60460304712462e-03
1.32733333333333e+00 2.13247964236435e-01 1.60120681638547e-03
1.34200000000000e+00 2.11617620799252e-01 1.59772021077323e-03
1.35666666666667e+00 2.09999741825293e-01 1.59414597167509e-03
1.37133333333333e+00 2.08394232008243e-01 1.59048676798017e-03
1.38600000000000e+00 2.06800996782337e-01 1.58674518982563e-03
1.40066666666667e+00 2.05219942316033e-01 1.58292376791544e-03
1.41533333333333e+00 2.03650975472650e-01 1.57902496727164e-03
1.43000000000000e+00 2.02094003838828e-01 1.57505118102283e-03
1.44466666666667e+00 2.00548935718381e-01 1.57100474879859e-03
1.45933333333333e+00 1.99015680094844e-01 1.56688795054109e-03
1.47400000000000e+00 1.97494146658274e-01 1.56270300036292e-03
1.48866666666667e+00 1.95984245799264e-01 1.55845206409028e-03
1.50333333333333e+00 1.94485888573284e-01 1.55413725315733e-03
1.51800000000000e+00 1.92998986725928e-01 1.54976061855314e-03
1.53266666666667e+00 1.91523452687098e-01 1.54532416757764e-03
1.54733333333333e+00 1.90059199537014e-01 1.54082985783557e-03
1.56200000000000e+00 1.88606141030024e-01 1.53627959128763e-03
1.57666666666667e+00 1.87164191588943e-01 1.53167523027556e-03
1.59133333333333e+00 1.85733266272633e-01 1.52701859162794e-03
1.60600000000000e+00 1.84313280798475e-01 1.52231144082658e-03
1.62066666666667e+00 1.82904151536859e-01 1.51755550735016e-03
1.63533333333333e+00 1.81505795480230e-01 1.51275247890120e-03
1.65000000000000e+00 1.80118130264325e-01 1.50790399569593e-03
1.66466666666667e+00 1.78741074162794e-01 1.50301166517068e-03
1.67933333333333e+00 1.77374546057644e-01 1.49807705633622e-03
1.69400000000000e+00 1.76018465459297e-01 1.49310169419678e-03
1.70866666666667e+00 1.74672752501366e-01 1.48808707385866e-03
1.72333333333333e+00 1.73337327912389e-01 1.48303465501650e-03
1.73800000000000e+00 1.72012113034810e-01 1.47794585650475e-03
1.75266666666667e+00 1.70697029819881e-01 1.47282206984456e-03
1.76733333333333e+00 1.69392000800630e-01 1.46766465386425e-03
1.78200000000000e+00 1.68096949109820e-01 1.46247492938585e-03
1.79666666666667e+00 1.66811798474990e-01 1.45725419224222e-03
1.81133333333333e+00 1.65536473192570e-01 1.45200370803319e-03
1.82600000000000e+00 1.64270898144895e-01 1.44672470694788e-03
1.84066666666667e+00 1.63014998795370e-01 1.44141839628170e-03
1.85533333333333e+00 1.61768701163679e-01 1.43608595532835e-03
1.87000000000000e+00 1.60531931841909e-01 1.43072853033782e-03
1.88466666666667e+00 1.59304617989830e-01 1.42534724656009e-03
1.89933333333333e+00 1.58086687311149e-01 1.41994320327267e-03
1.91400000000000e+00 1.56878068068784e-01 1.41451746887330e-03
1.92866666666667e+00 1.55678689080276e-01 1.40907109247526e-03
1.94333333333333e+00 1.54488479695010e-01 1.40360509906904e-03
1.95800000000000e+00 1.53307369808710e-01 1.39812048474843e-03
1.97266666666667e+00 1.52135289858960e-01 1.39261822787997e-03
1.98733333333333e+00 1.50972170803358e-01 1.38709928439719e-03
2.00200000000000e+00 1.49817944133270e-01 1.38156458315850e-03
2.01666666666667e+00 1.48672541869459e-01 1.37601503671160e-03
2.03133333333333e+00 1.47535896541124e-01 1.37045153671821e-03
2.04600000000000e+00 1.46407941198951e-01 1.36487494944135e-03
2.06066666666667e+00 1.45288609410859e-01 1.35928612612437e-03
2.07533333333333e+00 1.44177835241866e-01 1.35368589854384e-03
2.09000000000000e+00 1.43075553266489e-01 1.34807507462367e-03
2.10466666666667e+00 1.41981698564594e-01 1.34245444844703e-03
2.11933333333333e+00 1.40896206702053e-01 1.33682479593441e-03
2.13400000000000e+00 1.39819013742532e-01 1.33118687058233e-03
2.14866666666667e+00 1.38750056243436e-01 1.32554141312462e-03
2.16333333333333e+00 1.37689271237326e-01 1.31988914733345e-03
2.17800000000000e+00 1.36636596243120e-01 1.31423077587945e-03
2.19266666666667e+00 1.35591969262140e-01 1.30856698965795e-03
2.20733333333333e+00 1.34555328760245e-01 1.30289846371025e-03
2.22200000000000e+00 1.33526613678481e-01 1.29722585320229e-03
2.23666666666667e+00 1.32505763429231e-01 1.29154980243093e-03
2.25133333333333e+00 1.31492717879021e-01 1.28587094086216e-03
2.26600000000000e+00 1.30487417358658e-01 1.28018987922520e-03
2.28066666666667e+00 1.29489802659470e-01 1.27450721821262e-03
2.29533333333333e+00 1.28499815016768e-01 1.26882354463270e-03
2.31000000000000e+00 1.27517396119486e-01 1.26313942761626e-03
2.32466666666667e+00 1.26542488106519e-01 1.25745542702345e-03
2.33933333333333e+00 1.25575033550798e-01 1.25177208970692e-03
2.35400000000000e+00 1.24614975468475e-01 1.24608994582855e-03
2.36866666666667e+00 1.23662257315344e-01 1.24040951698524e-03
2.38333333333333e+00 1.22716822971507e-01 1.23473131257997e-03
2.39800000000000e+00 1.21778616750125e-01 1.22905582624506e-03
2.41266666666667e+00 1.20847583393918e-01 1.22338354369868e-03
2.42733333333333e+00 1.19923668060407e-01 1.21771493922089e-03
2.44200000000000e+00 1.19006816330236e-01 1.21205047218071e-03
2.45666666666667e+00 1.18096974203770e-01 1.20639059463384e-03
2.47133333333333e+00 1.17194088086863e-01 1.20073574790080e-03
2.48600000000000e+00 1.16298104798797e-01 1.19508635919479e-03
2.50066666666667e+00 1.15408971568958e-01 1.18944284897123e-03
2.51533333333333e+00 1.14526636023118e-01 1.18380562760495e-03
2.53000000000000e+00 1.13651046191004e-01 1.17817509211599e-03
2.54466666666667e+00 1.12782150503051e-01 1.17255163328038e-03
2.55933333333333e+00 1.11919897777182e-01 1.16693563240393e-03
2.57400000000000e+00 1.11064237226016e-01 1.16132745814292e-03
2.58866666666667e+00 1.10215118453706e-01 1.15572747338558e-03
2.60333333333333e+00 1.09372491443183e-01 1.15013603211935e-03
2.61800000000000e+00 1.08536306563038e-01 1.14455347634389e-03
2.63266666666667e+00 1.07706514564428e-01 1.13898014273211e-03
2.64733333333333e+00 1.06883066568776e-01 1.13341635958808e-03
2.66200000000000e+00 1.06065914074331e-01 1.12786244384955e-03
2.67666666666667e+00 1.05255008953151e-01 1.12231870753697e-03
2.69133333333333e+00 1.04450303439234e-01 1.11678545479924e-03
2.70600000000000e+00 1.03651750134776e-01 1.11126297900318e-03
2.72066666666667e+00 1.02859302007224e-01 1.10575156897833e-03
2.73533333333333e+00 1.02072912377827e-01 1.10025150614838e-03
2.75000000000000e+00 1.01292534927599e-01 1.09476306170465e-03
2.76466666666667e+00 1.00518123694451e-01 1.08928650265428e-03
2.77933333333333e+00 9.97496330621279e-02 1.08382208903458e-03
2.79400000000000e+00 9.89870177659116e-02 1.07837007116823e-03
2.80866666666667e+00 9.82302328898100e-02 1.07293069552210e-03
2.82333333333333e+00 9.74792338558829e-02 1.06750420200200e-03
2.83800000000000e+00 9.67339764296800e-02 1.06209082128716e-03
2.85266666666667e+00 9.59944167175005e-02 1.05669078050642e-03
2.86733333333333e+00 9.52605111560822e-02 1.05130430061090e-03
2.88200000000000e+00 9.45322165177939e-02 1.04593159378558e-03
2.89666666666667e+00 9.38094899079598e-02 1.04057286894947e-03
2.91133333333333e+00 9.30922887548983e-02 1.03522832920393e-03
2.92600000000000e+00 9.23805708148810e-02 1.02989816931866e-03
2.94066666666667e+00 9.16742941695202e-02 1.02458258106215e-03
2.95533333333333e+00 9.09734172161438e-02 1.01928175072352e-03
2.97000000000000e+00 9.02778986725318e-02 1.01399585667080e-03
2.98466666666667e+00 8.95876975743650e-02 1.00872507451767e-03
2.99933333333333e+00 8.89027732659234e-02 1.00346957471629e-03
3.01400000000000e+00 8.82230854046104e-02 9.98229520185833e-04
3.02866666666667e+00 8.75485939584618e-02 9.93005071321332e-04
3.04333333333333e+00 8.68792591971543e-02 9.87796383655303e-04
3.05800000000000e+00 8.62150416963277e-02 9.82603605554440e-04
3.07266666666667e+00 8.55559023351534e-02 9.77426883075771e-04
3.08733333333333e+00 8.49018022876401e-02 9.72266357695430e-04
3.10200000000000e+00 8.42527030267644e-02 9.67122164071226e-04
3.11666666666667e+00 8.36085663220962e-02 9.61994434751488e-04
3.13133333333333e+00 8.29693542313912e-02 9.56883297968831e-04
3.14600000000000e+00 8.23350291045385e-02 9.51788875466521e-04
3.16066666666667e+00 8.17055535812417e-02 9.46711287065287e-04
3.17533333333333e+00 8.10808905828873e-02 9.41650648519950e-04
3.19000000000000e+00 8.04610033163172e-02 9.36607069407894e-04
3.20466666666667e+00 7.98458552715655e-02 9.31580657558468e-04
3.21933333333333e+00 7.92354102139903e-02 9.26571516970549e-04
3.23400000000000e+00 7.86296321878819e-02 9.21579745761158e-04
3.24866666666667e+00 7.80284855142511e-02 9.16605440462258e-04
3.26333333333333e+00 7.74319347832175e-02 9.11648693997555e-04
3.27800000000000e+00 7.68399448574583e-02 9.06709593689386e-04
3.29266666666667e+00 7.62524808700486e-02 9.01788225427097e-04
3.30733333333333e+00 7.56695082170956e-02 8.96884671701418e-04
3.32200000000000e+00 7.50909925610359e-02 8.91999009667886e-04
3.33666666666667e+00 7.45168998285273e-02 8.87131315191271e-04
3.35133333333333e+00 7.39471962033180e-02 8.82281660935543e-04
3.36600000000000e+00 7.33818481294011e-02 8.77450114482198e-04
3.38066666666667e+00 7.28208223089548e-02 8.72636742254837e-04
3.39533333333333e+00 7.22640856954403e-02 8.67841607663084e-04
3.41000000000000e+00 7.17116054966180e-02 8.63064769274177e-04
3.42466666666667e+00 7.11633491725361e-02 8.58306284621547e-04
3.43933333333333e+00 7.06192844288482e-02 8.53566208401267e-04
3.45400000000000e+00 7.00793792196979e-02 8.48844590695170e-04
3.46866666666667e+00 6.95436017457546e-02 8.44141480667208e-04
3.48333333333333e+00 6.90119204477425e-02 8.39456924810750e-04
3.49800000000000e+00 6.84843040092002e-02 8.34790965221849e-04
3.51266666666667e+00 6.79607213545620e-02 8.30143643187168e-04
3.52733333333333e+00 6.74411416428909e-02 8.25514997480468e-04
3.54200000000000e+00 6.69255342705186e-02 8.20905062684413e-04
3.55666666666667e+00 6.64138688691716e-02 8.16313872673574e-04
3.57133333333333e+00 6.59061152999007e-02 8.11741458958798e-04
3.58600000000000e+00 6.54022436556068e-02 8.07187849056104e-04
3.60066666666667e+00 6.49022242592109e-02 8.02653069868016e-04
3.61533333333333e+00 6.44060276577728e-02 7.98137146074406e-04
3.63000000000000e+00 6.39136246249082e-02 7.93640098547101e-04
3.64466666666667e+00 6.34249861590008e-02 7.89161947632892e-04
3.65933333333333e+00 6.29400834775047e-02 7.84702711589381e-04
3.67400000000000e+00 6.24588880192563e-02 7.80262405043936e-04
3.68866666666667e+00 6.19813714427290e-02 7.75841042181523e-04
3.70333333333333e+00 6.15075056205113e-02 7.71438635224228e-04
3.71800000000000e+00 6.10372626415193e-02 7.67055192933289e-04
3.73266666666667e+00 6.05706148092926e-02 7.62690723704649e-04
3.74733333333333e+00 6.01075346366417e-02 7.58345234090909e-04
3.76200000000000e+00 5.96479948477663e-02 7.54018727345239e-04
3.77666666666667e+00 5.91919683765902e-02 7.49711206427556e-04
3.79133333333333e+00 5.87394283615733e-02 7.45422672567569e-04
3.80600000000000e+00 5.82903481477392e-02 7.41153123849297e-04
3.82066666666667e+00 5.78447012850483e-02 7.36902558130766e-04
3.83533333333333e+00 5.74024615233692e-02 7.32670971647053e-04
3.85000000000000e+00 5.69636028144185e-02 7.28458357634079e-04
3.86466666666667e+00 5.65280993101724e-02 7.24264709164488e-04
3.87933333333333e+00 5.60959253579911e-02 7.20090017789483e-04
3.89400000000000e+00 5.56670555024755e-02 7.15934272200805e-04
3.90866666666667e+00 5.52414644839158e-02 7.11797460985587e-04
3.92333333333333e+00 5.48191272335636e-02 7.07679571305635e-04
3.93800000000000e+00 5.44000188754094e-02 7.03580587596482e-04
3.95266666666667e+00 5.39841147246674e-02 6.99500494243611e-04
3.96733333333333e+00 5.35713902831900e-02 6.95439274298326e-04
3.98200000000000e+00 5.31618212411701e-02 6.91396908212808e-04
3.99666666666667e+00 5.27553834756603e-02 6.87373376439975e-04
4.01133333333333e+00 5.23520530461262e-02 6.83368658184891e-04
4.02600000000000e+00 5.19518061960756e-02 6.79382730174786e-04
4.04066666666667e+00 5.15546193516120e-02 6.75415569185032e-04
4.05533333333333e+00 5.11604691171217e-02 6.71467150824898e-04
4.07000000000000e+00 5.07693322768336e-02 6.67537448341466e-04
4.08466666666667e+00 5.03811857934057e-02 6.63626435074112e-04
4.09933333333333e+00 4.99960068037417e-02 6.59734083273697e-04
4.11400000000000e+00 4.96137726204839e-02 6.55860362939260e-04
4.12866666666667e+00 4.92344607306329e-02 6.52005244203110e-04
4.14333333333333e+00 4.88580487914887e-02 6.48168696182478e-04
4.15800000000000e+00 4.84845146320800e-02 6.44350685848298e-04
4.17266666666667e+00 4.81138362518158e-02 6.40551180342875e-04
4.18733333333333e+00 4.77459918165472e-02 6.36770145863017e-04
4.20200000000000e+00 4.73809596599358e-02 6.33007546559879e-04
4.21666666666667e+00 4.70187182821366e-02 6.29263346791388e-04
4.23133333333333e+00 4.66592463459762e-02 6.25537510036019e-04
4.24600000000000e+00 4.63025226782632e-02 6.21829997822685e-04
4.26066666666667e+00 4.59485262685013e-02 6.18140771919865e-04
4.27533333333333e+00 4.55972362651809e-02 6.14469793279125e-04
4.29000000000000e+00 4.52486319770329e-02 6.10817020994278e-04
4.30466666666667e+00 4.49026928717723e-02 6.07182414429177e-04
4.31933333333333e+00 4.45593985724982e-02 6.03565932189989e-04
4.33400000000000e+00 4.42187288588952e-02 5.99967531112799e-04
4.34866666666667e+00 4.38806636660052e-02 5.96387168331923e-04
4.36333333333333e+00 4.35451830807334e-02 5.92824800280133e-04
4.37800000000000e+00 4.32122673429984e-02 5.89280381703957e-04
4.39266666666667e+00 4.28818968445326e-02 5.85753867674110e-04
4.40733333333333e+00 4.25540521254904e-02 5.82245212613033e-04
4.42200000000000e+00 4.22287138755490e-02 5.78754369336954e-04
4.43666666666667e+00 4.19058629327368e-02 5.75281291010262e-04
4.45133333333333e+00 4.15854802801406e-02 5.71825930199588e-04
4.46600000000000e+00 4.12675470469595e-02 5.68388237941851e-04
4.48066666666667e+00 4.09520445073601e-02 5.64968165644272e-04
4.49533333333333e+00 4.06389540772797e-02 5.61565664164029e-04
4.51000000000000e+00 4.03282573154350e-02 5.58180682901715e-04
4.52466666666667e+00 4.00199359222044e-02 5.54813171648573e-04
4.53933333333333e+00 3.97139717365231e-02 5.51463079691120e-04
4.55400000000000e+00 3.94103467368497e-02 5.48130354929152e-04
4.56866666666667e+00 3.91090430400733e-02 5.44814945671751e-04
4.58333333333333e+00 3.88100428984991e-02 5.41516799766270e-04
4.59800000000000e+00 3.85133287007735e-02 5.38235863740074e-04
4.61266666666667e+00 3.82188829708166e-02 5.34972084546905e-04
4.62733333333333e+00 3.79266883648946e-02 5.31725408719392e-04
