Energy (eV)          EEDF (eV^-(3/2))     First Anisotropy
2.58000000000000e-03 4.93618243591894e+00 3.57184119631818e-03
7.74000000000000e-03 4.86820515596834e+00 5.87727106974683e-03
1.29000000000000e-02 4.80116400644805e+00 7.70361361024167e-03
1.80600000000000e-02 4.73504609569536e+00 9.05805229776695e-03
2.32200000000000e-02 4.66983870958133e+00 1.01606500787588e-02
2.83800000000000e-02 4.60552930906613e+00 1.10954883737156e-02
3.35400000000000e-02 4.54210552778786e+00 1.19065151040975e-02
3.87000000000000e-02 4.47955516968458e+00 1.26205270137206e-02
4.38600000000000e-02 4.41786620664905e+00 1.32554652015271e-02
4.90200000000000e-02 4.35702677621580e+00 1.38241283656212e-02
5.41800000000000e-02 4.29702517928006e+00 1.43360774029793e-02
5.93400000000000e-02 4.23784987784805e+00 1.47987096488813e-02
6.45000000000000e-02 4.17948949281830e+00 1.52179090050138e-02
6.96600000000000e-02 4.12193280179354e+00 1.55984614658884e-02
7.48200000000000e-02 4.06516873692262e+00 1.59443325478693e-02
7.99800000000000e-02 4.00918638277227e+00 1.62588592617970e-02
8.51400000000000e-02 3.95397497422813e+00 1.65448869835914e-02
9.03000000000000e-02 3.89952389442464e+00 1.68048695481153e-02
9.54600000000000e-02 3.84582267270347e+00 1.70409440651506e-02
1.00620000000000e-01 3.79286098260012e+00 1.72549879149032e-02
1.05780000000000e-01 3.74062863985814e+00 1.74486628994590e-02
1.10940000000000e-01 3.68911560047075e+00 1.76234499549170e-02
1.16100000000000e-01 3.63831195874948e+00 1.77806768054653e-02
1.21260000000000e-01 3.58820794541931e+00 1.79215402577580e-02
1.26420000000000e-01 3.53879392574011e+00 1.80471243683193e-02
1.31580000000000e-01 3.49006039765393e+00 1.81584153929612e-02
1.36740000000000e-01 3.44199798995780e+00 1.82563141981308e-02
1.41900000000000e-01 3.39459746050167e+00 1.83416466494392e-02
1.47060000000000e-01 3.34784969441127e+00 1.84151723724956e-02
1.52220000000000e-01 3.30174570233527e+00 1.84775921923871e-02
1.57380000000000e-01 3.25627661871675e+00 1.85295544917218e-02
1.62540000000000e-01 3.21143370008836e+00 1.85716606768753e-02
1.67700000000000e-01 3.16720832339100e+00 1.86044699036447e-02
1.72860000000000e-01 3.12359198431568e+00 1.86285031838437e-02
1.78020000000000e-01 3.08057629566815e+00 1.86442469712585e-02
1.83180000000000e-01 3.03815298575610e+00 1.86521563072129e-02
1.88340000000000e-01 2.99631389679855e+00 1.86526575916279e-02
1.93500000000000e-01 2.95505098335719e+00 1.86461510339810e-02
1.98660000000000e-01 2.91435631078921e+00 1.86330128293648e-02
2.03820000000000e-01 2.87422205372160e+00 1.86135970973973e-02
2.08980000000000e-01 2.83464049454627e+00 1.85882376156800e-02
2.14140000000000e-01 2.79560402193611e+00 1.85572493745457e-02
2.19300000000000e-01 2.75710512938125e+00 1.85209299757666e-02
2.24460000000000e-01 2.71913641374569e+00 1.84795608945098e-02
2.29620000000000e-01 2.68169057384370e+00 1.84334086210458e-02
2.34780000000000e-01 2.64476040903578e+00 1.83827256963625e-02
2.39940000000000e-01 2.60833881784408e+00 1.83277516538801e-02
2.45100000000000e-01 2.57241879658682e+00 1.82687138778189e-02
2.50260000000000e-01 2.53699343803146e+00 1.82058283873666e-02
2.55420000000000e-01 2.50205593006654e+00 1.81393005546080e-02
2.60580000000000e-01 2.46759955439171e+00 1.80693257631735e-02
2.65740000000000e-01 2.43361768522587e+00 1.79960900136969e-02
2.70900000000000e-01 2.40010378803301e+00 1.79197704814346e-02
2.76060000000000e-01 2.36705141826570e+00 1.78405360307542e-02
2.81220000000000e-01 2.33445422012584e+00 1.77585476906587e-02
2.86380000000000e-01 2.30230592534244e+00 1.76739590950310e-02
2.91540000000000e-01 2.27060035196629e+00 1.75869168908645e-02
2.96700000000000e-01 2.23933140318118e+00 1.74975611173960e-02
3.01860000000000e-01 2.20849306613154e+00 1.74060255587325e-02
3.07020000000000e-01 2.17807941076619e+00 1.73124380722923e-02
3.12180000000000e-01 2.14808458869802e+00 1.72169208951368e-02
3.17340000000000e-01 2.11850283207937e+00 1.71195909300575e-02
3.22500000000000e-01 2.08932845249291e+00 1.70205600130929e-02
3.27660000000000e-01 2.06055583985780e+00 1.69199351639890e-02
3.32820000000000e-01 2.03217946135087e+00 1.68178188209628e-02
3.37980000000000e-01 2.00419386034270e+00 1.67143090610030e-02
3.43140000000000e-01 1.97659365534836e+00 1.66094998068261e-02
3.48300000000000e-01 1.94937353899255e+00 1.65034810214977e-02
3.53460000000000e-01 1.92252827698903e+00 1.63963388916421e-02
3.58620000000000e-01 1.89605270713411e+00 1.62881560000765e-02
3.63780000000000e-01 1.86994173831394e+00 1.61790114886371e-02
3.68940000000000e-01 1.84419034952558e+00 1.60689812118902e-02
3.74100000000000e-01 1.81879358891142e+00 1.59581378823706e-02
3.79260000000000e-01 1.79374657280702e+00 1.58465512079288e-02
3.84420000000000e-01 1.76904448480196e+00 1.57342880217216e-02
3.89580000000000e-01 1.74468257481373e+00 1.56214124053411e-02
3.94740000000000e-01 1.72065615817423e+00 1.55079858055308e-02
3.99900000000000e-01 1.69696061472901e+00 1.53940671449071e-02
4.05060000000000e-01 1.67359138794881e+00 1.52797129270700e-02
4.10220000000000e-01 1.65054398405333e+00 1.51649773364523e-02
4.15380000000000e-01 1.62781397114716e+00 1.50499123332397e-02
4.20540000000000e-01 1.60539697836751e+00 1.49345677436611e-02
4.25700000000000e-01 1.58328869504373e+00 1.48189913459296e-02
4.30860000000000e-01 1.56148486986837e+00 1.47032289520931e-02
4.36020000000000e-01 1.53998131007972e+00 1.45873244860356e-02
4.41180000000000e-01 1.51877388065551e+00 1.44713200578519e-02
4.46340000000000e-01 1.49785850351780e+00 1.43552560348052e-02
4.51500000000000e-01 1.47723115674879e+00 1.42391711090589e-02
4.56660000000000e-01 1.45688787381740e+00 1.41231023623630e-02
4.61820000000000e-01 1.43682474281656e+00 1.40070853278638e-02
4.66980000000000e-01 1.41703790571094e+00 1.38911540491933e-02
4.72140000000000e-01 1.39752355759509e+00 1.37753411369859e-02
4.77300000000000e-01 1.37827794596177e+00 1.36596778229553e-02
4.82460000000000e-01 1.35929736998035e+00 1.35441940116632e-02
4.87620000000000e-01 1.34057817978518e+00 1.34289183301004e-02
4.92780000000000e-01 1.32211677577375e+00 1.33138781751876e-02
4.97940000000000e-01 1.30390960791446e+00 1.31990997593056e-02
5.03100000000000e-01 1.28595317506401e+00 1.30846081539536e-02
5.08260000000000e-01 1.26824402429412e+00 1.29704273316261e-02
5.13420000000000e-01 1.25077875022758e+00 1.28565802059972e-02
5.18580000000000e-01 1.23355399438337e+00 1.27430886704948e-02
5.23740000000000e-01 1.21656644453091e+00 1.26299736353406e-02
5.28900000000000e-01 1.19981283405305e+00 1.25172550631289e-02
5.34060000000000e-01 1.18328994131799e+00 1.24049520030157e-02
5.39220000000000e-01 1.16699458905973e+00 1.22930826235786e-02
5.44380000000000e-01 1.15092364376713e+00 1.21816642444099e-02
5.49540000000000e-01 1.13507401508132e+00 1.20707133665039e-02
5.54700000000000e-01 1.11944265520147e+00 1.19602457014879e-02
5.59860000000000e-01 1.10402655829870e+00 1.18502761997512e-02
5.65020000000000e-01 1.08882275993808e+00 1.17408190775223e-02
5.70180000000000e-01 1.07382833650857e+00 1.16318878429371e-02
5.75340000000000e-01 1.05904040466085e+00 1.15234953211430e-02
5.80500000000000e-01 1.04445612075284e+00 1.14156536784837e-02
5.85660000000000e-01 1.03007268030290e+00 1.13083744457978e-02
5.90820000000000e-01 1.01588731745054e+00 1.12016685408743e-02
5.95980000000000e-01 1.00189730442455e+00 1.10955462900978e-02
6.01140000000000e-01 9.88099951018494e-01 1.09900174493172e-02
6.06300000000000e-01 9.74492604073348e-01 1.08850912239696e-02
6.11460000000000e-01 9.61072646967353e-01 1.07807762884918e-02
6.16620000000000e-01 9.47837499112832e-01 1.06770808050442e-02
6.21780000000000e-01 9.34784615459965e-01 1.05740124415802e-02
6.26940000000000e-01 9.21911486007385e-01 1.04715783892829e-02
6.32100000000000e-01 9.09215635319521e-01 1.03697853793961e-02
6.37260000000000e-01 8.96694622050579e-01 1.02686396994729e-02
6.42420000000000e-01 8.84346038475090e-01 1.01681472090640e-02
6.47580000000000e-01 8.72167510024915e-01 1.00683133548686e-02
6.52740000000000e-01 8.60156694832627e-01 9.96914318536809e-03
6.57900000000000e-01 8.48311283281182e-01 9.87064136496151e-03
6.63060000000000e-01 8.36628997559794e-01 9.77281218762319e-03
6.68220000000000e-01 8.25107591225920e-01 9.67565959009841e-03
6.73380000000000e-01 8.13744848773285e-01 9.57918716465565e-03
6.78540000000000e-01 8.02538585205849e-01 9.48339817141298e-03
6.83700000000000e-01 7.91486645617647e-01 9.38829555025261e-03
6.88860000000000e-01 7.80586904778405e-01 9.29388193233785e-03
6.94020000000000e-01 7.69837266724878e-01 9.20015965124904e-03
6.99180000000000e-01 7.59235664357800e-01 9.10713075375231e-03
7.04340000000000e-01 7.48780059044394e-01 9.01479701021165e-03
7.09500000000000e-01 7.38468440226357e-01 8.92315992465973e-03
7.14660000000000e-01 7.28298825033236e-01 8.83222074453945e-03
7.19820000000000e-01 7.18269257901131e-01 8.74198047012601e-03
7.24980000000000e-01 7.08377810196657e-01 8.65243986364148e-03
7.30140000000000e-01 6.98622579846071e-01 8.56359945807382e-03
7.35300000000000e-01 6.89001690969517e-01 8.47545956570954e-03
7.40460000000000e-01 6.79513293520301e-01 8.38802028638931e-03
7.45620000000000e-01 6.70155562929141e-01 8.30128151549740e-03
7.50780000000000e-01 6.60926699753309e-01 8.21524295169301e-03
7.55940000000000e-01 6.51824929330607e-01 8.12990410439305e-03
7.61100000000000e-01 6.42848501438110e-01 8.04526430101419e-03
7.66260000000000e-01 6.33995689955609e-01 7.96132269398190e-03
7.71420000000000e-01 6.25264792533683e-01 7.87807826751566e-03
7.76580000000000e-01 6.16654130266347e-01 7.79552984419615e-03
7.81740000000000e-01 6.08162047368213e-01 7.71367609132329e-03
7.86900000000000e-01 5.99786910856082e-01 7.63251552707114e-03
7.92060000000000e-01 5.91527110234937e-01 7.55204652644572e-03
7.97220000000000e-01 5.83381057188249e-01 7.47226732705351e-03
8.02380000000000e-01 5.75347185272555e-01 7.39317603468553e-03
8.07540000000000e-01 5.67423949616236e-01 7.31477062872495e-03
8.12700000000000e-01 5.59609826622449e-01 7.23704896738160e-03
8.17860000000000e-01 5.51903313676147e-01 7.16000879275971e-03
8.23020000000000e-01 5.44302928855132e-01 7.08364773576601e-03
8.28180000000000e-01 5.36807210645090e-01 7.00796332086034e-03
8.33340000000000e-01 5.29414717658551e-01 6.93295297065573e-03
8.38500000000000e-01 5.22124028357716e-01 6.85861401037261e-03
8.43660000000000e-01 5.14933740781102e-01 6.78494367215136e-03
8.48820000000000e-01 5.07842472273956e-01 6.71193909922722e-03
8.53980000000000e-01 5.00848859222372e-01 6.63959734997248e-03
8.59140000000000e-01 4.93951556791079e-01 6.56791540181082e-03
8.64300000000000e-01 4.87149238664838e-01 6.49689015500598e-03
8.69460000000000e-01 4.80440596793392e-01 6.42651843633024e-03
8.74620000000000e-01 4.73824341139941e-01 6.35679700261590e-03
8.79780000000000e-01 4.67299199433072e-01 6.28772254419302e-03
8.84940000000000e-01 4.60863916922106e-01 6.21929168821712e-03
8.90100000000000e-01 4.54517256135822e-01 6.15150100189150e-03
8.95260000000000e-01 4.48257996644492e-01 6.08434699558550e-03
9.00420000000000e-01 4.42084934825198e-01 6.01782612585189e-03
9.05580000000000e-01 4.35996883630390e-01 5.95193479834902e-03
9.10740000000000e-01 4.29992672359611e-01 5.88666937066733e-03
9.15900000000000e-01 4.24071146434387e-01 5.82202615506562e-03
9.21060000000000e-01 4.18231167176205e-01 5.75800142111863e-03
9.26220000000000e-01 4.12471611587548e-01 5.69459139827851e-03
9.31380000000000e-01 4.06791372135952e-01 5.63179227835393e-03
9.36540000000000e-01 4.01189356541031e-01 5.56960021790762e-03
9.41700000000000e-01 3.95664487564439e-01 5.50801134057616e-03
9.46860000000000e-01 3.90215702802722e-01 5.44702173931407e-03
9.52020000000000e-01 3.84841954483022e-01 5.38662747856389e-03
9.57180000000000e-01 3.79542209261599e-01 5.32682459635488e-03
9.62340000000000e-01 3.74315448025120e-01 5.26760910633296e-03
9.67500000000000e-01 3.69160665694693e-01 5.20897699972282e-03
9.72660000000000e-01 3.64076871032594e-01 5.15092424722526e-03
9.77820000000000e-01 3.59063086451654e-01 5.09344680085103e-03
9.82980000000000e-01 3.54118347827280e-01 5.03654059569364e-03
9.88140000000000e-01 3.49241704312056e-01 4.98020155164243e-03
9.93300000000000e-01 3.44432218152897e-01 4.92442557503719e-03
9.98460000000000e-01 3.39688964510730e-01 4.86920856026809e-03
1.00362000000000e+00 3.35011031282649e-01 4.81454639132041e-03
1.00878000000000e+00 3.30397518926520e-01 4.76043494326601e-03
1.01394000000000e+00 3.25847540288008e-01 4.70687008370460e-03
1.01910000000000e+00 3.21360220429980e-01 4.65384767415433e-03
1.02426000000000e+00 3.16934696464260e-01 4.60136357139494e-03
1.02942000000000e+00 3.12570117385698e-01 4.54941362876338e-03
1.03458000000000e+00 3.08265643908527e-01 4.49799369740430e-03
1.03974000000000e+00 3.04020448304977e-01 4.44709962747668e-03
1.04490000000000e+00 2.99833714246099e-01 4.39672726931700e-03
1.05006000000000e+00 2.95704636644797e-01 4.34687247456168e-03
1.05522000000000e+00 2.91632421501008e-01 4.29753109722823e-03
1.06038000000000e+00 2.87616285749026e-01 4.24869899475799e-03
1.06554000000000e+00 2.83655457106917e-01 4.20037202902096e-03
1.07070000000000e+00 2.79749173928014e-01 4.15254606728279e-03
1.07586000000000e+00 2.75896685054462e-01 4.10521698313720e-03
1.08102000000000e+00 2.72097249672766e-01 4.05838065740302e-03
1.08618000000000e+00 2.68350137171342e-01 4.01203297898725e-03
1.09134000000000e+00 2.64654627000024e-01 3.96616984571612e-03
1.09650000000000e+00 2.61010008531502e-01 3.92078716513401e-03
1.10166000000000e+00 2.57415580924676e-01 3.87588085527156e-03
1.10682000000000e+00 2.53870652989887e-01 3.83144684538380e-03
1.11198000000000e+00 2.50374543056005e-01 3.78748107665934e-03
1.11714000000000e+00 2.46926578839345e-01 3.74397950290164e-03
1.12230000000000e+00 2.43526097314392e-01 3.70093809118271e-03
1.12746000000000e+00 2.40172444586306e-01 3.65835282246999e-03
1.13262000000000e+00 2.36864975765180e-01 3.61621969222796e-03
1.13778000000000e+00 2.33603054842030e-01 3.57453471099480e-03
1.14294000000000e+00 2.30386054566496e-01 3.53329390493447e-03
1.14810000000000e+00 2.27213356326223e-01 3.49249331636535e-03
1.15326000000000e+00 2.24084350027908e-01 3.45212900426639e-03
1.15842000000000e+00 2.20998433979977e-01 3.41219704476087e-03
1.16358000000000e+00 2.17955014776889e-01 3.37269353157873e-03
1.16874000000000e+00 2.14953507185024e-01 3.33361457649796e-03
1.17390000000000e+00 2.11993334030145e-01 3.29495630976586e-03
1.17906000000000e+00 2.09073926086411e-01 3.25671488050099e-03
1.18422000000000e+00 2.06194721966919e-01 3.21888645707575e-03
1.18938000000000e+00 2.03355168015753e-01 3.18146722748055e-03
1.19454000000000e+00 2.00554718201514e-01 3.14445339967034e-03
1.19970000000000e+00 1.97792834012328e-01 3.10784120189364e-03
1.20486000000000e+00 1.95068984352286e-01 3.07162688300467e-03
1.21002000000000e+00 1.92382645439322e-01 3.03580671275949e-03
1.21518000000000e+00 1.89733300704490e-01 3.00037698209596e-03
1.22034000000000e+00 1.87120440692634e-01 2.96533400339859e-03
1.22550000000000e+00 1.84543562964415e-01 2.93067411074862e-03
1.23066000000000e+00 1.82002171999704e-01 2.89639366015959e-03
1.23582000000000e+00 1.79495779102288e-01 2.86248902979887e-03
1.24098000000000e+00 1.77023902305900e-01 2.82895662019581e-03
1.24614000000000e+00 1.74586066281541e-01 2.79579285443695e-03
1.25130000000000e+00 1.72181802246074e-01 2.76299417834803e-03
1.25646000000000e+00 1.69810647872077e-01 2.73055706066414e-03
1.26162000000000e+00 1.67472147198948e-01 2.69847799318793e-03
1.26678000000000e+00 1.65165850545218e-01 2.66675349093617e-03
1.27194000000000e+00 1.62891314422084e-01 2.63538009227519e-03
1.27710000000000e+00 1.60648101448125e-01 2.60435435904532e-03
1.28226000000000e+00 1.58435780265202e-01 2.57367287667520e-03
1.28742000000000e+00 1.56253925455502e-01 2.54333225428580e-03
1.29258000000000e+00 1.54102117459740e-01 2.51332912478437e-03
1.29774000000000e+00 1.51979942496473e-01 2.48366014494931e-03
1.30290000000000e+00 1.49886992482539e-01 2.45432199550555e-03
1.30806000000000e+00 1.47822864954577e-01 2.42531138119125e-03
1.31322000000000e+00 1.45787162991644e-01 2.39662503081589e-03
1.31838000000000e+00 1.43779495138882e-01 2.36825969730975e-03
1.32354000000000e+00 1.41799475332246e-01 2.34021215776564e-03
1.32870000000000e+00 1.39846722824267e-01 2.31247921347283e-03
1.33386000000000e+00 1.37920862110834e-01 2.28505768994342e-03
1.33902000000000e+00 1.36021522858989e-01 2.25794443693132e-03
1.34418000000000e+00 1.34148339835711e-01 2.23113632844448e-03
1.34934000000000e+00 1.32300952837687e-01 2.20463026275016e-03
1.35450000000000e+00 1.30479006622043e-01 2.17842316237360e-03
1.35966000000000e+00 1.28682150838037e-01 2.15251197409054e-03
1.36482000000000e+00 1.26910039959683e-01 2.12689366891361e-03
1.36998000000000e+00 1.25162333219314e-01 2.10156524207276e-03
1.37514000000000e+00 1.23438694542049e-01 2.07652371299001e-03
1.38030000000000e+00 1.21738792481171e-01 2.05176612524865e-03
1.38546000000000e+00 1.20062300154391e-01 2.02728954655749e-03
1.39062000000000e+00 1.18408895180988e-01 2.00309106870967e-03
1.39578000000000e+00 1.16778259619820e-01 1.97916780753663e-03
1.40094000000000e+00 1.15170079908183e-01 1.95551690285741e-03
1.40610000000000e+00 1.13584046801517e-01 1.93213551842351e-03
1.41126000000000e+00 1.12019855313937e-01 1.90902084185916e-03
1.41642000000000e+00 1.10477204659587e-01 1.88617008459742e-03
1.42158000000000e+00 1.08955798194802e-01 1.86358048181241e-03
1.42674000000000e+00 1.07455343361064e-01 1.84124929234735e-03
1.43190000000000e+00 1.05975551628744e-01 1.81917379863905e-03
1.43706000000000e+00 1.04516138441617e-01 1.79735130663882e-03
1.44222000000000e+00 1.03076823162150e-01 1.77577914572978e-03
1.44738000000000e+00 1.01657329017529e-01 1.75445466864100e-03
1.45254000000000e+00 1.00257383046443e-01 1.73337525135814e-03
1.45770000000000e+00 9.88767160465928e-02 1.71253829303153e-03
1.46286000000000e+00 9.75150625229226e-02 1.69194121588101e-03
1.46802000000000e+00 9.61721606365708e-02 1.67158146509796e-03
1.47318000000000e+00 9.48477521545167e-02 1.65145650874479e-03
1.47834000000000e+00 9.35415823999252e-02 1.63156383765172e-03
1.48350000000000e+00 9.22534002031731e-02 1.61190096531131e-03
1.48866000000000e+00 9.09829578535505e-02 1.59246542777037e-03
1.49382000000000e+00 8.97300110516277e-02 1.57325478351984e-03
1.49898000000000e+00 8.84943188622772e-02 1.55426661338260e-03
1.50414000000000e+00 8.72756436683436e-02 1.53549852039907e-03
1.50930000000000e+00 8.60737511249508e-02 1.51694812971078e-03
1.51446000000000e+00 8.48884101144386e-02 1.49861308844255e-03
1.51962000000000e+00 8.37193927019205e-02 1.48049106558249e-03
1.52478000000000e+00 8.25664740914524e-02 1.46257975186062e-03
1.52994000000000e+00 8.14294325828057e-02 1.44487685962573e-03
1.53510000000000e+00 8.03080495288359e-02 1.42738012272083e-03
1.54026000000000e+00 7.92021092934373e-02 1.41008729635734e-03
1.54542000000000e+00 7.81113992100776e-02 1.39299615698772e-03
1.55058000000000e+00 7.70357095409032e-02 1.37610450217703e-03
1.55574000000000e+00 7.59748334364079e-02 1.35941015047316e-03
1.56090000000000e+00 7.49285668956564e-02 1.34291094127622e-03
1.56606000000000e+00 7.38967087270564e-02 1.32660473470672e-03
1.57122000000000e+00 7.28790605096702e-02 1.31048941147276e-03
1.57638000000000e+00 7.18754265550596e-02 1.29456287273646e-03
1.58154000000000e+00 7.08856138696558e-02 1.27882303997942e-03
1.58670000000000e+00 6.99094321176481e-02 1.26326785486756e-03
1.59186000000000e+00 6.89466935843829e-02 1.24789527911515e-03
1.59702000000000e+00 6.79972131402677e-02 1.23270329434834e-03
1.60218000000000e+00 6.70608082051709e-02 1.21768990196794e-03
1.60734000000000e+00 6.61372987133133e-02 1.20285312301166e-03
1.61250000000000e+00 6.52265070786420e-02 1.18819099801599e-03
1.61766000000000e+00 6.43282581606816e-02 1.17370158687761e-03
1.62282000000000e+00 6.34423792308558e-02 1.15938296871438e-03
1.62798000000000e+00 6.25686999392720e-02 1.14523324172602e-03
