Energy (eV)          EEDF (eV^-(3/2))     First Anisotropy
6.79166666666667e-04 3.87138886964647e+01 2.52140919515174e-02
2.03750000000000e-03 3.81599319965254e+01 4.14771886874385e-02
3.39583333333333e-03 3.76139018568412e+01 5.43364433628678e-02
4.75416666666667e-03 3.70756848585245e+01 6.38549641168692e-02
6.11250000000000e-03 3.65451692028049e+01 7.15886976547917e-02
7.47083333333333e-03 3.60222446906246e+01 7.81326428832323e-02
8.82916666666667e-03 3.55068027010112e+01 8.37980446106565e-02
1.01875000000000e-02 3.49987361665115e+01 8.87748268139652e-02
1.15458333333333e-02 3.44979395503473e+01 9.31902425859369e-02
1.29041666666667e-02 3.40043088298812e+01 9.71351357041203e-02
1.42625000000000e-02 3.35177414679512e+01 1.00677414999321e-01
1.56208333333333e-02 3.30381363925917e+01 1.03869656102017e-01
1.69791666666667e-02 3.25653939829602e+01 1.06753703968718e-01
1.83375000000000e-02 3.20994160410036e+01 1.09363615500397e-01
1.96958333333333e-02 3.16401057722001e+01 1.11727624257625e-01
2.10541666666667e-02 3.11873677706975e+01 1.13869500963971e-01
2.24125000000000e-02 3.07411079938376e+01 1.15809523813779e-01
2.37708333333333e-02 3.03012337433385e+01 1.17565187794968e-01
2.51291666666667e-02 2.98676536501873e+01 1.19151735538553e-01
2.64875000000000e-02 2.94402776512443e+01 1.20582561859144e-01
2.78458333333333e-02 2.90190169710265e+01 1.21869526793620e-01
2.92041666666667e-02 2.86037841066477e+01 1.23023202233131e-01
3.05625000000000e-02 2.81944928060738e+01 1.24053068474856e-01
3.19208333333333e-02 2.77910580505627e+01 1.24967672335474e-01
3.32791666666667e-02 2.73933960398206e+01 1.25774756433643e-01
3.46375000000000e-02 2.70014241716410e+01 1.26481365610488e-01
3.59958333333333e-02 2.66150610250138e+01 1.27093934951819e-01
3.73541666666667e-02 2.62342263456009e+01 1.27618363846954e-01
3.87125000000000e-02 2.58588410265729e+01 1.28060078466481e-01
4.00708333333333e-02 2.54888270923853e+01 1.28424084505980e-01
4.14291666666667e-02 2.51241076846328e+01 1.28715012603801e-01
4.27875000000000e-02 2.47646070439508e+01 1.28937157402629e-01
4.41458333333333e-02 2.44102504944452e+01 1.29094511028869e-01
4.55041666666667e-02 2.40609644299607e+01 1.29190792494218e-01
4.68625000000000e-02 2.37166762969455e+01 1.29229473378887e-01
4.82208333333333e-02 2.33773145795156e+01 1.29213800091071e-01
4.95791666666667e-02 2.30428087861583e+01 1.29146813756567e-01
5.09375000000000e-02 2.27130894334771e+01 1.29031367816994e-01
5.22958333333333e-02 2.23880880318702e+01 1.28870143403620e-01
5.36541666666667e-02 2.20677370726794e+01 1.28665663292504e-01
5.50125000000000e-02 2.17519700127467e+01 1.28420304385056e-01
5.63708333333333e-02 2.14407212606864e+01 1.28136308669016e-01
5.77291666666667e-02 2.11339261644804e+01 1.27815793315542e-01
5.90875000000000e-02 2.08315209967910e+01 1.27460759791936e-01
6.04458333333333e-02 2.05334429418023e+01 1.27073101889384e-01
6.18041666666667e-02 2.02396300832619e+01 1.26654613222769e-01
6.31625000000000e-02 1.99500213904982e+01 1.26206994052408e-01
6.45208333333333e-02 1.96645567058109e+01 1.25731857300270e-01
6.58791666666667e-02 1.93831767329520e+01 1.25230734248027e-01
6.72375000000000e-02 1.91058230238044e+01 1.24705079755096e-01
6.85958333333333e-02 1.88324379663001e+01 1.24156276857754e-01
6.99541666666667e-02 1.85629647733316e+01 1.23585641184232e-01
7.13125000000000e-02 1.82973474700539e+01 1.22994425021797e-01
7.26708333333333e-02 1.80355308823077e+01 1.22383820893768e-01
7.40291666666667e-02 1.77774606259536e+01 1.21754965039925e-01
7.53875000000000e-02 1.75230830947598e+01 1.21108940639194e-01
7.67458333333333e-02 1.72723454493122e+01 1.20446780634078e-01
7.81041666666667e-02 1.70251956067581e+01 1.19769470516146e-01
7.94625000000000e-02 1.67815822292499e+01 1.19077950917063e-01
8.08208333333333e-02 1.65414547133200e+01 1.18373119868612e-01
8.21791666666667e-02 1.63047631800242e+01 1.17655835062121e-01
8.35375000000000e-02 1.60714584639104e+01 1.16926915958687e-01
8.48958333333333e-02 1.58414921028407e+01 1.16187145618946e-01
8.62541666666667e-02 1.56148163285211e+01 1.15437272557751e-01
8.76125000000000e-02 1.53913840559686e+01 1.14678012482665e-01
8.89708333333333e-02 1.51711488737617e+01 1.13910049790898e-01
9.03291666666667e-02 1.49540650349445e+01 1.13134039108033e-01
9.16875000000000e-02 1.47400874469665e+01 1.12350606734992e-01
9.30458333333333e-02 1.45291716623442e+01 1.11560351884110e-01
9.44041666666667e-02 1.43212738699264e+01 1.10763847967938e-01
9.57625000000000e-02 1.41163508852843e+01 1.09961643814661e-01
9.71208333333333e-02 1.39143601417658e+01 1.09154264697266e-01
9.84791666666667e-02 1.37152596821108e+01 1.08342213422228e-01
9.98375000000000e-02 1.35190081492684e+01 1.07525971394103e-01
1.01195833333333e-01 1.33255647774085e+01 1.06705999337219e-01
1.02554166666667e-01 1.31348893855605e+01 1.05882738366000e-01
1.03912500000000e-01 1.29469423666884e+01 1.05056611034554e-01
1.05270833333333e-01 1.27616846792310e+01 1.04228021578927e-01
1.06629166666667e-01 1.25790778428605e+01 1.03397356991177e-01
1.07987500000000e-01 1.23990839265410e+01 1.02564988073693e-01
1.09345833333333e-01 1.22216655408278e+01 1.01731269460273e-01
1.10704166666667e-01 1.20467858336665e+01 1.00896540599160e-01
1.12062500000000e-01 1.18744084791000e+01 1.00061126687060e-01
1.13420833333333e-01 1.17044976698845e+01 9.92253386357948e-02
1.14779166666667e-01 1.15370181133428e+01 9.83894739463422e-02
1.16137500000000e-01 1.13719350206762e+01 9.75538175407795e-02
1.17495833333333e-01 1.12092140998856e+01 9.67186416873520e-02
1.18854166666667e-01 1.10488215516893e+01 9.58842067815050e-02
1.20212500000000e-01 1.08907240594013e+01 9.50507620905201e-02
1.21570833333333e-01 1.07348887821442e+01 9.42185456470290e-02
1.22929166666667e-01 1.05812833508420e+01 9.33877849500580e-02
1.24287500000000e-01 1.04298758586276e+01 9.25586976344571e-02
1.25645833333333e-01 1.02806348543367e+01 9.17314913406978e-02
1.27004166666667e-01 1.01335293385825e+01 9.09063643466824e-02
1.28362500000000e-01 9.98852875465927e+00 9.00835061719250e-02
1.29720833333333e-01 9.84560298230616e+00 8.92630974298242e-02
1.31079166666667e-01 9.70472233386914e+00 8.84453103991529e-02
1.32437500000000e-01 9.56585754567072e+00 8.76303095712783e-02
1.33795833333333e-01 9.42897977203284e+00 8.68182514897980e-02
1.35154166666667e-01 9.29406058153016e+00 8.60092852691765e-02
1.36512500000000e-01 9.16107194879795e+00 8.52035530919685e-02
1.37870833333333e-01 9.02998624880369e+00 8.44011900396769e-02
1.39229166666667e-01 8.90077625319499e+00 8.36023245648269e-02
1.40587500000000e-01 8.77341512251976e+00 8.28070789440680e-02
1.41945833333333e-01 8.64787640073647e+00 8.20155691033300e-02
1.43304166666667e-01 8.52413401165898e+00 8.12279050486721e-02
1.44662500000000e-01 8.40216225156509e+00 8.04441912802662e-02
1.46020833333333e-01 8.28193578393576e+00 7.96645266142892e-02
1.47379166666667e-01 8.16342963599830e+00 7.88890045771013e-02
1.48737500000000e-01 8.04661919170114e+00 7.81177137843958e-02
1.50095833333333e-01 7.93148018667274e+00 7.73507377617496e-02
1.51454166666667e-01 7.81798870486386e+00 7.65881553060595e-02
1.52812500000000e-01 7.70612117186799e+00 7.58300408335398e-02
1.54170833333333e-01 7.59585435009098e+00 7.50764642004704e-02
1.55529166666667e-01 7.48716533549258e+00 7.43274910352818e-02
1.56887500000000e-01 7.38003155123338e+00 7.35831830585812e-02
1.58245833333333e-01 7.27443074304651e+00 7.28435979052969e-02
1.59604166666667e-01 7.17034097607822e+00 7.21087894303670e-02
1.60962500000000e-01 7.06774062884344e+00 7.13788080035778e-02
1.62320833333333e-01 6.96660838879127e+00 7.06537003340464e-02
1.63679166666667e-01 6.86692324924385e+00 6.99335097520796e-02
1.65037500000000e-01 6.76866450364397e+00 6.92182764812606e-02
1.66395833333333e-01 6.67181174130628e+00 6.85080374659961e-02
1.67754166666667e-01 6.57634484445352e+00 6.78028266318149e-02
1.69112500000000e-01 6.48224398274053e+00 6.71026751368319e-02
1.70470833333333e-01 6.38948960918350e+00 6.64076112029232e-02
1.71829166666667e-01 6.29806245729233e+00 6.57176603564553e-02
1.73187500000000e-01 6.20794353585636e+00 6.50328456610105e-02
1.74545833333333e-01 6.11911412504436e+00 6.43531875526188e-02
1.75904166666667e-01 6.03155577363149e+00 6.36787040626711e-02
1.77262500000000e-01 5.94525029403300e+00 6.30094110335868e-02
1.78620833333333e-01 5.86017975856798e+00 6.23453219584051e-02
1.79979166666667e-01 5.77632649677911e+00 6.16864481874568e-02
1.81337500000000e-01 5.69367309070161e+00 6.10327991284534e-02
1.82695833333333e-01 5.61220237128378e+00 6.03843820906606e-02
1.84054166666667e-01 5.53189741579784e+00 5.97412024767253e-02
1.85412500000000e-01 5.45274154333197e+00 5.91032639685085e-02
1.86770833333333e-01 5.37471831136116e+00 5.84705683759965e-02
1.88129166666667e-01 5.29781151324715e+00 5.78431158155248e-02
1.89487500000000e-01 5.22200517394214e+00 5.72209048825479e-02
1.90845833333333e-01 5.14728354670379e+00 5.66039325053665e-02
1.92204166666667e-01 5.07363111068214e+00 5.59921941108753e-02
1.93562500000000e-01 5.00103256682430e+00 5.53856837853392e-02
1.94920833333333e-01 4.92947283472757e+00 5.47843941329716e-02
1.96279166666667e-01 4.85893705031119e+00 5.41883164302164e-02
1.97637500000000e-01 4.78941056191203e+00 5.35974407754862e-02
1.98995833333333e-01 4.72087892726992e+00 5.30117559525971e-02
2.00354166666667e-01 4.65332791128220e+00 5.24312495744955e-02
2.01712500000000e-01 4.58674348228070e+00 5.18559082228248e-02
2.03070833333333e-01 4.52111180914397e+00 5.12857173161849e-02
2.04429166666667e-01 4.45641925913223e+00 5.07206612441228e-02
2.05787500000000e-01 4.39265239433679e+00 5.01607234973258e-02
2.07145833333333e-01 4.32979796891376e+00 4.96058865406410e-02
2.08504166666667e-01 4.26784292699727e+00 4.90561319380822e-02
2.09862500000000e-01 4.20677439931274e+00 4.85114404743507e-02
2.11220833333333e-01 4.14657970052711e+00 4.79717920325479e-02
2.12579166666667e-01 4.08724632723794e+00 4.74371657108757e-02
2.13937500000000e-01 4.02876195474267e+00 4.69075399361383e-02
2.15295833333333e-01 3.97111443450031e+00 4.63828923460529e-02
2.16654166666667e-01 3.91429179219435e+00 4.58631998982606e-02
2.18012500000000e-01 3.85828222465028e+00 4.53484389764020e-02
2.19370833333333e-01 3.80307409740420e+00 4.48385852769233e-02
2.20729166666667e-01 3.74865594283721e+00 4.43336139109608e-02
2.22087500000000e-01 3.69501645723404e+00 4.38334995035309e-02
2.23445833333333e-01 3.64214449845407e+00 4.33382160847164e-02
2.24804166666667e-01 3.59002908413504e+00 4.28477371849459e-02
2.26162500000000e-01 3.53865938888596e+00 4.23620359277927e-02
2.27520833333333e-01 3.48802474205629e+00 4.18810849254217e-02
2.28879166666667e-01 3.43811462600668e+00 4.14048563677316e-02
2.30237500000000e-01 3.38891867342981e+00 4.09333221092187e-02
2.31595833333333e-01 3.34042666521356e+00 4.04664535685584e-02
2.32954166666667e-01 3.29262852877668e+00 4.00042218120482e-02
2.34312500000000e-01 3.24551433551140e+00 3.95465976349537e-02
2.35670833333333e-01 3.19907429873666e+00 3.90935514650951e-02
2.37029166666667e-01 3.15329877209658e+00 3.86450534409889e-02
2.38387500000000e-01 3.10817824711908e+00 3.82010734880550e-02
2.39745833333333e-01 3.06370335125534e+00 3.77615812260853e-02
2.41104166666667e-01 3.01986484633906e+00 3.73265460424502e-02
2.42462500000000e-01 2.97665362625552e+00 3.68959371635200e-02
2.43820833333333e-01 2.93406071506371e+00 3.64697235658841e-02
2.45179166666667e-01 2.89207726551424e+00 3.60478740449600e-02
2.46537500000000e-01 2.85069455682372e+00 3.56303572819559e-02
2.47895833333333e-01 2.80990399287606e+00 3.52171417587117e-02
2.49254166666667e-01 2.76969710079707e+00 3.48081958220199e-02
2.50612500000000e-01 2.73006552882914e+00 3.44034877464318e-02
2.51970833333333e-01 2.69100104460838e+00 3.40029856525876e-02
2.53329166666667e-01 2.65249553379401e+00 3.36066575675442e-02
2.54687500000000e-01 2.61454099803863e+00 3.32144714836991e-02
2.56045833333333e-01 2.57712955333802e+00 3.28263952804860e-02
2.57404166666667e-01 2.54025342871335e+00 3.24423967809703e-02
2.58762500000000e-01 2.50390496427263e+00 3.20624438071491e-02
2.60120833333333e-01 2.46807660963014e+00 3.16865041048911e-02
2.61479166666667e-01 2.43276092263952e+00 3.13145453970465e-02
2.62837500000000e-01 2.39795056754224e+00 3.09465354353581e-02
2.64195833333333e-01 2.36363831345364e+00 3.05824419285227e-02
2.65554166666667e-01 2.32981703314522e+00 3.02222325920449e-02
2.66912500000000e-01 2.29647970127595e+00 2.98658751969850e-02
2.68270833333333e-01 2.26361939294226e+00 2.95133375010199e-02
2.69629166666667e-01 2.23122928250764e+00 2.91645872952491e-02
2.70987500000000e-01 2.19930264191304e+00 2.88195924499858e-02
2.72345833333333e-01 2.16783283928808e+00 2.84783208487006e-02
2.73704166666667e-01 2.13681333782627e+00 2.81407404319826e-02
2.75062500000000e-01 2.10623769417089e+00 2.78068192405569e-02
2.76420833333333e-01 2.07609955708472e+00 2.74765253520012e-02
2.77779166666667e-01 2.04639266636939e+00 2.71498269220456e-02
2.79137500000000e-01 2.01711085132309e+00 2.68266922249904e-02
2.80495833333333e-01 1.98824802946654e+00 2.65070895930879e-02
2.81854166666667e-01 1.95979820550469e+00 2.61909874553479e-02
2.83212500000000e-01 1.93175546985309e+00 2.58783543755268e-02
2.84570833333333e-01 1.90411399741764e+00 2.55691589940658e-02
2.85929166666667e-01 1.87686804659712e+00 2.52633700645560e-02
2.87287500000000e-01 1.85001195787510e+00 2.49609564894555e-02
2.88645833333333e-01 1.82354015265116e+00 2.46618872644805e-02
2.90004166666667e-01 1.79744713228276e+00 2.43661315128802e-02
2.91362500000000e-01 1.77172747673968e+00 2.40736585190196e-02
2.92720833333333e-01 1.74637584348457e+00 2.37844376751262e-02
2.94079166666667e-01 1.72138696655270e+00 2.34984385135126e-02
2.95437500000000e-01 1.69675565526603e+00 2.32156307381592e-02
2.96795833333333e-01 1.67247679316107e+00 2.29359841737185e-02
2.98154166666667e-01 1.64854533710501e+00 2.26594687958141e-02
2.99512500000000e-01 1.62495631606683e+00 2.23860547607451e-02
3.00870833333333e-01 1.60170483009034e+00 2.21157123566588e-02
3.02229166666667e-01 1.57878604944548e+00 2.18484120320440e-02
3.03587500000000e-01 1.55619521345369e+00 2.15841244236753e-02
3.04945833333333e-01 1.53392762950443e+00 2.13228203098609e-02
3.06304166666667e-01 1.51197867224011e+00 2.10644706372437e-02
3.07662500000000e-01 1.49034378243348e+00 2.08090465470933e-02
3.09020833333333e-01 1.46901846604556e+00 2.05565193305435e-02
3.10379166666667e-01 1.44799829344319e+00 2.03068604538058e-02
3.11737500000000e-01 1.42727889832583e+00 2.00600415829083e-02
3.13095833333333e-01 1.40685597682340e+00 1.98160345408436e-02
3.14454166666667e-01 1.38672528674493e+00 1.95748113312878e-02
3.15812500000000e-01 1.36688264655282e+00 1.93363441618836e-02
3.17170833333333e-01 1.34732393449868e+00 1.91006054032162e-02
3.18529166666667e-01 1.32804508790208e+00 1.88675676111321e-02
3.19887500000000e-01 1.30904210216995e+00 1.86372035486539e-02
3.21245833333333e-01 1.29031102996897e+00 1.84094861467063e-02
3.22604166666667e-01 1.27184798053318e+00 1.81843885251212e-02
3.23962500000000e-01 1.25364911872652e+00 1.79618840132652e-02
3.25320833333333e-01 1.23571066425022e+00 1.77419461124461e-02
3.26679166666667e-01 1.21802889097813e+00 1.75245485156790e-02
3.28037500000000e-01 1.20060012606054e+00 1.73096651271068e-02
3.29395833333333e-01 1.18342074916499e+00 1.70972700260137e-02
3.30754166666667e-01 1.16648719183835e+00 1.68873374854320e-02
3.32112500000000e-01 1.14979593664998e+00 1.66798419904252e-02
3.33470833333333e-01 1.13334351646465e+00 1.64747582036393e-02
3.34829166666667e-01 1.11712651383024e+00 1.62720609828204e-02
3.36187500000000e-01 1.10114156015851e+00 1.60717253980294e-02
3.37545833333333e-01 1.08538533502879e+00 1.58737266986685e-02
3.38904166666667e-01 1.06985456560027e+00 1.56780403299717e-02
3.40262500000000e-01 1.05454602582879e+00 1.54846419492150e-02
3.41620833333333e-01 1.03945653579984e+00 1.52935073941559e-02
3.42979166666667e-01 1.02458296116467e+00 1.51046126985585e-02
3.44337500000000e-01 1.00992221239130e+00 1.49179341074593e-02
3.45695833333333e-01 9.95471244125802e-01 1.47334480469589e-02
3.47054166666667e-01 9.81227054651075e-01 1.45511311388399e-02
3.48412500000000e-01 9.67186685170762e-01 1.43709602149437e-02
3.49770833333333e-01 9.53347219197428e-01 1.41929122882565e-02
3.51129166666667e-01 9.39705782033286e-01 1.40169645666748e-02
3.52487500000000e-01 9.26259540085411e-01 1.38430944665461e-02
3.53845833333333e-01 9.13005700279787e-01 1.36712795849951e-02
3.55204166666667e-01 8.99941509563046e-01 1.35014977128843e-02
3.56562500000000e-01 8.87064254247632e-01 1.33337268475688e-02
3.57920833333333e-01 8.74371259450605e-01 1.31679451664104e-02
3.59279166666667e-01 8.61859888615572e-01 1.30041310389813e-02
3.60637500000000e-01 8.49527542886469e-01 1.28422630390796e-02
3.61995833333333e-01 8.37371660570082e-01 1.26823199193785e-02
3.63354166666667e-01 8.25389716677367e-01 1.25242806229196e-02
3.64712500000000e-01 8.13579222324581e-01 1.23681242944324e-02
3.66070833333333e-01 8.01937724218517e-01 1.22138302560700e-02
3.67429166666667e-01 7.90462804216452e-01 1.20613780182343e-02
3.68787500000000e-01 7.79152078753413e-01 1.19107472902376e-02
3.70145833333333e-01 7.68003198349165e-01 1.17619179570801e-02
3.71504166666667e-01 7.57013847186050e-01 1.16148700896468e-02
3.72862500000000e-01 7.46181742561229e-01 1.14695839547498e-02
3.74220833333333e-01 7.35504634414513e-01 1.13260399929039e-02
3.75579166666667e-01 7.24980304923368e-01 1.11842188279284e-02
3.76937500000000e-01 7.14606567979044e-01 1.10441012764100e-02
3.78295833333333e-01 7.04381268734355e-01 1.09056683264305e-02
3.79654166666667e-01 6.94302283215179e-01 1.07689011466111e-02
3.81012500000000e-01 6.84367517819410e-01 1.06337810950281e-02
3.82370833333333e-01 6.74574908883851e-01 1.05002896988529e-02
3.83729166666667e-01 6.64922422311548e-01 1.03684086628712e-02
3.85087500000000e-01 6.55408053092560e-01 1.02381198778817e-02
3.86445833333333e-01 6.46029824889154e-01 1.01094054012115e-02
3.87804166666667e-01 6.36785789678346e-01 9.98224746473935e-03
3.89162500000000e-01 6.27674027293522e-01 9.85662848280933e-03
3.90520833333333e-01 6.18692645027169e-01 9.73253103358136e-03
3.91879166666667e-01 6.09839777288005e-01 9.60993786658897e-03
3.93237500000000e-01 6.01113585162542e-01 9.48883191019519e-03
3.94595833333333e-01 5.92512256034607e-01 9.36919625374350e-03
3.95954166666667e-01 5.84034003256480e-01 9.25101415467682e-03
3.97312500000000e-01 5.75677065729520e-01 9.13426904556209e-03
3.98670833333333e-01 5.67439707539764e-01 9.01894451700675e-03
4.00029166666667e-01 5.59320217642516e-01 8.90502432436489e-03
4.01387500000000e-01 5.51316909461195e-01 8.79249239435530e-03
4.02745833333333e-01 5.43428120538332e-01 8.68133280871079e-03
4.04104166666667e-01 5.35652212233074e-01 8.57152981049520e-03
4.05462500000000e-01 5.27987569337449e-01 8.46306781033855e-03
4.06820833333333e-01 5.20432599742113e-01 8.35593137078812e-03
4.08179166666667e-01 5.12985734146250e-01 8.25010521225821e-03
4.09537500000000e-01 5.05645425690484e-01 8.14557421890484e-03
4.10895833333333e-01 4.98410149636763e-01 8.04232342364803e-03
4.12254166666667e-01 4.91278403090144e-01 7.94033801377603e-03
4.13612500000000e-01 4.84248704647632e-01 7.83960333647994e-03
4.14970833333333e-01 4.77319594091598e-01 7.74010488451889e-03
4.16329166666667e-01 4.70489632122972e-01 7.64182830149853e-03
4.17687500000000e-01 4.63757400025310e-01 7.54475938708494e-03
4.19045833333333e-01 4.57121499371174e-01 7.44888408328491e-03
4.20404166666667e-01 4.50580551766272e-01 7.35418847941744e-03
4.21762500000000e-01 4.44133198528088e-01 7.26065881702623e-03
4.23120833333333e-01 4.37778100404675e-01 7.16828147674818e-03
4.24479166666667e-01 4.31513937329300e-01 7.07704298299557e-03
4.25837500000000e-01 4.25339408113002e-01 6.98693000858402e-03
4.27195833333333e-01 4.19253230175266e-01 6.89792936216416e-03
4.28554166666667e-01 4.13254139308757e-01 6.81002799263132e-03
