Energy (eV)          EEDF (eV^-(3/2))     First Anisotropy
2.76271186440678e-04 3.88823046468373e+01 1.62201662635151e-02
8.28813559322034e-04 3.86550214109735e+01 2.67959052461550e-02
1.38135593220339e-03 3.84290667392353e+01 3.54049066140086e-02
1.93389830508475e-03 3.82044328673767e+01 4.19643049908435e-02
2.48644067796610e-03 3.79811120741727e+01 4.74507362864099e-02
3.03898305084746e-03 3.77590966839834e+01 5.22328993433329e-02
3.59152542372881e-03 3.75383790656813e+01 5.65013243875727e-02
4.14406779661017e-03 3.73189516337777e+01 6.03709070594490e-02
4.69661016949153e-03 3.71008068465336e+01 6.39177434374141e-02
5.24915254237288e-03 3.68839372060241e+01 6.71955430321767e-02
5.80169491525424e-03 3.66683352588298e+01 7.02440101689098e-02
6.35423728813559e-03 3.64539935947290e+01 7.30935506713877e-02
6.90677966101695e-03 3.62409048468257e+01 7.57681079878998e-02
7.45932203389831e-03 3.60290616910865e+01 7.82869680848915e-02
8.01186440677966e-03 3.58184568467288e+01 8.06659593451066e-02
8.56440677966102e-03 3.56090830752936e+01 8.29182792810345e-02
9.11694915254237e-03 3.54009331804723e+01 8.50550812991561e-02
9.66949152542373e-03 3.51940000083757e+01 8.70859020070032e-02
1.02220338983051e-02 3.49882764467447e+01 8.90189792028809e-02
1.07745762711864e-02 3.47837554246087e+01 9.08614929448228e-02
1.13271186440678e-02 3.45804299125129e+01 9.26197514001454e-02
1.18796610169492e-02 3.43782929235237e+01 9.42993366912690e-02
1.24322033898305e-02 3.41773375089399e+01 9.59052200957897e-02
1.29847457627119e-02 3.39775567619817e+01 9.74418543687688e-02
1.35372881355932e-02 3.37789438173423e+01 9.89132493677841e-02
1.40898305084746e-02 3.35814918476407e+01 1.00323033282567e-01
1.46423728813559e-02 3.33851940665181e+01 1.01674503280404e-01
1.51949152542373e-02 3.31900437272735e+01 1.02970667995480e-01
1.57474576271186e-02 3.29960341235670e+01 1.04214283182507e-01
1.63000000000000e-02 3.28031585864078e+01 1.05407881560616e-01
1.68525423728814e-02 3.26114104867181e+01 1.06553798172694e-01
1.74050847457627e-02 3.24207832341695e+01 1.07654192360767e-01
1.79576271186441e-02 3.22312702777434e+01 1.08711066662874e-01
1.85101694915254e-02 3.20428651031293e+01 1.09726282888790e-01
1.90627118644068e-02 3.18555612348889e+01 1.10701576069656e-01
1.96152542372881e-02 3.16693522354410e+01 1.11638566894598e-01
2.01677966101695e-02 3.14842317055163e+01 1.12538772603886e-01
2.07203389830508e-02 3.13001932818722e+01 1.13403616329421e-01
2.12728813559322e-02 3.11172306391530e+01 1.14234435271595e-01
2.18254237288136e-02 3.09353374895959e+01 1.15032488486073e-01
2.23779661016949e-02 3.07545075809532e+01 1.15798963285385e-01
2.29305084745763e-02 3.05747346981470e+01 1.16534980996250e-01
2.34830508474576e-02 3.03960126624281e+01 1.17241602342265e-01
2.40355932203390e-02 3.02183353317117e+01 1.17919832268260e-01
2.45881355932203e-02 3.00416965987158e+01 1.18570624069003e-01
2.51406779661017e-02 2.98660903924097e+01 1.19194883103787e-01
2.56932203389831e-02 2.96915106772522e+01 1.19793470373750e-01
2.62457627118644e-02 2.95179514534706e+01 1.20367205758844e-01
2.67983050847458e-02 2.93454067553787e+01 1.20916870759005e-01
2.73508474576271e-02 2.91738706526551e+01 1.21443210932309e-01
2.79033898305085e-02 2.90033372500947e+01 1.21946938568482e-01
2.84559322033898e-02 2.88338006860488e+01 1.22428734696662e-01
2.90084745762712e-02 2.86652551335867e+01 1.22889250965453e-01
2.95610169491525e-02 2.84976947998374e+01 1.23329111562743e-01
3.01135593220339e-02 2.83311139261990e+01 1.23748914974701e-01
3.06661016949153e-02 2.81655067869128e+01 1.24149235427603e-01
3.12186440677966e-02 2.80008676900997e+01 1.24530624210482e-01
3.17711864406780e-02 2.78371909771532e+01 1.24893611081534e-01
3.23237288135593e-02 2.76744710229139e+01 1.25238705563498e-01
3.28762711864407e-02 2.75127022343582e+01 1.25566397975128e-01
3.34288135593220e-02 2.73518790515292e+01 1.25877160340045e-01
3.39813559322034e-02 2.71919959473163e+01 1.26171447613127e-01
3.45338983050847e-02 2.70330474262243e+01 1.26449698448892e-01
3.50864406779661e-02 2.68750280252295e+01 1.26712335953243e-01
3.56389830508475e-02 2.67179323132412e+01 1.26959768551451e-01
3.61915254237288e-02 2.65617548912324e+01 1.27192390792996e-01
3.67440677966102e-02 2.64064903910997e+01 1.27410583951582e-01
3.72966101694915e-02 2.62521334764375e+01 1.27614716581209e-01
3.78491525423729e-02 2.60986788420341e+01 1.27805145196102e-01
3.84016949152542e-02 2.59461212139805e+01 1.27982214902877e-01
3.89542372881356e-02 2.57944553486096e+01 1.28146259848854e-01
3.95067796610169e-02 2.56436760331994e+01 1.28297603602337e-01
4.00593220338983e-02 2.54937780857725e+01 1.28436559840397e-01
4.06118644067797e-02 2.53447563540929e+01 1.28563432673639e-01
4.11644067796610e-02 2.51966057163177e+01 1.28678516984165e-01
4.17169491525424e-02 2.50493210805426e+01 1.28782098889181e-01
4.22694915254237e-02 2.49028973848814e+01 1.28874456173443e-01
4.28220338983051e-02 2.47573295965274e+01 1.28955858565480e-01
4.33745762711864e-02 2.46126127123484e+01 1.29026567994392e-01
4.39271186440678e-02 2.44687417584576e+01 1.29086838971437e-01
4.44796610169492e-02 2.43257117902783e+01 1.29136918946255e-01
4.50322033898305e-02 2.41835178916634e+01 1.29177048517978e-01
4.55847457627119e-02 2.40421551754401e+01 1.29207461599938e-01
4.61372881355932e-02 2.39016187832255e+01 1.29228385864533e-01
4.66898305084746e-02 2.37619038845898e+01 1.29240042882968e-01
4.72423728813559e-02 2.36230056775633e+01 1.29242648286409e-01
4.77949152542373e-02 2.34849193882454e+01 1.29236412046410e-01
4.83474576271186e-02 2.33476402708483e+01 1.29221538736853e-01
4.89000000000000e-02 2.32111636069091e+01 1.29198227667263e-01
4.94525423728814e-02 2.30754847057549e+01 1.29166673006244e-01
5.00050847457627e-02 2.29405989041322e+01 1.29127064021071e-01
5.05576271186441e-02 2.28065015662397e+01 1.29079585301469e-01
5.11101694915254e-02 2.26731880829850e+01 1.29024416861907e-01
5.16627118644068e-02 2.25406538724128e+01 1.28961734235918e-01
5.22152542372881e-02 2.24088943793518e+01 1.28891708683140e-01
5.27677966101695e-02 2.22779050754392e+01 1.28814507382666e-01
5.33203389830509e-02 2.21476814584171e+01 1.28730293511109e-01
5.38728813559322e-02 2.20182190525282e+01 1.28639226287793e-01
5.44254237288136e-02 2.18895134083506e+01 1.28541461261856e-01
5.49779661016949e-02 2.17615601021249e+01 1.28437150347807e-01
5.55305084745763e-02 2.16343547361240e+01 1.28326441883791e-01
5.60830508474576e-02 2.15078929383274e+01 1.28209480795491e-01
5.66355932203390e-02 2.13821703624331e+01 1.28086408748933e-01
5.71881355932203e-02 2.12571826872194e+01 1.27957364198534e-01
5.77406779661017e-02 2.11329256168872e+01 1.27822482430353e-01
5.82932203389830e-02 2.10093948807482e+01 1.27681895707458e-01
5.88457627118644e-02 2.08865862332308e+01 1.27535733405360e-01
5.93983050847458e-02 2.07644954532740e+01 1.27384122047348e-01
5.99508474576271e-02 2.06431183446440e+01 1.27227185312353e-01
6.05033898305085e-02 2.05224507357817e+01 1.27065044259304e-01
6.10559322033898e-02 2.04024884792202e+01 1.26897817329899e-01
6.16084745762712e-02 2.02832274518832e+01 1.26725620372944e-01
6.21610169491525e-02 2.01646635547952e+01 1.26548566764047e-01
6.27135593220339e-02 2.00467927130778e+01 1.26366767516899e-01
6.32661016949153e-02 1.99296108753972e+01 1.26180331302664e-01
6.38186440677966e-02 1.98131140142389e+01 1.25989364466184e-01
6.43711864406780e-02 1.96972981256313e+01 1.25793971134272e-01
6.49237288135593e-02 1.95821592291371e+01 1.25594253316286e-01
6.54762711864407e-02 1.94676933673261e+01 1.25390310916576e-01
6.60288135593220e-02 1.93538966060315e+01 1.25182241723175e-01
6.65813559322034e-02 1.92407650342070e+01 1.24970141590670e-01
6.71338983050847e-02 1.91282947634197e+01 1.24754104426163e-01
6.76864406779661e-02 1.90164819280910e+01 1.24534222195190e-01
6.82389830508475e-02 1.89053226852378e+01 1.24310585013650e-01
6.87915254237288e-02 1.87948132144583e+01 1.24083281232925e-01
6.93440677966102e-02 1.86849497174472e+01 1.23852397443551e-01
6.98966101694915e-02 1.85757284182200e+01 1.23618018476622e-01
7.04491525423729e-02 1.84671455628643e+01 1.23380227488201e-01
7.10016949152542e-02 1.83591974195218e+01 1.23139106037446e-01
7.15542372881356e-02 1.82518802779259e+01 1.22894734086375e-01
7.21067796610169e-02 1.81451904496095e+01 1.22647189978785e-01
7.26593220338983e-02 1.80391242677725e+01 1.22396550593738e-01
7.32118644067797e-02 1.79336780868356e+01 1.22142891323009e-01
7.37644067796610e-02 1.78288482826365e+01 1.21886286066801e-01
7.43169491525424e-02 1.77246312521973e+01 1.21626807307048e-01
7.48694915254237e-02 1.76210234137020e+01 1.21364526175109e-01
7.54220338983051e-02 1.75180212060696e+01 1.21099512446642e-01
7.59745762711864e-02 1.74156210891364e+01 1.20831834534787e-01
7.65271186440678e-02 1.73138195434324e+01 1.20561559558290e-01
7.70796610169492e-02 1.72126130701564e+01 1.20288753404271e-01
7.76322033898305e-02 1.71119981907666e+01 1.20013480720950e-01
7.81847457627119e-02 1.70119714471513e+01 1.19735804891838e-01
7.87372881355932e-02 1.69125294015047e+01 1.19455788167262e-01
7.92898305084746e-02 1.68136686359321e+01 1.19173491637790e-01
7.98423728813559e-02 1.67153857526103e+01 1.18888975224301e-01
8.03949152542373e-02 1.66176773735779e+01 1.18602297738160e-01
8.09474576271186e-02 1.65205401407062e+01 1.18313516936602e-01
8.15000000000000e-02 1.64239707153209e+01 1.18022689512798e-01
8.20525423728814e-02 1.63279657783518e+01 1.17729871084494e-01
8.26050847457627e-02 1.62325220301297e+01 1.17435116250412e-01
8.31576271186441e-02 1.61376361903568e+01 1.17138478642114e-01
8.37101694915254e-02 1.60433049977430e+01 1.16840010912840e-01
8.42627118644068e-02 1.59495252101453e+01 1.16539764725063e-01
8.48152542372881e-02 1.58562936043728e+01 1.16237790803485e-01
8.53677966101695e-02 1.57636069761543e+01 1.15934138983722e-01
8.59203389830508e-02 1.56714621397901e+01 1.15628858200180e-01
8.64728813559322e-02 1.55798559282820e+01 1.15321996457973e-01
8.70254237288136e-02 1.54887851932203e+01 1.15013600942135e-01
8.75779661016949e-02 1.53982468044462e+01 1.14703717989332e-01
8.81305084745763e-02 1.53082376501749e+01 1.14392393074162e-01
8.86830508474576e-02 1.52187546368110e+01 1.14079670856825e-01
8.92355932203390e-02 1.51297946889151e+01 1.13765595226816e-01
8.97881355932203e-02 1.50413547488794e+01 1.13450209289771e-01
9.03406779661017e-02 1.49534317770422e+01 1.13133555353205e-01
9.08932203389830e-02 1.48660227515096e+01 1.12815674971578e-01
9.14457627118644e-02 1.47791246681217e+01 1.12496608987605e-01
9.19983050847458e-02 1.46927345401396e+01 1.12176397518586e-01
9.25508474576271e-02 1.46068493983533e+01 1.11855079928362e-01
9.31033898305085e-02 1.45214662909754e+01 1.11532694923734e-01
9.36559322033898e-02 1.44365822833393e+01 1.11209280526412e-01
9.42084745762712e-02 1.43521944579999e+01 1.10884874058241e-01
9.47610169491525e-02 1.42682999145657e+01 1.10559512182132e-01
9.53135593220339e-02 1.41848957696629e+01 1.10233230939490e-01
9.58661016949153e-02 1.41019791566444e+01 1.09906065736138e-01
9.64186440677966e-02 1.40195472256840e+01 1.09578051327333e-01
9.69711864406780e-02 1.39375971436139e+01 1.09249221856674e-01
9.75237288135593e-02 1.38561260938880e+01 1.08919610891582e-01
9.80762711864407e-02 1.37751312763024e+01 1.08589251409092e-01
9.86288135593220e-02 1.36946099070823e+01 1.08258175768587e-01
9.91813559322034e-02 1.36145592187842e+01 1.07926415797517e-01
9.97338983050848e-02 1.35349764600237e+01 1.07594002704766e-01
1.00286440677966e-01 1.34558588958434e+01 1.07260967316089e-01
1.00838983050847e-01 1.33772038063609e+01 1.06927339740491e-01
1.01391525423729e-01 1.32990084887860e+01 1.06593149599303e-01
1.01944067796610e-01 1.32212702550025e+01 1.06258426013626e-01
1.02496610169492e-01 1.31439864337218e+01 1.05923197470917e-01
1.03049152542373e-01 1.30671543687076e+01 1.05587492309111e-01
1.03601694915254e-01 1.29907714187183e+01 1.05251338022303e-01
1.04154237288136e-01 1.29148349590265e+01 1.04914761620259e-01
1.04706779661017e-01 1.28393423797052e+01 1.04577789979626e-01
1.05259322033898e-01 1.27642910855689e+01 1.04240449167929e-01
1.05811864406780e-01 1.26896784976403e+01 1.03902764901459e-01
1.06364406779661e-01 1.26155020509888e+01 1.03564762451596e-01
1.06916949152542e-01 1.25417591966958e+01 1.03226466530729e-01
1.07469491525424e-01 1.24684474002282e+01 1.02887901743958e-01
1.08022033898305e-01 1.23955641413811e+01 1.02549091939547e-01
1.08574576271186e-01 1.23231069156649e+01 1.02210060543980e-01
1.09127118644068e-01 1.22510732327340e+01 1.01870830889650e-01
1.09679661016949e-01 1.21794606163283e+01 1.01531425582235e-01
1.10232203389831e-01 1.21082666056134e+01 1.01191866928017e-01
1.10784745762712e-01 1.20374887531973e+01 1.00852176845677e-01
1.11337288135593e-01 1.19671246269276e+01 1.00512376758885e-01
1.11889830508475e-01 1.18971718083982e+01 1.00172488018194e-01
1.12442372881356e-01 1.18276278928925e+01 9.98325312929576e-02
1.12994915254237e-01 1.17584904906525e+01 9.94925268839847e-02
1.13547457627119e-01 1.16897572254348e+01 9.91524950295758e-02
1.14100000000000e-01 1.16214257344534e+01 9.88124553131466e-02
1.14652542372881e-01 1.15534936696062e+01 9.84724270624184e-02
1.15205084745763e-01 1.14859586956523e+01 9.81324292664056e-02
1.15757627118644e-01 1.14188184918577e+01 9.77924804742781e-02
1.16310169491525e-01 1.13520707506224e+01 9.74525991897893e-02
1.16862711864407e-01 1.12857131774248e+01 9.71128033016964e-02
1.17415254237288e-01 1.12197434919839e+01 9.67731103757501e-02
1.17967796610169e-01 1.11541594269303e+01 9.64335379408378e-02
1.18520338983051e-01 1.10889587277513e+01 9.60941029339482e-02
1.19072881355932e-01 1.10241391539137e+01 9.57548220734139e-02
1.19625423728814e-01 1.09596984771874e+01 9.54157117808132e-02
1.20177966101695e-01 1.08956344831537e+01 9.50767880857318e-02
1.20730508474576e-01 1.08319449699419e+01 9.47380669948383e-02
1.21283050847458e-01 1.07686277481746e+01 9.43995639580246e-02
1.21835593220339e-01 1.07056806420335e+01 9.40612941414000e-02
1.22388135593220e-01 1.06431014880352e+01 9.37232726950556e-02
1.22940677966102e-01 1.05808881349774e+01 9.33855142326792e-02
1.23493220338983e-01 1.05190384449692e+01 9.30480331808761e-02
1.24045762711864e-01 1.04575502918862e+01 9.27108437056611e-02
1.24598305084746e-01 1.03964215627560e+01 9.23739596227858e-02
1.25150847457627e-01 1.03356501565928e+01 9.20373947433681e-02
1.25703389830508e-01 1.02752339843442e+01 9.17011623732098e-02
1.26255932203390e-01 1.02151709698701e+01 9.13652755682879e-02
1.26808474576271e-01 1.01554590488133e+01 9.10297473854855e-02
1.27361016949153e-01 1.00960961685465e+01 9.06945903944303e-02
1.27913559322034e-01 1.00370802891203e+01 9.03598170046749e-02
1.28466101694915e-01 9.97840938183608e+00 9.00254393965190e-02
1.29018644067797e-01 9.92008143052118e+00 8.96914694365735e-02
1.29571186440678e-01 9.86209443045233e+00 8.93579190016493e-02
1.30123728813559e-01 9.80444638830408e+00 8.90247995089478e-02
1.30676271186441e-01 9.74713532304904e+00 8.86921221553406e-02
1.31228813559322e-01 9.69015926491403e+00 8.83598981523450e-02
1.31781355932203e-01 9.63351625532962e+00 8.80281382679400e-02
1.32333898305085e-01 9.57720434780106e+00 8.76968530598238e-02
1.32886440677966e-01 9.52122160689639e+00 8.73660531045455e-02
1.33438983050847e-01 9.46556610819585e+00 8.70357485506295e-02
1.33991525423729e-01 9.41023593913548e+00 8.67059494173482e-02
1.34544067796610e-01 9.35522919772957e+00 8.63766655312831e-02
1.35096610169492e-01 9.30054399370668e+00 8.60479064487712e-02
1.35649152542373e-01 9.24617844754433e+00 8.57196817519370e-02
1.36201694915254e-01 9.19213069041994e+00 8.53920006184332e-02
1.36754237288136e-01 9.13839886501298e+00 8.50648720400987e-02
1.37306779661017e-01 9.08498112456866e+00 8.47383050378975e-02
1.37859322033898e-01 9.03187563284901e+00 8.44123082421861e-02
1.38411864406780e-01 8.97908056491010e+00 8.40868901730167e-02
1.38964406779661e-01 8.92659410591992e+00 8.37620591803913e-02
1.39516949152542e-01 8.87441445220584e+00 8.34378233712255e-02
1.40069491525424e-01 8.82253981036095e+00 8.31141908871676e-02
1.40622033898305e-01 8.77096839719648e+00 8.27911695003915e-02
1.41174576271186e-01 8.71969844048143e+00 8.24687668187149e-02
1.41727118644068e-01 8.66872817807514e+00 8.21469904873338e-02
1.42279661016949e-01 8.61805585788022e+00 8.18258477944287e-02
1.42832203389831e-01 8.56767973855916e+00 8.15053459342521e-02
1.43384745762712e-01 8.51759808843952e+00 8.11854919508728e-02
1.43937288135593e-01 8.46780918648068e+00 8.08662926693760e-02
1.44489830508475e-01 8.41831132144564e+00 8.05477549567396e-02
1.45042372881356e-01 8.36910279185503e+00 8.02298853419203e-02
1.45594915254237e-01 8.32018190666964e+00 7.99126902083875e-02
1.46147457627119e-01 8.27154698448614e+00 7.95961759835897e-02
1.46700000000000e-01 8.22319635349167e+00 7.92803487681617e-02
1.47252542372881e-01 8.17512835212539e+00 7.89652145830311e-02
1.47805084745763e-01 8.12734132806339e+00 7.86507793164347e-02
1.48357627118644e-01 8.07983363911188e+00 7.83370486590444e-02
1.48910169491525e-01 8.03260365243893e+00 7.80240283491139e-02
1.49462711864407e-01 7.98564974453007e+00 7.77117238152527e-02
1.50015254237288e-01 7.93897030181859e+00 7.74001403572130e-02
1.50567796610170e-01 7.89256371993933e+00 7.70892833239192e-02
1.51120338983051e-01 7.84642840368474e+00 7.67791577647541e-02
1.51672881355932e-01 7.80056276761622e+00 7.64697686617517e-02
1.52225423728814e-01 7.75496523512207e+00 7.61611208796747e-02
1.52777966101695e-01 7.70963423924350e+00 7.58532191048632e-02
1.53330508474576e-01 7.66456822196131e+00 7.55460680756849e-02
1.53883050847458e-01 7.61976563415299e+00 7.52396722464935e-02
1.54435593220339e-01 7.57522493617551e+00 7.49340359574953e-02
1.54988135593220e-01 7.53094459717207e+00 7.46291636021065e-02
1.55540677966102e-01 7.48692309502994e+00 7.43250592988709e-02
1.56093220338983e-01 7.44315891694565e+00 7.40217271097555e-02
1.56645762711864e-01 7.39965055855012e+00 7.37191709930876e-02
1.57198305084746e-01 7.35639652467311e+00 7.34173947458926e-02
1.57750847457627e-01 7.31339532868038e+00 7.31164022206419e-02
1.58303389830508e-01 7.27064549243232e+00 7.28161970090122e-02
1.58855932203390e-01 7.22814554682314e+00 7.25167826015719e-02
1.59408474576271e-01 7.18589403113647e+00 7.22181625451808e-02
1.59961016949153e-01 7.14388949300470e+00 7.19203401341799e-02
1.60513559322034e-01 7.10213048893214e+00 7.16233186157140e-02
1.61066101694915e-01 7.06061558348176e+00 7.13271011453869e-02
1.61618644067797e-01 7.01934334998326e+00 7.10316907328622e-02
1.62171186440678e-01 6.97831236991666e+00 7.07370904457925e-02
1.62723728813559e-01 6.93752123287240e+00 7.04433031121236e-02
1.63276271186441e-01 6.89696853705066e+00 7.01503314702591e-02
1.63828813559322e-01 6.85665288866178e+00 6.98581783171666e-02
1.64381355932203e-01 6.81657290188723e+00 6.95668462176258e-02
1.64933898305085e-01 6.77672719936407e+00 6.92763376508817e-02
1.65486440677966e-01 6.73711441160201e+00 6.89866551553012e-02
1.66038983050847e-01 6.69773317694467e+00 6.86978010443756e-02
1.66591525423729e-01 6.65858214204000e+00 6.84097775952612e-02
1.67144067796610e-01 6.61965996110479e+00 6.81225870080047e-02
1.67696610169492e-01 6.58096529656182e+00 6.78362313554602e-02
1.68249152542373e-01 6.54249681848176e+00 6.75507127706571e-02
1.68801694915254e-01 6.50425320454555e+00 6.72660331729451e-02
1.69354237288136e-01 6.46623314049340e+00 6.69821944059884e-02
1.69906779661017e-01 6.42843531958198e+00 6.66991983739581e-02
1.70459322033898e-01 6.39085844254714e+00 6.64170467740035e-02
1.71011864406780e-01 6.35350121804007e+00 6.61357412737523e-02
1.71564406779661e-01 6.31636236194243e+00 6.58552834728530e-02
1.72116949152542e-01 6.27944059795752e+00 6.55756748557233e-02
1.72669491525424e-01 6.24273465709040e+00 6.52969169679860e-02
1.73222033898305e-01 6.20624327761163e+00 6.50190111584512e-02
1.73774576271186e-01 6.16996520547379e+00 6.47419587090498e-02
1.74327118644068e-01 6.13389919380556e+00 6.44657609630673e-02
