Energy (eV)          EEDF (eV^-(3/2))     First Anisotropy
7.44444444444444e-02 1.45163581947905e-01 1.78517790006064e-04
2.23333333333333e-01 1.39688625220585e-01 2.90200211662458e-04
3.72222222222222e-01 1.34420160719245e-01 3.71143785112717e-04
5.21111111111111e-01 1.29350400431059e-01 4.25802514880110e-04
6.70000000000000e-01 1.24471850072211e-01 4.66037206915840e-04
8.18888888888889e-01 1.19777298018578e-01 4.96559409443303e-04
9.67777777777778e-01 1.15259804624141e-01 5.19918364557542e-04
1.11666666666667e+00 1.10912691992303e-01 5.37716890970662e-04
1.26555555555556e+00 1.06729534069488e-01 5.51057426781461e-04
1.41444444444444e+00 1.02704147178296e-01 5.60744911902230e-04
1.56333333333333e+00 9.88305808627282e-02 5.67392536262092e-04
1.71222222222222e+00 9.51031090932031e-02 5.71482358658527e-04
1.86111111111111e+00 9.15162218015473e-02 5.73402602422240e-04
2.01000000000000e+00 8.80646167359175e-02 5.73471894544607e-04
2.15888888888889e+00 8.47431916385647e-02 5.71955729501220e-04
2.30777777777778e+00 8.15470366544643e-02 5.69078057700875e-04
2.45666666666667e+00 7.84714271248140e-02 5.65029693318769e-04
2.60555555555556e+00 7.55118165849030e-02 5.59974576097846e-04
2.75444444444444e+00 7.26638300433987e-02 5.54054533446025e-04
2.90333333333333e+00 6.99232575150243e-02 5.47392974206193e-04
3.05222222222222e+00 6.72860477974231e-02 5.40097801504319e-04
3.20111111111111e+00 6.47483024824349e-02 5.32263743792066e-04
3.35000000000000e+00 6.23062701933511e-02 5.23974244383478e-04
3.49888888888889e+00 5.99563410462343e-02 5.15303012686780e-04
3.64777777777778e+00 5.76950412927716e-02 5.06315308187277e-04
3.79666666666667e+00 5.55190282069818e-02 4.97069014396888e-04
3.94555555555556e+00 5.34250851363618e-02 4.87615546744750e-04
4.09444444444444e+00 5.14101167469311e-02 4.78000622865398e-04
4.24333333333333e+00 4.94711444475840e-02 4.68264922248493e-04
4.39222222222222e+00 4.76053019871041e-02 4.58444654374773e-04
4.54111111111111e+00 4.58098312171457e-02 4.48572050818669e-04
4.69000000000000e+00 4.40820780150518e-02 4.38675793480237e-04
4.83888888888889e+00 4.24194883638584e-02 4.28781390029932e-04
4.98777777777778e+00 4.08196045662833e-02 4.18911502728533e-04
5.13666666666667e+00 3.92800616226313e-02 4.09086238361632e-04
5.28555555555555e+00 3.77985837309934e-02 3.99323406033806e-04
5.43444444444444e+00 3.63729809230839e-02 3.89638745216915e-04
5.58333333333333e+00 3.50011458269485e-02 3.80046129111549e-04
5.73222222222222e+00 3.36810505518041e-02 3.70557746299903e-04
5.88111111111111e+00 3.24107436903327e-02 3.61184263419125e-04
6.03000000000000e+00 3.11883474340482e-02 3.51934971039916e-04
6.17888888888889e+00 3.00120547993431e-02 3.42817915413181e-04
6.32777777777778e+00 2.88801269505185e-02 3.33840016560394e-04
6.47666666666667e+00 2.77908906354025e-02 3.25007174844723e-04
6.62555555555555e+00 2.67427357098196e-02 3.16324368069393e-04
6.77444444444444e+00 2.57341127574247e-02 3.07795738848181e-04
6.92333333333333e+00 2.47635307993007e-02 2.99424673980391e-04
7.07222222222222e+00 2.38295550899571e-02 2.91213876523186e-04
7.22111111111111e+00 2.29308049964368e-02 2.83165431305543e-04
7.37000000000000e+00 2.20659519574206e-02 2.75280864452779e-04
7.51888888888889e+00 2.12337175203968e-02 2.67561197935191e-04
7.66777777777778e+00 2.04328714484354e-02 2.60006998868805e-04
7.81666666666667e+00 1.96622299050956e-02 2.52618424451385e-04
7.96555555555555e+00 1.89206537032420e-02 2.45395263435904e-04
8.11444444444444e+00 1.82070466210617e-02 2.38336973633461e-04
8.26333333333333e+00 1.75203537815910e-02 2.31442716261242e-04
8.41222222222222e+00 1.68595600933688e-02 2.24711387329256e-04
8.56111111111111e+00 1.62236887498920e-02 2.18141646328788e-04
8.71000000000000e+00 1.56117997856691e-02 2.11731942402934e-04
8.85888888888889e+00 1.50229886873875e-02 2.05480538494886e-04
9.00777777777778e+00 1.44563850548107e-02 1.99385533155581e-04
9.15666666666667e+00 1.39111513162089e-02 1.93444880462645e-04
9.30555555555556e+00 1.33864814895170e-02 1.87656408531410e-04
9.45444444444444e+00 1.28815999909058e-02 1.82017836194657e-04
9.60333333333333e+00 1.23957604882883e-02 1.76526788300744e-04
9.75222222222222e+00 1.19282447980698e-02 1.71180809685182e-04
9.90111111111111e+00 1.14783618235047e-02 1.65977377924437e-04
1.00500000000000e+01 1.10454465330951e-02 1.60913914790303e-04
1.01988888888889e+01 1.06288589795078e-02 1.55987797447053e-04
1.03477777777778e+01 1.02279833470635e-02 1.51196367663619e-04
1.04966666666667e+01 9.84222704855731e-03 1.46536940203868e-04
1.06455555555556e+01 9.47101984666479e-03 1.42006811517293e-04
1.07944444444444e+01 9.11381301099967e-03 1.37603266743927e-04
1.09433333333333e+01 8.77007850695611e-03 1.33323586294782e-04
1.10922222222222e+01 8.43930821516660e-03 1.29165051811008e-04
1.12411111111111e+01 8.12101318037553e-03 1.25124951551324e-04
1.13900000000000e+01 7.81472288865015e-03 1.21200585007348e-04
1.15388888888889e+01 7.51998457436056e-03 1.17389268022007e-04
1.16877777777778e+01 7.23636254314276e-03 1.13688336210660e-04
1.18366666666667e+01 6.96343753581559e-03 1.10095147931897e-04
1.19855555555556e+01 6.70080610587978e-03 1.06607088251577e-04
1.21344444444444e+01 6.44808002313066e-03 1.03221571446899e-04
1.22833333333333e+01 6.20488569976000e-03 9.99360434728971e-05
1.24322222222222e+01 5.97086363811525e-03 9.67479841353872e-05
1.25811111111111e+01 5.74566789927408e-03 9.36549089942139e-05
1.27300000000000e+01 5.52896559166650e-03 9.06543708544833e-05
1.28788888888889e+01 5.32043638057287e-03 8.77439616912512e-05
1.30277777777778e+01 5.11977200969146e-03 8.49213135281990e-05
1.31766666666667e+01 4.92667585051117e-03 8.21840990980509e-05
1.33255555555556e+01 4.74086246209320e-03 7.95300332451093e-05
1.34744444444444e+01 4.56205716912317e-03 7.69568734228267e-05
1.36233333333333e+01 4.38999565587515e-03 7.44624202332813e-05
1.37722222222222e+01 4.22442357549663e-03 7.20445178326218e-05
1.39211111111111e+01 4.06509617402225e-03 6.97010542142518e-05
1.40700000000000e+01 3.91177792857074e-03 6.74299612701677e-05
1.42188888888889e+01 3.76424220020503e-03 6.52292151957160e-05
1.43677777777778e+01 3.62227089576801e-03 6.30968362388346e-05
1.45166666666667e+01 3.48565414872050e-03 6.10308883475922e-05
1.46655555555556e+01 3.35419000780131e-03 5.90294793595698e-05
1.48144444444444e+01 3.22768413849641e-03 5.70907606220363e-05
1.49633333333333e+01 3.10594953576620e-03 5.52129266776525e-05
1.51122222222222e+01 2.98880624761153e-03 5.33942148949759e-05
1.52611111111111e+01 2.87608110906141e-03 5.16329050495704e-05
1.54100000000000e+01 2.76760748619502e-03 4.99273187864861e-05
1.55588888888889e+01 2.66322503047572e-03 4.82758193443364e-05
1.57077777777778e+01 2.56277943969042e-03 4.66768108639606e-05
1.58566666666667e+01 2.46612223194163e-03 4.51287376543769e-05
1.60055555555556e+01 2.37311052544089e-03 4.36300838496512e-05
1.61544444444444e+01 2.28360682729640e-03 4.21793727041838e-05
1.63033333333333e+01 2.19747883026584e-03 4.07751659541974e-05
1.64522222222222e+01 2.11459921717730e-03 3.94160631625608e-05
1.66011111111111e+01 2.03484547272403e-03 3.81007010497309e-05
1.67500000000000e+01 1.95809970235845e-03 3.68277527627830e-05
1.68988888888889e+01 1.88424845844476e-03 3.55959273395204e-05
1.70477777777778e+01 1.81318257123673e-03 3.44039689072998e-05
1.71966666666667e+01 1.74479698885737e-03 3.32506558685570e-05
1.73455555555556e+01 1.67899062154213e-03 3.21348003664905e-05
1.74944444444444e+01 1.61566619220481e-03 3.10552475194795e-05
1.76433333333333e+01 1.55473009263895e-03 3.00108747137884e-05
1.77922222222222e+01 1.49609224514424e-03 2.90005908976096e-05
1.79411111111111e+01 1.43966596937024e-03 2.80233358776835e-05
1.80900000000000e+01 1.38536785418270e-03 2.70780795852046e-05
1.82388888888889e+01 1.33311763464313e-03 2.61638214853687e-05
1.83877777777778e+01 1.28283807249351e-03 2.52795898166087e-05
1.85366666666667e+01 1.23445484286981e-03 2.44244408305262e-05
1.86855555555556e+01 1.18789642412747e-03 2.35974582318337e-05
1.88344444444444e+01 1.14309399211590e-03 2.27977524696768e-05
1.89833333333333e+01 1.09998131844005e-03 2.20244600770231e-05
1.91322222222222e+01 1.05849467256017e-03 2.12767430189263e-05
1.92811111111111e+01 1.01857272758293e-03 2.05537880501229e-05
1.94300000000000e+01 9.80156469606052e-04 1.98548060588763e-05
1.95788888888889e+01 9.43189110666893e-04 1.91790315157387e-05
1.97277777777778e+01 9.07616004226830e-04 1.85257218125820e-05
1.98766666666667e+01 8.73384564976869e-04 1.78941566083075e-05
2.00255555555556e+01 8.40444190903467e-04 1.72836373170190e-05
2.01744444444444e+01 8.08746188487024e-04 1.66934865003811e-05
2.03233333333333e+01 7.78243700721384e-04 1.61230472981677e-05
2.04722222222222e+01 7.48891637848696e-04 1.55716828699897e-05
2.06211111111111e+01 7.20646610706083e-04 1.50387758482711e-05
2.07700000000000e+01 6.93466866586398e-04 1.45237277864618e-05
2.09188888888889e+01 6.67312227640398e-04 1.40259586834720e-05
2.10677777777778e+01 6.42144031107361e-04 1.35449064372394e-05
2.12166666666667e+01 6.17925072550312e-04 1.30800263068904e-05
2.13655555555556e+01 5.94619550726294e-04 1.26307904762311e-05
2.15144444444444e+01 5.72193014663829e-04 1.21966875553435e-05
2.16633333333333e+01 5.50612312736278e-04 1.17772221118173e-05
2.18122222222222e+01 5.29845543656282e-04 1.13719142129730e-05
2.19611111111111e+01 5.09862009318136e-04 1.09802989789725e-05
2.21100000000000e+01 4.90632169418861e-04 1.06019261357014e-05
2.22588888888889e+01 4.72127597872127e-04 1.02363596228135e-05
2.24077777777778e+01 4.54320940537187e-04 9.88317715595174e-06
2.25566666666667e+01 4.37185875040807e-04 9.54196979750227e-06
2.27055555555556e+01 4.20697071778352e-04 9.21234159936072e-06
2.28544444444444e+01 4.04830156470763e-04 8.89390920567383e-06
2.30033333333333e+01 3.89561674133638e-04 8.58630147821301e-06
2.31522222222222e+01 3.74869054405477e-04 8.28915913149132e-06
2.33011111111111e+01 3.60730578183372e-04 8.00213437745709e-06
2.34500000000000e+01 3.47125345517132e-04 7.72489057203716e-06
2.35988888888889e+01 3.34033244768577e-04 7.45710190149599e-06
2.37477777777778e+01 3.21434922714613e-04 7.19845303914900e-06
2.38966666666667e+01 3.09311756110577e-04 6.94863880969090e-06
2.40455555555556e+01 2.97645824101839e-04 6.70736390467662e-06
2.41944444444444e+01 2.86419881732623e-04 6.47434257211225e-06
2.43433333333333e+01 2.75617334453918e-04 6.24929832313292e-06
2.44922222222222e+01 2.65222213592976e-04 6.03196364684488e-06
2.46411111111111e+01 2.55219152747859e-04 5.82207973315523e-06
2.47900000000000e+01 2.45593365072332e-04 5.61939619821386e-06
2.49388888888889e+01 2.36330621453799e-04 5.42367083853375e-06
2.50877777777778e+01 2.27417229367428e-04 5.23466936593939e-06
2.52366666666667e+01 2.18840012750459e-04 5.05216514892821e-06
2.53855555555556e+01 2.10586292485503e-04 4.87593899035538e-06
2.55344444444444e+01 2.02643867657866e-04 4.70577888838148e-06
2.56833333333333e+01 1.95000997519732e-04 4.54147981020968e-06
2.58322222222222e+01 1.87646384134678e-04 4.38284347242881e-06
2.59811111111111e+01 1.80569155676671e-04 4.22967812779913e-06
2.61300000000000e+01 1.73758850358982e-04 4.08179835473823e-06
2.62788888888889e+01 1.67205400993628e-04 3.93902486743141e-06
2.64277777777778e+01 1.60899120034586e-04 3.80118431355615e-06
2.65766666666667e+01 1.54830685334565e-04 3.66810907721610e-06
2.67255555555556e+01 1.48991126338252e-04 3.53963710766447e-06
2.68744444444444e+01 1.43371810821749e-04 3.41561173722036e-06
2.70233333333333e+01 1.37964432132123e-04 3.29588150869529e-06
2.71722222222222e+01 1.32760996908285e-04 3.18030000803917e-06
2.73211111111111e+01 1.27753813264928e-04 3.06872570206561e-06
2.74700000000000e+01 1.22935479422133e-04 2.96102177864856e-06
2.76188888888889e+01 1.18298872780236e-04 2.85705600173327e-06
2.77677777777778e+01 1.13837139340401e-04 2.75670055835931e-06
2.79166666666667e+01 1.09543683624777e-04 2.65983190981341e-06
2.80655555555556e+01 1.05412158909051e-04 2.56633066109149e-06
2.82144444444444e+01 1.01436457840512e-04 2.47608142339612e-06
2.83633333333333e+01 9.76107034099614e-05 2.38897268366874e-06
2.85122222222222e+01 9.39292402641464e-05 2.30489667817637e-06
2.86611111111111e+01 9.03866263458281e-05 2.22374927003724e-06
2.88100000000000e+01 8.69776248491553e-05 2.14542982886689e-06
2.89588888888889e+01 8.36971964895247e-05 2.06984112105461e-06
2.91077777777778e+01 8.05404920202304e-05 1.99688919490115e-06
2.92566666666667e+01 7.75028450992053e-05 1.92648326897338e-06
2.94055555555556e+01 7.45797653790737e-05 1.85853563345750e-06
2.95544444444444e+01 7.17669318693764e-05 1.79296154703595e-06
2.97033333333333e+01 6.90601865491364e-05 1.72967913894612e-06
2.98522222222222e+01 6.64555282203550e-05 1.66860931414849e-06
3.00011111111111e+01 6.39491065933036e-05 1.60967566151218e-06
3.01500000000000e+01 6.15372165949026e-05 1.55280436374822e-06
3.02988888888889e+01 5.92162928992502e-05 1.49792411496490e-06
3.04477777777778e+01 5.69829046341767e-05 1.44496603492817e-06
3.05966666666667e+01 5.48337503333166e-05 1.39386358579521e-06
3.07455555555556e+01 5.27656530476560e-05 1.34455249807655e-06
3.08944444444444e+01 5.07755556492651e-05 1.29697069373121e-06
3.10433333333333e+01 4.88605163121482e-05 1.25105821306556e-06
3.11922222222222e+01 4.70177041635533e-05 1.20675714399337e-06
3.13411111111111e+01 4.52443950992788e-05 1.16401155358519e-06
3.14900000000000e+01 4.35379677568157e-05 1.12276742102008e-06
3.16388888888889e+01 4.18958996454378e-05 1.08297257599861e-06
3.17877777777778e+01 4.03157634017487e-05 1.04457663505209e-06
3.19366666666667e+01 3.87952232175277e-05 1.00753093973405e-06
3.20855555555556e+01 3.73320313813641e-05 9.71788501363757e-07
3.22344444444444e+01 3.59240249560176e-05 9.37303943941941e-07
3.23833333333333e+01 3.45691225810923e-05 9.04033449850260e-07
3.25322222222222e+01 3.32653213963099e-05 8.71934707330017e-07
3.26811111111111e+01 3.20106940808130e-05 8.40966859684425e-07
3.28300000000000e+01 3.08033860041383e-05 8.11090455584525e-07
3.29788888888889e+01 2.96416124880846e-05 7.82267403285964e-07
3.31277777777778e+01 2.85236561579394e-05 7.54460923509721e-07
3.32766666666667e+01 2.74478644146942e-05 7.27635503743617e-07
3.34255555555556e+01 2.64126469883873e-05 7.01756857196053e-07
3.35744444444444e+01 2.54164735873164e-05 6.76791880590947e-07
3.37233333333333e+01 2.44578716359099e-05 6.52708613994963e-07
3.38722222222222e+01 2.35354240979226e-05 6.29476201976900e-07
3.40211111111111e+01 2.26477673817256e-05 6.07064856056667e-07
3.41700000000000e+01 2.17935893246005e-05 5.85445818010382e-07
3.43188888888889e+01 2.09716272553992e-05 5.64591325974607e-07
3.44677777777778e+01 2.01806661208140e-05 5.44474579707670e-07
3.46166666666667e+01 1.94195366966513e-05 5.25069706916597e-07
3.47655555555556e+01 1.86871138569106e-05 5.06351732887405e-07
3.49144444444444e+01 1.79823149105868e-05 4.88296549385925e-07
3.50633333333333e+01 1.73040980012007e-05 4.70880885039139e-07
3.52122222222222e+01 1.66514605666960e-05 4.54082276708721e-07
3.53611111111111e+01 1.60234378574183e-05 4.37879041824561e-07
3.55100000000000e+01 1.54191015099911e-05 4.22250251374874e-07
3.56588888888889e+01 1.48375581765728e-05 4.07175704898936e-07
3.58077777777778e+01 1.42779481993734e-05 3.92635904952453e-07
3.59566666666667e+01 1.37394443449214e-05 3.78612032367777e-07
3.61055555555556e+01 1.32212505794945e-05 3.65085923859890e-07
3.62544444444444e+01 1.27226008923966e-05 3.52040049177208e-07
3.64033333333333e+01 1.22427581636157e-05 3.39457489328981e-07
3.65522222222222e+01 1.17810130741908e-05 3.27321915548410e-07
3.67011111111111e+01 1.13366830576734e-05 3.15617568967304e-07
3.68500000000000e+01 1.09091112911355e-05 3.04329240789821e-07
3.69988888888889e+01 1.04976657253193e-05 2.93442253898455e-07
3.71477777777778e+01 1.01017381469755e-05 2.82942444133489e-07
3.72966666666667e+01 9.72074328322002e-06 2.72816142162645e-07
3.74455555555556e+01 9.35411793518723e-06 2.63050157016644e-07
3.75944444444444e+01 9.00132014549162e-06 2.53631759343874e-07
3.77433333333333e+01 8.66182839708828e-06 2.44548665446668e-07
3.78922222222222e+01 8.33514084235097e-06 2.35789021861100e-07
3.80411111111111e+01 8.02077456122413e-06 2.27341390462235e-07
3.81900000000000e+01 7.71826484735497e-06 2.19194733945976e-07
3.83388888888889e+01 7.42716452189127e-06 2.11338402334888e-07
3.84877777777778e+01 7.14704327016291e-06 2.03762119284557e-07
3.86366666666667e+01 6.87748700792300e-06 1.96455968826502e-07
3.87855555555556e+01 6.61809726843174e-06 1.89410383294225e-07
3.89344444444444e+01 6.36849061343006e-06 1.82616131078428e-07
3.90833333333333e+01 6.12829806632851e-06 1.76064304948871e-07
3.92322222222222e+01 5.89716456677502e-06 1.69746310776459e-07
3.93811111111111e+01 5.67474844579286e-06 1.63653856642138e-07
3.95300000000000e+01 5.46072092071458e-06 1.57778942228281e-07
3.96788888888889e+01 5.25476560967188e-06 1.52113848941913e-07
3.98277777777778e+01 5.05657806234832e-06 1.46651129918244e-07
3.99766666666667e+01 4.86586531153474e-06 1.41383600346034e-07
4.01255555555556e+01 4.68234543950644e-06 1.36304328633288e-07
4.02744444444444e+01 4.50574716128341e-06 1.31406627471019e-07
4.04233333333333e+01 4.33580942360787e-06 1.26684045307285e-07
4.05722222222222e+01 4.17228101904751e-06 1.22130358115126e-07
4.07211111111111e+01 4.01492021465231e-06 1.17739561444474e-07
4.08700000000000e+01 3.86349439461712e-06 1.13505862684873e-07
4.10188888888889e+01 3.71777971676844e-06 1.09423673851120e-07
4.11677777777778e+01 3.57756078060525e-06 1.05487604298787e-07
4.13166666666667e+01 3.44263030998435e-06 1.01692453676333e-07
4.14655555555556e+01 3.31278884634234e-06 9.80332054740782e-08
4.16144444444444e+01 3.18784445384955e-06 9.45050205139584e-08
4.17633333333333e+01 3.06761243568418e-06 9.11032307359820e-08
4.19122222222222e+01 2.95191506100785e-06 8.78233331999946e-08
4.20611111111111e+01 2.84058130223802e-06 8.46609842954127e-08
4.22100000000000e+01 2.73344658222947e-06 8.16119941076037e-08
4.23588888888889e+01 2.63035253122882e-06 7.86723211578133e-08
4.25077777777778e+01 2.53114675203521e-06 7.58380671034095e-08
4.26566666666667e+01 2.43568259547362e-06 7.31054716116034e-08
4.28055555555556e+01 2.34381894335592e-06 7.04709076571374e-08
4.29544444444444e+01 2.25541999987540e-06 6.79308767868587e-08
4.31033333333333e+01 2.17035509086898e-06 6.54820045986450e-08
4.32522222222222e+01 2.08849847065063e-06 6.31210363777194e-08
4.34011111111111e+01 2.00972913613000e-06 6.08448328849545e-08
4.35500000000000e+01 1.93393064794176e-06 5.86503662611437e-08
4.36988888888889e+01 1.86099095848411e-06 5.65347161980551e-08
4.38477777777778e+01 1.79080224578455e-06 5.44950660881779e-08
4.39966666666667e+01 1.72326075462936e-06 5.25286993013944e-08
4.41455555555556e+01 1.65826664301287e-06 5.06329957628172e-08
4.42944444444444e+01 1.59572383454771e-06 4.88054285131890e-08
4.44433333333333e+01 1.53553987644161e-06 4.70435604240041e-08
4.45922222222222e+01 1.47762580283084e-06 4.53450410274589e-08
4.47411111111111e+01 1.42189600326790e-06 4.37076034572702e-08
4.48900000000000e+01 1.36826809616947e-06 4.21290614750714e-08
4.50388888888889e+01 1.31666280714912e-06 4.06073066872974e-08
4.51877777777778e+01 1.26700385148687e-06 3.91403057516263e-08
4.53366666666667e+01 1.21921782171643e-06 3.77260976760991e-08
4.54855555555555e+01 1.17323407899081e-06 3.63627913321819e-08
4.56344444444444e+01 1.12898464866168e-06 3.50485629595893e-08
4.57833333333333e+01 1.08640411979702e-06 3.37816537826884e-08
4.59322222222222e+01 1.04542954848867e-06 3.25603677105406e-08
4.60811111111111e+01 1.00600036480658e-06 3.13830691176803e-08
4.62300000000000e+01 9.68058283262418e-07 3.02481806878676e-08
4.63788888888889e+01 9.31547216726890e-07 2.91541813938262e-08
4.65277777777778e+01 8.96413193283290e-07 2.80996044727635e-08
4.66766666666667e+01 8.62604276687524e-07 2.70830354694440e-08
4.68255555555556e+01 8.30070489511050e-07 2.61031104312476e-08
4.69744444444444e+01 7.98763739262643e-07 2.51585141002040e-08
