Energy (eV)          EEDF (eV^-(3/2))     First Anisotropy
1.85000000000000e+00 2.70957853950309e-02 8.69943989242814e-05
5.55000000000000e+00 1.91156281531733e-02 1.22911667712830e-04
9.25000000000000e+00 1.34857592929344e-02 1.15244721266265e-04
1.29500000000000e+01 9.51397998798036e-03 9.69327500483800e-05
1.66500000000000e+01 6.71195542242216e-03 7.77797182487504e-05
2.03500000000000e+01 4.73517346573120e-03 6.07575780623410e-05
2.40500000000000e+01 3.34058651159417e-03 4.66388526975145e-05
2.77500000000000e+01 2.35672849626464e-03 3.53630603466004e-05
3.14500000000000e+01 1.66263294958204e-03 2.65690781104112e-05
3.51500000000000e+01 1.17296002887787e-03 1.98211309056914e-05
3.88500000000000e+01 8.27503887548382e-04 1.47038197216428e-05
4.25500000000000e+01 5.83790297238667e-04 1.08575750965114e-05
4.62500000000000e+01 4.11854392804994e-04 7.98680600215034e-06
4.99500000000000e+01 2.90556457815577e-04 5.85610799818362e-06
5.36500000000000e+01 2.04982772196164e-04 4.28196208055938e-06
5.73500000000000e+01 1.44611953260712e-04 3.12345825005479e-06
6.10500000000000e+01 1.02021339656122e-04 2.27362375766056e-06
6.47500000000000e+01 7.19743666449571e-05 1.65195837307564e-06
6.84500000000000e+01 5.07767244716026e-05 1.19830332735192e-06
7.21500000000000e+01 3.58221387453598e-05 8.67954449792270e-07
7.58500000000000e+01 2.52719260181792e-05 6.27846658453286e-07
7.95500000000000e+01 1.78289255482003e-05 4.53619300650615e-07
8.32500000000000e+01 1.25780119004231e-05 3.27384446794999e-07
8.69500000000000e+01 8.87357922604338e-06 2.36044696887685e-07
9.06500000000000e+01 6.26016328369193e-06 1.70034123523751e-07
9.43500000000000e+01 4.41644158914652e-06 1.22381334034618e-07
9.80500000000000e+01 3.11572644776766e-06 8.80155683913890e-08
1.01750000000000e+02 2.19809344273360e-06 6.32548571388733e-08
1.05450000000000e+02 1.55071854477153e-06 4.54297665701981e-08
1.09150000000000e+02 1.09400626849956e-06 3.26076315498461e-08
1.12850000000000e+02 7.71803316308866e-07 2.33909583224646e-08
1.16550000000000e+02 5.44494466089620e-07 1.67703813286440e-08
1.20250000000000e+02 3.84131834286619e-07 1.20176252798046e-08
1.23950000000000e+02 2.70998651597160e-07 8.60772688186986e-09
1.27650000000000e+02 1.91185063596374e-07 6.16260774930874e-09
1.31350000000000e+02 1.34877898199596e-07 4.41019593921683e-09
1.35050000000000e+02 9.51541249119085e-08 3.15485001312958e-09
1.38750000000000e+02 6.71296602972882e-08 2.25598577558565e-09
1.42450000000000e+02 4.73588643246021e-08 1.61264733262506e-09
1.46150000000000e+02 3.34108949782168e-08 1.15238020335517e-09
1.49850000000000e+02 2.35708334472358e-08 8.23214204612656e-10
1.53550000000000e+02 1.66288328929698e-08 5.87891802219820e-10
1.57250000000000e+02 1.17313663940356e-08 4.19716217568888e-10
1.60950000000000e+02 8.27628483351305e-09 2.99566860754232e-10
1.64650000000000e+02 5.83878197515533e-09 2.13755319597368e-10
1.68350000000000e+02 4.11916404995548e-09 1.52486132027897e-10
1.72050000000000e+02 2.90600206389694e-09 1.08752385767120e-10
1.75750000000000e+02 2.05013636091151e-09 7.75437386405206e-11
1.79450000000000e+02 1.44633727227820e-09 5.52787694691297e-11
1.83150000000000e+02 1.02036700829551e-09 3.93983123798033e-11
1.86850000000000e+02 7.19852036985795e-10 2.80742517737967e-11
1.90550000000000e+02 5.07843698335769e-10 2.00010851979033e-11
1.94250000000000e+02 3.58275324216997e-10 1.42467894546839e-11
1.97950000000000e+02 2.52757311675701e-10 1.01461580330543e-11
2.01650000000000e+02 1.78316100181192e-10 7.22454215872707e-12
2.05350000000000e+02 1.25799057495221e-10 5.14334776111994e-12
2.09050000000000e+02 8.87491530523903e-11 3.66109430282653e-12
2.12750000000000e+02 6.26110586545197e-11 2.60560082910220e-12
2.16450000000000e+02 4.41710656497823e-11 1.85412556371201e-12
2.20150000000000e+02 3.11619557721140e-11 1.31918868635707e-12
2.23850000000000e+02 2.19842440579193e-11 9.38454734060567e-13
2.27550000000000e+02 1.55095203373165e-11 6.67514015361730e-13
2.31250000000000e+02 1.09417099109661e-11 4.74733644242564e-13
2.34950000000000e+02 7.71919525374881e-12 3.37585683613621e-13
2.38650000000000e+02 5.44576449662400e-12 2.40029243274346e-13
2.42350000000000e+02 3.84189672340363e-12 1.70644413509667e-13
2.46050000000000e+02 2.71039455386840e-12 1.21302390873949e-13
2.49750000000000e+02 1.91213849994678e-12 8.62179168271512e-14
2.53450000000000e+02 1.34898206527176e-12 6.12742513268268e-14
2.57150000000000e+02 9.51684521009079e-13 4.35423844409940e-14
2.60850000000000e+02 6.71397678920081e-13 3.09386551288551e-14
2.64550000000000e+02 4.73659950653934e-13 2.19809749475531e-14
2.68250000000000e+02 3.34159255978293e-13 1.56152873962399e-14
2.71950000000000e+02 2.35743824661142e-13 1.10920466449816e-14
2.75650000000000e+02 1.66313366670512e-13 7.87831216344101e-15
2.79350000000000e+02 1.17331327652119e-13 5.59519912811470e-15
2.83050000000000e+02 8.27753097914395e-14 3.97337728299623e-15
2.86750000000000e+02 5.83966111027385e-14 2.82141484064903e-15
2.90450000000000e+02 4.11978426523166e-14 2.00326279371992e-15
2.94150000000000e+02 2.90643961550954e-14 1.42224251237874e-15
2.97850000000000e+02 2.05044504633260e-14 1.00965969731811e-15
3.01550000000000e+02 1.44655504473394e-14 7.16709016549866e-16
3.05250000000000e+02 1.02052064315885e-14 5.08719067184844e-16
3.08950000000000e+02 7.19960423839175e-15 3.61061557652502e-16
3.12650000000000e+02 5.07920163466995e-15 2.56243781882157e-16
3.16350000000000e+02 3.58329269101557e-15 1.81842335570124e-16
3.20050000000000e+02 2.52795368898954e-15 1.29034830327817e-16
3.23750000000000e+02 1.78342948922340e-15 9.15566474035443e-17
3.27450000000000e+02 1.25817998837746e-15 6.49597641796500e-17
3.31150000000000e+02 8.87625158560570e-16 4.60862389602285e-17
3.34850000000000e+02 6.26204858913483e-16 3.26942200157791e-17
3.38550000000000e+02 4.41777164093414e-16 2.31923190185504e-17
3.42250000000000e+02 3.11666477729109e-16 1.64509669573652e-17
3.45950000000000e+02 2.19875541868275e-16 1.16684535111204e-17
3.49650000000000e+02 1.55118555784777e-16 8.27580648672653e-18
3.53350000000000e+02 1.09433573849564e-16 5.86925574056443e-18
3.57050000000000e+02 7.72035751938282e-17 4.16228607628420e-18
3.60750000000000e+02 5.44658445579296e-17 2.95159996480106e-18
3.64450000000000e+02 3.84247519102678e-17 2.09295658790537e-18
3.68150000000000e+02 2.71080265320273e-17 1.74029569391279e-18
