Energy (eV)          EEDF (eV^-(3/2))     First Anisotropy
4.82608695652174e-04 6.86402185917841e+01 4.13993259728551e-02
1.44782608695652e-03 6.76179291292768e+01 6.80818586689692e-02
2.41304347826087e-03 6.66108650812424e+01 8.91365277166088e-02
3.37826086956522e-03 6.56187996883501e+01 1.04689128092116e-01
4.34347826086957e-03 6.46415095673489e+01 1.17298860287488e-01
5.30869565217391e-03 6.36787746654419e+01 1.27945276869283e-01
6.27391304347826e-03 6.27303782050851e+01 1.37141230341465e-01
7.23913043478261e-03 6.17961066373760e+01 1.45199928750041e-01
8.20434782608696e-03 6.08757495939198e+01 1.52331396961319e-01
9.16956521739131e-03 5.99690998394494e+01 1.58685683613181e-01
1.01347826086957e-02 5.90759532251663e+01 1.64375037462933e-01
1.11000000000000e-02 5.81961086427557e+01 1.69486423558424e-01
1.20652173913043e-02 5.73293679786586e+01 1.74089102934264e-01
1.30304347826087e-02 5.64755360704145e+01 1.78239480335136e-01
1.39956521739130e-02 5.56344206622148e+01 1.81984342987136e-01
1.49608695652174e-02 5.48058323615893e+01 1.85363103216941e-01
1.59260869565217e-02 5.39895845967641e+01 1.88409398462570e-01
1.68913043478261e-02 5.31854935746550e+01 1.91152262120707e-01
1.78565217391304e-02 5.23933782422108e+01 1.93616999529506e-01
1.88217391304348e-02 5.16130602372610e+01 1.95825855517670e-01
1.97869565217391e-02 5.08443638569668e+01 1.97798531902951e-01
2.07521739130435e-02 5.00871160153052e+01 1.99552594891104e-01
2.17173913043478e-02 4.93411462040970e+01 2.01103799691410e-01
2.26826086956522e-02 4.86062864546142e+01 2.02466352464448e-01
2.36478260869565e-02 4.78823712997494e+01 2.03653123944486e-01
2.46130434782609e-02 4.71692377367805e+01 2.04675825361448e-01
2.55782608695652e-02 4.64667251906554e+01 2.05545154612031e-01
2.65434782608696e-02 4.57746754778361e+01 2.06270918705496e-01
2.75086956521739e-02 4.50929327706811e+01 2.06862137074165e-01
2.84739130434783e-02 4.44213435637852e+01 2.07327129511864e-01
2.94391304347826e-02 4.37597566350505e+01 2.07673591221933e-01
3.04043478260870e-02 4.31080230160891e+01 2.07908657389135e-01
3.13695652173913e-02 4.24659959571648e+01 2.08038959224196e-01
3.23347826086957e-02 4.18335308941499e+01 2.08070672570054e-01
3.33000000000000e-02 4.12104854159738e+01 2.08009560416133e-01
3.42652173913044e-02 4.05967192325547e+01 2.07861010223200e-01
3.52304347826087e-02 3.99920941432135e+01 2.07630066832401e-01
3.61956521739130e-02 3.93964740055570e+01 2.07321461597861e-01
3.71608695652174e-02 3.88097247048208e+01 2.06939638273746e-01
3.81260869565217e-02 3.82317141236710e+01 2.06488776099625e-01
3.90913043478261e-02 3.76623121124558e+01 2.05972810433067e-01
4.00565217391304e-02 3.71013904607435e+01 2.05395451366787e-01
4.10217391304348e-02 3.65488228658801e+01 2.04760200372807e-01
4.19869565217391e-02 3.60044849071678e+01 2.04070365326050e-01
4.29521739130435e-02 3.54682540169616e+01 2.03329074235459e-01
4.39173913043478e-02 3.49400094530708e+01 2.02539287608072e-01
4.48826086956522e-02 3.44196322715720e+01 2.01703809726348e-01
4.58478260869565e-02 3.39070053000241e+01 2.00825298935188e-01
4.68130434782609e-02 3.34020131110899e+01 1.99906277047092e-01
4.77782608695652e-02 3.29045419965424e+01 1.98949137959492e-01
4.87434782608696e-02 3.24144799416620e+01 1.97956155566171e-01
4.97086956521739e-02 3.19317166000142e+01 1.96929491017123e-01
5.06739130434783e-02 3.14561432691658e+01 1.95871199481434e-01
5.16391304347826e-02 3.09876528644940e+01 1.94783236302752e-01
5.26043478260870e-02 3.05261398968161e+01 1.93667462686818e-01
5.35695652173913e-02 3.00715004480469e+01 1.92525651068796e-01
5.45347826086957e-02 2.96236321477992e+01 1.91359490015781e-01
5.55000000000000e-02 2.91824341503337e+01 1.90170588802014e-01
5.64652173913044e-02 2.87478071118512e+01 1.88960481666639e-01
5.74304347826087e-02 2.83196531681240e+01 1.87730631781651e-01
5.83956521739130e-02 2.78978759124603e+01 1.86482434954707e-01
5.93608695652174e-02 2.74823803739962e+01 1.85217223088975e-01
6.03260869565217e-02 2.70730729963113e+01 1.83936267419917e-01
6.12913043478261e-02 2.66698616163627e+01 1.82640781533550e-01
6.22565217391304e-02 2.62726554441148e+01 1.81331924250864e-01
6.32217391304348e-02 2.58813650409335e+01 1.80010802269057e-01
6.41869565217391e-02 2.54959023006272e+01 1.78678472638827e-01
6.51521739130435e-02 2.51161804292093e+01 1.77335945170141e-01
6.61173913043478e-02 2.47421139253548e+01 1.75984184638220e-01
6.70826086956522e-02 2.43736185611479e+01 1.74624112877709e-01
6.80478260869565e-02 2.40106113631163e+01 1.73256610758238e-01
6.90130434782609e-02 2.36530105935490e+01 1.71882520049908e-01
6.99782608695652e-02 2.33007357320914e+01 1.70502645186282e-01
7.09434782608696e-02 2.29537074576144e+01 1.69117754931802e-01
7.19086956521739e-02 2.26118476303540e+01 1.67728583949625e-01
7.28739130434783e-02 2.22750792745926e+01 1.66335834329041e-01
7.38391304347826e-02 2.19433265604866e+01 1.64940176981546e-01
7.48043478260870e-02 2.16165147878440e+01 1.63542252961091e-01
7.57695652173913e-02 2.12945703690159e+01 1.62142674776936e-01
7.67347826086957e-02 2.09774208123270e+01 1.60742027593877e-01
7.77000000000000e-02 2.06649947057532e+01 1.59340870384912e-01
7.86652173913044e-02 2.03572217008411e+01 1.57939737027567e-01
7.96304347826087e-02 2.00540324968683e+01 1.56539137347277e-01
8.05956521739131e-02 1.97553588252392e+01 1.55139558110989e-01
8.15608695652174e-02 1.94611334341128e+01 1.53741463973861e-01
8.25260869565217e-02 1.91712900732599e+01 1.52345298381729e-01
8.34913043478261e-02 1.88857634791454e+01 1.50951484423744e-01
8.44565217391304e-02 1.86044893604323e+01 1.49560425678768e-01
8.54217391304348e-02 1.83274043829002e+01 1.48172506983265e-01
8.63869565217391e-02 1.80544461557976e+01 1.46788095161325e-01
8.73521739130435e-02 1.77855532175862e+01 1.45407539768837e-01
8.83173913043478e-02 1.75206650221019e+01 1.44031173768314e-01
8.92826086956522e-02 1.72597219249217e+01 1.42659314183519e-01
9.02478260869565e-02 1.70026651699334e+01 1.41292262725824e-01
9.12130434782609e-02 1.67494368761060e+01 1.39930306393796e-01
9.21782608695652e-02 1.64999800244565e+01 1.38573718047378e-01
9.31434782608696e-02 1.62542384452112e+01 1.37222756957894e-01
9.41086956521739e-02 1.60121568051578e+01 1.35877669328623e-01
9.50739130434783e-02 1.57736805953360e+01 1.34538688819941e-01
9.60391304347826e-02 1.55387561183089e+01 1.33206037020887e-01
9.70043478260870e-02 1.53073304765328e+01 1.31879923898586e-01
9.79695652173913e-02 1.50793515602905e+01 1.30560548266871e-01
9.89347826086957e-02 1.48547680359586e+01 1.29248098206688e-01
9.99000000000000e-02 1.46335293344478e+01 1.27942751494508e-01
1.00865217391304e-01 1.44155856394274e+01 1.26644675921171e-01
1.01830434782609e-01 1.42008878777974e+01 1.25354029753091e-01
1.02795652173913e-01 1.39893877063909e+01 1.24070962192348e-01
1.03760869565217e-01 1.37810375008530e+01 1.22795613448342e-01
1.04726086956522e-01 1.35757903485339e+01 1.21528115282855e-01
1.05691304347826e-01 1.33736000331123e+01 1.20268591302050e-01
1.06656521739130e-01 1.31744210288996e+01 1.19017157183516e-01
1.07621739130435e-01 1.29782084870655e+01 1.17773921212242e-01
1.08586956521739e-01 1.27849182256828e+01 1.16538984236721e-01
1.09552173913043e-01 1.25945067229873e+01 1.15312440153774e-01
1.10517391304348e-01 1.24069311033067e+01 1.14094376147041e-01
1.11482608695652e-01 1.22221491315885e+01 1.12884872867260e-01
1.12447826086957e-01 1.20401192007613e+01 1.11684004894755e-01
1.13413043478261e-01 1.18608003224929e+01 1.10491840676268e-01
1.14378260869565e-01 1.16841521208125e+01 1.09308442942961e-01
1.15343478260870e-01 1.15101348192217e+01 1.08133868906026e-01
1.16308695652174e-01 1.13387092354568e+01 1.06968170399833e-01
1.17273913043478e-01 1.11698367698858e+01 1.05811394283068e-01
1.18239130434783e-01 1.10034793969258e+01 1.04663582362686e-01
1.19204347826087e-01 1.08395996590216e+01 1.03524771755857e-01
1.20169565217391e-01 1.06781606548285e+01 1.02394995051015e-01
1.21134782608696e-01 1.05191260342166e+01 1.01274280421363e-01
1.22100000000000e-01 1.03624599876093e+01 1.00162651974272e-01
1.23065217391304e-01 1.02081272380150e+01 9.90601296670470e-02
1.24030434782609e-01 1.00560930353503e+01 9.79667295860928e-02
1.24995652173913e-01 9.90632314631263e+00 9.68824642229214e-02
1.25960869565217e-01 9.75878384675922e+00 9.58073423876411e-02
1.26926086956522e-01 9.61344191622339e+00 9.47413694981540e-02
1.27891304347826e-01 9.47026462762703e+00 9.36845476988042e-02
1.28856521739130e-01 9.32921974266191e+00 9.26368759385102e-02
1.29821739130435e-01 9.19027550247340e+00 9.15983502522043e-02
1.30786956521739e-01 9.05340062058735e+00 9.05689636710632e-02
1.31752173913044e-01 8.91856427775111e+00 8.95487064753702e-02
1.32717391304348e-01 8.78573611248388e+00 8.85375662925602e-02
1.33682608695652e-01 8.65488621670042e+00 8.75355281585247e-02
1.34647826086957e-01 8.52598512713622e+00 8.65425747647755e-02
1.35613043478261e-01 8.39900381878311e+00 8.55586863675368e-02
1.36578260869565e-01 8.27391370004146e+00 8.45838410094610e-02
1.37543478260870e-01 8.15068660403488e+00 8.36180146006731e-02
1.38508695652174e-01 8.02929478447104e+00 8.26611809663811e-02
1.39473913043478e-01 7.90971090774645e+00 8.17133120645522e-02
1.40439130434783e-01 7.79190804685280e+00 8.07743778954391e-02
1.41404347826087e-01 7.67585967682733e+00 7.98443466963821e-02
1.42369565217391e-01 7.56153966676530e+00 7.89231850088044e-02
1.43334782608696e-01 7.44892227591147e+00 7.80108577146925e-02
1.44300000000000e-01 7.33798214638734e+00 7.71073282287340e-02
1.45265217391304e-01 7.22869429753473e+00 7.62125584093786e-02
1.46230434782609e-01 7.12103412164967e+00 7.53265087072608e-02
1.47195652173913e-01 7.01497737706226e+00 7.44491383136599e-02
1.48160869565217e-01 6.91050018272775e+00 7.35804050733923e-02
1.49126086956522e-01 6.80757901411909e+00 7.27202656435557e-02
1.50091304347826e-01 6.70619069624042e+00 7.18686755428250e-02
1.51056521739130e-01 6.60631240006549e+00 7.10255891744683e-02
1.52021739130435e-01 6.50792163615807e+00 7.01909599839161e-02
1.52986956521739e-01 6.41099624965260e+00 6.93647403742939e-02
1.53952173913043e-01 6.31551441640687e+00 6.85468818466635e-02
1.54917391304348e-01 6.22145463656890e+00 6.77373350404885e-02
1.55882608695652e-01 6.12879573122573e+00 6.69360497501466e-02
1.56847826086957e-01 6.03751683652006e+00 6.61429750646279e-02
1.57813043478261e-01 5.94759739899244e+00 6.53580592861522e-02
1.58778260869565e-01 5.85901717198004e+00 6.45812500542470e-02
1.59743478260870e-01 5.77175620969072e+00 6.38124943788288e-02
1.60708695652174e-01 5.68579486405290e+00 6.30517386513979e-02
1.61673913043478e-01 5.60111377928852e+00 6.22989287690963e-02
1.62639130434783e-01 5.51769388759009e+00 6.15540100567025e-02
1.63604347826087e-01 5.43551640575233e+00 6.08169273765203e-02
1.64569565217391e-01 5.35456282971132e+00 6.00876251553007e-02
1.65534782608696e-01 5.27481493158605e+00 5.93660473911035e-02
1.66500000000000e-01 5.19625475467083e+00 5.86521377636056e-02
1.67465217391304e-01 5.11886460942326e+00 5.79458395596454e-02
1.68430434782609e-01 5.04262707031529e+00 5.72470957554178e-02
1.69395652173913e-01 4.96752497106332e+00 5.65558490996047e-02
1.70360869565217e-01 4.89354140079203e+00 5.58720420413809e-02
1.71326086956522e-01 4.82065970100845e+00 5.51956168209253e-02
1.72291304347826e-01 4.74886346081070e+00 5.45265154884888e-02
1.73256521739130e-01 4.67813651421352e+00 5.38646799061040e-02
1.74221739130435e-01 4.60846293574463e+00 5.32100518389553e-02
1.75186956521739e-01 4.53982703688520e+00 5.25625728869948e-02
1.76152173913043e-01 4.47221336324290e+00 5.19221845653545e-02
1.77117391304348e-01 4.40560669013293e+00 5.12888283194643e-02
1.78082608695652e-01 4.33999202007156e+00 5.06624455242897e-02
1.79047826086957e-01 4.27535457870967e+00 5.00429775657663e-02
1.80013043478261e-01 4.21167981152989e+00 4.94303657760168e-02
1.80978260869565e-01 4.14895338120664e+00 4.88245515048493e-02
1.81943478260870e-01 4.08716116352948e+00 4.82254761315529e-02
1.82908695652174e-01 4.02628924505538e+00 4.76330810621542e-02
1.83873913043478e-01 3.96632391935317e+00 4.70473078020722e-02
1.84839130434783e-01 3.90725168393841e+00 4.64680978948739e-02
1.85804347826087e-01 3.84905923780929e+00 4.58953929858766e-02
1.86769565217391e-01 3.79173347768468e+00 4.53291348311753e-02
1.87734782608696e-01 3.73526149580645e+00 4.47692652933194e-02
1.88700000000000e-01 3.67963057647023e+00 4.42157264061839e-02
1.89665217391304e-01 3.62482819318099e+00 4.36684603171810e-02
1.90630434782609e-01 3.57084200635385e+00 4.31274093337308e-02
1.91595652173913e-01 3.51765986000697e+00 4.25925159707815e-02
1.92560869565217e-01 3.46526977904200e+00 4.20637228952122e-02
1.93526086956522e-01 3.41365996703745e+00 4.15409729785248e-02
1.94491304347826e-01 3.36281880294084e+00 4.10242093023544e-02
1.95456521739130e-01 3.31273483909173e+00 4.05133751523932e-02
1.96421739130435e-01 3.26339679816552e+00 4.00084140724221e-02
1.97386956521739e-01 3.21479357065018e+00 3.95092698119674e-02
1.98352173913043e-01 3.16691421278807e+00 3.90158863732535e-02
1.99317391304348e-01 3.11974794352173e+00 3.85282080149502e-02
2.00282608695652e-01 3.07328414264562e+00 3.80461792453036e-02
2.01247826086957e-01 3.02751234798140e+00 3.75697448704323e-02
2.02213043478261e-01 2.98242225303671e+00 3.70988499451110e-02
2.03178260869565e-01 2.93800370508606e+00 3.66334398146280e-02
2.04143478260870e-01 2.89424670235015e+00 3.61734601170591e-02
2.05108695652174e-01 2.85114139226873e+00 3.57188567758101e-02
2.06073913043478e-01 2.80867806888951e+00 3.52695760428197e-02
2.07039130434783e-01 2.76684717069558e+00 3.48255644523259e-02
2.08004347826087e-01 2.72563927881669e+00 3.43867688581822e-02
2.08969565217391e-01 2.68504511442366e+00 3.39531364349251e-02
2.09934782608696e-01 2.64505553711506e+00 3.35246146698943e-02
2.10900000000000e-01 2.60566154250315e+00 3.31011514018904e-02
2.11865217391304e-01 2.56685426019797e+00 3.26826947777943e-02
2.12830434782609e-01 2.52862495214037e+00 3.22691932790451e-02
2.13795652173913e-01 2.49096501029964e+00 3.18605957490443e-02
2.14760869565217e-01 2.45386595474605e+00 3.14568513515196e-02
2.15726086956522e-01 2.41731943205245e+00 3.10579096015187e-02
2.16691304347826e-01 2.38131721299956e+00 3.06637203649757e-02
2.17656521739130e-01 2.34585119112932e+00 3.02742338504968e-02
2.18621739130435e-01 2.31091338061568e+00 2.98894006416496e-02
2.19586956521739e-01 2.27649591447627e+00 2.95091716579362e-02
2.20552173913044e-01 2.24259104308327e+00 2.91334981824486e-02
2.21517391304348e-01 2.20919113204282e+00 2.87623318606971e-02
2.22482608695652e-01 2.17628866084489e+00 2.83956246923035e-02
2.23447826086957e-01 2.14387622089396e+00 2.80333290599061e-02
2.24413043478261e-01 2.11194651384980e+00 2.76753976926049e-02
2.25378260869565e-01 2.08049235024040e+00 2.73217836906361e-02
2.26343478260870e-01 2.04950664750200e+00 2.69724405236089e-02
2.27308695652174e-01 2.01898242871938e+00 2.66273220221857e-02
2.28273913043478e-01 1.98891282080428e+00 2.62863824039634e-02
2.29239130434783e-01 1.95929105295587e+00 2.59495762392571e-02
2.30204347826087e-01 1.93011045536902e+00 2.56168584731124e-02
2.31169565217391e-01 1.90136445742257e+00 2.52881844230702e-02
2.32134782608696e-01 1.87304658650424e+00 2.49635097708987e-02
2.33100000000000e-01 1.84515046632557e+00 2.46427905857770e-02
2.34065217391304e-01 1.81766981549339e+00 2.43259832922849e-02
2.35030434782609e-01 1.79059844630715e+00 2.40130446854596e-02
2.35995652173913e-01 1.76393026315117e+00 2.37039319465970e-02
2.36960869565217e-01 1.73765926112887e+00 2.33986026125662e-02
2.37926086956522e-01 1.71177952491018e+00 2.30970145940993e-02
2.38891304347826e-01 1.68628522713413e+00 2.27991261730095e-02
2.39856521739130e-01 1.66117062735751e+00 2.25048959941524e-02
2.40821739130435e-01 1.63643007056720e+00 2.22142830848083e-02
2.41786956521739e-01 1.61205798591304e+00 2.19272468259924e-02
2.42752173913044e-01 1.58804888563493e+00 2.16437469687696e-02
2.43717391304348e-01 1.56439736358566e+00 2.13637436312263e-02
2.44682608695652e-01 1.54109809425087e+00 2.10871972906127e-02
2.45647826086957e-01 1.51814583137243e+00 2.08140688006968e-02
2.46613043478261e-01 1.49553540677278e+00 2.05443193649523e-02
2.47578260869565e-01 1.47326172935637e+00 2.02779105511124e-02
2.48543478260870e-01 1.45131978374349e+00 2.00148042879579e-02
2.49508695652174e-01 1.42970462935691e+00 1.97549628576671e-02
2.50473913043478e-01 1.40841139914793e+00 1.94983489113576e-02
2.51439130434783e-01 1.38743529850555e+00 1.92449254440388e-02
2.52404347826087e-01 1.36677160432719e+00 1.89946558075870e-02
2.53369565217391e-01 1.34641566375514e+00 1.87475037074080e-02
2.54334782608696e-01 1.32636289332544e+00 1.85034331950180e-02
2.55300000000000e-01 1.30660877778885e+00 1.82624086819598e-02
2.56265217391304e-01 1.28714886909872e+00 1.80243949164130e-02
2.57230434782609e-01 1.26797878554632e+00 1.77893569916614e-02
2.58195652173913e-01 1.24909421063559e+00 1.75572603551312e-02
2.59160869565217e-01 1.23049089211544e+00 1.73280707859824e-02
2.60126086956522e-01 1.21216464115153e+00 1.71017544058730e-02
2.61091304347826e-01 1.19411133121114e+00 1.68782776755191e-02
2.62056521739130e-01 1.17632689730293e+00 1.66576073876917e-02
2.63021739130435e-01 1.15880733493527e+00 1.64397106788459e-02
2.63986956521739e-01 1.14154869921850e+00 1.62245550082027e-02
2.64952173913043e-01 1.12454710409438e+00 1.60121081673376e-02
2.65917391304348e-01 1.10779872130442e+00 1.58023382767190e-02
2.66882608695652e-01 1.09129977968178e+00 1.55952137789702e-02
2.67847826086957e-01 1.07504656418704e+00 1.53907034492733e-02
2.68813043478261e-01 1.05903541507521e+00 1.51887763758491e-02
2.69778260869565e-01 1.04326272717901e+00 1.49894019684965e-02
2.70743478260870e-01 1.02772494895427e+00 1.47925499551354e-02
2.71708695652174e-01 1.01241858182056e+00 1.45981903753376e-02
2.72673913043478e-01 9.97340179268493e-01 1.44062935896374e-02
2.73639130434783e-01 9.82486346086922e-01 1.42168302613178e-02
2.74604347826087e-01 9.67853737696229e-01 1.40297713640091e-02
2.75569565217391e-01 9.53439059265094e-01 1.38450881782638e-02
2.76534782608696e-01 9.39239065096493e-01 1.36627522853579e-02
2.77500000000000e-01 9.25250557801234e-01 1.34827355756189e-02
2.78465217391304e-01 9.11470387580919e-01 1.33050102314378e-02
2.79430434782609e-01 8.97895451607914e-01 1.31295487319223e-02
2.80395652173913e-01 8.84522693236359e-01 1.29563238579800e-02
2.81360869565217e-01 8.71349101316652e-01 1.27853086760500e-02
2.82326086956522e-01 8.58371709601709e-01 1.26164765443824e-02
2.83291304347826e-01 8.45587595966940e-01 1.24498011097043e-02
2.84256521739130e-01 8.32993881862459e-01 1.22852563014636e-02
2.85221739130435e-01 8.20587731582513e-01 1.21228163387719e-02
2.86186956521739e-01 8.08366351629489e-01 1.19624557152311e-02
2.87152173913044e-01 7.96326990161781e-01 1.18041492045153e-02
2.88117391304348e-01 7.84466936271869e-01 1.16478718571090e-02
2.89082608695652e-01 7.72783519476445e-01 1.14935989948166e-02
2.90047826086957e-01 7.61274109039899e-01 1.13413062169655e-02
2.91013043478261e-01 7.49936113384265e-01 1.11909693862601e-02
2.91978260869565e-01 7.38766979575830e-01 1.10425646337352e-02
2.92943478260870e-01 7.27764192656935e-01 1.08960683555795e-02
2.93908695652174e-01 7.16925275171445e-01 1.07514572079068e-02
2.94873913043478e-01 7.06247786538274e-01 1.06087081122949e-02
2.95839130434783e-01 6.95729322503926e-01 1.04677982425982e-02
2.96804347826087e-01 6.85367514665188e-01 1.03287050293424e-02
2.97769565217391e-01 6.75160029850596e-01 1.01914061566398e-02
2.98734782608696e-01 6.65104569678861e-01 1.00558795572147e-02
2.99700000000000e-01 6.55198869978694e-01 9.92210341734915e-03
3.00665217391304e-01 6.45440700280873e-01 9.79005616459140e-03
3.01630434782609e-01 6.35827863374500e-01 9.65971647021601e-03
3.02595652173913e-01 6.26358194753043e-01 9.53106325200047e-03
3.03560869565217e-01 6.17029562128726e-01 9.40407566245757e-03
3.04526086956522e-01 6.07839865007715e-01 9.27873309244356e-03
