Energy (eV)          EEDF (eV^-(3/2))     First Anisotropy
1.74137931034483e-02 2.25282701902773e-01 1.56297710992016e-04
5.22413793103448e-02 2.22607662046684e-01 2.57425047132051e-04
8.70689655172414e-02 2.19964386006412e-01 3.38068077880497e-04
1.21896551724138e-01 2.17352496600694e-01 3.98271371116134e-04
1.56724137931034e-01 2.14771621161706e-01 4.47610589617436e-04
1.91551724137931e-01 2.12221391420680e-01 4.89733567548059e-04
2.26379310344828e-01 2.09701443483895e-01 5.26541625391487e-04
2.61206896551724e-01 2.07211417780170e-01 5.59190939804403e-04
2.96034482758621e-01 2.04750958999600e-01 5.88453570473024e-04
3.30862068965517e-01 2.02319716069758e-01 6.14878883790751e-04
3.65689655172414e-01 1.99917342076769e-01 6.38876260178258e-04
4.00517241379310e-01 1.97543494226197e-01 6.60761690242755e-04
4.35344827586207e-01 1.95197833794234e-01 6.80785946194837e-04
4.70172413793103e-01 1.92880026074227e-01 6.99152566296054e-04
5.05000000000000e-01 1.90589740344316e-01 7.16029850728722e-04
5.39827586206897e-01 1.88326649804125e-01 7.31559153466952e-04
5.74655172413793e-01 1.86090431533806e-01 7.45860786156223e-04
6.09482758620690e-01 1.83880766444302e-01 7.59038330881319e-04
6.44310344827586e-01 1.81697339243147e-01 7.71181861145386e-04
6.79137931034483e-01 1.79539838377693e-01 7.82370392930476e-04
7.13965517241379e-01 1.77407955994701e-01 7.92673779687742e-04
7.48793103448276e-01 1.75301387896463e-01 8.02154201776043e-04
7.83620689655172e-01 1.73219833494717e-01 8.10867350370936e-04
8.18448275862069e-01 1.71162995775959e-01 8.18863381889875e-04
8.53275862068965e-01 1.69130581250603e-01 8.26187694858609e-04
8.88103448275862e-01 1.67122299913987e-01 8.32881567112015e-04
9.22931034482759e-01 1.65137865205038e-01 8.38982685296846e-04
9.57758620689655e-01 1.63176993963313e-01 8.44525586433996e-04
9.92586206896552e-01 1.61239406394874e-01 8.49542030798014e-04
1.02741379310345e+00 1.59324826025926e-01 8.54061319009614e-04
1.06224137931034e+00 1.57432979658250e-01 8.58110557284792e-04
1.09706896551724e+00 1.55563597362881e-01 8.61714895038646e-04
1.13189655172414e+00 1.53716412380840e-01 8.64897720642393e-04
1.16672413793103e+00 1.51891161153992e-01 8.67680835341523e-04
1.20155172413793e+00 1.50087583222149e-01 8.70084606887163e-04
1.23637931034483e+00 1.48305421233714e-01 8.72128094460158e-04
1.27120689655172e+00 1.46544420906949e-01 8.73829175928090e-04
1.30603448275862e+00 1.44804330951298e-01 8.75204645480052e-04
1.34086206896552e+00 1.43084903074155e-01 8.76270299716626e-04
1.37568965517241e+00 1.41385891943810e-01 8.77041028861402e-04
1.41051724137931e+00 1.39707055116321e-01 8.77530882816644e-04
1.44534482758621e+00 1.38048153050769e-01 8.77753137239669e-04
1.48017241379310e+00 1.36408949027451e-01 8.77720353791251e-04
1.51500000000000e+00 1.34789209149100e-01 8.77444426524953e-04
1.54982758620690e+00 1.33188702306222e-01 8.76936638161447e-04
1.58465517241379e+00 1.31607200112589e-01 8.76207698744708e-04
1.61948275862069e+00 1.30044476904363e-01 8.75267780449198e-04
1.65431034482759e+00 1.28500309706754e-01 8.74126561392646e-04
1.68913793103448e+00 1.26974478173546e-01 8.72793252734343e-04
1.72396551724138e+00 1.25466764593274e-01 8.71276629314175e-04
1.75879310344828e+00 1.23976953822009e-01 8.69585058396336e-04
1.79362068965517e+00 1.22504833279286e-01 8.67726519482495e-04
1.82844827586207e+00 1.21050192916890e-01 8.65708634597675e-04
1.86327586206897e+00 1.19612825164628e-01 8.63538685795469e-04
1.89810344827586e+00 1.18192524925113e-01 8.61223631123942e-04
1.93293103448276e+00 1.16789089543656e-01 8.58770129599216e-04
1.96775862068966e+00 1.15402318757138e-01 8.56184553434749e-04
2.00258620689655e+00 1.14032014694669e-01 8.53473004394594e-04
2.03741379310345e+00 1.12677981821146e-01 8.50641329512082e-04
2.07224137931034e+00 1.11340026930165e-01 8.47695130166083e-04
2.10706896551724e+00 1.10017959115818e-01 8.44639780774795e-04
2.14189655172414e+00 1.08711589726344e-01 8.41480436430497e-04
2.17672413793103e+00 1.07420732362329e-01 8.38222044543913e-04
2.21155172413793e+00 1.06145202825828e-01 8.34869356191262e-04
2.24637931034483e+00 1.04884819112052e-01 8.31426931766252e-04
2.28120689655172e+00 1.03639401382822e-01 8.27899155503977e-04
2.31603448275862e+00 1.02408771924408e-01 8.24290241095706e-04
2.35086206896552e+00 1.01192755138779e-01 8.20604236862999e-04
2.38568965517241e+00 9.99911775180510e-02 8.16845038466650e-04
2.42051724137931e+00 9.88038676044183e-02 8.13016392455078e-04
2.45534482758621e+00 9.76306559858564e-02 8.09121903505326e-04
2.49017241379310e+00 9.64713752524018e-02 8.05165041624540e-04
2.52500000000000e+00 9.53258599867419e-02 8.01149144688052e-04
2.55982758620690e+00 9.41939467401780e-02 7.97077428770385e-04
2.59465517241379e+00 9.30754739959353e-02 7.92952991006426e-04
2.62948275862069e+00 9.19702821595729e-02 7.88778812229577e-04
2.66431034482759e+00 9.08782135358134e-02 7.84557766222217e-04
2.69913793103448e+00 8.97991122936009e-02 7.80292621218920e-04
2.73396551724138e+00 8.87328244602799e-02 7.75986044712832e-04
2.76879310344828e+00 8.76791978836839e-02 7.71640608325753e-04
2.80362068965517e+00 8.66380822222384e-02 7.67258788761466e-04
2.83844827586207e+00 8.56093289231754e-02 7.62842975570482e-04
2.87327586206897e+00 8.45927911903783e-02 7.58395472552294e-04
2.90810344827586e+00 8.35883239744674e-02 7.53918499040928e-04
2.94293103448276e+00 8.25957839517808e-02 7.49414196971983e-04
2.97775862068965e+00 8.16150294936996e-02 7.44884631316022e-04
3.01258620689655e+00 8.06459206599458e-02 7.40331793434373e-04
3.04741379310345e+00 7.96883191654751e-02 7.35757604537866e-04
3.08224137931034e+00 7.87420883704875e-02 7.31163915806093e-04
3.11706896551724e+00 7.78070932606678e-02 7.26552514456993e-04
3.15189655172414e+00 7.68832004188514e-02 7.21925123795324e-04
3.18672413793103e+00 7.59702780179573e-02 7.17283405945142e-04
3.22155172413793e+00 7.50681957905231e-02 7.12628964693887e-04
3.25637931034483e+00 7.41768250187744e-02 7.07963345314348e-04
3.29120689655172e+00 7.32960385160143e-02 7.03288039835531e-04
3.32603448275862e+00 7.24257106004221e-02 6.98604487328724e-04
3.36086206896552e+00 7.15657170852293e-02 6.93914074153281e-04
3.39568965517241e+00 7.07159352607819e-02 6.89218138837725e-04
3.43051724137931e+00 6.98762438694700e-02 6.84517971740721e-04
3.46534482758621e+00 6.90465230984159e-02 6.79814817076838e-04
3.50017241379310e+00 6.82266545526398e-02 6.75109875056228e-04
3.53500000000000e+00 6.74165212454011e-02 6.70404301409336e-04
3.56982758620690e+00 6.66160075813105e-02 6.65699211684383e-04
3.60465517241379e+00 6.58249993330857e-02 6.60995681211343e-04
3.63948275862069e+00 6.50433836320498e-02 6.56294745046800e-04
3.67431034482759e+00 6.42710489518446e-02 6.51597401981674e-04
3.70913793103448e+00 6.35078850861703e-02 6.46904614001285e-04
3.74396551724138e+00 6.27537831414539e-02 6.42217307828573e-04
3.77879310344828e+00 6.20086355131202e-02 6.37536376576159e-04
3.81362068965517e+00 6.12723358763248e-02 6.32862679123156e-04
3.84844827586207e+00 6.05447791706244e-02 6.28197043679989e-04
3.88327586206897e+00 5.98258615792928e-02 6.23540267570102e-04
3.91810344827586e+00 5.91154805202407e-02 6.18893117004370e-04
3.95293103448276e+00 5.84135346312253e-02 6.14256330423245e-04
3.98775862068965e+00 5.77199237500282e-02 6.09630617861978e-04
4.02258620689655e+00 5.70345489072562e-02 6.05016662152042e-04
4.05741379310345e+00 5.63573123052916e-02 6.00415120223416e-04
4.09224137931034e+00 5.56881173094868e-02 5.95826622418623e-04
4.12706896551724e+00 5.50268684342459e-02 5.91251775488719e-04
4.16189655172414e+00 5.43734713245737e-02 5.86691161938017e-04
4.19672413793103e+00 5.37278327489956e-02 5.82145341058874e-04
4.23155172413793e+00 5.30898605800165e-02 5.77614850061410e-04
4.26637931034483e+00 5.24594637856175e-02 5.73100203380221e-04
4.30120689655172e+00 5.18365524161452e-02 5.68601895370896e-04
4.33603448275862e+00 5.12210375871294e-02 5.64120399958472e-04
4.37086206896552e+00 5.06128314709787e-02 5.59656170288222e-04
4.40568965517241e+00 5.00118472843391e-02 5.55209641269015e-04
4.44051724137931e+00 4.94179992716025e-02 5.50781228907925e-04
4.47534482758621e+00 4.88312026981072e-02 5.46371331137667e-04
4.51017241379310e+00 4.82513738327310e-02 5.41980328729947e-04
4.54500000000000e+00 4.76784299398998e-02 5.37608584607056e-04
4.57982758620690e+00 4.71122892676821e-02 5.33256446142876e-04
4.61465517241379e+00 4.65528710324113e-02 5.28924244781949e-04
4.64948275862069e+00 4.60000954108984e-02 5.24612295663508e-04
4.68431034482759e+00 4.54538835289476e-02 5.20320899797654e-04
4.71913793103448e+00 4.49141574465915e-02 5.16050343415122e-04
4.75396551724138e+00 4.43808401516190e-02 5.11800898637372e-04
4.78879310344828e+00 4.38538555440373e-02 5.07572824223639e-04
4.82362068965517e+00 4.33331284285991e-02 5.03366364907464e-04
4.85844827586207e+00 4.28185845039892e-02 4.99181753373627e-04
4.89327586206897e+00 4.23101503490411e-02 4.95019209870179e-04
4.92810344827586e+00 4.18077534154651e-02 4.90878941827016e-04
4.96293103448276e+00 4.13113220174161e-02 4.86761145729465e-04
4.99775862068965e+00 4.08207853182539e-02 4.82666006497509e-04
5.03258620689655e+00 4.03360733244251e-02 4.78593698034046e-04
5.06741379310345e+00 3.98571168715697e-02 4.74544383841901e-04
5.10224137931034e+00 3.93838476175595e-02 4.70518216396050e-04
5.13706896551724e+00 3.89161980326763e-02 4.66515338851457e-04
5.17189655172414e+00 3.84541013872400e-02 4.62535884447784e-04
5.20672413793103e+00 3.79974917457104e-02 4.58579976993948e-04
5.24155172413793e+00 3.75463039537303e-02 4.54647731416725e-04
5.27637931034483e+00 3.71004736314724e-02 4.50739253161107e-04
5.31120689655172e+00 3.66599371643871e-02 4.46854639749745e-04
5.34603448275862e+00 3.62246316916392e-02 4.42993980411200e-04
5.38086206896552e+00 3.57944950996431e-02 4.39157355715598e-04
5.41568965517241e+00 3.53694660131392e-02 4.35344839056524e-04
5.45051724137931e+00 3.49494837840781e-02 4.31556496094578e-04
5.48534482758621e+00 3.45344884860912e-02 4.27792385159056e-04
5.52017241379310e+00 3.41244209028784e-02 4.24052557706678e-04
5.55500000000000e+00 3.37192225220395e-02 4.20337057763939e-04
5.58982758620690e+00 3.33188355266699e-02 4.16645923283591e-04
5.62465517241379e+00 3.29232027849621e-02 4.12979185790787e-04
5.65948275862069e+00 3.25322678442182e-02 4.09336870036440e-04
5.69431034482759e+00 3.21459749227421e-02 4.05718995287846e-04
5.72913793103448e+00 3.17642688998415e-02 4.02125574812904e-04
5.76396551724138e+00 3.13870953106648e-02 3.98556616215131e-04
5.79879310344828e+00 3.10144003357812e-02 3.95012121819435e-04
5.83362068965517e+00 3.06461307954741e-02 3.91492088157159e-04
5.86844827586207e+00 3.02822341421064e-02 3.87996507149931e-04
5.90327586206897e+00 2.99226584507617e-02 3.84525365776644e-04
5.93810344827586e+00 2.95673524137096e-02 3.81078645747495e-04
5.97293103448276e+00 2.92162653330393e-02 3.77656324631561e-04
6.00775862068966e+00 2.88693471116590e-02 3.74258375381379e-04
6.04258620689655e+00 2.85265482484901e-02 3.70884766613856e-04
6.07741379310345e+00 2.81878198291070e-02 3.67535462936349e-04
6.11224137931034e+00 2.78531135204685e-02 3.64210424473379e-04
6.14706896551724e+00 2.75223815639816e-02 3.60909607902683e-04
6.18189655172414e+00 2.71955767670716e-02 3.57632966006009e-04
6.21672413793103e+00 2.68726524985887e-02 3.54380447920688e-04
6.25155172413793e+00 2.65535626800553e-02 3.51151999433244e-04
6.28637931034483e+00 2.62382617806554e-02 3.47947562532759e-04
6.32120689655172e+00 2.59267048107012e-02 3.44767076363777e-04
6.35603448275862e+00 2.56188473137367e-02 3.41610476930250e-04
6.39086206896552e+00 2.53146453616820e-02 3.38477696805915e-04
6.42568965517241e+00 2.50140555485298e-02 3.35368666043172e-04
6.46051724137931e+00 2.47170349827483e-02 3.32283311761518e-04
6.49534482758621e+00 2.44235412830224e-02 3.29221558359940e-04
6.53017241379310e+00 2.41335325703800e-02 3.26183327766658e-04
6.56500000000000e+00 2.38469674635777e-02 3.23168539030771e-04
6.59982758620690e+00 2.35638050731644e-02 3.20177109159325e-04
6.63465517241379e+00 2.32840049943613e-02 3.17208952843474e-04
6.66948275862069e+00 2.30075273025914e-02 3.14263982190707e-04
6.70431034482759e+00 2.27343325477524e-02 3.11342107523759e-04
6.73913793103448e+00 2.24643817473648e-02 3.08443237004558e-04
6.77396551724138e+00 2.21976363826313e-02 3.05567276814105e-04
6.80879310344828e+00 2.19340583913489e-02 3.02714131365621e-04
6.84362068965517e+00 2.16736101636646e-02 2.99883702932011e-04
6.87844827586207e+00 2.14162545366810e-02 2.97075892382531e-04
6.91327586206897e+00 2.11619547880327e-02 2.94290598930516e-04
6.94810344827586e+00 2.09106746317759e-02 2.91527719886687e-04
6.98293103448276e+00 2.06623782131844e-02 2.88787151362666e-04
7.01775862068965e+00 2.04170301025658e-02 2.86068787928071e-04
7.05258620689655e+00 2.01745952916228e-02 2.83372522763267e-04
7.08741379310345e+00 1.99350391870671e-02 2.80698247841768e-04
7.12224137931034e+00 1.96983276067203e-02 2.78045853590955e-04
7.15706896551724e+00 1.94644267746119e-02 2.75415229541480e-04
7.19189655172414e+00 1.92333033151809e-02 2.72806264004673e-04
7.22672413793103e+00 1.90049242498122e-02 2.70218844210320e-04
7.26155172413793e+00 1.87792569908555e-02 2.67652856471995e-04
7.29637931034483e+00 1.85562693379268e-02 2.65108185868082e-04
7.33120689655172e+00 1.83359294732919e-02 2.62584716841573e-04
7.36603448275862e+00 1.81182059564263e-02 2.60082332980866e-04
7.40086206896552e+00 1.79030677204358e-02 2.57600916805438e-04
7.43568965517241e+00 1.76904840676024e-02 2.55140350339133e-04
7.47051724137931e+00 1.74804246641472e-02 2.52700514816637e-04
7.50534482758621e+00 1.72728595370392e-02 2.50281290800884e-04
7.54017241379310e+00 1.70677590686013e-02 2.47882558325044e-04
7.57500000000000e+00 1.68650939931177e-02 2.45504196602540e-04
7.60982758620690e+00 1.66648353926385e-02 2.43146084557010e-04
7.64465517241379e+00 1.64669546920658e-02 2.40808100621607e-04
7.67948275862069e+00 1.62714236558698e-02 2.38490122542770e-04
7.71431034482759e+00 1.60782143840419e-02 2.36192027886948e-04
7.74913793103448e+00 1.58872993073628e-02 2.33913693773780e-04
7.78396551724138e+00 1.56986511844649e-02 2.31654996976342e-04
7.81879310344828e+00 1.55122430969666e-02 2.29415814043285e-04
7.85362068965517e+00 1.53280484463612e-02 2.27196021035444e-04
7.88844827586207e+00 1.51460409502054e-02 2.24995493994637e-04
7.92327586206896e+00 1.49661946376775e-02 2.22814108760196e-04
7.95810344827586e+00 1.47884838465686e-02 2.20651740789585e-04
7.99293103448276e+00 1.46128832196040e-02 2.18508265606823e-04
8.02775862068965e+00 1.44393677001670e-02 2.16383558560099e-04
8.06258620689655e+00 1.42679125295975e-02 2.14277494907468e-04
8.09741379310345e+00 1.40984932428002e-02 2.12189949922110e-04
8.13224137931034e+00 1.39310856653946e-02 2.10120798653238e-04
8.16706896551724e+00 1.37656659102510e-02 2.08069916341231e-04
8.20189655172414e+00 1.36022103734754e-02 2.06037178189981e-04
8.23672413793103e+00 1.34406957318464e-02 2.04022459444427e-04
8.27155172413793e+00 1.32810989386964e-02 2.02025635486318e-04
8.30637931034483e+00 1.31233972212132e-02 2.00046581609730e-04
8.34120689655172e+00 1.29675680771770e-02 1.98085173405525e-04
8.37603448275862e+00 1.28135892711910e-02 1.96141286603351e-04
8.41086206896552e+00 1.26614388320716e-02 1.94214796917184e-04
8.44568965517241e+00 1.25110950497005e-02 1.92305580413299e-04
8.48051724137931e+00 1.23625364713939e-02 1.90413513303626e-04
8.51534482758621e+00 1.22157418995489e-02 1.88538472012150e-04
8.55017241379310e+00 1.20706903879235e-02 1.86680333257599e-04
8.58500000000000e+00 1.19273612391667e-02 1.84838973849786e-04
8.61982758620690e+00 1.17857340018532e-02 1.83014271030600e-04
8.65465517241379e+00 1.16457884670743e-02 1.81206102329967e-04
8.68948275862069e+00 1.15075046660488e-02 1.79414345425003e-04
8.72431034482759e+00 1.13708628672633e-02 1.77638878466461e-04
8.75913793103448e+00 1.12358435731868e-02 1.75879579891254e-04
8.79396551724138e+00 1.11024275181118e-02 1.74136328479351e-04
8.82879310344827e+00 1.09705956647932e-02 1.72409003425238e-04
8.86362068965517e+00 1.08403292021884e-02 1.70697484153233e-04
8.89844827586207e+00 1.07116095427629e-02 1.69001650620157e-04
8.93327586206897e+00 1.05844183194057e-02 1.67321383184109e-04
8.96810344827586e+00 1.04587373832440e-02 1.65656562476126e-04
9.00293103448276e+00 1.03345488010442e-02 1.64007069690018e-04
9.03775862068965e+00 1.02118348522394e-02 1.62372786412344e-04
9.07258620689655e+00 1.00905780269500e-02 1.60753594671186e-04
9.10741379310345e+00 9.97076102294531e-03 1.59149376997930e-04
9.14224137931034e+00 9.85236674357733e-03 1.57560016259850e-04
9.17706896551724e+00 9.73537829533256e-03 1.55985395928974e-04
9.21189655172414e+00 9.61977898503964e-03 1.54425399922437e-04
9.24672413793103e+00 9.50555231799398e-03 1.52879912646684e-04
9.28155172413793e+00 9.39268199510608e-03 1.51348819053771e-04
9.31637931034483e+00 9.28115191094768e-03 1.49832004484221e-04
9.35120689655172e+00 9.17094615144523e-03 1.48329354916515e-04
9.38603448275862e+00 9.06204899125678e-03 1.46840756854500e-04
9.42086206896552e+00 8.95444489188322e-03 1.45366097217295e-04
9.45568965517241e+00 8.84811849944324e-03 1.43905263578307e-04
9.49051724137931e+00 8.74305464214574e-03 1.42458144020457e-04
9.52534482758621e+00 8.63923832857199e-03 1.41024627174075e-04
9.56017241379310e+00 8.53665474509698e-03 1.39604602265679e-04
9.59500000000000e+00 8.43528925410370e-03 1.38197958975504e-04
9.62982758620690e+00 8.33512739188728e-03 1.36804587659355e-04
9.66465517241379e+00 8.23615486628003e-03 1.35424379246190e-04
9.69948275862069e+00 8.13835755492558e-03 1.34057225137913e-04
9.73431034482759e+00 8.04172150325678e-03 1.32703017421948e-04
9.76913793103448e+00 7.94623292220730e-03 1.31361648740005e-04
9.80396551724138e+00 7.85187818663872e-03 1.30033012320576e-04
9.83879310344827e+00 7.75864383300823e-03 1.28717002021168e-04
9.87362068965517e+00 7.66651655773726e-03 1.27413512199188e-04
9.90844827586207e+00 7.57548321530677e-03 1.26122437909358e-04
9.94327586206897e+00 7.48553081610671e-03 1.24843674810522e-04
9.97810344827586e+00 7.39664652485947e-03 1.23577119074498e-04
1.00129310344828e+01 7.30881765878228e-03 1.22322667487680e-04
1.00477586206897e+01 7.22203168576998e-03 1.21080217654644e-04
1.00825862068966e+01 7.13627622201560e-03 1.19849667702618e-04
1.01174137931034e+01 7.05153903110460e-03 1.18630916195430e-04
1.01522413793103e+01 6.96780802191874e-03 1.17423862437666e-04
1.01870689655172e+01 6.88507124691204e-03 1.16228406353703e-04
1.02218965517241e+01 6.80331690040532e-03 1.15044448220057e-04
1.02567241379310e+01 6.72253331767924e-03 1.13871889482075e-04
1.02915517241379e+01 6.64270897095660e-03 1.12710632209073e-04
1.03263793103448e+01 6.56383247013163e-03 1.11560578536256e-04
1.03612068965517e+01 6.48589256034629e-03 1.10421631508277e-04
1.03960344827586e+01 6.40887812038391e-03 1.09293694796572e-04
1.04308620689655e+01 6.33277816108297e-03 1.08176672699882e-04
1.04656896551724e+01 6.25758182376892e-03 1.07070469899966e-04
1.05005172413793e+01 6.18327837940304e-03 1.05974992203081e-04
1.05353448275862e+01 6.10985722493782e-03 1.04890146043827e-04
1.05701724137931e+01 6.03730788393647e-03 1.03815837977051e-04
1.06050000000000e+01 5.96562000436087e-03 1.02751975443598e-04
1.06398275862069e+01 5.89478335709425e-03 1.01698466512667e-04
1.06746551724138e+01 5.82478783448179e-03 1.00655219881363e-04
1.07094827586207e+01 5.75562344888864e-03 9.96221448744613e-05
1.07443103448276e+01 5.68728033127451e-03 9.85991512240730e-05
1.07791379310345e+01 5.61974873040411e-03 9.75861497341197e-05
1.08139655172414e+01 5.55301900958353e-03 9.65830518341976e-05
1.08487931034483e+01 5.48708164717397e-03 9.55897691227278e-05
1.08836206896552e+01 5.42192723459782e-03 9.46062140532552e-05
1.09184482758621e+01 5.35754647499607e-03 9.36322997022313e-05
1.09532758620690e+01 5.29393018190218e-03 9.26679397679878e-05
1.09881034482759e+01 5.23106927793105e-03 9.17130483697380e-05
