Energy (eV)          EEDF (eV^-(3/2))     First Anisotropy
3.20000000000000e-02 8.54295519948025e-02 5.82873874005137e-05
9.60000000000000e-02 8.44528740625409e-02 9.60216634731832e-05
1.60000000000000e-01 8.34873620531079e-02 1.26158533203433e-04
2.24000000000000e-01 8.25328883114789e-02 1.48691313665508e-04
2.88000000000000e-01 8.15893266420631e-02 1.67186384109656e-04
3.52000000000000e-01 8.06565522920090e-02 1.83001423546031e-04
4.16000000000000e-01 7.97344419347095e-02 1.96843622173466e-04
4.80000000000000e-01 7.88228736534958e-02 2.09142746485809e-04
5.44000000000000e-01 7.79217269255175e-02 2.20185606347628e-04
6.08000000000000e-01 7.70308826058089e-02 2.30176162278758e-04
6.72000000000000e-01 7.61502229115351e-02 2.39266314198620e-04
7.36000000000000e-01 7.52796314064198e-02 2.47573243884057e-04
8.00000000000000e-01 7.44189929853509e-02 2.55189896676726e-04
8.64000000000000e-01 7.35681938591614e-02 2.62191671916648e-04
9.28000000000000e-01 7.27271215395853e-02 2.68640883884889e-04
9.92000000000000e-01 7.18956648243845e-02 2.74589844480027e-04
1.05600000000000e+00 7.10737137826467e-02 2.80083058074595e-04
1.12000000000000e+00 7.02611597402505e-02 2.85158824402530e-04
1.18400000000000e+00 6.94578952654971e-02 2.89850434972190e-04
1.24800000000000e+00 6.86638141549067e-02 2.94187083209060e-04
1.31200000000000e+00 6.78788114191761e-02 2.98194568478275e-04
1.37600000000000e+00 6.71027832692983e-02 3.01895848779875e-04
1.44000000000000e+00 6.63356271028393e-02 3.05311480408240e-04
1.50400000000000e+00 6.55772414903731e-02 3.08459971864295e-04
1.56800000000000e+00 6.48275261620713e-02 3.11358071811406e-04
1.63200000000000e+00 6.40863819944452e-02 3.14021005656669e-04
1.69600000000000e+00 6.33537109972412e-02 3.16462671655847e-04
1.76000000000000e+00 6.26294163004841e-02 3.18695804793928e-04
1.82400000000000e+00 6.19134021416701e-02 3.20732114764409e-04
1.88800000000000e+00 6.12055738531054e-02 3.22582402945501e-04
1.95200000000000e+00 6.05058378493896e-02 3.24256662206058e-04
2.01600000000000e+00 5.98141016150423e-02 3.25764162568443e-04
2.08000000000000e+00 5.91302736922716e-02 3.27113525139889e-04
2.14400000000000e+00 5.84542636688813e-02 3.28312786249076e-04
2.20800000000000e+00 5.77859821663178e-02 3.29369453354882e-04
2.27200000000000e+00 5.71253408278525e-02 3.30290554003935e-04
2.33600000000000e+00 5.64722523068998e-02 3.31082678884121e-04
2.40000000000000e+00 5.58266302554687e-02 3.31752019837995e-04
2.46400000000000e+00 5.51883893127462e-02 3.32304403553150e-04
2.52800000000000e+00 5.45574450938112e-02 3.32745321528099e-04
2.59200000000000e+00 5.39337141784781e-02 3.33079956815537e-04
2.65600000000000e+00 5.33171141002666e-02 3.33313207966108e-04
2.72000000000000e+00 5.27075633354993e-02 3.33449710531007e-04
2.78400000000000e+00 5.21049812925224e-02 3.33493856428116e-04
2.84800000000000e+00 5.15092883010504e-02 3.33449811431932e-04
2.91200000000000e+00 5.09204056016328e-02 3.33321531010476e-04
2.97600000000000e+00 5.03382553352406e-02 3.33112774701224e-04
3.04000000000000e+00 4.97627605329724e-02 3.32827119191924e-04
3.10400000000000e+00 4.91938451058779e-02 3.32467970250152e-04
3.16800000000000e+00 4.86314338348976e-02 3.32038573626671e-04
3.23200000000000e+00 4.80754523609183e-02 3.31542025041542e-04
3.29600000000000e+00 4.75258271749411e-02 3.30981279348497e-04
3.36000000000000e+00 4.69824856083626e-02 3.30359158961342e-04
3.42400000000000e+00 4.64453558233674e-02 3.29678361615966e-04
3.48800000000000e+00 4.59143668034294e-02 3.28941467533059e-04
3.55200000000000e+00 4.53894483439231e-02 3.28150946038989e-04
3.61600000000000e+00 4.48705310428409e-02 3.27309161695717e-04
3.68000000000000e+00 4.43575462916174e-02 3.26418379985192e-04
3.74400000000000e+00 4.38504262660585e-02 3.25480772588537e-04
3.80800000000000e+00 4.33491039173736e-02 3.24498422295969e-04
3.87200000000000e+00 4.28535129633111e-02 3.23473327579759e-04
3.93600000000000e+00 4.23635878793948e-02 3.22407406859080e-04
4.00000000000000e+00 4.18792638902605e-02 3.21302502482676e-04
4.06400000000000e+00 4.14004769610919e-02 3.20160384452750e-04
4.12800000000000e+00 4.09271637891542e-02 3.18982753911088e-04
4.19200000000000e+00 4.04592617954244e-02 3.17771246406423e-04
4.25600000000000e+00 3.99967091163177e-02 3.16527434960228e-04
4.32000000000000e+00 3.95394445955079e-02 3.15252832946580e-04
4.38400000000000e+00 3.90874077758417e-02 3.13948896800172e-04
4.44800000000000e+00 3.86405388913458e-02 3.12617028565356e-04
4.51200000000000e+00 3.81987788593242e-02 3.11258578297982e-04
4.57600000000000e+00 3.77620692725471e-02 3.09874846330680e-04
4.64000000000000e+00 3.73303523915287e-02 3.08467085411288e-04
4.70400000000000e+00 3.69035711368927e-02 3.07036502723392e-04
4.76800000000000e+00 3.64816690818259e-02 3.05584261797163e-04
4.83200000000000e+00 3.60645904446178e-02 3.04111484317927e-04
4.89600000000000e+00 3.56522800812851e-02 3.02619251839429e-04
4.96000000000000e+00 3.52446834782812e-02 3.01108607407974e-04
5.02400000000000e+00 3.48417467452885e-02 2.99580557103353e-04
5.08800000000000e+00 3.44434166080933e-02 2.98036071501950e-04
5.15200000000000e+00 3.40496404015422e-02 2.96476087066890e-04
5.21600000000000e+00 3.36603660625790e-02 2.94901507469799e-04
5.28000000000000e+00 3.32755421233613e-02 2.93313204848477e-04
5.34400000000000e+00 3.28951177044554e-02 2.91712021004309e-04
5.40800000000000e+00 3.25190425081095e-02 2.90098768543084e-04
5.47200000000000e+00 3.21472668116035e-02 2.88474231962519e-04
5.53600000000000e+00 3.17797414606752e-02 2.86839168689687e-04
5.60000000000000e+00 3.14164178630209e-02 2.85194310071211e-04
5.66400000000000e+00 3.10572479818710e-02 2.83540362318881e-04
5.72800000000000e+00 3.07021843296390e-02 2.81878007413250e-04
5.79200000000000e+00 3.03511799616427e-02 2.80207903967519e-04
5.85600000000000e+00 3.00041884698974e-02 2.78530688053930e-04
5.92000000000000e+00 2.96611639769804e-02 2.76846973994658e-04
5.98400000000000e+00 2.93220611299649e-02 2.75157355119115e-04
6.04800000000000e+00 2.89868350944239e-02 2.73462404489456e-04
6.11200000000000e+00 2.86554415485025e-02 2.71762675595960e-04
6.17600000000000e+00 2.83278366770576e-02 2.70058703023805e-04
6.24000000000000e+00 2.80039771658653e-02 2.68351003092744e-04
6.30400000000000e+00 2.76838201958936e-02 2.66640074471041e-04
6.36800000000000e+00 2.73673234376417e-02 2.64926398764888e-04
6.43200000000000e+00 2.70544450455428e-02 2.63210441084628e-04
6.49600000000000e+00 2.67451436524320e-02 2.61492650588839e-04
6.56000000000000e+00 2.64393783640766e-02 2.59773461007339e-04
6.62400000000000e+00 2.61371087537694e-02 2.58053291144179e-04
6.68800000000000e+00 2.58382948569839e-02 2.56332545361542e-04
6.75200000000000e+00 2.55428971660899e-02 2.54611614045405e-04
6.81600000000000e+00 2.52508766251304e-02 2.52890874053877e-04
6.88000000000000e+00 2.49621946246579e-02 2.51170689148913e-04
6.94400000000000e+00 2.46768129966292e-02 2.49451410412271e-04
7.00800000000000e+00 2.43946940093595e-02 2.47733376646330e-04
7.07200000000000e+00 2.41158003625334e-02 2.46016914760482e-04
7.13600000000000e+00 2.38400951822735e-02 2.44302340143719e-04
7.20000000000000e+00 2.35675420162648e-02 2.42589957024019e-04
7.26400000000000e+00 2.32981048289354e-02 2.40880058815100e-04
7.32800000000000e+00 2.30317479966921e-02 2.39172928451067e-04
7.39200000000000e+00 2.27684363032103e-02 2.37468838709505e-04
7.45600000000000e+00 2.25081349347777e-02 2.35768052523453e-04
7.52000000000000e+00 2.22508094756921e-02 2.34070823282735e-04
7.58400000000000e+00 2.19964259037101e-02 2.32377395125157e-04
7.64800000000000e+00 2.17449505855499e-02 2.30688003217827e-04
7.71200000000000e+00 2.14963502724437e-02 2.29002874029125e-04
7.77600000000000e+00 2.12505920957422e-02 2.27322225591712e-04
7.84000000000000e+00 2.10076435625685e-02 2.25646267756803e-04
7.90400000000000e+00 2.07674725515224e-02 2.23975202440146e-04
7.96800000000000e+00 2.05300473084334e-02 2.22309223860056e-04
8.03200000000000e+00 2.02953364421621e-02 2.20648518767734e-04
8.09600000000000e+00 2.00633089204500e-02 2.18993266670180e-04
8.16000000000000e+00 1.98339340658167e-02 2.17343640046024e-04
8.22400000000000e+00 1.96071815515035e-02 2.15699804554516e-04
8.28800000000000e+00 1.93830213974642e-02 2.14061919237921e-04
8.35200000000000e+00 1.91614239664010e-02 2.12430136717608e-04
8.41600000000000e+00 1.89423599598462e-02 2.10804603383977e-04
8.48000000000000e+00 1.87258004142882e-02 2.09185459580546e-04
8.54400000000000e+00 1.85117166973424e-02 2.07572839782366e-04
8.60800000000000e+00 1.83000805039656e-02 2.05966872768947e-04
8.67200000000000e+00 1.80908638527134e-02 2.04367681791937e-04
8.73600000000000e+00 1.78840390820406e-02 2.02775384737690e-04
8.80000000000000e+00 1.76795788466445e-02 2.01190094284968e-04
8.86400000000000e+00 1.74774561138487e-02 1.99611918057862e-04
8.92800000000000e+00 1.72776441600294e-02 1.98040958774191e-04
8.99200000000000e+00 1.70801165670821e-02 1.96477314389443e-04
9.05600000000000e+00 1.68848472189288e-02 1.94921078236478e-04
9.12000000000000e+00 1.66918102980647e-02 1.93372339161117e-04
9.18400000000000e+00 1.65009802821452e-02 1.91831181653738e-04
9.24800000000000e+00 1.63123319406113e-02 1.90297685977035e-04
9.31200000000000e+00 1.61258403313536e-02 1.88771928290060e-04
9.37600000000000e+00 1.59414807974148e-02 1.87253980768665e-04
9.44000000000000e+00 1.57592289637294e-02 1.85743911722463e-04
9.50400000000000e+00 1.55790607339014e-02 1.84241785708450e-04
9.56800000000000e+00 1.54009522870180e-02 1.82747663641339e-04
9.63200000000000e+00 1.52248800745003e-02 1.81261602900769e-04
9.69600000000000e+00 1.50508208169897e-02 1.79783657435449e-04
9.76000000000000e+00 1.48787515012703e-02 1.78313877864359e-04
9.82400000000000e+00 1.47086493772258e-02 1.76852311575103e-04
9.88800000000000e+00 1.45404919548319e-02 1.75399002819460e-04
9.95200000000000e+00 1.43742570011829e-02 1.73953992806287e-04
1.00160000000000e+01 1.42099225375517e-02 1.72517319791809e-04
1.00800000000000e+01 1.40474668364843e-02 1.71089019167405e-04
1.01440000000000e+01 1.38868684189271e-02 1.69669123544939e-04
1.02080000000000e+01 1.37281060513868e-02 1.68257662839709e-04
1.02720000000000e+01 1.35711587431230e-02 1.66854664351131e-04
1.03360000000000e+01 1.34160057433734e-02 1.65460152841186e-04
1.04000000000000e+01 1.32626265386098e-02 1.64074150610720e-04
1.04640000000000e+01 1.31110008498257e-02 1.62696677573625e-04
1.05280000000000e+01 1.29611086298559e-02 1.61327751329012e-04
1.05920000000000e+01 1.28129300607251e-02 1.59967387231413e-04
1.06560000000000e+01 1.26664455510284e-02 1.58615598459067e-04
1.07200000000000e+01 1.25216357333404e-02 1.57272396080330e-04
1.07840000000000e+01 1.23784814616549e-02 1.55937789118303e-04
1.08480000000000e+01 1.22369638088536e-02 1.54611784613728e-04
1.09120000000000e+01 1.20970640642034e-02 1.53294387686143e-04
1.09760000000000e+01 1.19587637308826e-02 1.51985601593418e-04
1.10400000000000e+01 1.18220445235354e-02 1.50685427789663e-04
1.11040000000000e+01 1.16868883658543e-02 1.49393865981614e-04
1.11680000000000e+01 1.15532773881904e-02 1.48110914183475e-04
1.12320000000000e+01 1.14211939251903e-02 1.46836568770302e-04
1.12960000000000e+01 1.12906205134606e-02 1.45570824529966e-04
1.13600000000000e+01 1.11615398892593e-02 1.44313674713703e-04
1.14240000000000e+01 1.10339349862129e-02 1.43065111085346e-04
1.14880000000000e+01 1.09077889330603e-02 1.41825123969227e-04
1.15520000000000e+01 1.07830850514218e-02 1.40593702296794e-04
1.16160000000000e+01 1.06598068535943e-02 1.39370833652017e-04
1.16800000000000e+01 1.05379380403712e-02 1.38156504315567e-04
1.17440000000000e+01 1.04174624988875e-02 1.36950699307821e-04
1.18080000000000e+01 1.02983643004894e-02 1.35753402430730e-04
1.18720000000000e+01 1.01806276986281e-02 1.34564596308583e-04
1.19360000000000e+01 1.00642371267784e-02 1.33384262427680e-04
1.20000000000000e+01 9.94917719637990e-03 1.32212381174977e-04
1.20640000000000e+01 9.83543269480293e-03 1.31048931875673e-04
1.21280000000000e+01 9.72298858333699e-03 1.29893892829828e-04
1.21920000000000e+01 9.61182999520242e-03 1.28747241348012e-04
1.22560000000000e+01 9.50194223358485e-03 1.27608953786003e-04
1.23200000000000e+01 9.39331076969200e-03 1.26479005578573e-04
1.23840000000000e+01 9.28592124083278e-03 1.25357371272377e-04
1.24480000000000e+01 9.17975944851836e-03 1.24244024557970e-04
1.25120000000000e+01 9.07481135658489e-03 1.23138938300994e-04
1.25760000000000e+01 8.97106308933769e-03 1.22042084572525e-04
1.26400000000000e+01 8.86850092971675e-03 1.20953434678619e-04
1.27040000000000e+01 8.76711131748304e-03 1.19872959189087e-04
1.27680000000000e+01 8.66688084742570e-03 1.18800627965489e-04
1.28320000000000e+01 8.56779626758968e-03 1.17736410188413e-04
1.28960000000000e+01 8.46984447752361e-03 1.16680274384017e-04
1.29600000000000e+01 8.37301252654771e-03 1.15632188449863e-04
1.30240000000000e+01 8.27728761204157e-03 1.14592119680072e-04
1.30880000000000e+01 8.18265707775142e-03 1.13560034789819e-04
1.31520000000000e+01 8.08910841211677e-03 1.12535899939166e-04
1.32160000000000e+01 7.99662924661622e-03 1.11519680756256e-04
1.32800000000000e+01 7.90520735413218e-03 1.10511342359917e-04
1.33440000000000e+01 7.81483064733420e-03 1.09510849381637e-04
1.34080000000000e+01 7.72548717708092e-03 1.08518165986955e-04
1.34720000000000e+01 7.63716513084014e-03 1.07533255896297e-04
1.35360000000000e+01 7.54985283112711e-03 1.06556082405243e-04
1.36000000000000e+01 7.46353873396052e-03 1.05586608404255e-04
1.36640000000000e+01 7.37821142733625e-03 1.04624796397868e-04
1.37280000000000e+01 7.29385962971853e-03 1.03670608523376e-04
1.37920000000000e+01 7.21047218854836e-03 1.02724006569013e-04
1.38560000000000e+01 7.12803807876897e-03 1.01784951991634e-04
1.39200000000000e+01 7.04654640136813e-03 1.00853405933933e-04
1.39840000000000e+01 6.96598638193715e-03 9.99293292411867e-05
1.40480000000000e+01 6.88634736924637e-03 9.90126824775388e-05
1.41120000000000e+01 6.80761883383686e-03 9.81034259418550e-05
1.41760000000000e+01 6.72979036662829e-03 9.72015196831354e-05
1.42400000000000e+01 6.65285167754271e-03 9.63069235155034e-05
1.43040000000000e+01 6.57679259414405e-03 9.54195970328014e-05
1.43680000000000e+01 6.50160306029314e-03 9.45394996227656e-05
1.44320000000000e+01 6.42727313481816e-03 9.36665904808213e-05
1.44960000000000e+01 6.35379299020028e-03 9.28008286234952e-05
1.45600000000000e+01 6.28115291127432e-03 9.19421729014562e-05
1.46240000000000e+01 6.20934329394420e-03 9.10905820121987e-05
1.46880000000000e+01 6.13835464391323e-03 9.02460145123553e-05
1.47520000000000e+01 6.06817757542876e-03 8.94084288296903e-05
1.48160000000000e+01 5.99880281004125e-03 8.85777832747432e-05
1.48800000000000e+01 5.93022117537754e-03 8.77540360521368e-05
1.49440000000000e+01 5.86242360392813e-03 8.69371452715839e-05
1.50080000000000e+01 5.79540113184828e-03 8.61270689585704e-05
1.50720000000000e+01 5.72914489777291e-03 8.53237650647317e-05
1.51360000000000e+01 5.66364614164497e-03 8.45271914779451e-05
1.52000000000000e+01 5.59889620355722e-03 8.37373060321206e-05
1.52640000000000e+01 5.53488652260728e-03 8.29540665167154e-05
1.53280000000000e+01 5.47160863576574e-03 8.21774306859718e-05
1.53920000000000e+01 5.40905417675723e-03 8.14073562678863e-05
1.54560000000000e+01 5.34721487495429e-03 8.06438009729180e-05
1.55200000000000e+01 5.28608255428382e-03 7.98867225024337e-05
1.55840000000000e+01 5.22564913214612e-03 7.91360785569134e-05
1.56480000000000e+01 5.16590661834627e-03 7.83918268439115e-05
1.57120000000000e+01 5.10684711403765e-03 7.76539250857783e-05
1.57760000000000e+01 5.04846281067765e-03 7.69223310271475e-05
1.58400000000000e+01 4.99074598899523e-03 7.61970024421974e-05
1.59040000000000e+01 4.93368901797034e-03 7.54778971417051e-05
1.59680000000000e+01 4.87728435382496e-03 7.47649729798651e-05
1.60320000000000e+01 4.82152453902574e-03 7.40581878609109e-05
1.60960000000000e+01 4.76640220129796e-03 7.33574997455381e-05
1.61600000000000e+01 4.71191005265082e-03 7.26628666571062e-05
1.62240000000000e+01 4.65804088841389e-03 7.19742466876654e-05
1.62880000000000e+01 4.60478758628450e-03 7.12915980037906e-05
1.63520000000000e+01 4.55214310538610e-03 7.06148788522218e-05
1.64160000000000e+01 4.50010048533733e-03 6.99440475653310e-05
1.64800000000000e+01 4.44865284533177e-03 6.92790625664140e-05
1.65440000000000e+01 4.39779338322818e-03 6.86198823748010e-05
1.66080000000000e+01 4.34751537465118e-03 6.79664656108118e-05
1.66720000000000e+01 4.29781217210215e-03 6.73187710005388e-05
1.67360000000000e+01 4.24867720408037e-03 6.66767573804673e-05
1.68000000000000e+01 4.20010397421416e-03 6.60403837019538e-05
1.68640000000000e+01 4.15208606040193e-03 6.54096090355446e-05
1.69280000000000e+01 4.10461711396314e-03 6.47843925751415e-05
1.69920000000000e+01 4.05769085879887e-03 6.41646936420303e-05
1.70560000000000e+01 4.01130109056202e-03 6.35504716887649e-05
1.71200000000000e+01 3.96544167583705e-03 6.29416863029150e-05
1.71840000000000e+01 3.92010655132900e-03 6.23382972106820e-05
1.72480000000000e+01 3.87528972306187e-03 6.17402642803814e-05
1.73120000000000e+01 3.83098526558610e-03 6.11475475257989e-05
1.73760000000000e+01 3.78718732119516e-03 6.05601071094226e-05
1.74400000000000e+01 3.74389009915105e-03 5.99779033455527e-05
1.75040000000000e+01 3.70108787491871e-03 5.94008967032932e-05
1.75680000000000e+01 3.65877498940911e-03 5.88290478094316e-05
1.76320000000000e+01 3.61694584823109e-03 5.82623174512049e-05
1.76960000000000e+01 3.57559492095165e-03 5.77006665789482e-05
1.77600000000000e+01 3.53471674036475e-03 5.71440563086492e-05
1.78240000000000e+01 3.49430590176849e-03 5.65924479243948e-05
1.78880000000000e+01 3.45435706225052e-03 5.60458028807100e-05
1.79520000000000e+01 3.41486493998161e-03 5.55040828048062e-05
1.80160000000000e+01 3.37582431351733e-03 5.49672494987265e-05
1.80800000000000e+01 3.33723002110770e-03 5.44352649413966e-05
1.81440000000000e+01 3.29907696001471e-03 5.39080912905948e-05
1.82080000000000e+01 3.26136008583767e-03 5.33856908848221e-05
1.82720000000000e+01 3.22407441184631e-03 5.28680262450846e-05
1.83360000000000e+01 3.18721500832138e-03 5.23550600766014e-05
1.84000000000000e+01 3.15077700190292e-03 5.18467552704219e-05
1.84640000000000e+01 3.11475557494593e-03 5.13430749049611e-05
1.85280000000000e+01 3.07914596488338e-03 5.08439822474633e-05
1.85920000000000e+01 3.04394346359657e-03 5.03494407553830e-05
1.86560000000000e+01 3.00914341679258e-03 4.98594140776974e-05
1.87200000000000e+01 2.97474122338897e-03 4.93738660561417e-05
1.87840000000000e+01 2.94073233490542e-03 4.88927607263756e-05
1.88480000000000e+01 2.90711225486234e-03 4.84160623190815e-05
1.89120000000000e+01 2.87387653818640e-03 4.79437352609939e-05
1.89760000000000e+01 2.84102079062281e-03 4.74757441758671e-05
1.90400000000000e+01 2.80854066815432e-03 4.70120538853765e-05
1.91040000000000e+01 2.77643187642689e-03 4.65526294099549e-05
1.91680000000000e+01 2.74469017018193e-03 4.60974359695786e-05
1.92320000000000e+01 2.71331135269498e-03 4.56464389844892e-05
1.92960000000000e+01 2.68229127522087e-03 4.51996040758508e-05
1.93600000000000e+01 2.65162583644517e-03 4.47568970663653e-05
1.94240000000000e+01 2.62131098194194e-03 4.43182839808270e-05
1.94880000000000e+01 2.59134270363772e-03 4.38837310466230e-05
1.95520000000000e+01 2.56171703928151e-03 4.34532046941872e-05
1.96160000000000e+01 2.53243007192101e-03 4.30266715574022e-05
1.96800000000000e+01 2.50347792938464e-03 4.26040984739494e-05
1.97440000000000e+01 2.47485678376967e-03 4.21854524856180e-05
1.98080000000000e+01 2.44656285093605e-03 4.17707008385682e-05
1.98720000000000e+01 2.41859239000610e-03 4.13598109835417e-05
1.99360000000000e+01 2.39094170286997e-03 4.09527505760398e-05
2.00000000000000e+01 2.36360713369661e-03 4.05494874764528e-05
2.00640000000000e+01 2.33658506845046e-03 4.01499897501506e-05
2.01280000000000e+01 2.30987193441363e-03 3.97542256675339e-05
2.01920000000000e+01 2.28346419971351e-03 3.93621637040446e-05
