Energy (eV)          EEDF (eV^-(3/2))     First Anisotropy
2.22413793103448e-03 4.94098496405170e+00 3.32275362030233e-03
6.67241379310345e-03 4.88227108336567e+00 5.47260851949976e-03
1.11206896551724e-02 4.82425490158527e+00 7.18693703822818e-03
1.55689655172414e-02 4.76692812783678e+00 8.46671341111997e-03
2.00172413793103e-02 4.71028257014898e+00 9.51551325007580e-03
2.44655172413793e-02 4.65431013331682e+00 1.04108894283707e-02
2.89137931034483e-02 4.59900281864141e+00 1.11932644917753e-02
3.33620689655172e-02 4.54435272264784e+00 1.18872193632277e-02
3.78103448275862e-02 4.49035203541858e+00 1.25091686603932e-02
4.22586206896552e-02 4.43699304001432e+00 1.30707924808591e-02
4.67068965517241e-02 4.38426811131799e+00 1.35807947755406e-02
5.11551724137931e-02 4.33216971457865e+00 1.40458939903615e-02
5.56034482758621e-02 4.28069040479248e+00 1.44714219762502e-02
6.00517241379310e-02 4.22982282524138e+00 1.48617063752994e-02
6.45000000000000e-02 4.17955970671816e+00 1.52203256165261e-02
6.89482758620690e-02 4.12989386646793e+00 1.55502852214924e-02
7.33965517241379e-02 4.08081820694425e+00 1.58541433267967e-02
7.78448275862069e-02 4.03232571501265e+00 1.61341023724525e-02
8.22931034482759e-02 3.98440946093435e+00 1.63920775974593e-02
8.67413793103448e-02 3.93706259719941e+00 1.66297491199382e-02
9.11896551724138e-02 3.89027835777524e+00 1.68486022503661e-02
9.56379310344828e-02 3.84405005693091e+00 1.70499591520108e-02
1.00086206896552e-01 3.79837108843161e+00 1.72350040192729e-02
1.04534482758621e-01 3.75323492450333e+00 1.74048033634443e-02
1.08982758620690e-01 3.70863511498841e+00 1.75603225151261e-02
1.13431034482759e-01 3.66456528637585e+00 1.77024391645635e-02
1.17879310344828e-01 3.62101914124094e+00 1.78319547044832e-02
1.22327586206897e-01 3.57799045627569e+00 1.79496035651815e-02
1.26775862068966e-01 3.53547308248913e+00 1.80560610657094e-02
1.31224137931034e-01 3.49346094395845e+00 1.81519502321665e-02
1.35672413793103e-01 3.45194803695884e+00 1.82378474940131e-02
1.40120689655172e-01 3.41092842910982e+00 1.83142876048991e-02
1.44568965517241e-01 3.37039625852526e+00 1.83817678647733e-02
1.49017241379310e-01 3.33034573322875e+00 1.84407518869531e-02
1.53465517241379e-01 3.29077112955475e+00 1.84916727583878e-02
1.57913793103448e-01 3.25166679211439e+00 1.85349358006030e-02
1.62362068965517e-01 3.21302713272174e+00 1.85709211305095e-02
1.66810344827586e-01 3.17484662959433e+00 1.85999858199632e-02
1.71258620689655e-01 3.13711982656574e+00 1.86224658354564e-02
1.75706896551724e-01 3.09984133230550e+00 1.86386777420640e-02
1.80155172413793e-01 3.06300581973997e+00 1.86489203114132e-02
1.84603448275862e-01 3.02660802470780e+00 1.86534758563478e-02
1.89051724137931e-01 2.99064274579961e+00 1.86526114247155e-02
1.93500000000000e-01 2.95510484341437e+00 1.86465799859205e-02
1.97948275862069e-01 2.91998923902460e+00 1.86356214164573e-02
2.02396551724138e-01 2.88529091445105e+00 1.86199634138116e-02
2.06844827586207e-01 2.85100491114594e+00 1.85998223265207e-02
2.11293103448276e-01 2.81712632948400e+00 1.85754038912264e-02
2.15741379310345e-01 2.78365032820785e+00 1.85469039777050e-02
2.20189655172414e-01 2.75057212329353e+00 1.85145091813814e-02
2.24637931034483e-01 2.71788698771555e+00 1.84783973624096e-02
2.29086206896552e-01 2.68559025061960e+00 1.84387382335420e-02
2.33534482758621e-01 2.65367729665499e+00 1.83956938279809e-02
2.37982758620690e-01 2.62214356531570e+00 1.83494189485924e-02
2.42431034482759e-01 2.59098455028830e+00 1.83000615668041e-02
2.46879310344828e-01 2.56019579892468e+00 1.82477632538589e-02
2.51327586206897e-01 2.52977291125114e+00 1.81926595036751e-02
2.55775862068966e-01 2.49971153969884e+00 1.81348800293854e-02
2.60224137931034e-01 2.47000738836116e+00 1.80745491190046e-02
2.64672413793103e-01 2.44065621237945e+00 1.80117859032723e-02
2.69120689655172e-01 2.41165381733722e+00 1.79467046208651e-02
2.73568965517241e-01 2.38299605866030e+00 1.78794148522354e-02
2.78017241379310e-01 2.35467884111970e+00 1.78100217921222e-02
2.82465517241379e-01 2.32669811795758e+00 1.77386264378610e-02
2.86913793103448e-01 2.29904989060133e+00 1.76653257633803e-02
2.91362068965517e-01 2.27173020799343e+00 1.75902129519284e-02
2.95810344827586e-01 2.24473516602671e+00 1.75133775596655e-02
3.00258620689655e-01 2.21806090698671e+00 1.74349056829859e-02
3.04706896551724e-01 2.19170361900037e+00 1.73548801040618e-02
3.09155172413793e-01 2.16565953556974e+00 1.72733804751225e-02
3.13603448275862e-01 2.13992493479536e+00 1.71904834338796e-02
3.18051724137931e-01 2.11449613908560e+00 1.71062627105259e-02
3.22500000000000e-01 2.08936951454974e+00 1.70207892895499e-02
3.26948275862069e-01 2.06454147047857e+00 1.69341315147040e-02
3.31396551724138e-01 2.04000845883139e+00 1.68463552001858e-02
3.35844827586207e-01 2.01576697372903e+00 1.67575237359538e-02
3.40293103448276e-01 1.99181355095280e+00 1.66676981772204e-02
3.44741379310345e-01 1.96814476751347e+00 1.65769373701243e-02
3.49189655172414e-01 1.94475724096771e+00 1.64852980206098e-02
3.53637931034483e-01 1.92164762913141e+00 1.63928347583164e-02
3.58086206896552e-01 1.89881262953563e+00 1.62996002498003e-02
3.62534482758621e-01 1.87624897895471e+00 1.62056452646723e-02
3.66982758620690e-01 1.85395345294013e+00 1.61110187489055e-02
3.71431034482759e-01 1.83192286535953e+00 1.60157678856225e-02
3.75879310344828e-01 1.81015406799545e+00 1.59199381889404e-02
3.80327586206897e-01 1.78864394993167e+00 1.58235735490202e-02
3.84775862068966e-01 1.76738943727425e+00 1.57267162737673e-02
3.89224137931034e-01 1.74638749265637e+00 1.56294071749354e-02
3.93672413793103e-01 1.72563511480424e+00 1.55316856136891e-02
3.98120689655172e-01 1.70512933810840e+00 1.54335895532997e-02
4.02568965517241e-01 1.68486723219979e+00 1.53351556015904e-02
4.07017241379310e-01 1.66484590157684e+00 1.52364190832733e-02
4.11465517241379e-01 1.64506248505274e+00 1.51374140698783e-02
4.15913793103448e-01 1.62551415548702e+00 1.50381734073355e-02
4.20362068965517e-01 1.60619811933418e+00 1.49387287833338e-02
4.24810344827586e-01 1.58711161624445e+00 1.48391107594373e-02
4.29258620689655e-01 1.56825191866940e+00 1.47393488099697e-02
4.33706896551724e-01 1.54961633147218e+00 1.46394713522836e-02
4.38155172413793e-01 1.53120219158140e+00 1.45395058039599e-02
4.42603448275862e-01 1.51300686749208e+00 1.44394786028411e-02
4.47051724137931e-01 1.49502775900936e+00 1.43394152253549e-02
4.51500000000000e-01 1.47726229683657e+00 1.42393402404178e-02
4.55948275862069e-01 1.45970794220803e+00 1.41392773324700e-02
4.60396551724138e-01 1.44236218652630e+00 1.40392493307899e-02
4.64844827586207e-01 1.42522255100369e+00 1.39392782377224e-02
4.69293103448276e-01 1.40828658630804e+00 1.38393852496497e-02
4.73741379310345e-01 1.39155187224552e+00 1.37395908018391e-02
4.78189655172414e-01 1.37501601731518e+00 1.36399145810632e-02
4.82637931034483e-01 1.35867665846783e+00 1.35403755369792e-02
4.87086206896552e-01 1.34253146073448e+00 1.34409919248836e-02
4.91534482758621e-01 1.32657811689259e+00 1.33417813216816e-02
4.95982758620690e-01 1.31081434713648e+00 1.32427606475988e-02
5.00431034482759e-01 1.29523789875145e+00 1.31439461816207e-02
5.04879310344828e-01 1.27984654582024e+00 1.30453535983422e-02
5.09327586206897e-01 1.26463808881898e+00 1.29469979762867e-02
5.13775862068966e-01 1.24961035438971e+00 1.28488938052599e-02
5.18224137931035e-01 1.23476119500054e+00 1.27510550217813e-02
5.22672413793103e-01 1.22008848863872e+00 1.26534950207907e-02
5.27120689655172e-01 1.20559013850749e+00 1.25562266725858e-02
5.31568965517241e-01 1.19126407272639e+00 1.24592623342945e-02
5.36017241379310e-01 1.17710824405971e+00 1.23626138805431e-02
5.40465517241379e-01 1.16312062954957e+00 1.22662927087844e-02
5.44913793103448e-01 1.14929923030196e+00 1.21703097438585e-02
5.49362068965517e-01 1.13564207117579e+00 1.20746754676911e-02
5.53810344827586e-01 1.12214720050059e+00 1.19793999279263e-02
5.58258620689655e-01 1.10881268979768e+00 1.18844927512959e-02
5.62706896551724e-01 1.09563663350456e+00 1.17899631521829e-02
5.67155172413793e-01 1.08261714872389e+00 1.16958199584252e-02
5.71603448275862e-01 1.06975237488985e+00 1.16020716145395e-02
5.76051724137931e-01 1.05704047356748e+00 1.15087261843270e-02
5.80500000000000e-01 1.04447962816800e+00 1.14157913760043e-02
5.84948275862069e-01 1.03206804368918e+00 1.13232745485773e-02
5.89396551724138e-01 1.01980394645888e+00 1.12311827224968e-02
5.93844827586207e-01 1.00768558388154e+00 1.11395225899968e-02
5.98293103448276e-01 9.95711224187794e-01 1.10483005212331e-02
6.02741379310345e-01 9.83879156205147e-01 1.09575225857020e-02
6.07189655172414e-01 9.72187689058219e-01 1.08671945537940e-02
6.11637931034483e-01 9.60635151982924e-01 1.07773218978510e-02
6.16086206896552e-01 9.49219894068913e-01 1.06879098131496e-02
6.20534482758621e-01 9.37940284023638e-01 1.05989632223778e-02
6.24982758620690e-01 9.26794709939271e-01 1.05104867839486e-02
6.29431034482759e-01 9.15781579062331e-01 1.04224848965972e-02
6.33879310344828e-01 9.04899317582027e-01 1.03349617177026e-02
6.38327586206897e-01 8.94146370357029e-01 1.02479211638392e-02
6.42775862068966e-01 8.83521200742032e-01 1.01613669109148e-02
6.47224137931035e-01 8.73022290351732e-01 1.00753024122048e-02
6.51672413793103e-01 8.62648138843824e-01 9.98973090161336e-03
6.56120689655172e-01 8.52397263704636e-01 9.90465540040337e-03
6.60568965517241e-01 8.42268200037250e-01 9.82007872062290e-03
6.65017241379310e-01 8.32259500366140e-01 9.73600348087100e-03
6.69465517241379e-01 8.22369734387982e-01 9.65243210614281e-03
6.73913793103448e-01 8.12597488810012e-01 9.56936682732383e-03
6.78362068965517e-01 8.02941367133664e-01 9.48680969676836e-03
6.82810344827586e-01 7.93399989454993e-01 9.40476259064769e-03
6.87258620689655e-01 7.83971992267507e-01 9.32322721442482e-03
6.91706896551724e-01 7.74656028267303e-01 9.24220510538130e-03
6.96155172413793e-01 7.65450766172806e-01 9.16169764625537e-03
7.00603448275862e-01 7.56354890497349e-01 9.08170606459078e-03
7.05051724137931e-01 7.47367101398712e-01 9.00223143178780e-03
7.09500000000000e-01 7.38486114480743e-01 8.92327467662171e-03
7.13948275862069e-01 7.29710660609801e-01 8.84483658689432e-03
7.18396551724138e-01 7.21039485733396e-01 8.76691781390621e-03
7.22844827586207e-01 7.12471350700994e-01 8.68951887681036e-03
7.27293103448276e-01 7.04005031086920e-01 8.61264016435682e-03
7.31741379310345e-01 6.95639317026008e-01 8.53628194651444e-03
7.36189655172414e-01 6.87373013008540e-01 8.46044437343386e-03
7.40637931034483e-01 6.79204937741875e-01 8.38512747416005e-03
7.45086206896552e-01 6.71133923970708e-01 8.31033116819407e-03
7.49534482758621e-01 6.63158818310256e-01 8.23605526653786e-03
7.53982758620690e-01 6.55278481081451e-01 8.16229947526169e-03
7.58431034482759e-01 6.47491786148070e-01 8.08906339673973e-03
7.62879310344828e-01 6.39797620765160e-01 8.01634653978434e-03
7.67327586206897e-01 6.32194885391672e-01 7.94414831839522e-03
7.71775862068966e-01 6.24682493561955e-01 7.87246805029152e-03
7.76224137931035e-01 6.17259371720865e-01 7.80130496702341e-03
7.80672413793103e-01 6.09924459070334e-01 7.73065821462313e-03
7.85120689655172e-01 6.02676707417801e-01 7.66052685653482e-03
7.89568965517241e-01 5.95515081026410e-01 7.59090987445405e-03
7.94017241379310e-01 5.88438556475267e-01 7.52180617719331e-03
7.98465517241379e-01 5.81446122488145e-01 7.45321459929561e-03
8.02913793103448e-01 5.74536779814249e-01 7.38513389946006e-03
8.07362068965517e-01 5.67709541076915e-01 7.31756276940994e-03
8.11810344827586e-01 5.60963430632497e-01 7.25049983424322e-03
8.16258620689655e-01 5.54297484430957e-01 7.18394365484171e-03
8.20706896551724e-01 5.47710749878097e-01 7.11789272840183e-03
8.25155172413793e-01 5.41202285706739e-01 7.05234549621164e-03
8.29603448275862e-01 5.34771161820062e-01 6.98730034218776e-03
8.34051724137931e-01 5.28416459181052e-01 6.92275559124816e-03
8.38500000000000e-01 5.22137269673637e-01 6.85870951710763e-03
8.42948275862069e-01 5.15932695972914e-01 6.79516034239999e-03
8.47396551724138e-01 5.09801851416919e-01 6.73210624065977e-03
8.51844827586207e-01 5.03743859879924e-01 6.66954533825288e-03
8.56293103448276e-01 4.97757855647229e-01 6.60747571463512e-03
8.60741379310345e-01 4.91842983297828e-01 6.54589540907163e-03
8.65189655172414e-01 4.85998397562848e-01 6.48480241913463e-03
8.69637931034483e-01 4.80223263224256e-01 6.42419469905939e-03
8.74086206896552e-01 4.74516754988937e-01 6.36407016649542e-03
8.78534482758621e-01 4.68878057370760e-01 6.30442670242990e-03
8.82982758620690e-01 4.63306364574041e-01 6.24526215277430e-03
8.87431034482759e-01 4.57800880378394e-01 6.18657432844756e-03
8.91879310344828e-01 4.52360818030603e-01 6.12836101129637e-03
8.96327586206897e-01 4.46985400115056e-01 6.07061995259421e-03
9.00775862068966e-01 4.41673858459945e-01 6.01334887141601e-03
9.05224137931035e-01 4.36425434021671e-01 5.95654546060034e-03
9.09672413793103e-01 4.31239376776368e-01 5.90020738654522e-03
9.14120689655172e-01 4.26114945612734e-01 5.84433229051036e-03
9.18568965517241e-01 4.21051408226112e-01 5.78891778856598e-03
9.23017241379310e-01 4.16048041018875e-01 5.73396147681850e-03
9.27465517241379e-01 4.11104128981793e-01 5.67946092993299e-03
9.31913793103448e-01 4.06218965607221e-01 5.62541369954498e-03
9.36362068965517e-01 4.01391852782964e-01 5.57181731953247e-03
9.40810344827586e-01 3.96622100692516e-01 5.51866930572007e-03
9.45258620689655e-01 3.91909027716480e-01 5.46596715694567e-03
9.49706896551724e-01 3.87251960335169e-01 5.41370835490454e-03
9.54155172413793e-01 3.82650233036819e-01 5.36189036877053e-03
9.58603448275862e-01 3.78103188208952e-01 5.31051065375609e-03
9.63051724137931e-01 3.73610176058061e-01 5.25956664957567e-03
9.67500000000000e-01 3.69170554512156e-01 5.20905578511480e-03
9.71948275862069e-01 3.64783689129005e-01 5.15897547806710e-03
9.76396551724138e-01 3.60448953005473e-01 5.10932313580450e-03
9.80844827586207e-01 3.56165726687938e-01 5.06009615622404e-03
9.85293103448276e-01 3.51933398083763e-01 5.01129192750320e-03
9.89741379310345e-01 3.47751362377746e-01 4.96290783212381e-03
9.94189655172414e-01 3.43619021933825e-01 4.91494124548751e-03
9.98637931034483e-01 3.39535786221643e-01 4.86738953547046e-03
1.00308620689655e+00 3.35501071724395e-01 4.82025005736624e-03
1.00753448275862e+00 3.31514301888731e-01 4.77352017774909e-03
1.01198275862069e+00 3.27574906950028e-01 4.72719725702808e-03
1.01643103448276e+00 3.23682323951293e-01 4.68127862469019e-03
1.02087931034483e+00 3.19835996660212e-01 4.63576163747084e-03
1.02532758620690e+00 3.16035375383713e-01 4.59064364050643e-03
1.02977586206897e+00 3.12279917030012e-01 4.54592197614852e-03
1.03422413793103e+00 3.08569084892839e-01 4.50159399590262e-03
1.03867241379310e+00 3.04902348677808e-01 4.45765702223528e-03
1.04312068965517e+00 3.01279184424384e-01 4.41410840577192e-03
1.04756896551724e+00 2.97699074333246e-01 4.37094548903022e-03
1.05201724137931e+00 2.94161506822010e-01 4.32816561459288e-03
1.05646551724138e+00 2.90665976324632e-01 4.28576613619041e-03
1.06091379310345e+00 2.87211983314288e-01 4.24374438304368e-03
1.06536206896552e+00 2.83799034229877e-01 4.20209771316617e-03
1.06981034482759e+00 2.80426641315290e-01 4.16082347948156e-03
1.07425862068966e+00 2.77094322669441e-01 4.11991903742062e-03
1.07870689655172e+00 2.73801602059701e-01 4.07938174728109e-03
1.08315517241379e+00 2.70548008969533e-01 4.03920897273913e-03
1.08760344827586e+00 2.67333078417525e-01 3.99939809082040e-03
1.09205172413793e+00 2.64156350975812e-01 3.95994645956251e-03
1.09650000000000e+00 2.61017372702560e-01 3.92085146622567e-03
1.10094827586207e+00 2.57915694996579e-01 3.88211049656760e-03
1.10539655172414e+00 2.54850874640078e-01 3.84372094166541e-03
1.10984482758621e+00 2.51822473630277e-01 3.80568020718526e-03
1.11429310344828e+00 2.48830059195202e-01 3.76798568317137e-03
1.11874137931034e+00 2.45873203730124e-01 3.73063478899803e-03
1.12318965517241e+00 2.42951484662077e-01 3.69362494466137e-03
1.12763793103448e+00 2.40064484488196e-01 3.65695357711840e-03
1.13208620689655e+00 2.37211790618984e-01 3.62061812219670e-03
1.13653448275862e+00 2.34392995414791e-01 3.58461602326770e-03
1.14098275862069e+00 2.31607696033710e-01 3.54894473959017e-03
1.14543103448276e+00 2.28855494444067e-01 3.51360171890140e-03
1.14987931034483e+00 2.26135997365992e-01 3.47858443810818e-03
1.15432758620690e+00 2.23448816148758e-01 3.44389037722971e-03
1.15877586206897e+00 2.20793566803466e-01 3.40951702510247e-03
1.16322413793103e+00 2.18169869861415e-01 3.37546188714727e-03
1.16767241379310e+00 2.15577350384623e-01 3.34172245974674e-03
1.17212068965517e+00 2.13015637910844e-01 3.30829626820456e-03
1.17656896551724e+00 2.10484366339155e-01 3.27518084239638e-03
1.18101724137931e+00 2.07983173959239e-01 3.24237372206938e-03
1.18546551724138e+00 2.05511703319446e-01 3.20987246406497e-03
1.18991379310345e+00 2.03069601235612e-01 3.17767461837458e-03
1.19436206896552e+00 2.00656518739268e-01 3.14577776355682e-03
1.19881034482759e+00 1.98272110970930e-01 3.11417948397015e-03
1.20325862068966e+00 1.95916037206293e-01 3.08287737470618e-03
1.20770689655172e+00 1.93587960733305e-01 3.05186904300759e-03
1.21215517241379e+00 1.91287548877057e-01 3.02115210714485e-03
1.21660344827586e+00 1.89014472880435e-01 2.99072420293034e-03
1.22105172413793e+00 1.86768407910740e-01 2.96058296197222e-03
1.22550000000000e+00 1.84549033012111e-01 2.93072604376613e-03
1.22994827586207e+00 1.82356031008750e-01 2.90115111501956e-03
1.23439655172414e+00 1.80189088527182e-01 2.87185585409288e-03
1.23884482758621e+00 1.78047895884994e-01 2.84283795706384e-03
1.24329310344828e+00 1.75932147096205e-01 2.81409511739441e-03
1.24774137931034e+00 1.73841539826456e-01 2.78562505588626e-03
1.25218965517241e+00 1.71775775302693e-01 2.75742550134643e-03
1.25663793103448e+00 1.69734558333031e-01 2.72949419471984e-03
1.26108620689655e+00 1.67717597203025e-01 2.70182889024157e-03
1.26553448275862e+00 1.65724603694523e-01 2.67442735444470e-03
1.26998275862069e+00 1.63755292984920e-01 2.64728737163095e-03
1.27443103448276e+00 1.61809383650924e-01 2.62040672539801e-03
1.27887931034483e+00 1.59886597627374e-01 2.59378322580039e-03
1.28332758620690e+00 1.57986660125269e-01 2.56741469177714e-03
1.28777586206897e+00 1.56109299648578e-01 2.54129895487876e-03
1.29222413793103e+00 1.54254247900271e-01 2.51543386436611e-03
1.29667241379310e+00 1.52421239785165e-01 2.48981726992885e-03
1.30112068965517e+00 1.50610013371154e-01 2.46444704704779e-03
1.30556896551724e+00 1.48820309812651e-01 2.43932108056162e-03
1.31001724137931e+00 1.47051873365551e-01 2.41443726813355e-03
1.31446551724138e+00 1.45304451299565e-01 2.38979352499896e-03
1.31891379310345e+00 1.43577793900274e-01 2.36538776780309e-03
1.32336206896552e+00 1.41871654432607e-01 2.34121793828768e-03
1.32781034482759e+00 1.40185789069338e-01 2.31728198791409e-03
1.33225862068966e+00 1.38519956904384e-01 2.29357788109388e-03
1.33670689655172e+00 1.36873919871000e-01 2.27010359604833e-03
1.34115517241379e+00 1.35247442754381e-01 2.24685712397678e-03
1.34560344827586e+00 1.33640293112169e-01 2.22383647334631e-03
1.35005172413793e+00 1.32052241275495e-01 2.20103965519510e-03
1.35450000000000e+00 1.30483060315414e-01 2.17846470462619e-03
1.35894827586207e+00 1.28932525977936e-01 2.15610966682611e-03
1.36339655172414e+00 1.27400416695195e-01 2.13397259997854e-03
1.36784482758621e+00 1.25886513511254e-01 2.11205157926236e-03
1.37229310344828e+00 1.24390600082576e-01 2.09034468310059e-03
1.37674137931034e+00 1.22912462646422e-01 2.06885001324055e-03
1.38118965517241e+00 1.21451889960124e-01 2.04756568167034e-03
1.38563793103448e+00 1.20008673310979e-01 2.02648981333327e-03
1.39008620689655e+00 1.18582606446977e-01 2.00562054682787e-03
1.39453448275862e+00 1.17173485586147e-01 1.98495603367656e-03
1.39898275862069e+00 1.15781109349229e-01 1.96449444193837e-03
1.40343103448276e+00 1.14405278759426e-01 1.94423394370155e-03
