Energy (eV)          EEDF (eV^-(3/2))     First Anisotropy
2.08333333333333e-02 6.74367897756106e-02 3.43803254116783e-05
6.25000000000000e-02 6.70077188822217e-02 5.67819722180528e-05
1.04166666666667e-01 6.65813779808838e-02 7.49858845068224e-05
1.45833333333333e-01 6.61577497007843e-02 8.88321404538213e-05
1.87500000000000e-01 6.57368167817384e-02 1.00393841756162e-04
2.29166666666667e-01 6.53185620769700e-02 1.10454210792520e-04
2.70833333333333e-01 6.49029685439699e-02 1.19418276132462e-04
3.12500000000000e-01 6.44900192509119e-02 1.27530451398566e-04
3.54166666666667e-01 6.40796973750717e-02 1.34952724204703e-04
3.95833333333333e-01 6.36719861980666e-02 1.41799505321600e-04
4.37500000000000e-01 6.32668691091819e-02 1.48155429172386e-04
4.79166666666667e-01 6.28643296043337e-02 1.54085353444570e-04
5.20833333333333e-01 6.24643512825855e-02 1.59640385716443e-04
5.62500000000000e-01 6.20669178482600e-02 1.64861719694213e-04
6.04166666666667e-01 6.16720131100760e-02 1.69783186782701e-04
6.45833333333333e-01 6.12796209783592e-02 1.74433013972005e-04
6.87500000000000e-01 6.08897254664994e-02 1.78835071968149e-04
7.29166666666667e-01 6.05023106901725e-02 1.83009784761684e-04
7.70833333333333e-01 6.01173608649898e-02 1.86974806154082e-04
8.12500000000000e-01 5.97348603075487e-02 1.90745532925750e-04
8.54166666666667e-01 5.93547934347048e-02 1.94335501185369e-04
8.95833333333333e-01 5.89771447615264e-02 1.97756696171092e-04
9.37500000000000e-01 5.86018989020687e-02 2.01019797946976e-04
9.79166666666667e-01 5.82290405686806e-02 2.04134379079275e-04
1.02083333333333e+00 5.78585545701849e-02 2.07109064717115e-04
1.06250000000000e+00 5.74904258113679e-02 2.09951662819165e-04
1.10416666666667e+00 5.71246392976392e-02 2.12669274153781e-04
1.14583333333333e+00 5.67611801229360e-02 2.15268381883073e-04
1.18750000000000e+00 5.64000334794482e-02 2.17754925724466e-04
1.22916666666667e+00 5.60411846566117e-02 2.20134368835785e-04
1.27083333333333e+00 5.56846190314262e-02 2.22411750908365e-04
1.31250000000000e+00 5.53303220769285e-02 2.24591733409781e-04
1.35416666666667e+00 5.49782793612704e-02 2.26678642315668e-04
1.39583333333333e+00 5.46284765390752e-02 2.28676501489346e-04
1.43750000000000e+00 5.42808993589005e-02 2.30589061531325e-04
1.47916666666667e+00 5.39355336623848e-02 2.32419828534458e-04
1.52083333333333e+00 5.35923653764564e-02 2.34172085916865e-04
1.56250000000000e+00 5.32513805199702e-02 2.35848913504354e-04
1.60416666666667e+00 5.29125652029052e-02 2.37453207753728e-04
1.64583333333333e+00 5.25759056192919e-02 2.38987696489295e-04
1.68750000000000e+00 5.22413880531556e-02 2.40454951898006e-04
1.72916666666667e+00 5.19089988777595e-02 2.41857405306332e-04
1.77083333333333e+00 5.15787245491393e-02 2.43197357378530e-04
1.81250000000000e+00 5.12505516114625e-02 2.44476987172998e-04
1.85416666666667e+00 5.09244666963074e-02 2.45698363307138e-04
1.89583333333333e+00 5.06004565167225e-02 2.46863451154899e-04
1.93750000000000e+00 5.02785078720835e-02 2.47974119272931e-04
1.97916666666667e+00 4.99586076474048e-02 2.49032148089400e-04
2.02083333333333e+00 4.96407428078538e-02 2.50039235060417e-04
2.06250000000000e+00 4.93249004031746e-02 2.50996999292115e-04
2.10416666666667e+00 4.90110675670268e-02 2.51906988481951e-04
2.14583333333333e+00 4.86992315118998e-02 2.52770682652854e-04
2.18750000000000e+00 4.83893795331572e-02 2.53589497508999e-04
2.22916666666667e+00 4.80814990084017e-02 2.54364790111451e-04
2.27083333333333e+00 4.77755773927408e-02 2.55097861600361e-04
2.31250000000000e+00 4.74716022224998e-02 2.55789959644186e-04
2.35416666666667e+00 4.71695611146081e-02 2.56442283177007e-04
2.39583333333333e+00 4.68694417621796e-02 2.57055984387625e-04
2.43750000000000e+00 4.65712319379310e-02 2.57632170508681e-04
2.47916666666667e+00 4.62749194935886e-02 2.58171907843339e-04
2.52083333333333e+00 4.59804923557496e-02 2.58676223215068e-04
2.56250000000000e+00 4.56879385290389e-02 2.59146105268851e-04
2.60416666666667e+00 4.53972460955338e-02 2.59582507949224e-04
2.64583333333333e+00 4.51084032108794e-02 2.59986351547948e-04
2.68750000000000e+00 4.48213981072101e-02 2.60358523639934e-04
2.72916666666667e+00 4.45362190925923e-02 2.60699882130089e-04
2.77083333333333e+00 4.42528545473678e-02 2.61011255997696e-04
2.81250000000000e+00 4.39712929268660e-02 2.61293445955883e-04
2.85416666666667e+00 4.36915227608613e-02 2.61547227153944e-04
2.89583333333333e+00 4.34135326501258e-02 2.61773349690671e-04
2.93750000000000e+00 4.31373112689501e-02 2.61972539062655e-04
2.97916666666667e+00 4.28628473646168e-02 2.62145498587133e-04
3.02083333333333e+00 4.25901297541424e-02 2.62292909737842e-04
3.06250000000000e+00 4.23191473266264e-02 2.62415432430755e-04
3.10416666666667e+00 4.20498890427380e-02 2.62513707216968e-04
3.14583333333333e+00 4.17823439316330e-02 2.62588355481300e-04
3.18750000000000e+00 4.15165010931452e-02 2.62639979602098e-04
3.22916666666667e+00 4.12523496972873e-02 2.62669164952447e-04
3.27083333333333e+00 4.09898789813268e-02 2.62676479992037e-04
3.31250000000000e+00 4.07290782518356e-02 2.62662476328926e-04
3.35416666666667e+00 4.04699368842020e-02 2.62627690558982e-04
3.39583333333333e+00 4.02124443198556e-02 2.62572644274489e-04
3.43750000000000e+00 3.99565900681846e-02 2.62497844049309e-04
3.47916666666667e+00 3.97023637060611e-02 2.62403783140259e-04
3.52083333333333e+00 3.94497548752014e-02 2.62290941430572e-04
3.56250000000000e+00 3.91987532839636e-02 2.62159785355100e-04
3.60416666666667e+00 3.89493487068845e-02 2.62010769482660e-04
3.64583333333333e+00 3.87015309821657e-02 2.61844336408407e-04
3.68750000000000e+00 3.84552900133618e-02 2.61660916632147e-04
3.72916666666667e+00 3.82106157689272e-02 2.61460930037061e-04
3.77083333333333e+00 3.79674982798206e-02 2.61244785742135e-04
3.81250000000000e+00 3.77259276410904e-02 2.61012881943798e-04
3.85416666666667e+00 3.74858940114329e-02 2.60765607303547e-04
3.89583333333333e+00 3.72473876109056e-02 2.60503340769269e-04
3.93750000000000e+00 3.70103987224193e-02 2.60226451388299e-04
3.97916666666667e+00 3.67749176913054e-02 2.59935299614449e-04
4.02083333333333e+00 3.65409349231323e-02 2.59630237105155e-04
4.06250000000000e+00 3.63084408851096e-02 2.59311606512465e-04
4.10416666666667e+00 3.60774261056660e-02 2.58979742718074e-04
4.14583333333333e+00 3.58478811723606e-02 2.58634972611906e-04
4.18750000000000e+00 3.56197967332064e-02 2.58277614866264e-04
4.22916666666667e+00 3.53931634962580e-02 2.57907981106113e-04
4.27083333333333e+00 3.51679722276120e-02 2.57526375673669e-04
4.31250000000000e+00 3.49442137526559e-02 2.57133095389811e-04
4.35416666666667e+00 3.47218789556644e-02 2.56728430665861e-04
4.39583333333333e+00 3.45009587778842e-02 2.56312665257732e-04
4.43750000000000e+00 3.42814442187129e-02 2.55886076017969e-04
4.47916666666667e+00 3.40633263353044e-02 2.55448933954382e-04
4.52083333333333e+00 3.38465962407323e-02 2.55001503976666e-04
4.56250000000000e+00 3.36312451051042e-02 2.54544044641813e-04
4.60416666666667e+00 3.34172641551750e-02 2.54076809164055e-04
4.64583333333333e+00 3.32046446725855e-02 2.53600045156423e-04
4.68750000000000e+00 3.29933779949152e-02 2.53113994371749e-04
4.72916666666667e+00 3.27834555153045e-02 2.52618893667862e-04
4.77083333333333e+00 3.25748686807632e-02 2.52114974745932e-04
4.81250000000000e+00 3.23676089931664e-02 2.51602463888917e-04
4.85416666666667e+00 3.21616680088851e-02 2.51081582885510e-04
4.89583333333333e+00 3.19570373371608e-02 2.50552548766815e-04
4.93750000000000e+00 3.17537086410481e-02 2.50015573543664e-04
4.97916666666667e+00 3.15516736370536e-02 2.49470865092336e-04
5.02083333333333e+00 3.13509240935723e-02 2.48918626890879e-04
5.06250000000000e+00 3.11514518317819e-02 2.48359057756510e-04
5.10416666666667e+00 3.09532487252875e-02 2.47792352695699e-04
5.14583333333333e+00 3.07563066986191e-02 2.47218702641258e-04
5.18750000000000e+00 3.05606177280777e-02 2.46638294190748e-04
5.22916666666667e+00 3.03661738413884e-02 2.46051310423347e-04
5.27083333333333e+00 3.01729671162538e-02 2.45457930638520e-04
5.31250000000000e+00 2.99809896811564e-02 2.44858330096184e-04
5.35416666666667e+00 2.97902337150188e-02 2.44252680802548e-04
5.39583333333333e+00 2.96006914458105e-02 2.43641151250986e-04
5.43750000000000e+00 2.94123551513089e-02 2.43023906164649e-04
5.47916666666667e+00 2.92252171587671e-02 2.42401107253139e-04
5.52083333333333e+00 2.90392698435707e-02 2.41772912956201e-04
5.56250000000000e+00 2.88545056299608e-02 2.41139478189268e-04
5.60416666666667e+00 2.86709169907080e-02 2.40500955072633e-04
5.64583333333333e+00 2.84884964458177e-02 2.39857492678400e-04
5.68750000000000e+00 2.83072365632165e-02 2.39209236779465e-04
5.72916666666667e+00 2.81271299584331e-02 2.38556330552698e-04
5.77083333333333e+00 2.79481692933494e-02 2.37898914329508e-04
5.81250000000000e+00 2.77703472768523e-02 2.37237125348535e-04
5.85416666666667e+00 2.75936566645214e-02 2.36571098434284e-04
5.89583333333333e+00 2.74180902574236e-02 2.35900965751606e-04
5.93750000000000e+00 2.72436409027328e-02 2.35226856562337e-04
5.97916666666667e+00 2.70703014934235e-02 2.34548897880735e-04
6.02083333333333e+00 2.68980649671074e-02 2.33867214232016e-04
6.06250000000000e+00 2.67269243066226e-02 2.33181927413131e-04
6.10416666666667e+00 2.65568725397329e-02 2.32493157126217e-04
6.14583333333333e+00 2.63879027380049e-02 2.31801020741359e-04
6.18750000000000e+00 2.62200080173674e-02 2.31105633061678e-04
6.22916666666667e+00 2.60531815378178e-02 2.30407106935796e-04
6.27083333333333e+00 2.58874165023362e-02 2.29705553025018e-04
6.31250000000000e+00 2.57227061574181e-02 2.29001079572819e-04
6.35416666666667e+00 2.55590437927867e-02 2.28293792997347e-04
6.39583333333333e+00 2.53964227403430e-02 2.27583797663072e-04
6.43750000000000e+00 2.52348363746728e-02 2.26871195654747e-04
6.47916666666667e+00 2.50742781127648e-02 2.26156087350921e-04
6.52083333333333e+00 2.49147414129953e-02 2.25438571200050e-04
6.56250000000000e+00 2.47562197756112e-02 2.24718743499041e-04
6.60416666666667e+00 2.45987067424531e-02 2.23996698948523e-04
6.64583333333333e+00 2.44421958959737e-02 2.23272530433583e-04
6.68750000000000e+00 2.42866808596975e-02 2.22546328806853e-04
6.72916666666667e+00 2.41321552979492e-02 2.21818183426377e-04
6.77083333333333e+00 2.39786129149045e-02 2.21088181940925e-04
6.81250000000000e+00 2.38260474550272e-02 2.20356410077616e-04
6.85416666666667e+00 2.36744527028035e-02 2.19622952163159e-04
6.89583333333333e+00 2.35238224818230e-02 2.18887890913740e-04
6.93750000000000e+00 2.33741506551950e-02 2.18151307227185e-04
6.97916666666667e+00 2.32254311252884e-02 2.17413280688263e-04
7.02083333333333e+00 2.30776578328416e-02 2.16673889363099e-04
7.06250000000000e+00 2.29308247573592e-02 2.15933209595832e-04
7.10416666666667e+00 2.27849259168572e-02 2.15191316498674e-04
7.14583333333333e+00 2.26399553670005e-02 2.14448283750792e-04
7.18750000000000e+00 2.24959072014817e-02 2.13704183399438e-04
7.22916666666667e+00 2.23527755517703e-02 2.12959086335393e-04
7.27083333333333e+00 2.22105545862782e-02 2.12213062096226e-04
7.31250000000000e+00 2.20692385107197e-02 2.11466178671874e-04
7.35416666666667e+00 2.19288215678666e-02 2.10718502966014e-04
7.39583333333333e+00 2.17892980367390e-02 2.09970100603718e-04
7.43750000000000e+00 2.16506622329485e-02 2.09221035741400e-04
7.47916666666667e+00 2.15129085084581e-02 2.08471371514602e-04
7.52083333333333e+00 2.13760312507981e-02 2.07721169850049e-04
7.56250000000000e+00 2.12400248833930e-02 2.06970491279860e-04
7.60416666666667e+00 2.11048838653265e-02 2.06219395376336e-04
7.64583333333333e+00 2.09706026905804e-02 2.05467940568257e-04
7.68750000000000e+00 2.08371758883477e-02 2.04716183959307e-04
7.72916666666667e+00 2.07045980228008e-02 2.03964181750384e-04
7.77083333333333e+00 2.05728636923545e-02 2.03211989060058e-04
7.81250000000000e+00 2.04419675299637e-02 2.02459659747202e-04
7.85416666666667e+00 2.03119042028966e-02 2.01707246821169e-04
7.89583333333333e+00 2.01826684120201e-02 2.00954802266368e-04
7.93750000000000e+00 2.00542548920829e-02 2.00202376869032e-04
7.97916666666667e+00 1.99266584114942e-02 1.99450020615725e-04
8.02083333333333e+00 1.97998737716292e-02 1.98697782522015e-04
8.06250000000000e+00 1.96738958071002e-02 1.97945710463188e-04
8.10416666666667e+00 1.95487193855388e-02 1.97193851561562e-04
8.14583333333333e+00 1.94243394069224e-02 1.96442252019132e-04
8.18750000000000e+00 1.93007508038327e-02 1.95690956952219e-04
8.22916666666667e+00 1.91779485412419e-02 1.94940010767949e-04
8.27083333333333e+00 1.90559276158595e-02 1.94189457000778e-04
8.31250000000000e+00 1.89346830563781e-02 1.93439338151020e-04
8.35416666666667e+00 1.88142099232649e-02 1.92689696050848e-04
8.39583333333333e+00 1.86945033081262e-02 1.91940571704646e-04
8.43750000000000e+00 1.85755583339431e-02 1.91192005131301e-04
8.47916666666667e+00 1.84573701548662e-02 1.90444035720125e-04
8.52083333333333e+00 1.83399339555992e-02 1.89696702074926e-04
8.56250000000000e+00 1.82232449516229e-02 1.88950041859996e-04
8.60416666666667e+00 1.81072983889950e-02 1.88204092146275e-04
8.64583333333333e+00 1.79920895437501e-02 1.87458889259068e-04
8.68750000000000e+00 1.78776137221151e-02 1.86714468627659e-04
8.72916666666667e+00 1.77638662603110e-02 1.85970865122037e-04
8.77083333333333e+00 1.76508425239718e-02 1.85228112904183e-04
8.81250000000000e+00 1.75385379083484e-02 1.84486245281248e-04
8.85416666666667e+00 1.74269478381159e-02 1.83745295033095e-04
8.89583333333333e+00 1.73160677668077e-02 1.83005294267148e-04
8.93750000000000e+00 1.72058931770108e-02 1.82266274274979e-04
8.97916666666667e+00 1.70964195801763e-02 1.81528265851035e-04
9.02083333333333e+00 1.69876425160699e-02 1.80791299150912e-04
9.06250000000000e+00 1.68795575529582e-02 1.80055403551327e-04
9.10416666666667e+00 1.67721602874227e-02 1.79320607960315e-04
9.14583333333333e+00 1.66654463438258e-02 1.78586940678771e-04
9.18750000000000e+00 1.65594113744886e-02 1.77854429263786e-04
9.22916666666667e+00 1.64540510595084e-02 1.77123100830570e-04
9.27083333333333e+00 1.63493611062397e-02 1.76392981917248e-04
9.31250000000000e+00 1.62453372494639e-02 1.75664098351405e-04
9.35416666666667e+00 1.61419752512103e-02 1.74936475543984e-04
9.39583333333333e+00 1.60392709002513e-02 1.74210138357335e-04
9.43750000000000e+00 1.59372200122645e-02 1.73485110974878e-04
9.47916666666667e+00 1.58358184296573e-02 1.72761417187222e-04
9.52083333333333e+00 1.57350620210759e-02 1.72039080263319e-04
9.56250000000000e+00 1.56349466815597e-02 1.71318122823219e-04
9.60416666666667e+00 1.55354683323698e-02 1.70598567116684e-04
9.64583333333333e+00 1.54366229205110e-02 1.69880434897382e-04
9.68750000000000e+00 1.53384064188796e-02 1.69163747298619e-04
9.72916666666667e+00 1.52408148260947e-02 1.68448525104675e-04
9.77083333333333e+00 1.51438441660336e-02 1.67734788627957e-04
9.81250000000000e+00 1.50474904879726e-02 1.67022557587677e-04
9.85416666666667e+00 1.49517498664216e-02 1.66311851374118e-04
9.89583333333333e+00 1.48566184006726e-02 1.65602688928683e-04
9.93750000000000e+00 1.47620922149332e-02 1.64895088625425e-04
9.97916666666667e+00 1.46681674581649e-02 1.64189068528471e-04
1.00208333333333e+01 1.45748403036436e-02 1.63484646394987e-04
1.00625000000000e+01 1.44821069488113e-02 1.62781838960011e-04
1.01041666666667e+01 1.43899636164940e-02 1.62080663262582e-04
1.01458333333333e+01 1.42984065517262e-02 1.61381136060672e-04
1.01875000000000e+01 1.42074320243475e-02 1.60683272517808e-04
1.02291666666667e+01 1.41170363288127e-02 1.59987088587186e-04
1.02708333333333e+01 1.40272157813858e-02 1.59292599836859e-04
1.03125000000000e+01 1.39379667226544e-02 1.58599820289651e-04
1.03541666666667e+01 1.38492855173440e-02 1.57908764747584e-04
1.03958333333333e+01 1.37611685515967e-02 1.57219447646188e-04
1.04375000000000e+01 1.36736122354063e-02 1.56531881923212e-04
1.04791666666667e+01 1.35866130024366e-02 1.55846081285029e-04
1.05208333333333e+01 1.35001673073820e-02 1.55162059089251e-04
1.05625000000000e+01 1.34142716283259e-02 1.54479827241450e-04
1.06041666666667e+01 1.33289224665636e-02 1.53799398405148e-04
1.06458333333333e+01 1.32441163440410e-02 1.53120784911985e-04
1.06875000000000e+01 1.31598498056401e-02 1.52443997685670e-04
1.07291666666667e+01 1.30761194190048e-02 1.51769048397108e-04
1.07708333333333e+01 1.29929217720570e-02 1.51095948401399e-04
1.08125000000000e+01 1.29102534752100e-02 1.50424707688248e-04
1.08541666666667e+01 1.28281111611987e-02 1.49755336983779e-04
1.08958333333333e+01 1.27464914826688e-02 1.49087846713610e-04
1.09375000000000e+01 1.26653911143224e-02 1.48422245979002e-04
1.09791666666667e+01 1.25848067527510e-02 1.47758544606834e-04
1.10208333333333e+01 1.25047351140965e-02 1.47096752138041e-04
1.10625000000000e+01 1.24251729361300e-02 1.46436876828832e-04
1.11041666666667e+01 1.23461169780890e-02 1.45778927650215e-04
1.11458333333333e+01 1.22675640184069e-02 1.45122913301134e-04
1.11875000000000e+01 1.21895108567278e-02 1.44468841234068e-04
1.12291666666667e+01 1.21119543137473e-02 1.43816719605462e-04
1.12708333333333e+01 1.20348912290084e-02 1.43166556312941e-04
1.13125000000000e+01 1.19583184628547e-02 1.42518358044625e-04
1.13541666666667e+01 1.18822328962745e-02 1.41872132181808e-04
1.13958333333333e+01 1.18066314287612e-02 1.41227885859551e-04
1.14375000000000e+01 1.17315109802067e-02 1.40585625039130e-04
1.14791666666667e+01 1.16568684907487e-02 1.39945356364227e-04
1.15208333333333e+01 1.15827009186936e-02 1.39307086244301e-04
1.15625000000000e+01 1.15090052423521e-02 1.38670819949550e-04
1.16041666666667e+01 1.14357784598899e-02 1.38036563421861e-04
1.16458333333333e+01 1.13630175873104e-02 1.37404322380361e-04
1.16875000000000e+01 1.12907196602354e-02 1.36774101438256e-04
1.17291666666667e+01 1.12188817337581e-02 1.36145905869784e-04
1.17708333333333e+01 1.11475008804846e-02 1.35519740737365e-04
1.18125000000000e+01 1.10765741922603e-02 1.34895610029736e-04
1.18541666666667e+01 1.10060987800269e-02 1.34273518386095e-04
1.18958333333333e+01 1.09360717719190e-02 1.33653470244229e-04
1.19375000000000e+01 1.08664903149397e-02 1.33035468999441e-04
1.19791666666667e+01 1.07973515748197e-02 1.32419518686966e-04
1.20208333333333e+01 1.07286527341692e-02 1.31805623150590e-04
1.20625000000000e+01 1.06603909941023e-02 1.31193785221795e-04
1.21041666666667e+01 1.05925635741003e-02 1.30584008361549e-04
1.21458333333333e+01 1.05251677102150e-02 1.29976295848874e-04
1.21875000000000e+01 1.04582006566459e-02 1.29370649979664e-04
1.22291666666667e+01 1.03916596856049e-02 1.28767073668961e-04
1.22708333333333e+01 1.03255420855722e-02 1.28165569658927e-04
1.23125000000000e+01 1.02598451628254e-02 1.27566139736830e-04
1.23541666666667e+01 1.01945662413075e-02 1.26968786298859e-04
1.23958333333333e+01 1.01297026609323e-02 1.26373511576986e-04
1.24375000000000e+01 1.00652517790677e-02 1.25780316875617e-04
1.24791666666667e+01 1.00012109704070e-02 1.25189204097913e-04
1.25208333333333e+01 9.93757762532167e-03 1.24600174991104e-04
1.25625000000000e+01 9.87434915130104e-03 1.24013230401319e-04
1.26041666666667e+01 9.81152297282642e-03 1.23428371763381e-04
1.26458333333333e+01 9.74909652976970e-03 1.22845600364103e-04
1.26875000000000e+01 9.68706727879106e-03 1.22264916614831e-04
1.27291666666667e+01 9.62543269321552e-03 1.21686321505653e-04
1.27708333333333e+01 9.56419026147650e-03 1.21109815886181e-04
1.28125000000000e+01 9.50333748847238e-03 1.20535399755393e-04
1.28541666666667e+01 9.44287189544574e-03 1.19963073681191e-04
1.28958333333333e+01 9.38279101847023e-03 1.19392838098213e-04
1.29375000000000e+01 9.32309240976757e-03 1.18824692614481e-04
1.29791666666667e+01 9.26377363758920e-03 1.18258637397239e-04
1.30208333333333e+01 9.20483228474533e-03 1.17694672487374e-04
1.30625000000000e+01 9.14626594988341e-03 1.17132797122432e-04
1.31041666666667e+01 9.08807224737236e-03 1.16573011089601e-04
1.31458333333333e+01 9.03024880587228e-03 1.16015314056282e-04
