Energy (eV)          EEDF (eV^-(3/2))     First Anisotropy
9.87500000000000e-02 6.18145355157377e-02 6.61704586602037e-05
2.96250000000000e-01 6.00615553470829e-02 1.08080255074652e-04
4.93750000000000e-01 5.83582874256518e-02 1.39570432975179e-04
6.91250000000000e-01 5.67033219764991e-02 1.61682141338238e-04
8.88750000000000e-01 5.50952892040698e-02 1.78680442036723e-04
1.08625000000000e+00 5.35328581584366e-02 1.92234016663788e-04
1.28375000000000e+00 5.20147356336882e-02 2.03234194063643e-04
1.48125000000000e+00 5.05396650975581e-02 2.12235435956490e-04
1.67875000000000e+00 4.91064256514077e-02 2.19615847435907e-04
1.87625000000000e+00 4.77138310197022e-02 2.25649696653981e-04
2.07375000000000e+00 4.63607285681448e-02 2.30544957605923e-04
2.27125000000000e+00 4.50459983496545e-02 2.34464682891625e-04
2.46875000000000e+00 4.37685521773990e-02 2.37540060579774e-04
2.66625000000000e+00 4.25273327241151e-02 2.39878839414434e-04
2.86375000000000e+00 4.13213126469715e-02 2.41571008815630e-04
3.06125000000000e+00 4.01494937372491e-02 2.42692768313118e-04
3.25875000000000e+00 3.90109060941351e-02 2.43309386267538e-04
3.45625000000000e+00 3.79046073219478e-02 2.43477311992096e-04
3.65375000000000e+00 3.68296817501263e-02 2.43245771001025e-04
3.85125000000000e+00 3.57852396753409e-02 2.42657993191004e-04
4.04875000000000e+00 3.47704166250963e-02 2.41752174478330e-04
4.24625000000000e+00 3.37843726422171e-02 2.40562241052595e-04
4.44375000000000e+00 3.28262915896259e-02 2.39118464892377e-04
4.64125000000000e+00 3.18953804748357e-02 2.37447965437516e-04
4.83875000000000e+00 3.09908687935993e-02 2.35575122893281e-04
5.03625000000000e+00 3.01120078921723e-02 2.33521922062568e-04
5.23375000000000e+00 2.92580703476605e-02 2.31308240925492e-04
5.43125000000000e+00 2.84283493659411e-02 2.28952094807713e-04
5.62875000000000e+00 2.76221581966572e-02 2.26469844503090e-04
5.82625000000000e+00 2.68388295648026e-02 2.23876374877549e-04
6.02375000000000e+00 2.60777151184260e-02 2.21185249098515e-04
6.22125000000000e+00 2.53381848919978e-02 2.18408842583019e-04
6.41875000000000e+00 2.46196267849948e-02 2.15558459949724e-04
6.61625000000000e+00 2.39214460552720e-02 2.12644437633242e-04
6.81375000000000e+00 2.32430648268013e-02 2.09676234328360e-04
7.01125000000000e+00 2.25839216113704e-02 2.06662511044167e-04
7.20875000000000e+00 2.19434708438454e-02 2.03611202239563e-04
7.40625000000000e+00 2.13211824306131e-02 2.00529579264310e-04
7.60375000000000e+00 2.07165413108285e-02 1.97424307129978e-04
7.80125000000000e+00 2.01290470301052e-02 1.94301495472779e-04
7.99875000000000e+00 1.95582133262950e-02 1.91166744437480e-04
8.19625000000000e+00 1.90035677270145e-02 1.88025186102311e-04
8.39375000000000e+00 1.84646511585850e-02 1.84881521974358e-04
8.59125000000000e+00 1.79410175660630e-02 1.81740057009786e-04
8.78875000000000e+00 1.74322335440454e-02 1.78604730550354e-04
8.98625000000000e+00 1.69378779779449e-02 1.75479144514892e-04
9.18375000000000e+00 1.64575416954386e-02 1.72366589139866e-04
9.38125000000000e+00 1.59908271278007e-02 1.69270066525426e-04
9.57875000000000e+00 1.55373479808396e-02 1.66192312211202e-04
9.77625000000000e+00 1.50967289151668e-02 1.63135814978666e-04
9.97375000000000e+00 1.46686052355323e-02 1.60102835053352e-04
1.01712500000000e+01 1.42526225889716e-02 1.57095420859967e-04
1.03687500000000e+01 1.38484366715110e-02 1.54115424465950e-04
1.05662500000000e+01 1.34557129431916e-02 1.51164515833851e-04
1.07637500000000e+01 1.30741263511745e-02 1.48244195989743e-04
1.09612500000000e+01 1.27033610606984e-02 1.45355809203381e-04
1.11587500000000e+01 1.23431101936668e-02 1.42500554265754e-04
1.13562500000000e+01 1.19930755746483e-02 1.39679494940916e-04
1.15537500000000e+01 1.16529674840808e-02 1.36893569661155e-04
1.17512500000000e+01 1.13225044184737e-02 1.34143600527755e-04
1.19487500000000e+01 1.10014128574108e-02 1.31430301673592e-04
1.21462500000000e+01 1.06894270371607e-02 1.28754287038380e-04
1.23437500000000e+01 1.03862887307071e-02 1.26116077602686e-04
1.25412500000000e+01 1.00917470340175e-02 1.23516108122559e-04
1.27387500000000e+01 9.80555815837286e-03 1.20954733402843e-04
1.29362500000000e+01 9.52748522858642e-03 1.18432234143867e-04
1.31337500000000e+01 9.25729808694494e-03 1.15948822393179e-04
1.33312500000000e+01 8.99477310270985e-03 1.13504646631265e-04
1.35287500000000e+01 8.73969298702066e-03 1.11099796517732e-04
1.37262500000000e+01 8.49184661304759e-03 1.08734307322250e-04
1.39237500000000e+01 8.25102884124428e-03 1.06408164062551e-04
1.41212500000000e+01 8.01704034955622e-03 1.04121305369970e-04
1.43187500000000e+01 7.78968746844424e-03 1.01873627101396e-04
1.45162500000000e+01 7.56878202058646e-03 9.96649857149975e-05
1.47137500000000e+01 7.35414116512611e-03 9.74952014257834e-05
1.49112500000000e+01 7.14558724633635e-03 9.53640611557746e-05
1.51087500000000e+01 6.94294764657663e-03 9.32713212924980e-05
1.53062500000000e+01 6.74605464341915e-03 9.12167102684728e-05
1.55037500000000e+01 6.55474527082692e-03 8.91999309734271e-05
1.57012500000000e+01 6.36886118426871e-03 8.72206630101205e-05
1.58987500000000e+01 6.18824852965910e-03 8.52785648038899e-05
1.60962500000000e+01 6.01275781601528e-03 8.33732755753054e-05
1.62937500000000e+01 5.84224379172509e-03 8.15044171846559e-05
1.64912500000000e+01 5.67656532432399e-03 7.96715958563900e-05
1.66887500000000e+01 5.51558528368132e-03 7.78744037910766e-05
1.68862500000000e+01 5.35917042849936e-03 7.61124206719290e-05
1.70837500000000e+01 5.20719129603099e-03 7.43852150724688e-05
1.72812500000000e+01 5.05952209492495e-03 7.26923457714641e-05
1.74787500000000e+01 4.91604060110976e-03 7.10333629808665e-05
1.76762500000000e+01 4.77662805663035e-03 6.94078094921045e-05
1.78737500000000e+01 4.64116907135340e-03 6.78152217457339e-05
1.80712500000000e+01 4.50955152746036e-03 6.62551308291319e-05
1.82687500000000e+01 4.38166648664878e-03 6.47270634066108e-05
1.84662500000000e+01 4.25740809996541e-03 6.32305425860611e-05
1.86637500000000e+01 4.13667352019618e-03 6.17650887259709e-05
1.88612500000000e+01 4.01936281674084e-03 6.03302201864202e-05
1.90587500000000e+01 3.90537889290155e-03 5.89254540274399e-05
1.92562500000000e+01 3.79462740551702e-03 5.75503066579027e-05
1.94537500000000e+01 3.68701668687588e-03 5.62042944379214e-05
1.96512500000000e+01 3.58245766884429e-03 5.48869342375612e-05
1.98487500000000e+01 3.48086380914536e-03 5.35977439544853e-05
2.00462500000000e+01 3.38215101972907e-03 5.23362429930018e-05
2.02437500000000e+01 3.28623759717360e-03 5.11019527068395e-05
2.04412500000000e+01 3.19304415506036e-03 4.98943968078288e-05
2.06387500000000e+01 3.10249355826675e-03 4.87131017425432e-05
2.08362500000000e+01 3.01451085912237e-03 4.75575970388324e-05
2.10337500000000e+01 2.92902323537569e-03 4.64274156240670e-05
2.12312500000000e+01 2.84595992991990e-03 4.53220941168051e-05
2.14287500000000e+01 2.76525219222810e-03 4.42411730934881e-05
2.16262500000000e+01 2.68683322144930e-03 4.31841973316910e-05
2.18237500000000e+01 2.61063811111812e-03 4.21507160313512e-05
2.20212500000000e+01 2.53660379543249e-03 4.11402830153275e-05
2.22187500000000e+01 2.46466899705479e-03 4.01524569105537e-05
2.24162500000000e+01 2.39477417639334e-03 3.91868013109888e-05
2.26137500000000e+01 2.32686148232217e-03 3.82428849234875e-05
2.28112500000000e+01 2.26087470429832e-03 3.73202816976563e-05
2.30087500000000e+01 2.19675922583700e-03 3.64185709407000e-05
2.32062500000000e+01 2.13446197930624e-03 3.55373374181995e-05
2.34037500000000e+01 2.07393140200334e-03 3.46761714417145e-05
2.36012500000000e+01 2.01511739347709e-03 3.38346689440570e-05
2.37987500000000e+01 1.95797127406019e-03 3.30124315430213e-05
2.39962500000000e+01 1.90244574457764e-03 3.22090665943210e-05
2.41937500000000e+01 1.84849484719779e-03 3.14241872344439e-05
2.43912500000000e+01 1.79607392739360e-03 3.06574124140848e-05
2.45887500000000e+01 1.74513959698254e-03 2.99083669227846e-05
2.47862500000000e+01 1.69564969821478e-03 2.91766814053721e-05
2.49837500000000e+01 1.64756326887966e-03 2.84619923707631e-05
2.51812500000000e+01 1.60084050840175e-03 2.77639421936456e-05
2.53787500000000e+01 1.55544274489841e-03 2.70821791095496e-05
2.55762500000000e+01 1.51133240317149e-03 2.64163572037682e-05
2.57737500000000e+01 1.46847297360682e-03 2.57661363945717e-05
2.59712500000000e+01 1.42682898195558e-03 2.51311824111357e-05
2.61687500000000e+01 1.38636595997271e-03 2.45111667665706e-05
2.63662500000000e+01 1.34705041688793e-03 2.39057667264264e-05
2.65637500000000e+01 1.30884981168585e-03 2.33146652730216e-05
2.67612500000000e+01 1.27173252617211e-03 2.27375510659261e-05
2.69587500000000e+01 1.23566783880340e-03 2.21741183989061e-05
2.71562500000000e+01 1.20062589925960e-03 2.16240671536242e-05
2.73537500000000e+01 1.16657770373699e-03 2.10871027503704e-05
2.75512500000000e+01 1.13349507094218e-03 2.05629360960820e-05
2.77487500000000e+01 1.10135061876673e-03 2.00512835298971e-05
2.79462500000000e+01 1.07011774162337e-03 1.95518667664701e-05
2.81437500000000e+01 1.03977058842480e-03 1.90644128372667e-05
2.83412500000000e+01 1.01028404118708e-03 1.85886540300397e-05
2.85387500000000e+01 9.81633694239776e-04 1.81243278266771e-05
2.87362500000000e+01 9.53795834025644e-04 1.76711768396022e-05
2.89337500000000e+01 9.26747419473217e-04 1.72289487468935e-05
2.91312500000000e+01 9.00466062925974e-04 1.67973962262831e-05
2.93287500000000e+01 8.74930011612336e-04 1.63762768881813e-05
2.95262500000000e+01 8.50118129641154e-04 1.59653532078678e-05
2.97237500000000e+01 8.26009880507777e-04 1.55643924569785e-05
2.99212500000000e+01 8.02585310096230e-04 1.51731666344108e-05
3.01187500000000e+01 7.79825030163421e-04 1.47914523967625e-05
3.03162500000000e+01 7.57710202291724e-04 1.44190309884106e-05
3.05137500000000e+01 7.36222522296638e-04 1.40556881713296e-05
3.07112500000000e+01 7.15344205076626e-04 1.37012141547447e-05
3.09087500000000e+01 6.95057969892601e-04 1.33554035247050e-05
3.11062500000000e+01 6.75347026064850e-04 1.30180551736595e-05
3.13037500000000e+01 6.56195059075592e-04 1.26889722301106e-05
3.15012500000000e+01 6.37586217065644e-04 1.23679619884177e-05
3.16987500000000e+01 6.19505097714014e-04 1.20548358388136e-05
3.18962500000000e+01 6.01936735489589e-04 1.17494091976976e-05
3.20937500000000e+01 5.84866589264335e-04 1.14515014382588e-05
3.22912500000000e+01 5.68280530277774e-04 1.11609358214844e-05
3.24887500000000e+01 5.52164830442779e-04 1.08775394275990e-05
3.26862500000000e+01 5.36506150982993e-04 1.06011430879818e-05
3.28837500000000e+01 5.21291531392481e-04 1.03315813176010e-05
3.30812500000000e+01 5.06508378708471e-04 1.00686922480030e-05
3.32787500000000e+01 4.92144457088305e-04 9.81231756089307e-06
3.34762500000000e+01 4.78187877681977e-04 9.56230242233532e-06
3.36737500000000e+01 4.64627088791867e-04 9.31849541760461e-06
3.38712500000000e+01 4.51450866311541e-04 9.08074848671437e-06
3.40687500000000e+01 4.38648304435684e-04 8.84891686064413e-06
3.42662500000000e+01 4.26208806633498e-04 8.62285899828863e-06
3.44637500000000e+01 4.14122076878072e-04 8.40243652414740e-06
3.46612500000000e+01 4.02378111124486e-04 8.18751416677155e-06
3.48587500000000e+01 3.90967189029574e-04 7.97795969798344e-06
3.50562500000000e+01 3.79879865906515e-04 7.77364387288212e-06
3.52537500000000e+01 3.69106964907574e-04 7.57444037064566e-06
3.54512500000000e+01 3.58639569428532e-04 7.38022573614106e-06
3.56487500000000e+01 3.48469015728518e-04 7.19087932234996e-06
3.58462500000000e+01 3.38586885759130e-04 7.00628323361640e-06
3.60437500000000e+01 3.28985000196918e-04 6.82632226972307e-06
3.62412500000000e+01 3.19655411673450e-04 6.65088387080013e-06
3.64387500000000e+01 3.10590398197370e-04 6.47985806306965e-06
3.66362500000000e+01 3.01782456762998e-04 6.31313740542792e-06
3.68337500000000e+01 2.93224297140174e-04 6.15061693686670e-06
3.70312500000000e+01 2.84908835840226e-04 5.99219412473334e-06
3.72287500000000e+01 2.76829190253045e-04 5.83776881382943e-06
3.74262500000000e+01 2.68978672950433e-04 5.68724317634572e-06
3.76237500000000e+01 2.61350786150993e-04 5.54052166263132e-06
3.78212500000000e+01 2.53939216341992e-04 5.39751095279448e-06
3.80187500000000e+01 2.46737829053743e-04 5.25811990912995e-06
3.82162500000000e+01 2.39740663782174e-04 5.12225952936983e-06
3.84137500000000e+01 2.32941929055387e-04 4.98984290075209e-06
3.86112500000000e+01 2.26335997640129e-04 4.86078515490148e-06
3.88087500000000e+01 2.19917401884191e-04 4.73500342351723e-06
3.90062500000000e+01 2.13680829190903e-04 4.61241679486039e-06
3.92037500000000e+01 2.07621117621952e-04 4.49294627103437e-06
3.94012500000000e+01 2.01733251624913e-04 4.37651472605125e-06
3.95987500000000e+01 1.96012357881931e-04 4.26304686467673e-06
3.97962500000000e+01 1.90453701276133e-04 4.15246918204508e-06
3.99937500000000e+01 1.85052680972428e-04 4.04470992403630e-06
4.01912500000000e+01 1.79804826609452e-04 3.93969904840743e-06
4.03887500000000e+01 1.74705794599495e-04 3.83736818666839e-06
4.05862500000000e+01 1.69751364533373e-04 3.73765060669411e-06
4.07837500000000e+01 1.64937435687239e-04 3.64048117606411e-06
4.09812500000000e+01 1.60260023628462e-04 3.54579632611935e-06
4.11787500000000e+01 1.55715256917762e-04 3.45353401672794e-06
4.13762500000000e+01 1.51299373904861e-04 3.36363370174971e-06
4.15737500000000e+01 1.47008719615013e-04 3.27603629518995e-06
4.17712500000000e+01 1.42839742723820e-04 3.19068413803298e-06
4.19687500000000e+01 1.38788992617847e-04 3.10752096574556e-06
4.21662500000000e+01 1.34853116538585e-04 3.02649187644015e-06
4.23637500000000e+01 1.31028856807414e-04 2.94754329968848e-06
4.25612500000000e+01 1.27313048129262e-04 2.87062296597539e-06
4.27587500000000e+01 1.23702614972725e-04 2.79567987678285e-06
4.29562500000000e+01 1.20194569024485e-04 2.72266427529450e-06
4.31537500000000e+01 1.16786006715922e-04 2.65152761771053e-06
4.33512500000000e+01 1.13474106819859e-04 2.58222254516316e-06
4.35487500000000e+01 1.10256128115469e-04 2.51470285622289e-06
4.37462500000000e+01 1.07129407119398e-04 2.44892347998541e-06
4.39437500000000e+01 1.04091355881230e-04 2.38484044972948e-06
4.41412500000000e+01 1.01139459841470e-04 2.32241087713612e-06
4.43387500000000e+01 9.82712757502748e-05 2.26159292705935e-06
4.45362500000000e+01 9.54844296452016e-05 2.20234579283856e-06
4.47337500000000e+01 9.27766148863083e-05 2.14462967214337e-06
4.49312500000000e+01 9.01455902469740e-05 2.08840574334114e-06
4.51287500000000e+01 8.75891780588621e-05 2.03363614237782e-06
4.53262500000000e+01 8.51052624094896e-05 1.98028394016276e-06
4.55237500000000e+01 8.26917873909112e-05 1.92831312044814e-06
4.57212500000000e+01 8.03467553980681e-05 1.87768855819411e-06
4.59187500000000e+01 7.80682254753938e-05 1.82837599841021e-06
4.61162500000000e+01 7.58543117103079e-05 1.78034203546428e-06
4.63137500000000e+01 7.37031816722684e-05 1.73355409285008e-06
4.65112500000000e+01 7.16130548960900e-05 1.68798040340451e-06
4.67087500000000e+01 6.95822014082741e-05 1.64358998996612e-06
4.69062500000000e+01 6.76089402951301e-05 1.60035264646607e-06
4.71037500000000e+01 6.56916383115026e-05 1.55823891944330e-06
4.73012500000000e+01 6.38287085289534e-05 1.51722008997532e-06
4.74987500000000e+01 6.20186090222798e-05 1.47726815601669e-06
4.76962500000000e+01 6.02598415932804e-05 1.43835581513681e-06
4.78937500000000e+01 5.85509505307149e-05 1.40045644764904e-06
4.80912500000000e+01 5.68905214054280e-05 1.36354410012350e-06
4.82887500000000e+01 5.52771798996436e-05 1.32759346927545e-06
4.84862500000000e+01 5.37095906694578e-05 1.29257988622182e-06
4.86837500000000e+01 5.21864562395902e-05 1.25847930109826e-06
4.88812500000000e+01 5.07065159294792e-05 1.22526826802929e-06
4.90787500000000e+01 4.92685448098308e-05 1.19292393044429e-06
4.92762500000000e+01 4.78713526887596e-05 1.16142400673199e-06
4.94737500000000e+01 4.65137831266805e-05 1.13074677622661e-06
4.96712500000000e+01 4.51947124791374e-05 1.10087106551853e-06
4.98687500000000e+01 4.39130489667755e-05 1.07177623508271e-06
5.00662500000000e+01 4.26677317716886e-05 1.04344216621811e-06
5.02637500000000e+01 4.14577301593924e-05 1.01584924829150e-06
5.04612500000000e+01 4.02820426256977e-05 9.88978366279139e-07
5.06587500000000e+01 3.91396960677769e-05 9.62810888600014e-07
5.08562500000000e+01 3.80297449787383e-05 9.37328655234330e-07
5.10537500000000e+01 3.69512706650412e-05 9.12513966121059e-07
5.12512500000000e+01 3.59033804861037e-05 8.88349569828490e-07
5.14487500000000e+01 3.48852071154748e-05 8.64818652491946e-07
5.16462500000000e+01 3.38959078229584e-05 8.41904827012714e-07
5.18437500000000e+01 3.29346637770953e-05 8.19592122512532e-07
5.20412500000000e+01 3.20006793674258e-05 7.97864974038031e-07
5.22387500000000e+01 3.10931815459726e-05 7.76708212509542e-07
5.24362500000000e+01 3.02114191873977e-05 7.56107054908961e-07
5.26337500000000e+01 2.93546624673050e-05 7.36047094701310e-07
5.28312500000000e+01 2.85222022581729e-05 7.16514292484821e-07
5.30287500000000e+01 2.77133495424182e-05 6.97494966864407e-07
5.32262500000000e+01 2.69274348421035e-05 6.78975785543576e-07
5.34237500000000e+01 2.61638076648190e-05 6.60943756629829e-07
5.36212500000000e+01 2.54218359652771e-05 6.43386220148780e-07
5.38187500000000e+01 2.47009056221758e-05 6.26290839762266e-07
5.40162500000000e+01 2.40004199298982e-05 6.09645594685844e-07
5.42137500000000e+01 2.33197991046254e-05 5.93438771801130e-07
5.44112500000000e+01 2.26584798044571e-05 5.77658957958577e-07
5.46087500000000e+01 2.20159146631396e-05 5.62295032466350e-07
5.48062500000000e+01 2.13915718370170e-05 5.47336159761008e-07
5.50037500000000e+01 2.07849345648310e-05 5.32771782255864e-07
5.52012500000000e+01 2.01955007400031e-05 5.18591613362958e-07
5.53987500000000e+01 1.96227824950472e-05 5.04785630684577e-07
5.55962500000000e+01 1.90663057977670e-05 4.91344069370485e-07
5.57937500000000e+01 1.85256100589056e-05 4.78257415637039e-07
5.59912500000000e+01 1.80002477509209e-05 4.65516400444344e-07
5.61887500000000e+01 1.74897840375722e-05 4.53111993327899e-07
5.63862500000000e+01 1.69937964140112e-05 4.41035396381051e-07
5.65837500000000e+01 1.65118743570804e-05 4.29278038384777e-07
5.67812500000000e+01 1.60436189855268e-05 4.17831569081384e-07
5.69787500000000e+01 1.55886427298535e-05 4.06687853588697e-07
5.71762500000000e+01 1.51465690115326e-05 3.95838966951497e-07
5.73737500000000e+01 1.47170319313152e-05 3.85277188826949e-07
5.75712500000000e+01 1.42996759663815e-05 3.74994998300876e-07
5.77687500000000e+01 1.38941556760782e-05 3.64985068831802e-07
5.79662500000000e+01 1.35001354160019e-05 3.55240263319767e-07
5.81637500000000e+01 1.31172890601893e-05 3.45753629296902e-07
5.83612500000000e+01 1.27452997311874e-05 3.36518394236949e-07
5.85587500000000e+01 1.23838595377772e-05 3.27527960980858e-07
5.87562500000000e+01 1.20326693201359e-05 3.18775903275700e-07
5.89537500000000e+01 1.16914384022259e-05 3.10255961424234e-07
5.91512500000000e+01 1.13598843512055e-05 3.01962038042457e-07
5.93487500000000e+01 1.10377327436626e-05 2.93888193922575e-07
5.95462500000000e+01 1.07247169384778e-05 2.86028643998855e-07
5.97437500000000e+01 1.04205778561282e-05 2.78377753413902e-07
5.99412500000000e+01 1.01250637642510e-05 2.70930033682963e-07
6.01387500000000e+01 9.83793006928683e-06 2.63680138953887e-07
6.03362500000000e+01 9.55893911403310e-06 2.56622862360441e-07
6.05337500000000e+01 9.28785998093761e-06 2.49753132466737e-07
6.07312500000000e+01 9.02446830097088e-06 2.43066009800569e-07
6.09287500000000e+01 8.76854606791853e-06 2.36556683473519e-07
6.11262500000000e+01 8.51988145794003e-06 2.30220467885707e-07
6.13237500000000e+01 8.27826865424468e-06 2.24052799513167e-07
6.15212500000000e+01 8.04350767673936e-06 2.18049233775826e-07
6.17187500000000e+01 7.81540421650742e-06 2.12205441984137e-07
6.19162500000000e+01 7.59376947498140e-06 2.06517208362434e-07
6.21137500000000e+01 7.37842000767672e-06 2.00980427147152e-07
6.23112500000000e+01 7.16917757235676e-06 1.95591099758110e-07
