Energy (eV)          EEDF (eV^-(3/2))     First Anisotropy
6.00000000000000e-03 4.25763111713334e-01 2.14266060328581e-04
1.80000000000000e-02 4.23098008628111e-01 3.53896531066663e-04
3.00000000000000e-02 4.20449588001474e-01 4.67401773539263e-04
4.20000000000000e-02 4.17817745406228e-01 5.53765592977162e-04
5.40000000000000e-02 4.15202377070319e-01 6.25904277885991e-04
6.60000000000000e-02 4.12603379871496e-01 6.88696899611387e-04
7.80000000000000e-02 4.10020651333078e-01 7.44666218658952e-04
9.00000000000000e-02 4.07454089619872e-01 7.95334380939913e-04
1.02000000000000e-01 4.04903593534143e-01 8.41710064602591e-04
1.14000000000000e-01 4.02369062511620e-01 8.84505595153333e-04
1.26000000000000e-01 3.99850396617523e-01 9.24247839744303e-04
1.38000000000000e-01 3.97347496542629e-01 9.61340495182515e-04
1.50000000000000e-01 3.94860263599348e-01 9.96101629766859e-04
1.62000000000000e-01 3.92388599717838e-01 1.02878757975749e-03
1.74000000000000e-01 3.89932407442133e-01 1.05960883862637e-03
1.86000000000000e-01 3.87491589926301e-01 1.08874100668899e-03
1.98000000000000e-01 3.85066050930628e-01 1.11633256550715e-03
2.10000000000000e-01 3.82655694817821e-01 1.14251053957307e-03
2.22000000000000e-01 3.80260426549237e-01 1.16738471032249e-03
2.34000000000000e-01 3.77880151681137e-01 1.19105081271306e-03
2.46000000000000e-01 3.75514776360961e-01 1.21359300076090e-03
2.58000000000000e-01 3.73164207323627e-01 1.23508577749248e-03
2.70000000000000e-01 3.70828351887855e-01 1.25559552567638e-03
2.82000000000000e-01 3.68507117952513e-01 1.27518173635290e-03
2.94000000000000e-01 3.66200413992983e-01 1.29389800540552e-03
3.06000000000000e-01 3.63908149057554e-01 1.31179284984188e-03
3.18000000000000e-01 3.61630232763836e-01 1.32891038233583e-03
3.30000000000000e-01 3.59366575295195e-01 1.34529087317179e-03
3.42000000000000e-01 3.57117087397214e-01 1.36097122188294e-03
3.54000000000000e-01 3.54881680374171e-01 1.37598535582197e-03
3.66000000000000e-01 3.52660266085543e-01 1.39036456913136e-03
3.78000000000000e-01 3.50452756942531e-01 1.40413781273059e-03
3.90000000000000e-01 3.48259065904606e-01 1.41733194376411e-03
4.02000000000000e-01 3.46079106476077e-01 1.42997194128007e-03
4.14000000000000e-01 3.43912792702681e-01 1.44208109360689e-03
4.26000000000000e-01 3.41760039168194e-01 1.45368116187444e-03
4.38000000000000e-01 3.39620760991061e-01 1.46479252332099e-03
4.50000000000000e-01 3.37494873821053e-01 1.47543429738542e-03
4.62000000000000e-01 3.35382293835937e-01 1.48562445706787e-03
4.74000000000000e-01 3.33282937738175e-01 1.49537992762949e-03
4.86000000000000e-01 3.31196722751635e-01 1.50471667436442e-03
4.98000000000000e-01 3.29123566618332e-01 1.51364978090155e-03
5.10000000000000e-01 3.27063387595181e-01 1.52219351926877e-03
5.22000000000000e-01 3.25016104450776e-01 1.53036141276614e-03
5.34000000000000e-01 3.22981636462186e-01 1.53816629254000e-03
5.46000000000000e-01 3.20959903411773e-01 1.54562034862110e-03
5.58000000000000e-01 3.18950825584029e-01 1.55273517608284e-03
5.70000000000000e-01 3.16954323762431e-01 1.55952181688471e-03
5.82000000000000e-01 3.14970319226320e-01 1.56599079789037e-03
5.94000000000000e-01 3.12998733747797e-01 1.57215216548494e-03
6.06000000000000e-01 3.11039489588636e-01 1.57801551716063e-03
6.18000000000000e-01 3.09092509497222e-01 1.58359003039387e-03
6.30000000000000e-01 3.07157716705502e-01 1.58888448909623e-03
6.42000000000000e-01 3.05235034925962e-01 1.59390730788775e-03
6.54000000000000e-01 3.03324388348613e-01 1.59866655441091e-03
6.66000000000000e-01 3.01425701638009e-01 1.60316996987827e-03
6.78000000000000e-01 2.99538899930272e-01 1.60742498802419e-03
6.90000000000000e-01 2.97663908830142e-01 1.61143875261233e-03
7.02000000000000e-01 2.95800654408040e-01 1.61521813363320e-03
7.14000000000000e-01 2.93949063197158e-01 1.61876974231212e-03
7.26000000000000e-01 2.92109062190562e-01 1.62209994503400e-03
7.38000000000000e-01 2.90280578838309e-01 1.62521487628107e-03
7.50000000000000e-01 2.88463541044589e-01 1.62812045066912e-03
7.62000000000000e-01 2.86657877164884e-01 1.63082237415975e-03
7.74000000000000e-01 2.84863516003140e-01 1.63332615451744e-03
7.86000000000000e-01 2.83080386808962e-01 1.63563711107350e-03
7.98000000000000e-01 2.81308419274823e-01 1.63776038385508e-03
8.10000000000000e-01 2.79547543533293e-01 1.63970094212816e-03
8.22000000000000e-01 2.77797690154283e-01 1.64146359240157e-03
8.34000000000000e-01 2.76058790142307e-01 1.64305298593440e-03
8.46000000000000e-01 2.74330774933766e-01 1.64447362578401e-03
8.58000000000000e-01 2.72613576394237e-01 1.64572987342985e-03
8.70000000000000e-01 2.70907126815792e-01 1.64682595500431e-03
8.82000000000000e-01 2.69211358914330e-01 1.64776596715986e-03
8.94000000000000e-01 2.67526205826916e-01 1.64855388259785e-03
9.06000000000000e-01 2.65851601109153e-01 1.64919355528392e-03
9.18000000000000e-01 2.64187478732558e-01 1.64968872537183e-03
9.30000000000000e-01 2.62533773081959e-01 1.65004302385577e-03
9.42000000000000e-01 2.60890418952907e-01 1.65025997696955e-03
9.54000000000000e-01 2.59257351549110e-01 1.65034301034998e-03
9.66000000000000e-01 2.57634506479869e-01 1.65029545298037e-03
9.78000000000000e-01 2.56021819757549e-01 1.65012054092794e-03
9.90000000000000e-01 2.54419227795050e-01 1.64982142088902e-03
1.00200000000000e+00 2.52826667403300e-01 1.64940115355428e-03
1.01400000000000e+00 2.51244075788766e-01 1.64886271680494e-03
1.02600000000000e+00 2.49671390550977e-01 1.64820900875117e-03
1.03800000000000e+00 2.48108549680062e-01 1.64744285062176e-03
1.05000000000000e+00 2.46555491554309e-01 1.64656698951463e-03
1.06200000000000e+00 2.45012154937730e-01 1.64558410101633e-03
1.07400000000000e+00 2.43478478977652e-01 1.64449679169819e-03
1.08600000000000e+00 2.41954403202311e-01 1.64330760149634e-03
1.09800000000000e+00 2.40439867518476e-01 1.64201900598283e-03
1.11000000000000e+00 2.38934812209072e-01 1.64063341853362e-03
1.12200000000000e+00 2.37439177930829e-01 1.63915319239941e-03
1.13400000000000e+00 2.35952905711943e-01 1.63758062268476e-03
1.14600000000000e+00 2.34475936949748e-01 1.63591794824028e-03
1.15800000000000e+00 2.33008213408407e-01 1.63416735347365e-03
1.17000000000000e+00 2.31549677216616e-01 1.63233097008272e-03
1.18200000000000e+00 2.30100270865322e-01 1.63041087871513e-03
1.19400000000000e+00 2.28659937205453e-01 1.62840911055896e-03
1.20600000000000e+00 2.27228619445670e-01 1.62632764886740e-03
1.21800000000000e+00 2.25806261150123e-01 1.62416843042127e-03
1.23000000000000e+00 2.24392806236226e-01 1.62193334693201e-03
1.24200000000000e+00 2.22988198972449e-01 1.61962424638887e-03
1.25400000000000e+00 2.21592383976119e-01 1.61724293435276e-03
1.26600000000000e+00 2.20205306211233e-01 1.61479117519892e-03
1.27800000000000e+00 2.18826910986295e-01 1.61227069331239e-03
1.29000000000000e+00 2.17457143952152e-01 1.60968317423672e-03
1.30200000000000e+00 2.16095951099857e-01 1.60703026577956e-03
1.31400000000000e+00 2.14743278758534e-01 1.60431357907669e-03
1.32600000000000e+00 2.13399073593267e-01 1.60153468961600e-03
1.33800000000000e+00 2.12063282602994e-01 1.59869513822463e-03
1.35000000000000e+00 2.10735853118419e-01 1.59579643201959e-03
1.36200000000000e+00 2.09416732799933e-01 1.59284004532390e-03
1.37400000000000e+00 2.08105869635552e-01 1.58982742055039e-03
1.38600000000000e+00 2.06803211938866e-01 1.58675996905408e-03
1.39800000000000e+00 2.05508708347000e-01 1.58363907195467e-03
1.41000000000000e+00 2.04222307818590e-01 1.58046608093058e-03
1.42200000000000e+00 2.02943959631772e-01 1.57724231898542e-03
1.43400000000000e+00 2.01673613382177e-01 1.57396908118855e-03
1.44600000000000e+00 2.00411218980948e-01 1.57064763539073e-03
1.45800000000000e+00 1.99156726652764e-01 1.56727922291566e-03
1.47000000000000e+00 1.97910086933878e-01 1.56386505922858e-03
1.48200000000000e+00 1.96671250670164e-01 1.56040633458311e-03
1.49400000000000e+00 1.95440169015183e-01 1.55690421464684e-03
1.50600000000000e+00 1.94216793428252e-01 1.55335984110696e-03
1.51800000000000e+00 1.93001075672534e-01 1.54977433225634e-03
1.53000000000000e+00 1.91792967813136e-01 1.54614878356088e-03
1.54200000000000e+00 1.90592422215218e-01 1.54248426820965e-03
1.55400000000000e+00 1.89399391542111e-01 1.53878183764726e-03
1.56600000000000e+00 1.88213828753459e-01 1.53504252208994e-03
1.57800000000000e+00 1.87035687103357e-01 1.53126733102617e-03
1.59000000000000e+00 1.85864920138510e-01 1.52745725370166e-03
1.60200000000000e+00 1.84701481696402e-01 1.52361325958986e-03
1.61400000000000e+00 1.83545325903475e-01 1.51973629884852e-03
1.62600000000000e+00 1.82396407173323e-01 1.51582730276265e-03
1.63800000000000e+00 1.81254680204890e-01 1.51188718417471e-03
1.65000000000000e+00 1.80120099980686e-01 1.50791683790178e-03
1.66200000000000e+00 1.78992621765014e-01 1.50391714114071e-03
1.67400000000000e+00 1.77872201102202e-01 1.49988895386234e-03
1.68600000000000e+00 1.76758793814853e-01 1.49583311919388e-03
1.69800000000000e+00 1.75652356002104e-01 1.49175046379041e-03
1.71000000000000e+00 1.74552844037892e-01 1.48764179819630e-03
1.72200000000000e+00 1.73460214569235e-01 1.48350791719652e-03
1.73400000000000e+00 1.72374424514523e-01 1.47934960015798e-03
1.74600000000000e+00 1.71295431061821e-01 1.47516761136204e-03
1.75800000000000e+00 1.70223191667178e-01 1.47096270032762e-03
1.77000000000000e+00 1.69157664052950e-01 1.46673560212535e-03
1.78200000000000e+00 1.68098806206135e-01 1.46248703768383e-03
1.79400000000000e+00 1.67046576376714e-01 1.45821771408747e-03
1.80600000000000e+00 1.66000933076008e-01 1.45392832486654e-03
1.81800000000000e+00 1.64961835075038e-01 1.44961955027946e-03
1.83000000000000e+00 1.63929241402903e-01 1.44529205758783e-03
1.84200000000000e+00 1.62903111345162e-01 1.44094650132448e-03
1.85400000000000e+00 1.61883404442231e-01 1.43658352355454e-03
1.86600000000000e+00 1.60870080487787e-01 1.43220375412972e-03
1.87800000000000e+00 1.59863099527178e-01 1.42780781093623e-03
1.89000000000000e+00 1.58862421855858e-01 1.42339630013672e-03
1.90200000000000e+00 1.57868008017810e-01 1.41896981640581e-03
1.91400000000000e+00 1.56879818803999e-01 1.41452894315988e-03
1.92600000000000e+00 1.55897815250819e-01 1.41007425278145e-03
1.93800000000000e+00 1.54921958638565e-01 1.40560630683758e-03
1.95000000000000e+00 1.53952210489897e-01 1.40112565629318e-03
1.96200000000000e+00 1.52988532568330e-01 1.39663284171956e-03
1.97400000000000e+00 1.52030886876722e-01 1.39212839349745e-03
1.98600000000000e+00 1.51079235655781e-01 1.38761283201504e-03
1.99800000000000e+00 1.50133541382568e-01 1.38308666786195e-03
2.01000000000000e+00 1.49193766769026e-01 1.37855040201829e-03
2.02200000000000e+00 1.48259874760505e-01 1.37400452603916e-03
2.03400000000000e+00 1.47331828534300e-01 1.36944952223505e-03
2.04600000000000e+00 1.46409591498204e-01 1.36488586384796e-03
2.05800000000000e+00 1.45493127289061e-01 1.36031401522349e-03
2.07000000000000e+00 1.44582399771333e-01 1.35573443197903e-03
2.08200000000000e+00 1.43677373035676e-01 1.35114756116808e-03
2.09400000000000e+00 1.42778011397525e-01 1.34655384144087e-03
2.10600000000000e+00 1.41884279395683e-01 1.34195370320140e-03
2.11800000000000e+00 1.40996141790929e-01 1.33734756876098e-03
2.13000000000000e+00 1.40113563564623e-01 1.33273585248826e-03
2.14200000000000e+00 1.39236509917328e-01 1.32811896095603e-03
2.15400000000000e+00 1.38364946267437e-01 1.32349729308464e-03
2.16600000000000e+00 1.37498838249810e-01 1.31887124028258e-03
2.17800000000000e+00 1.36638151714418e-01 1.31424118658391e-03
2.19000000000000e+00 1.35782852724998e-01 1.30960750878238e-03
2.20200000000000e+00 1.34932907557715e-01 1.30497057656310e-03
2.21400000000000e+00 1.34088282699830e-01 1.30033075263126e-03
2.22600000000000e+00 1.33248944848379e-01 1.29568839283795e-03
2.23800000000000e+00 1.32414860908864e-01 1.29104384630338e-03
2.25000000000000e+00 1.31585997993942e-01 1.28639745553779e-03
2.26200000000000e+00 1.30762323422134e-01 1.28174955655961e-03
2.27400000000000e+00 1.29943804716532e-01 1.27710047901096e-03
2.28600000000000e+00 1.29130409603521e-01 1.27245054627099e-03
2.29800000000000e+00 1.28322106011505e-01 1.26780007556697e-03
2.31000000000000e+00 1.27518862069643e-01 1.26314937808293e-03
2.32200000000000e+00 1.26720646106593e-01 1.25849875906588e-03
2.33400000000000e+00 1.25927426649262e-01 1.25384851793034e-03
2.34600000000000e+00 1.25139172421567e-01 1.24919894836068e-03
2.35800000000000e+00 1.24355852343199e-01 1.24455033841088e-03
2.37000000000000e+00 1.23577435528401e-01 1.23990297060283e-03
2.38200000000000e+00 1.22803891284745e-01 1.23525712202250e-03
2.39400000000000e+00 1.22035189111927e-01 1.23061306441419e-03
2.40600000000000e+00 1.21271298700564e-01 1.22597106427286e-03
2.41800000000000e+00 1.20512189930994e-01 1.22133138293468e-03
2.43000000000000e+00 1.19757832872095e-01 1.21669427666593e-03
2.44200000000000e+00 1.19008197780099e-01 1.21205999675003e-03
2.45400000000000e+00 1.18263255097424e-01 1.20742878957293e-03
2.46600000000000e+00 1.17522975451504e-01 1.20280089670684e-03
2.47800000000000e+00 1.16787329653635e-01 1.19817655499227e-03
2.49000000000000e+00 1.16056288697823e-01 1.19355599661849e-03
2.50200000000000e+00 1.15329823759637e-01 1.18893944920274e-03
2.51400000000000e+00 1.14607906195078e-01 1.18432713586768e-03
2.52600000000000e+00 1.13890507539445e-01 1.17971927531735e-03
2.53800000000000e+00 1.13177599506214e-01 1.17511608191183e-03
2.55000000000000e+00 1.12469153985926e-01 1.17051776574028e-03
2.56200000000000e+00 1.11765143045072e-01 1.16592453269299e-03
2.57400000000000e+00 1.11065538924997e-01 1.16133658453185e-03
2.58600000000000e+00 1.10370314040805e-01 1.15675411895941e-03
2.59800000000000e+00 1.09679440980268e-01 1.15217732968678e-03
2.61000000000000e+00 1.08992892502750e-01 1.14760640650041e-03
2.62200000000000e+00 1.08310641538126e-01 1.14304153532753e-03
2.63400000000000e+00 1.07632661185724e-01 1.13848289830013e-03
2.64600000000000e+00 1.06958924713256e-01 1.13393067381839e-03
2.65800000000000e+00 1.06289405555767e-01 1.12938503661254e-03
2.67000000000000e+00 1.05624077314590e-01 1.12484615780339e-03
2.68200000000000e+00 1.04962913756301e-01 1.12031420496228e-03
2.69400000000000e+00 1.04305888811688e-01 1.11578934216965e-03
2.70600000000000e+00 1.03652976574719e-01 1.11127173007276e-03
2.71800000000000e+00 1.03004151301526e-01 1.10676152594217e-03
2.73000000000000e+00 1.02359387409386e-01 1.10225888372718e-03
2.74200000000000e+00 1.01718659475714e-01 1.09776395411061e-03
2.75400000000000e+00 1.01081942237058e-01 1.09327688456230e-03
2.76600000000000e+00 1.00449210588107e-01 1.08879781939183e-03
2.77800000000000e+00 9.98204395806978e-02 1.08432689980041e-03
2.79000000000000e+00 9.91956044228335e-02 1.07986426393151e-03
2.80200000000000e+00 9.85746804777043e-02 1.07541004692095e-03
2.81400000000000e+00 9.79576432627167e-02 1.07096438094598e-03
2.82600000000000e+00 9.73444684485286e-02 1.06652739527356e-03
2.83800000000000e+00 9.67351318580893e-02 1.06209921630777e-03
2.85000000000000e+00 9.61296094656868e-02 1.05767996763644e-03
2.86200000000000e+00 9.55278773960001e-02 1.05326977007698e-03
2.87400000000000e+00 9.49299119231581e-02 1.04886874172128e-03
2.88600000000000e+00 9.43356894698037e-02 1.04447699798014e-03
2.89800000000000e+00 9.37451866061648e-02 1.04009465162678e-03
2.91000000000000e+00 9.31583800491297e-02 1.03572181283947e-03
2.92200000000000e+00 9.25752466613297e-02 1.03135858924376e-03
2.93400000000000e+00 9.19957634502265e-02 1.02700508595372e-03
2.94600000000000e+00 9.14199075672057e-02 1.02266140561256e-03
2.95800000000000e+00 9.08476563066760e-02 1.01832764843278e-03
2.97000000000000e+00 9.02789871051735e-02 1.01400391223540e-03
2.98200000000000e+00 8.97138775404727e-02 1.00969029248849e-03
2.99400000000000e+00 8.91523053307019e-02 1.00538688234526e-03
3.00600000000000e+00 8.85942483334650e-02 1.00109377268165e-03
3.01800000000000e+00 8.80396845449679e-02 9.96811052132849e-04
3.03000000000000e+00 8.74885920991516e-02 9.92538807129507e-04
3.04200000000000e+00 8.69409492668297e-02 9.88277121933454e-04
3.05400000000000e+00 8.63967344548313e-02 9.84026078672543e-04
3.06600000000000e+00 8.58559262051502e-02 9.79785757375144e-04
3.07800000000000e+00 8.53185031940983e-02 9.75556236003958e-04
3.09000000000000e+00 8.47844442314655e-02 9.71337590489276e-04
3.10200000000000e+00 8.42537282596832e-02 9.67129894761900e-04
3.11400000000000e+00 8.37263343529951e-02 9.62933220785307e-04
3.12600000000000e+00 8.32022417166313e-02 9.58747638587295e-04
3.13800000000000e+00 8.26814296859886e-02 9.54573216291299e-04
3.15000000000000e+00 8.21638777258160e-02 9.50410020147168e-04
3.16200000000000e+00 8.16495654294046e-02 9.46258114561190e-04
3.17400000000000e+00 8.11384725177832e-02 9.42117562125971e-04
3.18600000000000e+00 8.06305788389188e-02 9.37988423649571e-04
3.19800000000000e+00 8.01258643669217e-02 9.33870758184396e-04
3.21000000000000e+00 7.96243092012561e-02 9.29764623055578e-04
3.22200000000000e+00 7.91258935659556e-02 9.25670073888757e-04
3.23400000000000e+00 7.86305978088431e-02 9.21587164637621e-04
3.24600000000000e+00 7.81384024007561e-02 9.17515947610869e-04
3.25800000000000e+00 7.76492879347769e-02 9.13456473498769e-04
3.27000000000000e+00 7.71632351254668e-02 9.09408791399325e-04
3.28200000000000e+00 7.66802248081065e-02 9.05372948844280e-04
3.29400000000000e+00 7.62002379379397e-02 9.01348991824264e-04
3.30600000000000e+00 7.57232555894224e-02 8.97336964813568e-04
3.31800000000000e+00 7.52492589554771e-02 8.93336910795119e-04
3.33000000000000e+00 7.47782293467508e-02 8.89348871284540e-04
3.34200000000000e+00 7.43101481908780e-02 8.85372886353731e-04
3.35400000000000e+00 7.38449970317489e-02 8.81408994654618e-04
3.36600000000000e+00 7.33827575287813e-02 8.77457233442110e-04
3.37800000000000e+00 7.29234114561975e-02 8.73517638596810e-04
3.39000000000000e+00 7.24669407023058e-02 8.69590244647583e-04
3.40200000000000e+00 7.20133272687862e-02 8.65675084793250e-04
3.41400000000000e+00 7.15625532699809e-02 8.61772190924458e-04
3.42600000000000e+00 7.11146009321890e-02 8.57881593645232e-04
3.43800000000000e+00 7.06694525929656e-02 8.54003322293708e-04
3.45000000000000e+00 7.02270907004257e-02 8.50137404962959e-04
3.46200000000000e+00 6.97874978125517e-02 8.46283868521419e-04
3.47400000000000e+00 6.93506565965062e-02 8.42442738633035e-04
3.48600000000000e+00 6.89165498279479e-02 8.38614039776940e-04
3.49800000000000e+00 6.84851603903530e-02 8.34797795266939e-04
3.51000000000000e+00 6.80564712743404e-02 8.30994027270778e-04
3.52200000000000e+00 6.76304655770003e-02 8.27202756828850e-04
3.53400000000000e+00 6.72071265012286e-02 8.23424003873078e-04
3.54600000000000e+00 6.67864373550641e-02 8.19657787245168e-04
3.55800000000000e+00 6.63683815510302e-02 8.15904124714421e-04
3.57000000000000e+00 6.59529426054815e-02 8.12163032995746e-04
3.58200000000000e+00 6.55401041379533e-02 8.08434527767130e-04
3.59400000000000e+00 6.51298498705160e-02 8.04718623686908e-04
3.60600000000000e+00 6.47221636271329e-02 8.01015334410658e-04
3.61800000000000e+00 6.43170293330232e-02 7.97324672608019e-04
3.63000000000000e+00 6.39144310140271e-02 7.93646649979225e-04
3.64200000000000e+00 6.35143527959770e-02 7.89981277271180e-04
3.65400000000000e+00 6.31167789040707e-02 7.86328564293624e-04
3.66600000000000e+00 6.27216936622499e-02 7.82688519934683e-04
3.67800000000000e+00 6.23290814925824e-02 7.79061152176589e-04
3.69000000000000e+00 6.19389269146470e-02 7.75446468111004e-04
3.70200000000000e+00 6.15512145449238e-02 7.71844473953889e-04
3.71400000000000e+00 6.11659290961876e-02 7.68255175060441e-04
3.72600000000000e+00 6.07830553769047e-02 7.64678575939727e-04
3.73800000000000e+00 6.04025782906344e-02 7.61114680269088e-04
3.75000000000000e+00 6.00244828354334e-02 7.57563490908345e-04
3.76200000000000e+00 5.96487541032647e-02 7.54025009913696e-04
3.77400000000000e+00 5.92753772794091e-02 7.50499238551514e-04
3.78600000000000e+00 5.89043376418819e-02 7.46986177312054e-04
