Energy (eV)          EEDF (eV^-(3/2))     First Anisotropy
6.47826086956522e-03 1.39506597895119e+00 1.07141768477444e-03
1.94347826086957e-02 1.37429464978477e+00 1.76196747504760e-03
3.23913043478261e-02 1.35383258773203e+00 2.30687517710035e-03
4.53478260869565e-02 1.33367518816942e+00 2.70939213764573e-03
5.83043478260870e-02 1.31381791487401e+00 3.03574980458069e-03
7.12608695652174e-02 1.29425629926970e+00 3.31129856995230e-03
8.42173913043478e-02 1.27498593925901e+00 3.54931074983971e-03
9.71739130434783e-02 1.25600249827518e+00 3.75789192955202e-03
1.10130434782609e-01 1.23730170434386e+00 3.94247736113994e-03
1.23086956521739e-01 1.21887934906392e+00 4.10695013618891e-03
1.36043478260870e-01 1.20073128687196e+00 4.25421512375665e-03
1.49000000000000e-01 1.18285343363922e+00 4.38652287122436e-03
1.61956521739130e-01 1.16524176619179e+00 4.50566574527970e-03
1.74913043478261e-01 1.14789232125681e+00 4.61310340607871e-03
1.87869565217391e-01 1.13080119466441e+00 4.71004663467767e-03
2.00826086956522e-01 1.11396454018307e+00 4.79751535836154e-03
2.13782608695652e-01 1.09737856894461e+00 4.87638004483762e-03
2.26739130434783e-01 1.08103954849428e+00 4.94739201820724e-03
2.39695652173913e-01 1.06494380201820e+00 5.01120613316575e-03
2.52652173913043e-01 1.04908770730796e+00 5.06839804366616e-03
2.65608695652174e-01 1.03346769615659e+00 5.11947758700193e-03
2.78565217391304e-01 1.01808025348533e+00 5.16489933412289e-03
2.91521739130435e-01 1.00292191660391e+00 5.20507099954863e-03
3.04478260869565e-01 9.87989274271881e-01 5.24036021152517e-03
3.17434782608696e-01 9.73278966092714e-01 5.27110002749201e-03
3.30391304347826e-01 9.58787681747170e-01 5.29759351157815e-03
3.43347826086957e-01 9.44512160115619e-01 5.32011750520336e-03
3.56304347826087e-01 9.30449188678370e-01 5.33892578787352e-03
3.69260869565217e-01 9.16595602746936e-01 5.35425176009260e-03
3.82217391304348e-01 9.02948284787817e-01 5.36631072226312e-03
3.95173913043478e-01 8.89504163613317e-01 5.37530181216304e-03
4.08130434782609e-01 8.76260213799257e-01 5.38140967082348e-03
4.21086956521739e-01 8.63213454967243e-01 5.38480589736763e-03
4.34043478260870e-01 8.50360951143456e-01 5.38565031320364e-03
4.47000000000000e-01 8.37699810008957e-01 5.38409205631930e-03
4.59956521739130e-01 8.25227182338831e-01 5.38027054103231e-03
4.72913043478261e-01 8.12940261330638e-01 5.37431631618443e-03
4.85869565217391e-01 8.00836281997383e-01 5.36635182381072e-03
4.98826086956522e-01 7.88912520470587e-01 5.35649206378026e-03
5.11782608695652e-01 7.77166293462888e-01 5.34484518572188e-03
5.24739130434783e-01 7.65594957638820e-01 5.33151302942205e-03
5.37695652173913e-01 7.54195909040758e-01 5.31659160896893e-03
5.50652173913043e-01 7.42966582439473e-01 5.30017154007364e-03
5.63608695652174e-01 7.31904450821065e-01 5.28233842529012e-03
5.76565217391304e-01 7.21007024796795e-01 5.26317321248657e-03
5.89521739130435e-01 7.10271852060652e-01 5.24275251940039e-03
6.02478260869565e-01 6.99696516783064e-01 5.22114892121306e-03
6.15434782608696e-01 6.89278639122313e-01 5.19843121042536e-03
6.28391304347826e-01 6.79015874686505e-01 5.17466465264466e-03
6.41347826086957e-01 6.68905913957456e-01 5.14991120348090e-03
6.54304347826087e-01 6.58946481820024e-01 5.12422970924222e-03
6.67260869565217e-01 6.49135337033485e-01 5.09767609956079e-03
6.80217391304348e-01 6.39470271741178e-01 5.07030356418863e-03
6.93173913043478e-01 6.29949110931458e-01 5.04216270973996e-03
7.06130434782609e-01 6.20569711990899e-01 5.01330170425337e-03
7.19086956521739e-01 6.11329964207699e-01 4.98376641839242e-03
7.32043478260870e-01 6.02227788308903e-01 4.95360055578743e-03
7.45000000000000e-01 5.93261135955582e-01 4.92284576823150e-03
7.57956521739130e-01 5.84427989319187e-01 4.89154176253707e-03
7.70913043478261e-01 5.75726360614894e-01 4.85972640675159e-03
7.83869565217391e-01 5.67154291664966e-01 4.82743582865764e-03
7.96826086956522e-01 5.58709853425648e-01 4.79470450238745e-03
8.09782608695652e-01 5.50391145585864e-01 4.76156532915458e-03
8.22739130434783e-01 5.42196296128546e-01 4.72804971892835e-03
8.35695652173913e-01 5.34123460918778e-01 4.69418766645485e-03
8.48652173913043e-01 5.26170823260146e-01 4.66000781765685e-03
8.61608695652174e-01 5.18336593514880e-01 4.62553753177191e-03
8.74565217391304e-01 5.10619008691407e-01 4.59080294534839e-03
8.87521739130435e-01 5.03016332055931e-01 4.55582903198665e-03
9.00478260869565e-01 4.95526852716209e-01 4.52063965409083e-03
9.13434782608696e-01 4.88148885262219e-01 4.48525761034879e-03
9.26391304347826e-01 4.80880769385891e-01 4.44970469117401e-03
9.39347826086956e-01 4.73720869484301e-01 4.41400172079296e-03
9.52304347826087e-01 4.66667574315027e-01 4.37816859804921e-03
9.65260869565217e-01 4.59719296625625e-01 4.34222433973826e-03
9.78217391304348e-01 4.52874472803289e-01 4.30618712121201e-03
9.91173913043478e-01 4.46131562502319e-01 4.27007431098559e-03
1.00413043478261e+00 4.39489048318366e-01 4.23390250725012e-03
1.01708695652174e+00 4.32945435414729e-01 4.19768756048981e-03
1.03004347826087e+00 4.26499251274851e-01 4.16144461557139e-03
1.04300000000000e+00 4.20149045267865e-01 4.12518814963912e-03
1.05595652173913e+00 4.13893388361480e-01 4.08893198417647e-03
1.06891304347826e+00 4.07730872800508e-01 4.05268931818766e-03
1.08186956521739e+00 4.01660111790138e-01 4.01647276235869e-03
1.09482608695652e+00 3.95679739130954e-01 3.98029433797974e-03
1.10778260869565e+00 3.89788409072271e-01 3.94416551752250e-03
1.12073913043478e+00 3.83984795846068e-01 3.90809726457070e-03
1.13369565217391e+00 3.78267593423783e-01 3.87210002829698e-03
1.14665217391304e+00 3.72635515222595e-01 3.83618377278116e-03
1.15960869565217e+00 3.67087293815853e-01 3.80035800386234e-03
1.17256521739130e+00 3.61621680602792e-01 3.76463176508221e-03
1.18552173913043e+00 3.56237445664577e-01 3.72901367059163e-03
1.19847826086957e+00 3.50933377348475e-01 3.69351193767509e-03
1.21143478260870e+00 3.45708282042118e-01 3.65813437932576e-03
1.22439130434783e+00 3.40560983905140e-01 3.62288843445250e-03
1.23734782608696e+00 3.35490324564784e-01 3.58778116235406e-03
1.25030434782609e+00 3.30495162975893e-01 3.55281927068127e-03
1.26326086956522e+00 3.25574375041710e-01 3.51800914316727e-03
1.27621739130435e+00 3.20726853402297e-01 3.48335683136091e-03
1.28917391304348e+00 3.15951507185322e-01 3.44886807434723e-03
1.30213043478261e+00 3.11247261760693e-01 3.41454831673946e-03
1.31508695652174e+00 3.06613058464576e-01 3.38040270215193e-03
1.32804347826087e+00 3.02047854464797e-01 3.34643609643829e-03
1.34100000000000e+00 2.97550622421049e-01 3.31265311081349e-03
1.35395652173913e+00 2.93120350289208e-01 3.27905809315910e-03
1.36691304347826e+00 2.88756041093629e-01 3.24565514420390e-03
1.37986956521739e+00 2.84456712702829e-01 3.21244813225306e-03
1.39282608695652e+00 2.80221397579052e-01 3.17944068620725e-03
1.40578260869565e+00 2.76049142649874e-01 3.14663621506733e-03
1.41873913043478e+00 2.71939009003138e-01 3.11403792739668e-03
1.43169565217391e+00 2.67890071706240e-01 3.08164882259549e-03
1.44465217391304e+00 2.63901419598069e-01 3.04947170430902e-03
1.45760869565217e+00 2.59972155083946e-01 3.01750919260462e-03
1.47056521739130e+00 2.56101393908202e-01 2.98576371688355e-03
1.48352173913043e+00 2.52288265032449e-01 2.95423753238464e-03
1.49647826086957e+00 2.48531910361237e-01 2.92293273669407e-03
1.50943478260870e+00 2.44831484575372e-01 2.89185126123149e-03
1.52239130434783e+00 2.41186154941799e-01 2.86099488672528e-03
1.53534782608696e+00 2.37595101103536e-01 2.83036523620818e-03
1.54830434782609e+00 2.34057514963809e-01 2.79996378945920e-03
1.56126086956522e+00 2.30572600434518e-01 2.76979189748010e-03
1.57421739130435e+00 2.27139573280622e-01 2.73985077426790e-03
1.58717391304348e+00 2.23757660943648e-01 2.71014150650410e-03
1.60013043478261e+00 2.20426102367898e-01 2.68066506231076e-03
1.61308695652174e+00 2.17144147809485e-01 2.65142228447130e-03
1.62604347826087e+00 2.13911058727366e-01 2.62241390279121e-03
1.63900000000000e+00 2.10726107556586e-01 2.59364054651405e-03
1.65195652173913e+00 2.07588577564994e-01 2.56510273652147e-03
1.66491304347826e+00 2.04497762691967e-01 2.53680089352450e-03
1.67786956521739e+00 2.01452967389543e-01 2.50873534544739e-03
1.69082608695652e+00 1.98453506448748e-01 2.48090632095998e-03
1.70378260869565e+00 1.95498704897451e-01 2.45331396010896e-03
1.71673913043478e+00 1.92587897795727e-01 2.42595832501579e-03
1.72969565217391e+00 1.89720430104011e-01 2.39883939255013e-03
1.74265217391304e+00 1.86895656535736e-01 2.37195706128987e-03
1.75560869565217e+00 1.84112941412110e-01 2.34531115777838e-03
1.76856521739130e+00 1.81371658504097e-01 2.31890143041686e-03
1.78152173913043e+00 1.78671190936943e-01 2.29272755864547e-03
1.79447826086957e+00 1.76010931005310e-01 2.26678916219746e-03
1.80743478260870e+00 1.73390280052046e-01 2.24108579426285e-03
1.82039130434783e+00 1.70808648333518e-01 2.21561695019536e-03
1.83334782608696e+00 1.68265454873471e-01 2.19038206172434e-03
1.84630434782609e+00 1.65760127373009e-01 2.16538050510591e-03
1.85926086956522e+00 1.63292102040549e-01 2.14061160935126e-03
1.87221739130435e+00 1.60860823478876e-01 2.11607464979652e-03
1.88517391304348e+00 1.58465744560154e-01 2.09176885331677e-03
1.89813043478261e+00 1.56106326302830e-01 2.06769340298888e-03
1.91108695652174e+00 1.53782037738582e-01 2.04384743269057e-03
1.92404347826087e+00 1.51492355828510e-01 2.02023003418241e-03
1.93700000000000e+00 1.49236765309291e-01 1.99684026426719e-03
1.94995652173913e+00 1.47014758589424e-01 1.97367713883809e-03
1.96291304347826e+00 1.44825835635009e-01 1.95073963735596e-03
1.97586956521739e+00 1.42669503857235e-01 1.92802670684195e-03
1.98882608695652e+00 1.40545277991207e-01 1.90553725685955e-03
2.00178260869565e+00 1.38452680018061e-01 1.88327016568414e-03
2.01473913043478e+00 1.36391239025672e-01 1.86122428654793e-03
2.02769565217391e+00 1.34360491113383e-01 1.83939844214776e-03
2.04065217391304e+00 1.32359979287628e-01 1.81779142849996e-03
2.05360869565217e+00 1.30389253359090e-01 1.79640201836797e-03
2.06656521739130e+00 1.28447869832320e-01 1.77522895661602e-03
2.07952173913043e+00 1.26535391833467e-01 1.75427096559608e-03
2.09247826086957e+00 1.24651388984083e-01 1.73352675060758e-03
2.10543478260870e+00 1.22795437313674e-01 1.71299499484056e-03
2.11839130434783e+00 1.20967119164316e-01 1.69267436451987e-03
2.13134782608696e+00 1.19166023088497e-01 1.67256350455712e-03
2.14430434782609e+00 1.17391743781304e-01 1.65266104337174e-03
2.15726086956522e+00 1.15643881964122e-01 1.63296559778285e-03
2.17021739130435e+00 1.13922044303248e-01 1.61347576829432e-03
2.18317391304348e+00 1.12225843321376e-01 1.59419014203932e-03
2.19613043478261e+00 1.10554897310412e-01 1.57510729538353e-03
2.20908695652174e+00 1.08908830238380e-01 1.55622578991652e-03
2.22204347826087e+00 1.07287271686636e-01 1.53754417667574e-03
2.23500000000000e+00 1.05689856744399e-01 1.51906100043763e-03
2.24795652173913e+00 1.04116225934092e-01 1.50077479538965e-03
2.26091304347826e+00 1.02566025130451e-01 1.48268408768018e-03
2.27386956521739e+00 1.01038905480836e-01 1.46478739766589e-03
2.28682608695652e+00 9.95345233203815e-02 1.44708323622212e-03
2.29978260869565e+00 9.80525401139250e-02 1.42957010844984e-03
2.31273913043478e+00 9.65926223603150e-02 1.41224651744563e-03
2.32569565217391e+00 9.51544415239391e-02 1.39511096033329e-03
2.33865217391304e+00 9.37376739608032e-02 1.37816193047537e-03
2.35160869565217e+00 9.23420008456965e-02 1.36139791941608e-03
2.36456521739130e+00 9.09671080948351e-02 1.34481741348994e-03
2.37752173913043e+00 8.96126863122083e-02 1.32841889707951e-03
2.39047826086956e+00 8.82784307027155e-02 1.31220085593201e-03
2.40343478260870e+00 8.69640410093855e-02 1.29616177352392e-03
2.41639130434783e+00 8.56692214458241e-02 1.28030013418689e-03
2.42934782608696e+00 8.43936806245740e-02 1.26461441994979e-03
2.44230434782609e+00 8.31371315069324e-02 1.24910311346803e-03
2.45526086956522e+00 8.18992913227767e-02 1.23376470100880e-03
2.46821739130435e+00 8.06798815121870e-02 1.21859766907343e-03
2.48117391304348e+00 7.94786276627585e-02 1.20360050610482e-03
2.49413043478261e+00 7.82952594478565e-02 1.18877170397806e-03
2.50708695652174e+00 7.71295105612913e-02 1.17410975510285e-03
2.52004347826087e+00 7.59811186710121e-02 1.15961315500355e-03
2.53300000000000e+00 7.48498253462827e-02 1.14528040495083e-03
2.54595652173913e+00 7.37353760041762e-02 1.13111000887133e-03
2.55891304347826e+00 7.26375198522868e-02 1.11710047483324e-03
2.57186956521739e+00 7.15560098322953e-02 1.10325031633854e-03
2.58482608695652e+00 7.04906025603932e-02 1.08955804966666e-03
2.59778260869565e+00 6.94410582845826e-02 1.07602219614896e-03
2.61073913043478e+00 6.84071408185056e-02 1.06264128449086e-03
2.62369565217391e+00 6.73886174924128e-02 1.04941384794589e-03
2.63665217391304e+00 6.63852591008101e-02 1.03633842560914e-03
2.64960869565217e+00 6.53968398508777e-02 1.02341356353839e-03
2.66256521739130e+00 6.44231373081310e-02 1.01063781232036e-03
2.67552173913043e+00 6.34639323570690e-02 9.98009729077346e-04
2.68847826086956e+00 6.25190091410314e-02 9.85527879518294e-04
2.70143478260870e+00 6.15881550172738e-02 9.73190835355588e-04
2.71439130434783e+00 6.06711605091239e-02 9.60997176237419e-04
2.72734782608696e+00 5.97678192556410e-02 9.48945487486503e-04
2.74030434782609e+00 5.88779279748803e-02 9.37034361909944e-04
2.75326086956522e+00 5.80012864083262e-02 9.25262401650727e-04
2.76621739130435e+00 5.71376972791398e-02 9.13628215790990e-04
2.77917391304348e+00 5.62869662477628e-02 9.02130421356288e-04
2.79213043478261e+00 5.54489018681889e-02 8.90767644179555e-04
2.80508695652174e+00 5.46233155420392e-02 8.79538516830869e-04
2.81804347826087e+00 5.38100214847393e-02 8.68441680216621e-04
2.83100000000000e+00 5.30088366749885e-02 8.57475785216951e-04
2.84395652173913e+00 5.22195808165146e-02 8.46639490495968e-04
2.85691304347826e+00 5.14420762975019e-02 8.35931463377485e-04
2.86986956521739e+00 5.06761481506236e-02 8.25350380595316e-04
2.88282608695652e+00 4.99216240111423e-02 8.14894926398768e-04
2.89578260869565e+00 4.91783340857826e-02 8.04563793966399e-04
2.90873913043478e+00 4.84461111067687e-02 7.94355686855054e-04
2.92169565217391e+00 4.77247902967958e-02 7.84269316999755e-04
2.93465217391304e+00 4.70142093319533e-02 7.74303405477444e-04
2.94760869565217e+00 4.63142083051947e-02 7.64456683158559e-04
2.96056521739130e+00 4.56246296881067e-02 7.54727888973982e-04
2.97352173913043e+00 4.49453183022749e-02 7.45115771165602e-04
2.98647826086957e+00 4.42761212774661e-02 7.35619088569238e-04
2.99943478260870e+00 4.36168880195512e-02 7.26236608788008e-04
3.01239130434783e+00 4.29674701766207e-02 7.16967109400289e-04
3.02534782608696e+00 4.23277216035574e-02 7.07809376350951e-04
3.03830434782609e+00 4.16974983353406e-02 6.98762205081433e-04
3.05126086956522e+00 4.10766585483830e-02 6.89824401690107e-04
3.06421739130435e+00 4.04650625307279e-02 6.80994781238575e-04
3.07717391304348e+00 3.98625726506085e-02 6.72272168345917e-04
3.09013043478261e+00 3.92690533254784e-02 6.63655397691110e-04
3.10308695652174e+00 3.86843709896816e-02 6.55143312541847e-04
3.11604347826087e+00 3.81083940699106e-02 6.46734765755091e-04
3.12900000000000e+00 3.75409929500169e-02 6.38428620805361e-04
3.14195652173913e+00 3.69820399437244e-02 6.30223750238208e-04
3.15491304347826e+00 3.64314092658954e-02 6.22119036188734e-04
3.16786956521739e+00 3.58889770042262e-02 6.14113370817737e-04
3.18082608695652e+00 3.53546210897407e-02 6.06205654966502e-04
3.19378260869565e+00 3.48282212742367e-02 5.98394799043064e-04
3.20673913043478e+00 3.43096590982519e-02 5.90679723933842e-04
3.21969565217391e+00 3.37988178660818e-02 5.83059359591612e-04
3.23265217391304e+00 3.32955826195220e-02 5.75532645487861e-04
3.24560869565217e+00 3.27998401119971e-02 5.68098530991249e-04
3.25856521739130e+00 3.23114787816310e-02 5.60755974137841e-04
3.27152173913043e+00 3.18303887305262e-02 5.53503942416329e-04
3.28447826086957e+00 3.13564616955963e-02 5.46341413576543e-04
3.29743478260870e+00 3.08895910256979e-02 5.39267374340356e-04
3.31039130434783e+00 3.04296716576329e-02 5.32280821162114e-04
3.32334782608696e+00 2.99766000911885e-02 5.25380759087678e-04
3.33630434782609e+00 2.95302743698376e-02 5.18566202464788e-04
3.34926086956522e+00 2.90905940537561e-02 5.11836175675175e-04
3.36221739130435e+00 2.86574601985824e-02 5.05189711939618e-04
3.37517391304348e+00 2.82307753331508e-02 4.98625853669591e-04
3.38813043478261e+00 2.78104434375583e-02 4.92143652758306e-04
3.40108695652174e+00 2.73963699203818e-02 4.85742169537759e-04
3.41404347826087e+00 2.69884616009539e-02 4.79420473408516e-04
3.42700000000000e+00 2.65866266847899e-02 4.73177643489396e-04
3.43995652173913e+00 2.61907747441455e-02 4.67012767526536e-04
3.45291304347826e+00 2.58008166976676e-02 4.60924942199944e-04
3.46586956521739e+00 2.54166647903486e-02 4.54913273375569e-04
3.47882608695652e+00 2.50382325727285e-02 4.48976875152135e-04
3.49178260869565e+00 2.46654348846235e-02 4.43114870419552e-04
3.50473913043478e+00 2.42981878327421e-02 4.37326391435505e-04
3.51769565217391e+00 2.39364087728907e-02 4.31610578829604e-04
3.53065217391304e+00 2.35800162913777e-02 4.25966581870475e-04
3.54360869565217e+00 2.32289301866910e-02 4.20393558683915e-04
3.55656521739130e+00 2.28830714505133e-02 4.14890675381732e-04
3.56952173913043e+00 2.25423622527856e-02 4.09457106557026e-04
3.58247826086957e+00 2.22067259213156e-02 4.04092035796076e-04
3.59543478260870e+00 2.18760869254934e-02 3.98794654769219e-04
3.60839130434783e+00 2.15503708592957e-02 3.93564163711656e-04
3.62134782608696e+00 2.12295044236861e-02 3.88399770615358e-04
3.63430434782609e+00 2.09134154127138e-02 3.83300691677459e-04
3.64726086956522e+00 2.06020326946408e-02 3.78266151764100e-04
3.66021739130435e+00 2.02952861968194e-02 3.73295383567739e-04
3.67317391304348e+00 1.99931068899230e-02 3.68387627814116e-04
3.68613043478261e+00 1.96954267724127e-02 3.63542133428912e-04
3.69908695652174e+00 1.94021788544699e-02 3.58758156799290e-04
3.71204347826087e+00 1.91132971452400e-02 3.54034962171642e-04
3.72500000000000e+00 1.88287166356361e-02 3.49371822063513e-04
3.73795652173913e+00 1.85483732845005e-02 3.44768016494323e-04
3.75091304347826e+00 1.82722040041931e-02 3.40222833165354e-04
3.76386956521739e+00 1.80001466463949e-02 3.35735567603472e-04
3.77682608695652e+00 1.77321399874378e-02 3.31305522486313e-04
3.78978260869565e+00 1.74681237166025e-02 3.26932007995171e-04
3.80273913043478e+00 1.72080384204474e-02 3.22614342180860e-04
3.81569565217391e+00 1.69518255701450e-02 3.18351850261409e-04
3.82865217391304e+00 1.66994275083124e-02 3.14143864778445e-04
3.84160869565217e+00 1.64507874360354e-02 3.09989725721030e-04
3.85456521739130e+00 1.62058493994746e-02 3.05888779908932e-04
3.86752173913043e+00 1.59645582791312e-02 3.01840381305749e-04
3.88047826086957e+00 1.57268597755645e-02 2.97843891343898e-04
3.89343478260870e+00 1.54927003978048e-02 2.93898678283451e-04
3.90639130434783e+00 1.52620274513178e-02 2.90004117516891e-04
3.91934782608696e+00 1.50347890255860e-02 2.86159590997059e-04
3.93230434782609e+00 1.48109339841240e-02 2.82364487520734e-04
3.94526086956522e+00 1.45904119512545e-02 2.78618203023226e-04
3.95821739130435e+00 1.43731733013507e-02 2.74920139984014e-04
3.97117391304348e+00 1.41591691476684e-02 2.71269707547211e-04
3.98413043478261e+00 1.39483513313453e-02 2.67666321615081e-04
3.99708695652174e+00 1.37406724100623e-02 2.64109404325332e-04
4.01004347826087e+00 1.35360856488867e-02 2.60598384302723e-04
4.02300000000000e+00 1.33345450082183e-02 2.57132696920788e-04
4.03595652173913e+00 1.31360051339467e-02 2.53711783759177e-04
4.04891304347826e+00 1.29404213472452e-02 2.50335092707998e-04
4.06186956521739e+00 1.27477496345166e-02 2.47002078047935e-04
4.07482608695652e+00 1.25579466370393e-02 2.43712199972547e-04
4.08778260869565e+00 1.23709696425720e-02 2.40464924811560e-04
