Energy (eV)          EEDF (eV^-(3/2))     First Anisotropy
1.44800000000000e-02 3.69553734796861e-01 2.75080815875205e-04
4.34400000000000e-02 3.64480018247455e-01 4.52640123799040e-04
7.24000000000000e-02 3.59475960308425e-01 5.93321762151711e-04
1.01360000000000e-01 3.54540604615346e-01 6.97668425905384e-04
1.30320000000000e-01 3.49673007934014e-01 7.82625868516996e-04
1.59280000000000e-01 3.44872239980178e-01 8.54668278618966e-04
1.88240000000000e-01 3.40137383241745e-01 9.17179393119121e-04
2.17200000000000e-01 3.35467532803427e-01 9.72222283403772e-04
2.46160000000000e-01 3.30861796173796e-01 1.02117814812852e-03
2.75120000000000e-01 3.26319293114711e-01 1.06503224233665e-03
3.04080000000000e-01 3.21839155473091e-01 1.10452053283434e-03
3.33040000000000e-01 3.17420527014997e-01 1.14021241329779e-03
3.62000000000000e-01 3.13062563261984e-01 1.17256076212206e-03
3.90960000000000e-01 3.08764431329715e-01 1.20193393589038e-03
4.19920000000000e-01 3.04525309768774e-01 1.22863712950771e-03
4.48880000000000e-01 3.00344388407679e-01 1.25292715641115e-03
4.77840000000000e-01 2.96220868198038e-01 1.27502298614326e-03
5.06800000000000e-01 2.92153961061840e-01 1.29511345031344e-03
5.35760000000000e-01 2.88142889740840e-01 1.31336300233307e-03
5.64720000000000e-01 2.84186887648009e-01 1.32991610511983e-03
5.93680000000000e-01 2.80285198721027e-01 1.34490062993335e-03
6.22640000000000e-01 2.76437077277783e-01 1.35843052848761e-03
6.51600000000000e-01 2.72641787873868e-01 1.37060796168060e-03
6.80560000000000e-01 2.68898605162012e-01 1.38152501570218e-03
7.09520000000000e-01 2.65206813753461e-01 1.39126510042877e-03
7.38480000000000e-01 2.61565708081254e-01 1.39990410008735e-03
7.67440000000000e-01 2.57974592265372e-01 1.40751132853543e-03
7.96400000000000e-01 2.54432779979749e-01 1.41415032882411e-03
8.25360000000000e-01 2.50939594321099e-01 1.41987954746383e-03
8.54320000000000e-01 2.47494367679549e-01 1.42475290697673e-03
8.83280000000000e-01 2.44096441611046e-01 1.42882029520492e-03
9.12240000000000e-01 2.40745166711518e-01 1.43212798597415e-03
9.41200000000000e-01 2.37439902492761e-01 1.43471900275261e-03
9.70160000000000e-01 2.34180017260029e-01 1.43663343466078e-03
9.99120000000000e-01 2.30964887991307e-01 1.43790871240810e-03
1.02808000000000e+00 2.27793900218241e-01 1.43857985033474e-03
1.05704000000000e+00 2.24666447908701e-01 1.43867965962906e-03
1.08600000000000e+00 2.21581933350959e-01 1.43823893690938e-03
1.11496000000000e+00 2.18539767039451e-01 1.43728663164892e-03
1.14392000000000e+00 2.15539367562121e-01 1.43584999534983e-03
1.17288000000000e+00 2.12580161489293e-01 1.43395471490632e-03
1.20184000000000e+00 2.09661583264086e-01 1.43162503221494e-03
1.23080000000000e+00 2.06783075094320e-01 1.42888385177667e-03
1.25976000000000e+00 2.03944086845917e-01 1.42575283777608e-03
1.28872000000000e+00 2.01144075937757e-01 1.42225250190714e-03
1.31768000000000e+00 1.98382507237984e-01 1.41840228303535e-03
1.34664000000000e+00 1.95658852961731e-01 1.41422061963481e-03
1.37560000000000e+00 1.92972592570251e-01 1.40972501581219e-03
1.40456000000000e+00 1.90323212671432e-01 1.40493210162140e-03
1.43352000000000e+00 1.87710206921681e-01 1.39985768828206e-03
1.46248000000000e+00 1.85133075929152e-01 1.39451681883702e-03
1.49144000000000e+00 1.82591327158302e-01 1.38892381471764e-03
1.52040000000000e+00 1.80084474835759e-01 1.38309231862842e-03
1.54936000000000e+00 1.77612039857484e-01 1.37703533411388e-03
1.57832000000000e+00 1.75173549697202e-01 1.37076526212766e-03
1.60728000000000e+00 1.72768538316098e-01 1.36429393488757e-03
1.63624000000000e+00 1.70396546073747e-01 1.35763264726836e-03
1.66520000000000e+00 1.68057119640267e-01 1.35079218595581e-03
1.69416000000000e+00 1.65749811909682e-01 1.34378285656212e-03
1.72312000000000e+00 1.63474181914471e-01 1.33661450888091e-03
1.75208000000000e+00 1.61229794741290e-01 1.32929656044153e-03
1.78104000000000e+00 1.59016221447856e-01 1.32183801850658e-03
1.81000000000000e+00 1.56833038980964e-01 1.31424750064084e-03
1.83896000000000e+00 1.54679830095637e-01 1.30653325396838e-03
1.86792000000000e+00 1.52556183275382e-01 1.29870317322281e-03
1.89688000000000e+00 1.50461692653543e-01 1.29076481768483e-03
1.92584000000000e+00 1.48395957935731e-01 1.28272542709371e-03
1.95480000000000e+00 1.46358584323321e-01 1.27459193661010e-03
1.98376000000000e+00 1.44349182438001e-01 1.26637099090143e-03
2.01272000000000e+00 1.42367368247351e-01 1.25806895741413e-03
2.04168000000000e+00 1.40412762991452e-01 1.24969193889141e-03
2.07064000000000e+00 1.38484993110494e-01 1.24124578519024e-03
2.09960000000000e+00 1.36583690173387e-01 1.23273610444700e-03
2.12856000000000e+00 1.34708490807341e-01 1.22416827363623e-03
2.15752000000000e+00 1.32859036628426e-01 1.21554744856371e-03
2.18648000000000e+00 1.31034974173071e-01 1.20687857333213e-03
2.21544000000000e+00 1.29235954830519e-01 1.19816638931367e-03
2.24440000000000e+00 1.27461634776193e-01 1.18941544366169e-03
2.27336000000000e+00 1.25711674905991e-01 1.18063009739077e-03
2.30232000000000e+00 1.23985740771476e-01 1.17181453305290e-03
2.33128000000000e+00 1.22283502515955e-01 1.16297276203418e-03
2.36024000000000e+00 1.20604634811439e-01 1.15410863149578e-03
2.38920000000000e+00 1.18948816796466e-01 1.14522583098066e-03
2.41816000000000e+00 1.17315732014781e-01 1.13632789870571e-03
2.44712000000000e+00 1.15705068354852e-01 1.12741822755803e-03
2.47608000000000e+00 1.14116517990223e-01 1.11850007081249e-03
2.50504000000000e+00 1.12549777320682e-01 1.10957654758660e-03
2.53400000000000e+00 1.11004546914238e-01 1.10065064804742e-03
2.56296000000000e+00 1.09480531449891e-01 1.09172523838437e-03
2.59192000000000e+00 1.07977439661197e-01 1.08280306556105e-03
2.62088000000000e+00 1.06494984280596e-01 1.07388676185791e-03
2.64984000000000e+00 1.05032881984513e-01 1.06497884921697e-03
2.67880000000000e+00 1.03590853339209e-01 1.05608174339937e-03
2.70776000000000e+00 1.02168622747378e-01 1.04719775796543e-03
2.73672000000000e+00 1.00765918395471e-01 1.03832910808629e-03
2.76568000000000e+00 9.93824722017545e-02 1.02947791419609e-03
2.79464000000000e+00 9.80180197650676e-02 1.02064620549247e-03
2.82360000000000e+00 9.66723003142959e-02 1.01183592329314e-03
2.85256000000000e+00 9.53450566585314e-02 1.00304892425577e-03
2.88152000000000e+00 9.40360351379187e-02 9.94286983467716e-04
2.91048000000000e+00 9.27449855751765e-02 9.85551797411833e-04
2.93944000000000e+00 9.14716612277841e-02 9.76844986814656e-04
2.96840000000000e+00 9.02158187408245e-02 9.68168099382239e-04
2.99736000000000e+00 8.89772181004749e-02 9.59522612428950e-04
3.02632000000000e+00 8.77556225881360e-02 9.50909935404362e-04
3.05528000000000e+00 8.65507987351906e-02 9.42331412322829e-04
3.08424000000000e+00 8.53625162783839e-02 9.33788324100217e-04
3.11320000000000e+00 8.41905481158159e-02 9.25281890801913e-04
3.14216000000000e+00 8.30346702635381e-02 9.16813273806134e-04
3.17112000000000e+00 8.18946618127464e-02 9.08383577886298e-04
3.20008000000000e+00 8.07703048875614e-02 8.99993853216013e-04
3.22904000000000e+00 7.96613846033886e-02 8.91645097299949e-04
3.25800000000000e+00 7.85676890258498e-02 8.83338256833908e-04
3.28696000000000e+00 7.74890091302789e-02 8.75074229497092e-04
3.31592000000000e+00 7.64251387617736e-02 8.66853865679307e-04
3.34488000000000e+00 7.53758745957954e-02 8.58677970145972e-04
3.37384000000000e+00 7.43410160993108e-02 8.50547303643559e-04
3.40280000000000e+00 7.33203654924659e-02 8.42462584447801e-04
3.43176000000000e+00 7.23137277107868e-02 8.34424489856885e-04
3.46072000000000e+00 7.13209103678998e-02 8.26433657632174e-04
3.48968000000000e+00 7.03417237187627e-02 8.18490687388469e-04
3.51864000000000e+00 6.93759806234012e-02 8.10596141935640e-04
3.54760000000000e+00 6.84234965111429e-02 8.02750548573601e-04
3.57656000000000e+00 6.74840893453428e-02 7.94954400342747e-04
3.60552000000000e+00 6.65575795885931e-02 7.87208157231269e-04
3.63448000000000e+00 6.56437901684098e-02 7.79512247341073e-04
3.66344000000000e+00 6.47425464433915e-02 7.71867068014077e-04
3.69240000000000e+00 6.38536761698422e-02 7.64272986920140e-04
3.72136000000000e+00 6.29770094688522e-02 7.56730343108219e-04
3.75032000000000e+00 6.21123787938316e-02 7.49239448022155e-04
3.77928000000000e+00 6.12596188984891e-02 7.41800586482400e-04
3.80824000000000e+00 6.04185668052502e-02 7.34414017634813e-04
3.83720000000000e+00 5.95890617741097e-02 7.27079975867915e-04
3.86616000000000e+00 5.87709452719111e-02 7.19798671699682e-04
3.89512000000000e+00 5.79640609420481e-02 7.12570292634922e-04
3.92408000000000e+00 5.71682545745825e-02 7.05395003994458e-04
3.95304000000000e+00 5.63833740767715e-02 6.98272949716986e-04
3.98200000000000e+00 5.56092694440000e-02 6.91204253134571e-04
4.01096000000000e+00 5.48457927311125e-02 6.84189017722909e-04
4.03992000000000e+00 5.40927980241379e-02 6.77227327827013e-04
4.06888000000000e+00 5.33501414124026e-02 6.70319249363263e-04
4.09784000000000e+00 5.26176809610269e-02 6.63464830498772e-04
4.12680000000000e+00 5.18952766837986e-02 6.56664102308651e-04
4.15576000000000e+00 5.11827905164190e-02 6.49917079412098e-04
4.18472000000000e+00 5.04800862901167e-02 6.43223760587974e-04
4.21368000000000e+00 4.97870297056229e-02 6.36584129370443e-04
4.24264000000000e+00 4.91034883075048e-02 6.29998154625607e-04
4.27160000000000e+00 4.84293314588507e-02 6.23465791109642e-04
4.30056000000000e+00 4.77644303163033e-02 6.16986980008974e-04
4.32952000000000e+00 4.71086578054352e-02 6.10561649463251e-04
4.35848000000000e+00 4.64618885964627e-02 6.04189715071584e-04
4.38744000000000e+00 4.58239990802932e-02 5.97871080382675e-04
4.41640000000000e+00 4.51948673449013e-02 5.91605637369261e-04
4.44536000000000e+00 4.45743731520290e-02 5.85393266887544e-04
4.47432000000000e+00 4.39623979142065e-02 5.79233839121994e-04
4.50328000000000e+00 4.33588246720874e-02 5.73127214015990e-04
4.53224000000000e+00 4.27635380720963e-02 5.67073241688802e-04
4.56120000000000e+00 4.21764243443822e-02 5.61071762839316e-04
4.59016000000000e+00 4.15973712810755e-02 5.55122609137019e-04
4.61912000000000e+00 4.10262682148427e-02 5.49225603600557e-04
4.64808000000000e+00 4.04630059977360e-02 5.43380560964323e-04
4.67704000000000e+00 3.99074769803335e-02 5.37587288033350e-04
4.70600000000000e+00 3.93595749911649e-02 5.31845584027005e-04
4.73496000000000e+00 3.88191953164208e-02 5.26155240911842e-04
4.76392000000000e+00 3.82862346799398e-02 5.20516043723817e-04
4.79288000000000e+00 3.77605912234705e-02 5.14927770880336e-04
4.82184000000000e+00 3.72421644872046e-02 5.09390194482407e-04
4.85080000000000e+00 3.67308553905774e-02 5.03903080607156e-04
4.87976000000000e+00 3.62265662133318e-02 4.98466189591089e-04
4.90872000000000e+00 3.57292005768419e-02 4.93079276304368e-04
4.93768000000000e+00 3.52386634256934e-02 4.87742090416325e-04
4.96664000000000e+00 3.47548610095173e-02 4.82454376652522e-04
4.99560000000000e+00 3.42777008650718e-02 4.77215875043639e-04
5.02456000000000e+00 3.38070917985715e-02 4.72026321166382e-04
5.05352000000000e+00 3.33429438682583e-02 4.66885446376705e-04
5.08248000000000e+00 3.28851683672123e-02 4.61792978035600e-04
5.11144000000000e+00 3.24336778063979e-02 4.56748639727599e-04
5.14040000000000e+00 3.19883858979434e-02 4.51752151472241e-04
5.16936000000000e+00 3.15492075386497e-02 4.46803229928781e-04
5.19832000000000e+00 3.11160587937256e-02 4.41901588594285e-04
5.22728000000000e+00 3.06888568807465e-02 4.37046937995308e-04
5.25624000000000e+00 3.02675201538330e-02 4.32238985873361e-04
5.28520000000000e+00 2.98519680880471e-02 4.27477437364339e-04
5.31416000000000e+00 2.94421212640021e-02 4.22761995172160e-04
5.34312000000000e+00 2.90379013526848e-02 4.18092359736711e-04
5.37208000000000e+00 2.86392311004848e-02 4.13468229396221e-04
5.40104000000000e+00 2.82460343144303e-02 4.08889300544407e-04
5.43000000000000e+00 2.78582358476260e-02 4.04355267782418e-04
5.45896000000000e+00 2.74757615848916e-02 3.99865824065705e-04
5.48792000000000e+00 2.70985384285969e-02 3.95420660846081e-04
5.51688000000000e+00 2.67264942846911e-02 3.91019468209010e-04
5.54584000000000e+00 2.63595580489250e-02 3.86661935006315e-04
5.57480000000000e+00 2.59976595932615e-02 3.82347748984451e-04
5.60376000000000e+00 2.56407297524727e-02 3.78076596908434e-04
5.63272000000000e+00 2.52887003109213e-02 3.73848164681625e-04
5.66168000000000e+00 2.49415039895234e-02 3.69662137461367e-04
5.69064000000000e+00 2.45990744328905e-02 3.65518199770737e-04
5.71960000000000e+00 2.42613461966472e-02 3.61416035606439e-04
5.74856000000000e+00 2.39282547349244e-02 3.57355328542981e-04
5.77752000000000e+00 2.35997363880226e-02 3.53335761833242e-04
5.80648000000000e+00 2.32757283702463e-02 3.49357018505528e-04
5.83544000000000e+00 2.29561687579038e-02 3.45418781457234e-04
5.86440000000000e+00 2.26409964774727e-02 3.41520733545205e-04
5.89336000000000e+00 2.23301512939278e-02 3.37662557672886e-04
5.92232000000000e+00 2.20235737992290e-02 3.33843936874349e-04
5.95128000000000e+00 2.17212054009676e-02 3.30064554395343e-04
5.98024000000000e+00 2.14229883111678e-02 3.26324093771361e-04
6.00920000000000e+00 2.11288655352427e-02 3.22622238902895e-04
6.03816000000000e+00 2.08387808611015e-02 3.18958674127936e-04
6.06712000000000e+00 2.05526788484067e-02 3.15333084291751e-04
6.09608000000000e+00 2.02705048179780e-02 3.11745154814102e-04
6.12504000000000e+00 1.99922048413422e-02 3.08194571753936e-04
6.15400000000000e+00 1.97177257304268e-02 3.04681021871594e-04
6.18296000000000e+00 1.94470150273948e-02 3.01204192688663e-04
6.21192000000000e+00 1.91800209946187e-02 2.97763772545525e-04
6.24088000000000e+00 1.89166926047928e-02 2.94359450656637e-04
6.26984000000000e+00 1.86569795311810e-02 2.90990917163670e-04
6.29880000000000e+00 1.84008321379983e-02 2.87657863186540e-04
6.32776000000000e+00 1.81482014709247e-02 2.84359980872332e-04
6.35672000000000e+00 1.78990392477490e-02 2.81096963442295e-04
6.38568000000000e+00 1.76532978491415e-02 2.77868505236899e-04
6.41464000000000e+00 1.74109303095525e-02 2.74674301759007e-04
6.44360000000000e+00 1.71718903082369e-02 2.71514049715212e-04
6.47256000000000e+00 1.69361321604015e-02 2.68387447055454e-04
6.50152000000000e+00 1.67036108084735e-02 2.65294193010895e-04
6.53048000000000e+00 1.64742818134892e-02 2.62233988130148e-04
6.55944000000000e+00 1.62481013466012e-02 2.59206534313902e-04
6.58840000000000e+00 1.60250261807018e-02 2.56211534847949e-04
6.61736000000000e+00 1.58050136821614e-02 2.53248694434746e-04
6.64632000000000e+00 1.55880218026808e-02 2.50317719223475e-04
6.67528000000000e+00 1.53740090712546e-02 2.47418316838672e-04
6.70424000000000e+00 1.51629345862455e-02 2.44550196407489e-04
6.73320000000000e+00 1.49547580075675e-02 2.41713068585622e-04
6.76216000000000e+00 1.47494395489760e-02 2.38906645581927e-04
6.79112000000000e+00 1.45469399704637e-02 2.36130641181770e-04
6.82008000000000e+00 1.43472205707617e-02 2.33384770769157e-04
6.84904000000000e+00 1.41502431799426e-02 2.30668751347673e-04
6.87800000000000e+00 1.39559701521256e-02 2.27982301560297e-04
6.90696000000000e+00 1.37643643582817e-02 2.25325141708062e-04
6.93592000000000e+00 1.35753891791377e-02 2.22696993767665e-04
6.96488000000000e+00 1.33890084981778e-02 2.20097581408010e-04
6.99384000000000e+00 1.32051866947408e-02 2.17526630005753e-04
7.02280000000000e+00 1.30238886372125e-02 2.14983866659872e-04
7.05176000000000e+00 1.28450796763114e-02 2.12469020205244e-04
7.08072000000000e+00 1.26687256384667e-02 2.09981821225340e-04
7.10968000000000e+00 1.24947928192868e-02 2.07522002064001e-04
7.13864000000000e+00 1.23232479771182e-02 2.05089296836352e-04
7.16760000000000e+00 1.21540583266924e-02 2.02683441438890e-04
7.19656000000000e+00 1.19871915328596e-02 2.00304173558736e-04
7.22552000000000e+00 1.18226157044093e-02 1.97951232682131e-04
7.25448000000000e+00 1.16602993879754e-02 1.95624360102151e-04
7.28344000000000e+00 1.15002115620244e-02 1.93323298925666e-04
7.31240000000000e+00 1.13423216309271e-02 1.91047794079636e-04
7.34136000000000e+00 1.11865994191110e-02 1.88797592316676e-04
7.37032000000000e+00 1.10330151652936e-02 1.86572442219945e-04
7.39928000000000e+00 1.08815395167937e-02 1.84372094207439e-04
7.42824000000000e+00 1.07321435239223e-02 1.82196300535617e-04
7.45720000000000e+00 1.05847986344497e-02 1.80044815302429e-04
7.48616000000000e+00 1.04394766881482e-02 1.77917394449761e-04
7.51512000000000e+00 1.02961499114108e-02 1.75813795765331e-04
7.54408000000000e+00 1.01547909119426e-02 1.73733778884018e-04
7.57304000000000e+00 1.00153726735261e-02 1.71677105288678e-04
7.60200000000000e+00 9.87786855085774e-03 1.69643538310446e-04
7.63096000000000e+00 9.74225226445537e-03 1.67632843128526e-04
7.65992000000000e+00 9.60849789563603e-03 1.65644786769547e-04
7.68888000000000e+00 9.47657988156224e-03 1.63679138106440e-04
7.71784000000000e+00 9.34647301035658e-03 1.61735667856852e-04
7.74680000000000e+00 9.21815241628324e-03 1.59814148581152e-04
7.77576000000000e+00 9.09159357499568e-03 1.57914354680041e-04
7.80472000000000e+00 8.96677229884968e-03 1.56036062391739e-04
7.83368000000000e+00 8.84366473228058e-03 1.54179049788791e-04
7.86264000000000e+00 8.72224734724409e-03 1.52343096774525e-04
7.89160000000000e+00 8.60249693871964e-03 1.50527985079127e-04
7.92056000000000e+00 8.48439062027551e-03 1.48733498255385e-04
7.94952000000000e+00 8.36790581969484e-03 1.46959421674118e-04
7.97848000000000e+00 8.25302027466163e-03 1.45205542519270e-04
8.00744000000000e+00 8.13971202850605e-03 1.43471649782696e-04
8.03640000000000e+00 8.02795942600815e-03 1.41757534258674e-04
8.06536000000000e+00 7.91774110925909e-03 1.40062988538118e-04
8.09432000000000e+00 7.80903601357934e-03 1.38387807002512e-04
8.12328000000000e+00 7.70182336349281e-03 1.36731785817622e-04
8.15224000000000e+00 7.59608266875627e-03 1.35094722926912e-04
8.18120000000000e+00 7.49179372044337e-03 1.33476418044745e-04
8.21016000000000e+00 7.38893658708227e-03 1.31876672649366e-04
8.23912000000000e+00 7.28749161084641e-03 1.30295289975633e-04
8.26808000000000e+00 7.18743940379760e-03 1.28732075007550e-04
8.29704000000000e+00 7.08876084418057e-03 1.27186834470618e-04
8.32600000000000e+00 6.99143707276849e-03 1.25659376823969e-04
8.35496000000000e+00 6.89544948925866e-03 1.24149512252319e-04
8.38392000000000e+00 6.80077974871761e-03 1.22657052657754e-04
8.41288000000000e+00 6.70740975807510e-03 1.21181811651338e-04
8.44184000000000e+00 6.61532167266622e-03 1.19723604544570e-04
8.47080000000000e+00 6.52449789282091e-03 1.18282248340687e-04
8.49976000000000e+00 6.43492106050038e-03 1.16857561725806e-04
8.52872000000000e+00 6.34657405597969e-03 1.15449365059952e-04
8.55768000000000e+00 6.25943999457585e-03 1.14057480367942e-04
8.58664000000000e+00 6.17350222342084e-03 1.12681731330135e-04
8.61560000000000e+00 6.08874431827902e-03 1.11321943273086e-04
8.64456000000000e+00 6.00515008040806e-03 1.09977943160074e-04
8.67352000000000e+00 5.92270353346316e-03 1.08649559581529e-04
8.70248000000000e+00 5.84138892044367e-03 1.07336622745348e-04
8.73144000000000e+00 5.76119070068161e-03 1.06038964467136e-04
8.76040000000000e+00 5.68209354687160e-03 1.04756418160356e-04
8.78936000000000e+00 5.60408234214155e-03 1.03488818826381e-04
8.81832000000000e+00 5.52714217716353e-03 1.02236003044482e-04
8.84728000000000e+00 5.45125834730434e-03 1.00997808961744e-04
8.87624000000000e+00 5.37641634981520e-03 9.97740762828995e-05
8.90520000000000e+00 5.30260188106005e-03 9.85646462601308e-05
8.93416000000000e+00 5.22980083378178e-03 9.73693616827822e-05
8.96312000000000e+00 5.15799929440618e-03 9.61880668670355e-05
8.99208000000000e+00 5.08718354038275e-03 9.50206076455388e-05
9.02104000000000e+00 5.01734003756210e-03 9.38668313569801e-05
9.05000000000000e+00 4.94845543760932e-03 9.27265868356304e-05
9.07896000000000e+00 4.88051657545289e-03 9.15997244008452e-05
9.10792000000000e+00 4.81351046676858e-03 9.04860958465351e-05
9.13688000000000e+00 4.74742430549796e-03 8.93855544306134e-05
