Energy (eV)          EEDF (eV^-(3/2))     First Anisotropy
1.34545454545455e-04 1.26362007450999e+02 4.03525926788781e-02
4.03636363636364e-04 1.25572819837495e+02 6.66495843687982e-02
6.72727272727273e-04 1.24788561055947e+02 8.80273597652431e-02
9.41818181818182e-04 1.24009200323518e+02 1.04294034630227e-01
1.21090909090909e-03 1.23234707048301e+02 1.17882028373718e-01
1.48000000000000e-03 1.22465050832266e+02 1.29710157990734e-01
1.74909090909091e-03 1.21700201467712e+02 1.40253495376625e-01
2.01818181818182e-03 1.20940128931474e+02 1.49798676891695e-01
2.28727272727273e-03 1.20184803390164e+02 1.58535643970708e-01
2.55636363636364e-03 1.19434195196700e+02 1.66598530144637e-01
2.82545454545455e-03 1.18688274889148e+02 1.74086544603787e-01
3.09454545454545e-03 1.17947013189571e+02 1.81075702126578e-01
3.36363636363636e-03 1.17210381002870e+02 1.87625892817131e-01
3.63272727272727e-03 1.16478349415669e+02 1.93785382165641e-01
3.90181818181818e-03 1.15750889695166e+02 1.99593803207622e-01
4.17090909090909e-03 1.15027973288003e+02 2.05084218472791e-01
4.44000000000000e-03 1.14309571819152e+02 2.10284584011327e-01
4.70909090909091e-03 1.13595657091421e+02 2.15218815478553e-01
4.97818181818182e-03 1.12886201082438e+02 2.19907581698035e-01
5.24727272727273e-03 1.12181175945506e+02 2.24368906664896e-01
5.51636363636364e-03 1.11480554007840e+02 2.28618633737761e-01
5.78545454545455e-03 1.10784307769486e+02 2.32670789082277e-01
6.05454545454545e-03 1.10092409902235e+02 2.36537869911615e-01
6.32363636363636e-03 1.09404833248555e+02 2.40231075820193e-01
6.59272727272727e-03 1.08721550820525e+02 2.43760496437796e-01
6.86181818181818e-03 1.08042535798778e+02 2.47135265133566e-01
7.13090909090909e-03 1.07367761531442e+02 2.50363686030293e-01
7.40000000000000e-03 1.06697201533102e+02 2.53453339832786e-01
7.66909090909091e-03 1.06030829484105e+02 2.56411172585350e-01
7.93818181818182e-03 1.05368619228458e+02 2.59243570747807e-01
8.20727272727273e-03 1.04710544773894e+02 2.61956425062220e-01
8.47636363636364e-03 1.04056580290473e+02 2.64555185098722e-01
8.74545454545455e-03 1.03406700109580e+02 2.67044906241699e-01
9.01454545454545e-03 1.02760878722907e+02 2.69430290299078e-01
9.28363636363636e-03 1.02119090781460e+02 2.71715720782565e-01
9.55272727272727e-03 1.01481311094559e+02 2.73905293695987e-01
9.82181818181818e-03 1.00847514628852e+02 2.76002844517313e-01
1.00909090909091e-02 1.00217676507332e+02 2.78011972006887e-01
1.03600000000000e-02 9.95917720095528e+01 2.79936058853744e-01
1.06290909090909e-02 9.89697765649160e+01 2.81778290751072e-01
1.08981818181818e-02 9.83516657620435e+01 2.83541672831293e-01
1.11672727272727e-02 9.77374153395842e+01 2.85229043914282e-01
1.14363636363636e-02 9.71270011877111e+01 2.86843090183806e-01
1.17054545454545e-02 9.65203993471748e+01 2.88386356883900e-01
1.19745454545455e-02 9.59175860083632e+01 2.89861258969570e-01
1.22436363636364e-02 9.53185375103611e+01 2.91270090716384e-01
1.25127272727273e-02 9.47232303400331e+01 2.92615034410452e-01
1.27818181818182e-02 9.41316411310950e+01 2.93898168225243e-01
1.30509090909091e-02 9.35437466631959e+01 2.95121473379336e-01
1.33200000000000e-02 9.29595238610071e+01 2.96286840541427e-01
1.35890909090909e-02 9.23789497916056e+01 2.97396076108762e-01
1.38581818181818e-02 9.18020016687647e+01 2.98450907433720e-01
1.41272727272727e-02 9.12286568468074e+01 2.99452987559685e-01
1.43963636363636e-02 9.06588928214896e+01 3.00403900138492e-01
1.46654545454545e-02 9.00926872291168e+01 3.01305163516342e-01
1.49345454545455e-02 8.95300178456663e+01 3.02158234601619e-01
1.52036363636364e-02 8.89708625859112e+01 3.02964512433026e-01
1.54727272727273e-02 8.84151995025611e+01 3.03725341475294e-01
1.57418181818182e-02 8.78630067853966e+01 3.04442014667761e-01
1.60109090909091e-02 8.73142627604133e+01 3.05115776249743e-01
1.62800000000000e-02 8.67689458889710e+01 3.05747824286532e-01
1.65490909090909e-02 8.62270347656391e+01 3.06339313387872e-01
1.68181818181818e-02 8.56885081213239e+01 3.06891356791664e-01
1.70872727272727e-02 8.51533448184251e+01 3.07405028273696e-01
1.73563636363636e-02 8.46215238513560e+01 3.07881364406993e-01
1.76254545454545e-02 8.40930243457200e+01 3.08321366303653e-01
1.78945454545455e-02 8.35678255574903e+01 3.08726001332830e-01
1.81636363636364e-02 8.30459068721942e+01 3.09096204729136e-01
1.84327272727273e-02 8.25272478041080e+01 3.09432881099295e-01
1.87018181818182e-02 8.20118279954511e+01 3.09736905834726e-01
1.89709090909091e-02 8.14996272155864e+01 3.10009126438414e-01
1.92400000000000e-02 8.09906253602264e+01 3.10250363689471e-01
1.95090909090909e-02 8.04848024496089e+01 3.10461413060562e-01
1.97781818181818e-02 7.99821386308475e+01 3.10643045662974e-01
2.00472727272727e-02 7.94826141739876e+01 3.10796009117815e-01
2.03163636363636e-02 7.89862094722972e+01 3.10921028785876e-01
2.05854545454545e-02 7.84929050414974e+01 3.11018808612103e-01
2.08545454545455e-02 7.80026815189976e+01 3.11090032001042e-01
2.11236363636364e-02 7.75155196631337e+01 3.11135362645090e-01
2.13927272727273e-02 7.70314003524164e+01 3.11155445308068e-01
2.16618181818182e-02 7.65503045847788e+01 3.11150906567081e-01
2.19309090909091e-02 7.60722134768305e+01 3.11122355516040e-01
2.22000000000000e-02 7.55971082631168e+01 3.11070384361308e-01
2.24690909090909e-02 7.51249702945430e+01 3.10995569268606e-01
2.27381818181818e-02 7.46557810401800e+01 3.10898470824299e-01
2.30072727272727e-02 7.41895220839774e+01 3.10779634461885e-01
2.32763636363636e-02 7.37261751249014e+01 3.10639591220507e-01
2.35454545454545e-02 7.32657219762166e+01 3.10478858191341e-01
2.38145454545455e-02 7.28081445647718e+01 3.10297939010415e-01
2.40836363636364e-02 7.23534249302901e+01 3.10097324328596e-01
2.43527272727273e-02 7.19015452246655e+01 3.09877492259456e-01
2.46218181818182e-02 7.14524877112619e+01 3.09638908806451e-01
2.48909090909091e-02 7.10062347642164e+01 3.09382028270964e-01
2.51600000000000e-02 7.05627688677477e+01 3.09107293579064e-01
2.54290909090909e-02 7.01220726147772e+01 3.08815136841935e-01
2.56981818181818e-02 6.96841287083364e+01 3.08505979587702e-01
2.59672727272727e-02 6.92489199587801e+01 3.08180232976101e-01
2.62363636363636e-02 6.88164292838203e+01 3.07838298312088e-01
2.65054545454545e-02 6.83866397078556e+01 3.07480567295870e-01
2.67745454545455e-02 6.79595343613051e+01 3.07107422322150e-01
2.70436363636364e-02 6.75350964799450e+01 3.06719236767165e-01
2.73127272727273e-02 6.71133094042528e+01 3.06316375263821e-01
2.75818181818182e-02 6.66941565787522e+01 3.05899193965608e-01
2.78509090909091e-02 6.62776215513633e+01 3.05468040800116e-01
2.81200000000000e-02 6.58636879727571e+01 3.05023255656775e-01
2.83890909090909e-02 6.54523395951358e+01 3.04565170787223e-01
2.86581818181818e-02 6.50435602733414e+01 3.04094110919583e-01
2.89272727272727e-02 6.46373339624622e+01 3.03610393364178e-01
2.91963636363636e-02 6.42336447177942e+01 3.03114328386577e-01
2.94654545454545e-02 6.38324766942153e+01 3.02606219352955e-01
2.97345454545455e-02 6.34338141455635e+01 3.02086362922758e-01
3.00036363636364e-02 6.30376414240179e+01 3.01555049234447e-01
3.02727272727273e-02 6.26439429794862e+01 3.01012562084347e-01
3.05418181818182e-02 6.22527033589932e+01 3.00459179098969e-01
3.08109090909091e-02 6.18639072060749e+01 2.99895171901306e-01
3.10800000000000e-02 6.14775392601749e+01 2.99320806221658e-01
3.13490909090909e-02 6.10935843555584e+01 2.98736342200556e-01
3.16181818181818e-02 6.07120274221909e+01 2.98142034439333e-01
3.18872727272727e-02 6.03328534836612e+01 2.97538132046876e-01
3.21563636363636e-02 5.99560476570925e+01 2.96924878925190e-01
3.24254545454545e-02 5.95815951525586e+01 2.96302513855355e-01
3.26945454545455e-02 5.92094812725028e+01 2.95671270627600e-01
3.29636363636364e-02 5.88396914111608e+01 2.95031378167219e-01
3.32327272727273e-02 5.84722110539886e+01 2.94383060656210e-01
3.35018181818182e-02 5.81070257770920e+01 2.93726537650886e-01
3.37709090909091e-02 5.77441212466606e+01 2.93062024195831e-01
3.40400000000000e-02 5.73834832184049e+01 2.92389730889937e-01
3.43090909090909e-02 5.70250975365818e+01 2.91709864125577e-01
3.45781818181818e-02 5.66689501346953e+01 2.91022626103466e-01
3.48472727272727e-02 5.63150270336784e+01 2.90328214846347e-01
3.51163636363636e-02 5.59633143417701e+01 2.89626824426271e-01
3.53854545454545e-02 5.56137982539695e+01 2.88918645015391e-01
3.56545454545455e-02 5.52664650514942e+01 2.88203862977235e-01
3.59236363636364e-02 5.49213011012415e+01 2.87482660955274e-01
3.61927272727273e-02 5.45782928552538e+01 2.86755217958783e-01
3.64618181818182e-02 5.42374268501867e+01 2.86021709446110e-01
3.67309090909091e-02 5.38986897067807e+01 2.85282307405585e-01
3.70000000000000e-02 5.35620681293355e+01 2.84537180394406e-01
3.72690909090909e-02 5.32275489048313e+01 2.83786493733590e-01
3.75381818181818e-02 5.28951189034893e+01 2.83030409502425e-01
3.78072727272727e-02 5.25647650771697e+01 2.82269086533320e-01
3.80763636363636e-02 5.22364744592239e+01 2.81502680598103e-01
3.83454545454545e-02 5.19102341639862e+01 2.80731344437237e-01
3.86145454545455e-02 5.15860313862676e+01 2.79955227825853e-01
3.88836363636364e-02 5.12638534008529e+01 2.79174477638079e-01
3.91527272727273e-02 5.09436875620020e+01 2.78389237909498e-01
3.94218181818182e-02 5.06255213029532e+01 2.77599649897888e-01
3.96909090909091e-02 5.03093421354298e+01 2.76805852142399e-01
3.99600000000000e-02 4.99951376491502e+01 2.76007980485481e-01
4.02290909090909e-02 4.96828955110314e+01 2.75206168235670e-01
4.04981818181818e-02 4.93726034656385e+01 2.74400546150360e-01
4.07672727272727e-02 4.90642493337639e+01 2.73591242419962e-01
4.10363636363636e-02 4.87578210122646e+01 2.72778382823953e-01
4.13054545454545e-02 4.84533064735874e+01 2.71962090746566e-01
4.15745454545455e-02 4.81506937652963e+01 2.71142487225869e-01
4.18436363636364e-02 4.78499710096037e+01 2.70319691001628e-01
4.21127272727273e-02 4.75511264029042e+01 2.69493818561986e-01
4.23818181818182e-02 4.72541482153114e+01 2.68664984188872e-01
4.26509090909091e-02 4.69590247901973e+01 2.67833300002310e-01
4.29200000000000e-02 4.66657445437346e+01 2.66998875971590e-01
4.31890909090909e-02 4.63742959641740e+01 2.66161820053668e-01
4.34581818181818e-02 4.60846676122027e+01 2.65322238169421e-01
4.37272727272727e-02 4.57968481196795e+01 2.64480234181887e-01
4.39963636363636e-02 4.55108261894623e+01 2.63635910029288e-01
4.42654545454545e-02 4.52265905949648e+01 2.62789365732024e-01
4.45345454545455e-02 4.49441301797159e+01 2.61940699429881e-01
4.48036363636364e-02 4.46634338569213e+01 2.61090007418542e-01
4.50727272727273e-02 4.43844906090291e+01 2.60237384185154e-01
4.53418181818182e-02 4.41072894872968e+01 2.59382922442950e-01
4.56109090909091e-02 4.38318196113620e+01 2.58526713165246e-01
4.58800000000000e-02 4.35580701688148e+01 2.57668845589553e-01
4.61490909090909e-02 4.32860304145394e+01 2.56809407336924e-01
4.64181818181818e-02 4.30156896709999e+01 2.55948484384848e-01
4.66872727272727e-02 4.27470373271091e+01 2.55086161042507e-01
4.69563636363636e-02 4.24800628380507e+01 2.54222520065581e-01
4.72254545454545e-02 4.22147557248654e+01 2.53357642657584e-01
4.74945454545455e-02 4.19511055740401e+01 2.52491608498727e-01
4.77636363636364e-02 4.16891020370982e+01 2.51624495774168e-01
4.80327272727273e-02 4.14287348301945e+01 2.50756381201669e-01
4.83018181818182e-02 4.11699937337109e+01 2.49887340058486e-01
4.85709090909091e-02 4.09128685918554e+01 2.49017446207830e-01
4.88400000000000e-02 4.06573493122636e+01 2.48146772098463e-01
4.91090909090909e-02 4.04034258653967e+01 2.47275388868711e-01
4.93781818181818e-02 4.01510882847688e+01 2.46403366317957e-01
4.96472727272727e-02 3.99003266659311e+01 2.45530772880545e-01
4.99163636363636e-02 3.96511311662924e+01 2.44657675726027e-01
5.01854545454545e-02 3.94034920047328e+01 2.43784140756837e-01
5.04545454545455e-02 3.91573994612203e+01 2.42910232630952e-01
5.07236363636364e-02 3.89128438764283e+01 2.42036014784186e-01
5.09927272727273e-02 3.86698156513574e+01 2.41161549451901e-01
5.12618181818182e-02 3.84283052469584e+01 2.40286897690296e-01
5.15309090909091e-02 3.81883031837575e+01 2.39412119397339e-01
5.18000000000000e-02 3.79498000414846e+01 2.38537273309339e-01
5.20690909090909e-02 3.77127864585225e+01 2.37662417092438e-01
5.23381818181818e-02 3.74772531320857e+01 2.36787607313880e-01
5.26072727272727e-02 3.72431908173056e+01 2.35912899415736e-01
5.28763636363636e-02 3.70105903270517e+01 2.35038347803049e-01
5.31454545454545e-02 3.67794425315717e+01 2.34164005839189e-01
5.34145454545455e-02 3.65497383581324e+01 2.33289925863898e-01
5.36836363636364e-02 3.63214687906640e+01 2.32416159211091e-01
5.39527272727273e-02 3.60946248694060e+01 2.31542756226200e-01
5.42218181818182e-02 3.58691976905558e+01 2.30669766283204e-01
5.44909090909091e-02 3.56451784059191e+01 2.29797237801329e-01
5.47600000000000e-02 3.54225582225625e+01 2.28925218239765e-01
5.50290909090909e-02 3.52013284023085e+01 2.28053754178702e-01
5.52981818181818e-02 3.49814802618751e+01 2.27182891291051e-01
5.55672727272727e-02 3.47630051720498e+01 2.26312674316693e-01
5.58363636363636e-02 3.45458945575130e+01 2.25443147140493e-01
5.61054545454545e-02 3.43301398965022e+01 2.24574352786209e-01
5.63745454545455e-02 3.41157327204768e+01 2.23706333431033e-01
5.66436363636364e-02 3.39026646137863e+01 2.22839130419938e-01
5.69127272727273e-02 3.36909272133396e+01 2.21972784279725e-01
5.71818181818182e-02 3.34805122082770e+01 2.21107334732739e-01
5.74509090909091e-02 3.32714113396438e+01 2.20242820710391e-01
5.77200000000000e-02 3.30636164000662e+01 2.19379280346777e-01
5.79890909090909e-02 3.28571192332876e+01 2.18516751050711e-01
5.82581818181818e-02 3.26519117342756e+01 2.17655269478439e-01
5.85272727272727e-02 3.24479858484743e+01 2.16794871508832e-01
5.87963636363636e-02 3.22453335716320e+01 2.15935592312754e-01
5.90654545454545e-02 3.20439469494872e+01 2.15077466346133e-01
5.93345454545455e-02 3.18438180774564e+01 2.14220527361811e-01
5.96036363636364e-02 3.16449391003236e+01 2.13364808421194e-01
5.98727272727273e-02 3.14473022119324e+01 2.12510341905723e-01
6.01418181818182e-02 3.12508996548793e+01 2.11657159528088e-01
6.04109090909091e-02 3.10557237202091e+01 2.10805292343235e-01
6.06800000000000e-02 3.08617667471128e+01 2.09954770741307e-01
6.09490909090909e-02 3.06690211225007e+01 2.09105624512076e-01
6.12181818181818e-02 3.04774792810832e+01 2.08257882818855e-01
6.14872727272727e-02 3.02871337046921e+01 2.07411574174804e-01
6.17563636363636e-02 3.00979769221137e+01 2.06566726504974e-01
6.20254545454545e-02 2.99100015087953e+01 2.05723367138901e-01
6.22945454545455e-02 2.97232000865538e+01 2.04881522820312e-01
6.25636363636364e-02 2.95375653232863e+01 2.04041219716705e-01
6.28327272727273e-02 2.93530899326820e+01 2.03202483428791e-01
6.31018181818182e-02 2.91697666739368e+01 2.02365338999686e-01
6.33709090909091e-02 2.89875883514682e+01 2.01529810923991e-01
6.36400000000000e-02 2.88065478146338e+01 2.00695923140399e-01
6.39090909090909e-02 2.86266379573378e+01 1.99863699089501e-01
6.41781818181818e-02 2.84478517180908e+01 1.99033161689071e-01
6.44472727272727e-02 2.82701820793918e+01 1.98204333311633e-01
6.47163636363636e-02 2.80936220675678e+01 1.97377235840079e-01
6.49854545454545e-02 2.79181647524992e+01 1.96551890660117e-01
6.52545454545455e-02 2.77438032473483e+01 1.95728318668292e-01
6.55236363636364e-02 2.75705307082886e+01 1.94906540279915e-01
6.57927272727273e-02 2.73983403342365e+01 1.94086575436846e-01
6.60618181818182e-02 2.72272253665843e+01 1.93268443615123e-01
6.63309090909091e-02 2.70571790889348e+01 1.92452163832488e-01
6.66000000000000e-02 2.68881948268376e+01 1.91637754640888e-01
6.68690909090909e-02 2.67202659474276e+01 1.90825234178533e-01
6.71381818181818e-02 2.65533858594657e+01 1.90014620146552e-01
6.74072727272727e-02 2.63875480127769e+01 1.89205929787893e-01
6.76763636363636e-02 2.62227458980953e+01 1.88399179937387e-01
6.79454545454545e-02 2.60589730468079e+01 1.87594387014167e-01
6.82145454545455e-02 2.58962230307016e+01 1.86791567028353e-01
6.84836363636364e-02 2.57344894617099e+01 1.85990735587633e-01
6.87527272727273e-02 2.55737659916630e+01 1.85191907903766e-01
6.90218181818182e-02 2.54140463120380e+01 1.84395098798927e-01
6.92909090909091e-02 2.52553241537119e+01 1.83600322711980e-01
6.95600000000000e-02 2.50975932867150e+01 1.82807593691024e-01
6.98290909090909e-02 2.49408475198973e+01 1.82016925440392e-01
7.00981818181818e-02 2.47850807009548e+01 1.81228331298752e-01
7.03672727272727e-02 2.46302867159173e+01 1.80441824219248e-01
7.06363636363636e-02 2.44764594889989e+01 1.79657416814753e-01
7.09054545454545e-02 2.43235929823599e+01 1.78875121350389e-01
7.11745454545454e-02 2.41716811958696e+01 1.78094949749084e-01
7.14436363636364e-02 2.40207181668707e+01 1.77316913597114e-01
7.17127272727273e-02 2.38706979699454e+01 1.76541024149527e-01
7.19818181818182e-02 2.37216147166830e+01 1.75767292335470e-01
7.22509090909091e-02 2.35734625554484e+01 1.74995728763411e-01
7.25200000000000e-02 2.34262356711527e+01 1.74226343713900e-01
7.27890909090909e-02 2.32799282849448e+01 1.73459147182028e-01
7.30581818181818e-02 2.31345346542259e+01 1.72694148856945e-01
7.33272727272727e-02 2.29900490721815e+01 1.71931358103357e-01
7.35963636363636e-02 2.28464658676389e+01 1.71170784002351e-01
7.38654545454545e-02 2.27037794048441e+01 1.70412435344162e-01
7.41345454545455e-02 2.25619840832412e+01 1.69656320632882e-01
7.44036363636364e-02 2.24210743372522e+01 1.68902448091088e-01
7.46727272727273e-02 2.22810446360585e+01 1.68150825664377e-01
7.49418181818182e-02 2.21418894833843e+01 1.67401461025853e-01
7.52109090909091e-02 2.20036034172803e+01 1.66654361580555e-01
7.54800000000000e-02 2.18661810099094e+01 1.65909534458394e-01
7.57490909090909e-02 2.17296168672624e+01 1.65166986552691e-01
7.60181818181818e-02 2.15939056291620e+01 1.64426724501032e-01
7.62872727272727e-02 2.14590419688353e+01 1.63688754667962e-01
7.65563636363636e-02 2.13250205927776e+01 1.62953083182024e-01
7.68254545454545e-02 2.11918362405442e+01 1.62219715928784e-01
7.70945454545455e-02 2.10594836845445e+01 1.61488658554790e-01
7.73636363636364e-02 2.09279577298365e+01 1.60759916471472e-01
7.76327272727273e-02 2.07972532139229e+01 1.60033494858974e-01
7.79018181818182e-02 2.06673650065486e+01 1.59309398669950e-01
7.81709090909091e-02 2.05382880094993e+01 1.58587632633297e-01
7.84400000000000e-02 2.04100171564012e+01 1.57868201247354e-01
7.87090909090909e-02 2.02825474124580e+01 1.57151108814906e-01
7.89781818181818e-02 2.01558737744473e+01 1.56436359425326e-01
7.92472727272727e-02 2.00299912703292e+01 1.55723956938474e-01
7.95163636363636e-02 1.99048949591163e+01 1.55013905018312e-01
7.97854545454545e-02 1.97805799306798e+01 1.54306207126221e-01
8.00545454545455e-02 1.96570413055571e+01 1.53600866524338e-01
8.03236363636364e-02 1.95342742347600e+01 1.52897886278874e-01
8.05927272727273e-02 1.94122738995841e+01 1.52197269263378e-01
8.08618181818182e-02 1.92910355114204e+01 1.51499018161896e-01
8.11309090909091e-02 1.91705543115668e+01 1.50803135472150e-01
8.14000000000000e-02 1.90508255710412e+01 1.50109623499077e-01
8.16690909090909e-02 1.89318445903385e+01 1.49418484386605e-01
8.19381818181818e-02 1.88136066994204e+01 1.48729720101082e-01
8.22072727272727e-02 1.86961072573567e+01 1.48043332416281e-01
8.24763636363636e-02 1.85793416522017e+01 1.47359322943907e-01
8.27454545454546e-02 1.84633053008135e+01 1.46677693127300e-01
8.30145454545455e-02 1.83479936486741e+01 1.45998444244249e-01
8.32836363636364e-02 1.82334021697103e+01 1.45321577409787e-01
8.35527272727273e-02 1.81195263661163e+01 1.44647093578972e-01
8.38218181818182e-02 1.80063617681773e+01 1.43974993549564e-01
8.40909090909091e-02 1.78939039340938e+01 1.43305277964713e-01
8.43600000000000e-02 1.77821484498072e+01 1.42637947306818e-01
8.46290909090909e-02 1.76710909287747e+01 1.41973001926488e-01
8.48981818181818e-02 1.75607270119542e+01 1.41310442027106e-01
