Energy (eV)          EEDF (eV^-(3/2))     First Anisotropy
9.32142857142857e-02 5.35383895597210e-02 5.31568167520791e-05
2.79642857142857e-01 5.22353571723412e-02 8.70013238956602e-05
4.66071428571429e-01 5.09640383513214e-02 1.12814838797124e-04
6.52500000000000e-01 4.97236612467736e-02 1.31228497009946e-04
8.38928571428571e-01 4.85134727881331e-02 1.45625162036066e-04
1.02535714285714e+00 4.73327382374278e-02 1.57319640382245e-04
1.21178571428571e+00 4.61807407346247e-02 1.67010118864731e-04
1.39821428571429e+00 4.50567808728391e-02 1.75128651657868e-04
1.58464285714286e+00 4.39601762633624e-02 1.81968528271645e-04
1.77107142857143e+00 4.28902611261313e-02 1.87741663648221e-04
1.95750000000000e+00 4.18463858850921e-02 1.92608228697989e-04
2.14392857142857e+00 4.08279167689338e-02 1.96693471559154e-04
2.33035714285714e+00 3.98342354416059e-02 2.00097966186259e-04
2.51678571428571e+00 3.88647386107488e-02 2.02904206815510e-04
2.70321428571429e+00 3.79188376671439e-02 2.05181039732784e-04
2.88964285714286e+00 3.69959583272928e-02 2.06986752002356e-04
3.07607142857143e+00 3.60955402848530e-02 2.08371289015866e-04
3.26250000000000e+00 3.52170368703880e-02 2.09377888024842e-04
3.44892857142857e+00 3.43599147169620e-02 2.10044307509909e-04
3.63535714285714e+00 3.35236534441062e-02 2.10403771382735e-04
3.82178571428571e+00 3.27077453337781e-02 2.10485706022780e-04
4.00821428571429e+00 3.19116950249295e-02 2.10316323440925e-04
4.19464285714286e+00 3.11350192127383e-02 2.09919090047374e-04
4.38107142857143e+00 3.03772463552198e-02 2.09315107398052e-04
4.56750000000000e+00 2.96379163869154e-02 2.08523425025535e-04
4.75392857142857e+00 2.89165804380541e-02 2.07561299488450e-04
4.94035714285714e+00 2.82128005667298e-02 2.06444411658280e-04
5.12678571428571e+00 2.75261494881582e-02 2.05187050086572e-04
5.31321428571429e+00 2.68562103169359e-02 2.03802266329544e-04
5.49964285714286e+00 2.62025763139280e-02 2.02302008316099e-04
5.68607142857143e+00 2.55648506393443e-02 2.00697235126416e-04
5.87250000000000e+00 2.49426461117948e-02 1.98998016524406e-04
6.05892857142857e+00 2.43355849722221e-02 1.97213619356163e-04
6.24535714285714e+00 2.37432986576345e-02 1.95352583582145e-04
6.43178571428571e+00 2.31654275741678e-02 1.93422789191511e-04
6.61821428571429e+00 2.26016208798561e-02 1.91431514917541e-04
6.80464285714286e+00 2.20515362716207e-02 1.89385490653698e-04
6.99107142857143e+00 2.15148397774584e-02 1.87290944059679e-04
7.17750000000000e+00 2.09912055536715e-02 1.85153642281812e-04
7.36392857142857e+00 2.04803156863490e-02 1.82978929129735e-04
7.55035714285714e+00 1.99818600004762e-02 1.80771758817037e-04
7.73678571428571e+00 1.94955358694362e-02 1.78536726423490e-04
7.92321428571428e+00 1.90210480320246e-02 1.76278095142604e-04
8.10964285714286e+00 1.85581084131855e-02 1.73999821249090e-04
8.29607142857143e+00 1.81064359491186e-02 1.71705576744413e-04
8.48250000000000e+00 1.76657564166340e-02 1.69398770046978e-04
8.66892857142857e+00 1.72358022661712e-02 1.67082564706538e-04
8.85535714285714e+00 1.68163124608759e-02 1.64759896764915e-04
9.04178571428571e+00 1.64070323165645e-02 1.62433490690739e-04
9.22821428571429e+00 1.60077133476289e-02 1.60105873775077e-04
9.41464285714286e+00 1.56181131161729e-02 1.57779389575907e-04
9.60107142857143e+00 1.52379950848240e-02 1.55456210265471e-04
9.78750000000000e+00 1.48671284731234e-02 1.53138348068760e-04
9.97392857142857e+00 1.45052881170526e-02 1.50827665838358e-04
1.01603571428571e+01 1.41522543320345e-02 1.48525886211378e-04
1.03467857142857e+01 1.38078127850412e-02 1.46234601875641e-04
1.05332142857143e+01 1.34717543524012e-02 1.43955283461044e-04
1.07196428571429e+01 1.31438750035715e-02 1.41689286087113e-04
1.09060714285714e+01 1.28239756767002e-02 1.39437858748790e-04
1.10925000000000e+01 1.25118621488175e-02 1.37202150070670e-04
1.12789285714286e+01 1.22073449270134e-02 1.34983213943271e-04
1.14653571428571e+01 1.19102391303067e-02 1.32782016152249e-04
1.16517857142857e+01 1.16203643798893e-02 1.30599440373166e-04
1.18382142857143e+01 1.13375446820120e-02 1.28436292754659e-04
1.20246428571429e+01 1.10616083288600e-02 1.26293305887125e-04
1.22110714285714e+01 1.07923877938955e-02 1.24171144955148e-04
1.23975000000000e+01 1.05297196234312e-02 1.22070411151335e-04
1.25839285714286e+01 1.02734443442175e-02 1.19991645096438e-04
1.27703571428571e+01 1.00234063643073e-02 1.17935331137758e-04
1.29567857142857e+01 9.77945388047399e-03 1.15901901226933e-04
1.31432142857143e+01 9.54143878030498e-03 1.13891737745476e-04
1.33296428571429e+01 9.30921655811498e-03 1.11905175907215e-04
1.35160714285714e+01 9.08264622691214e-03 1.09942507963961e-04
1.37025000000000e+01 8.86159022770105e-03 1.08003985279599e-04
1.38889285714286e+01 8.64591435114864e-03 1.06089820459362e-04
1.40753571428571e+01 8.43548765434479e-03 1.04200190226298e-04
1.42617857142857e+01 8.23018238274009e-03 1.02335238004701e-04
1.44482142857143e+01 8.02987388819845e-03 1.00495075697993e-04
1.46346428571429e+01 7.83444055777569e-03 9.86797851624737e-05
1.48210714285714e+01 7.64376373966025e-03 9.68894211594722e-05
1.50075000000000e+01 7.45772766722717e-03 9.51240126264044e-05
1.51939285714286e+01 7.27621939272515e-03 9.33835640191771e-05
1.53803571428571e+01 7.09912871735596e-03 9.16680572792866e-05
1.55667857142857e+01 6.92634812547608e-03 8.99774535894520e-05
1.57532142857143e+01 6.75777271594506e-03 8.83116945017107e-05
1.59396428571429e+01 6.59330014186840e-03 8.66707028402599e-05
1.61260714285714e+01 6.43283054829013e-03 8.50543848131824e-05
1.63125000000000e+01 6.27626650854734e-03 8.34626307862896e-05
1.64989285714286e+01 6.12351296818927e-03 8.18953161299790e-05
1.66853571428571e+01 5.97447718622629e-03 8.03523025840040e-05
1.68717857142857e+01 5.82906867968257e-03 7.88334394657524e-05
1.70582142857143e+01 5.68719916604267e-03 7.73385643837460e-05
1.72446428571429e+01 5.54878251231444e-03 7.58675037807246e-05
1.74310714285714e+01 5.41373468260553e-03 7.44200744646650e-05
1.76175000000000e+01 5.28197368475313e-03 7.29960840680016e-05
1.78039285714286e+01 5.15341952293199e-03 7.15953315752745e-05
1.79903571428571e+01 5.02799414827718e-03 7.02176082784068e-05
1.81767857142857e+01 4.90562141216830e-03 6.88626986140011e-05
1.83632142857143e+01 4.78622701795374e-03 6.75303806071734e-05
1.85496428571429e+01 4.66973847792046e-03 6.62204261844319e-05
1.87360714285714e+01 4.55608506918485e-03 6.49326022942521e-05
1.89225000000000e+01 4.44519778891639e-03 6.36666711647008e-05
1.91089285714286e+01 4.33700931431244e-03 6.24223906224674e-05
1.92953571428571e+01 4.23145396109115e-03 6.11995147643318e-05
1.94817857142857e+01 4.12846764413843e-03 5.99977945384384e-05
1.96682142857143e+01 4.02798783699643e-03 5.88169780106618e-05
1.98546428571429e+01 3.92995353553193e-03 5.76568105291776e-05
2.00410714285714e+01 3.83430522082163e-03 5.65170355499244e-05
2.02275000000000e+01 3.74098482157096e-03 5.53973947645205e-05
2.04139285714286e+01 3.64993568032646e-03 5.42976282819828e-05
2.06003571428571e+01 3.56110251857931e-03 5.32174751007092e-05
2.07867857142857e+01 3.47443140361861e-03 5.21566735107764e-05
2.09732142857143e+01 3.38986971452330e-03 5.11149612429437e-05
2.11596428571429e+01 3.30736611149925e-03 5.00920755378355e-05
2.13460714285714e+01 3.22687050464913e-03 4.90877537564701e-05
2.15325000000000e+01 3.14833402241985e-03 4.81017334251191e-05
2.17189285714286e+01 3.07170898309139e-03 4.71337523266337e-05
2.19053571428571e+01 2.99694886543456e-03 4.61835488308223e-05
2.20917857142857e+01 2.92400828079458e-03 4.52508621705415e-05
2.22782142857143e+01 2.85284294453405e-03 4.43354325132570e-05
2.24646428571429e+01 2.78340965016323e-03 4.34370009695780e-05
2.26510714285714e+01 2.71566624306089e-03 4.25553100457162e-05
2.28375000000000e+01 2.64957159397614e-03 4.16901036359934e-05
2.30239285714286e+01 2.58508557497732e-03 4.08411270551167e-05
2.32103571428571e+01 2.52216903477746e-03 4.00081272673911e-05
2.33967857142857e+01 2.46078377522488e-03 3.91908530733662e-05
2.35832142857143e+01 2.40089252731748e-03 3.83890551307970e-05
2.37696428571429e+01 2.34245892938331e-03 3.76024859255745e-05
2.39560714285714e+01 2.28544750496705e-03 3.68309001070999e-05
2.41425000000000e+01 2.22982364057156e-03 3.60740544488181e-05
2.43289285714286e+01 2.17555356537449e-03 3.53317078425782e-05
2.45153571428571e+01 2.12260433047710e-03 3.46036214553321e-05
2.47017857142857e+01 2.07094378910759e-03 3.38895588522728e-05
2.48882142857143e+01 2.02054057647084e-03 3.31892859854065e-05
2.50746428571429e+01 1.97136409134941e-03 3.25025711422321e-05
2.52610714285714e+01 1.92338447749524e-03 3.18291851939373e-05
2.54475000000000e+01 1.87657260492881e-03 3.11689015375276e-05
2.56339285714286e+01 1.83090005283716e-03 3.05214960666116e-05
2.58203571428571e+01 1.78633909212092e-03 2.98867472760829e-05
2.60067857142857e+01 1.74286266872504e-03 2.92644363402342e-05
2.61932142857143e+01 1.70044438670771e-03 2.86543470813320e-05
2.63796428571429e+01 1.65905849272875e-03 2.80562659062689e-05
2.65660714285714e+01 1.61867986039065e-03 2.74699819896326e-05
2.67525000000000e+01 1.57928397452431e-03 2.68952872064372e-05
2.69389285714286e+01 1.54084691677202e-03 2.63319760890580e-05
2.71253571428571e+01 1.50334535090767e-03 2.57798458946840e-05
2.73117857142857e+01 1.46675650880152e-03 2.52386966516651e-05
2.74982142857143e+01 1.43105817619186e-03 2.47083311165191e-05
2.76846428571429e+01 1.39622867960995e-03 2.41885547053217e-05
2.78710714285714e+01 1.36224687320279e-03 2.36791756280227e-05
2.80575000000000e+01 1.32909212552660e-03 2.31800048177005e-05
2.82439285714286e+01 1.29674430739521e-03 2.26908558802229e-05
2.84303571428571e+01 1.26518377953216e-03 2.22115451351907e-05
2.86167857142857e+01 1.23439138075381e-03 2.17418916400655e-05
2.88032142857143e+01 1.20434841601071e-03 2.12817171413118e-05
2.89896428571429e+01 1.17503664536798e-03 2.08308460049314e-05
2.91760714285714e+01 1.14643827291651e-03 2.03891053142626e-05
2.93625000000000e+01 1.11853593567249e-03 1.99563247995825e-05
2.95489285714286e+01 1.09131269333674e-03 1.95323367848902e-05
2.97353571428571e+01 1.06475201790778e-03 1.91169762101380e-05
2.99217857142857e+01 1.03883778373304e-03 1.87100806400327e-05
3.01082142857143e+01 1.01355425745677e-03 1.83114902131242e-05
3.02946428571429e+01 9.88886088733903e-04 1.79210475742792e-05
3.04810714285714e+01 9.64818300898592e-04 1.75385979451499e-05
3.06675000000000e+01 9.41336281633014e-04 1.71639890565137e-05
3.08539285714286e+01 9.18425774338136e-04 1.67970710950666e-05
3.10403571428571e+01 8.96072869395997e-04 1.64376967126203e-05
3.12267857142857e+01 8.74263995793961e-04 1.60857210245476e-05
3.14132142857143e+01 8.52985912674356e-04 1.57410015593146e-05
3.15996428571429e+01 8.32225701510074e-04 1.54033981945936e-05
3.17860714285714e+01 8.11970758251830e-04 1.50727732073106e-05
3.19725000000000e+01 7.92208785483534e-04 1.47489912101413e-05
3.21589285714286e+01 7.72927785151687e-04 1.44319191001534e-05
3.23453571428571e+01 7.54116051214752e-04 1.41214260590976e-05
3.25317857142857e+01 7.35762162591958e-04 1.38173835450785e-05
3.27182142857143e+01 7.17854976058817e-04 1.35196652441109e-05
3.29046428571429e+01 7.00383619654989e-04 1.32281470108205e-05
3.30910714285714e+01 6.83337486075944e-04 1.29427069032865e-05
3.32775000000000e+01 6.66706226077499e-04 1.26632251244443e-05
3.34639285714286e+01 6.50479742350515e-04 1.23895839736932e-05
3.36503571428571e+01 6.34648183336973e-04 1.21216678412761e-05
3.38367857142857e+01 6.19201937294007e-04 1.18593631957384e-05
3.40232142857143e+01 6.04131626320493e-04 1.16025585384546e-05
3.42096428571429e+01 5.89428100803584e-04 1.13511443493614e-05
3.43960714285714e+01 5.75082433857554e-04 1.11050131105333e-05
3.45825000000000e+01 5.61085915778181e-04 1.08640592527997e-05
3.47689285714286e+01 5.47430048882751e-04 1.06281791109316e-05
3.49553571428571e+01 5.34106542307519e-04 1.03972709142736e-05
3.51417857142857e+01 5.21107307010704e-04 1.01712347718104e-05
3.53282142857143e+01 5.08424450749721e-04 9.94997263017141e-06
3.55146428571429e+01 4.96050273403105e-04 9.73338822450537e-06
3.57010714285714e+01 4.83977262290562e-04 9.52138709376205e-06
3.58875000000000e+01 4.72198087509798e-04 9.31387653253870e-06
3.60739285714286e+01 4.60705597590012e-04 9.11076555012161e-06
3.62603571428571e+01 4.49492815114892e-04 8.91196485891602e-06
3.64467857142857e+01 4.38552932516133e-04 8.71738685839726e-06
3.66332142857143e+01 4.27879307849764e-04 8.52694559680572e-06
3.68196428571429e+01 4.17465460855737e-04 8.34055672705324e-06
3.70060714285714e+01 4.07305069019550e-04 8.15813751595378e-06
3.71925000000000e+01 3.97391963650856e-04 7.97960680112618e-06
3.73789285714286e+01 3.87720126222451e-04 7.80488495393793e-06
3.75653571428571e+01 3.78283684687722e-04 7.63389386682859e-06
3.77517857142857e+01 3.69076909939695e-04 7.46655693702525e-06
3.79382142857143e+01 3.60094212259126e-04 7.30279903193985e-06
3.81246428571429e+01 3.51330137995645e-04 7.14254644986287e-06
3.83110714285714e+01 3.42779366253431e-04 6.98572692483158e-06
3.84975000000000e+01 3.34436705593431e-04 6.83226958830281e-06
3.86839285714286e+01 3.26297090949912e-04 6.68210493589737e-06
3.88703571428571e+01 3.18355580532119e-04 6.53516481437942e-06
3.90567857142857e+01 3.10607352843607e-04 6.39138240572705e-06
3.92432142857143e+01 3.03047703695109e-04 6.25069219611546e-06
3.94296428571429e+01 2.95672043409338e-04 6.11302994107518e-06
3.96160714285714e+01 2.88475894031825e-04 5.97833266726475e-06
3.98025000000000e+01 2.81454886557451e-04 5.84653863856387e-06
3.99889285714286e+01 2.74604758333575e-04 5.71758732642399e-06
4.01753571428571e+01 2.67921350453183e-04 5.59141939702257e-06
4.03617857142857e+01 2.61400605245880e-04 5.46797669607050e-06
4.05482142857143e+01 2.55038563765623e-04 5.34720222118455e-06
4.07346428571429e+01 2.48831363436676e-04 5.22904009114760e-06
4.09210714285714e+01 2.42775235706392e-04 5.11343554553231e-06
4.11075000000000e+01 2.36866503712590e-04 5.00033491483638e-06
4.12939285714286e+01 2.31101580096588e-04 4.88968559419177e-06
4.14803571428571e+01 2.25476964809839e-04 4.78143603103426e-06
4.16667857142857e+01 2.19989243001979e-04 4.67553571087858e-06
4.18532142857143e+01 2.14635082907849e-04 4.57193513283869e-06
4.20396428571429e+01 2.09411233865064e-04 4.47058578261409e-06
4.22260714285714e+01 2.04314524338708e-04 4.37144013066796e-06
4.24125000000000e+01 1.99341859959417e-04 4.27445160602048e-06
4.25989285714286e+01 1.94490221681680e-04 4.17957457304208e-06
4.27853571428571e+01 1.89756663938360e-04 4.08676431984990e-06
4.29717857142857e+01 1.85138312862982e-04 3.99597704517474e-06
4.31582142857143e+01 1.80632364512513e-04 3.90716983676591e-06
4.33446428571429e+01 1.76236083197960e-04 3.82030064773213e-06
4.35310714285714e+01 1.71946799822034e-04 3.73532829379296e-06
4.37175000000000e+01 1.67761910228971e-04 3.65221243035471e-06
4.39039285714286e+01 1.63678873653659e-04 3.57091353210552e-06
4.40903571428571e+01 1.59695211168836e-04 3.49139288225803e-06
4.42767857142857e+01 1.55808504188742e-04 3.41361256055667e-06
4.44632142857143e+01 1.52016392974259e-04 3.33753542429900e-06
4.46496428571429e+01 1.48316575227149e-04 3.26312508767447e-06
4.48360714285714e+01 1.44706804691116e-04 3.19034591846793e-06
4.50225000000000e+01 1.41184889763769e-04 3.11916301806224e-06
4.52089285714286e+01 1.37748692190704e-04 3.04954220355636e-06
4.53953571428571e+01 1.34396125758951e-04 2.98144999790824e-06
4.55817857142857e+01 1.31125155037468e-04 2.91485361907952e-06
4.57682142857143e+01 1.27933794119735e-04 2.84972096341017e-06
4.59546428571429e+01 1.24820105440049e-04 2.78602058762096e-06
4.61410714285714e+01 1.21782198596232e-04 2.72372170524190e-06
4.63275000000000e+01 1.18818229182074e-04 2.66279416921003e-06
4.65139285714286e+01 1.15926397687706e-04 2.60320845624326e-06
4.67003571428571e+01 1.13104948400234e-04 2.54493565789210e-06
4.68867857142857e+01 1.10352168343598e-04 2.48794747078479e-06
4.70732142857143e+01 1.07666386220876e-04 2.43221618210401e-06
4.72596428571429e+01 1.05045971417581e-04 2.37771465394465e-06
4.74460714285714e+01 1.02489333010910e-04 2.32441631966052e-06
4.76325000000000e+01 9.99949187876002e-05 2.27229516875227e-06
4.78189285714286e+01 9.75612143180512e-05 2.22132573324699e-06
4.80053571428571e+01 9.51867420312710e-05 2.17148307963654e-06
4.81917857142857e+01 9.28700603225550e-05 2.12274280016383e-06
4.83782142857143e+01 9.06097626637552e-05 2.07508100016738e-06
4.85646428571429e+01 8.84044767640675e-05 2.02847428451262e-06
4.87510714285714e+01 8.62528637362471e-05 1.98289975399055e-06
4.89375000000000e+01 8.41536172704354e-05 1.93833499221901e-06
4.91239285714286e+01 8.21054628545777e-05 1.89475805379678e-06
4.93103571428571e+01 8.01071569960496e-05 1.85214745708648e-06
4.94967857142857e+01 7.81574864705907e-05 1.81048217647046e-06
4.96832142857143e+01 7.62552675738484e-05 1.76974163134657e-06
4.98696428571429e+01 7.43993454147871e-05 1.72990567437872e-06
5.00560714285714e+01 7.25885932140067e-05 1.69095458803701e-06
5.02425000000000e+01 7.08219116087460e-05 1.65286907326299e-06
5.04289285714286e+01 6.90982279965050e-05 1.61563023918723e-06
5.06153571428571e+01 6.74164958800828e-05 1.57921959670264e-06
5.08017857142857e+01 6.57756942354118e-05 1.54361905161174e-06
5.09882142857143e+01 6.41748268819304e-05 1.50881089507686e-06
5.11746428571429e+01 6.26129218876686e-05 1.47477779346174e-06
5.13610714285714e+01 6.10890309787404e-05 1.44150278506966e-06
5.15475000000000e+01 5.96022289546825e-05 1.40896927034989e-06
5.17339285714286e+01 5.81516131358233e-05 1.37716100298800e-06
5.19203571428571e+01 5.67363028121614e-05 1.34606208420895e-06
5.21067857142857e+01 5.53554387112798e-05 1.31565695673584e-06
5.22932142857143e+01 5.40081824686719e-05 1.28593039651631e-06
5.24796428571429e+01 5.26937161268638e-05 1.25686750395226e-06
5.26660714285714e+01 5.14112416384656e-05 1.22845370086884e-06
5.28525000000000e+01 5.01599803743196e-05 1.20067472206362e-06
5.30389285714286e+01 4.89391726582276e-05 1.17351660759868e-06
5.32253571428571e+01 4.77480773032029e-05 1.14696569777024e-06
5.34117857142857e+01 4.65859711636247e-05 1.12100862780004e-06
5.35982142857143e+01 4.54521486896397e-05 1.09563232067877e-06
5.37846428571429e+01 4.43459215054670e-05 1.07082397960355e-06
5.39710714285714e+01 4.32666179911837e-05 1.04657108519323e-06
5.41575000000000e+01 4.22135828689428e-05 1.02286138820532e-06
5.43439285714286e+01 4.11861768112572e-05 9.99682902877012e-07
5.45303571428571e+01 4.01837760507709e-05 9.77023902498480e-07
5.47167857142857e+01 3.92057720033182e-05 9.54872914761498e-07
5.49032142857143e+01 3.82515708930491e-05 9.33218715577501e-07
5.50896428571429e+01 3.73205933974062e-05 9.12050322564154e-07
5.52760714285714e+01 3.64122742951696e-05 8.91356992510288e-07
5.54625000000000e+01 3.55260621183471e-05 8.71128215106132e-07
5.56489285714286e+01 3.46614188223919e-05 8.51353707197921e-07
5.58353571428571e+01 3.38178194578360e-05 8.32023408904090e-07
5.60217857142857e+01 3.29947518530296e-05 8.13127479549984e-07
5.62082142857143e+01 3.21917162987610e-05 7.94656292334556e-07
5.63946428571429e+01 3.14082252493684e-05 7.76600428726357e-07
5.65810714285714e+01 3.06438030265472e-05 7.58950676173192e-07
5.67675000000000e+01 2.98979855264840e-05 7.41698022710083e-07
5.69539285714286e+01 2.91703199422217e-05 7.24833652007908e-07
5.71403571428571e+01 2.84603644873450e-05 7.08348939974829e-07
5.73267857142857e+01 2.77676881289539e-05 6.92235451211231e-07
5.75132142857143e+01 2.70918703223307e-05 6.76484934413905e-07
5.76996428571429e+01 2.64325007593159e-05 6.61089317559124e-07
5.78860714285714e+01 2.57891791190425e-05 6.46040705846379e-07
5.80725000000000e+01 2.51615148215437e-05 6.31331377065435e-07
5.82589285714286e+01 2.45491267940218e-05 6.16953777333875e-07
5.84453571428571e+01 2.39516432383355e-05 6.02900518130106e-07
5.86317857142857e+01 2.33687014062527e-05 5.89164373208139e-07
5.88182142857143e+01 2.27999473762210e-05 5.75738274641487e-07
