Energy (eV)          EEDF (eV^-(3/2))     First Anisotropy
3.70270270270270e-02 5.02912241522076e-02 3.09775753762854e-05
1.11081081081081e-01 4.98237660563998e-02 5.10867923049750e-05
1.85135135135135e-01 4.93606529951898e-02 6.72657640640637e-05
2.59189189189189e-01 4.89018445806564e-02 7.94513144727432e-05
3.33243243243243e-01 4.84473008009948e-02 8.95270827101034e-05
4.07297297297297e-01 4.79969820163185e-02 9.82078120781836e-05
4.81351351351351e-01 4.75508489551979e-02 1.05864647391041e-04
5.55405405405406e-01 4.71088627112335e-02 1.12722458928207e-04
6.29459459459459e-01 4.66709847396623e-02 1.18930874466442e-04
7.03513513513514e-01 4.62371768539963e-02 1.24595991738381e-04
7.77567567567568e-01 4.58074012221160e-02 1.29796602813548e-04
8.51621621621622e-01 4.53816203647658e-02 1.34593322190300e-04
9.25675675675676e-01 4.49597971504124e-02 1.39034097327267e-04
9.99729729729730e-01 4.45418947926638e-02 1.43157721791714e-04
1.07378378378378e+00 4.41278768458040e-02 1.46996174548740e-04
1.14783783783784e+00 4.37177072070069e-02 1.50576235403182e-04
1.22189189189189e+00 4.33113501058173e-02 1.53920633934510e-04
1.29594594594595e+00 4.29087701013707e-02 1.57048885670980e-04
1.37000000000000e+00 4.25099320886119e-02 1.59977917786385e-04
1.44405405405405e+00 4.21148012827251e-02 1.62722543334660e-04
1.51810810810811e+00 4.17233432279823e-02 1.65295827761471e-04
1.59216216216216e+00 4.13355237834187e-02 1.67709376402979e-04
1.66621621621622e+00 4.09513091306420e-02 1.69973562513912e-04
1.74027027027027e+00 4.05706657628698e-02 1.72097711925070e-04
1.81432432432432e+00 4.01935604827485e-02 1.74090250646630e-04
1.88837837837838e+00 3.98199604058051e-02 1.75958828283611e-04
1.96243243243243e+00 3.94498329490796e-02 1.77710419138978e-04
2.03648648648649e+00 3.90831458364528e-02 1.79351406497184e-04
2.11054054054054e+00 3.87198670897413e-02 1.80887654635679e-04
2.18459459459459e+00 3.83599650263987e-02 1.82324567668253e-04
2.25864864864865e+00 3.80034082617520e-02 1.83667141700340e-04
2.33270270270270e+00 3.76501656995767e-02 1.84920008591800e-04
2.40675675675676e+00 3.73002065358482e-02 1.86087473600293e-04
2.48081081081081e+00 3.69535002512272e-02 1.87173548991492e-04
2.55486486486487e+00 3.66100166087456e-02 1.88181981424622e-04
2.62891891891892e+00 3.62697256552304e-02 1.89116277688969e-04
2.70297297297297e+00 3.59325977132625e-02 1.89979726464847e-04
2.77702702702703e+00 3.55986033838562e-02 1.90775417449730e-04
2.85108108108108e+00 3.52677135399544e-02 1.91506259170399e-04
2.92513513513514e+00 3.49398993241476e-02 1.92174993135343e-04
2.99918918918919e+00 3.46151321495303e-02 1.92784208049445e-04
3.07324324324324e+00 3.42933836926998e-02 1.93336351766995e-04
3.14729729729730e+00 3.39746258956726e-02 1.93833741959838e-04
3.22135135135135e+00 3.36588309601554e-02 1.94278576504873e-04
3.29540540540541e+00 3.33459713453151e-02 1.94672941352500e-04
3.36945945945946e+00 3.30360197682312e-02 1.95018819085656e-04
3.44351351351351e+00 3.27289491977073e-02 1.95318095995764e-04
3.51756756756757e+00 3.24247328556262e-02 1.95572568467626e-04
3.59162162162162e+00 3.21233442118371e-02 1.95783949509967e-04
3.66567567567568e+00 3.18247569819920e-02 1.95953873359445e-04
3.73972972972973e+00 3.15289451276987e-02 1.96083901001250e-04
3.81378378378378e+00 3.12358828509897e-02 1.96175524608487e-04
3.88783783783784e+00 3.09455445952552e-02 1.96230171579188e-04
3.96189189189189e+00 3.06579050406328e-02 1.96249208899727e-04
4.03594594594595e+00 3.03729391019177e-02 1.96233945932378e-04
4.11000000000000e+00 3.00906219284937e-02 1.96185638181953e-04
4.18405405405405e+00 2.98109288993432e-02 1.96105490212976e-04
4.25810810810811e+00 2.95338356236589e-02 1.95994658427953e-04
4.33216216216216e+00 2.92593179360188e-02 1.95854253685358e-04
4.40621621621622e+00 2.89873518969161e-02 1.95685343580460e-04
4.48027027027027e+00 2.87179137887001e-02 1.95488955144401e-04
4.55432432432432e+00 2.84509801135980e-02 1.95266076261173e-04
4.62837837837838e+00 2.81865275934358e-02 1.95017658053216e-04
4.70243243243243e+00 2.79245331652486e-02 1.94744616603437e-04
4.77648648648649e+00 2.76649739815791e-02 1.94447834535589e-04
4.85054054054054e+00 2.74078274067577e-02 1.94128163022074e-04
4.92459459459459e+00 2.71530710150038e-02 1.93786422659883e-04
4.99864864864865e+00 2.69006825900300e-02 1.93423405269799e-04
5.07270270270270e+00 2.66506401210256e-02 1.93039875120962e-04
5.14675675675676e+00 2.64029218027740e-02 1.92636570055958e-04
5.22081081081081e+00 2.61575060322268e-02 1.92214203034663e-04
5.29486486486487e+00 2.59143714066845e-02 1.91773462663965e-04
5.36891891891892e+00 2.56734967233117e-02 1.91315014597471e-04
5.44297297297297e+00 2.54348609754460e-02 1.90839502427407e-04
5.51702702702703e+00 2.51984433525727e-02 1.90347548503794e-04
5.59108108108108e+00 2.49642232371569e-02 1.89839755155400e-04
5.66513513513514e+00 2.47321802029019e-02 1.89316704992650e-04
5.73918918918919e+00 2.45022940141977e-02 1.88778962025515e-04
5.81324324324324e+00 2.42745446227159e-02 1.88227072326423e-04
5.88729729729730e+00 2.40489121672716e-02 1.87661564637898e-04
5.96135135135135e+00 2.38253769708856e-02 1.87082951361616e-04
6.03540540540541e+00 2.36039195391159e-02 1.86491728710145e-04
6.10945945945946e+00 2.33845205594588e-02 1.85888377619734e-04
6.18351351351351e+00 2.31671608981970e-02 1.85273364251679e-04
6.25756756756757e+00 2.29518216001723e-02 1.84647140450129e-04
6.33162162162162e+00 2.27384838860536e-02 1.84010144559734e-04
6.40567567567568e+00 2.25271291507391e-02 1.83362801475445e-04
6.47972972972973e+00 2.23177389627243e-02 1.82705523402048e-04
6.55378378378378e+00 2.21102950611753e-02 1.82038710238992e-04
6.62783783783784e+00 2.19047793556323e-02 1.81362749929859e-04
6.70189189189189e+00 2.17011739234617e-02 1.80678019150016e-04
6.77594594594595e+00 2.14994610083284e-02 1.79984883287294e-04
6.85000000000000e+00 2.12996230195393e-02 1.79283697084308e-04
6.92405405405405e+00 2.11016425293211e-02 1.78574804937502e-04
6.99810810810811e+00 2.09055022724682e-02 1.77858541228638e-04
7.07216216216216e+00 2.07111851436890e-02 1.77135230663961e-04
7.14621621621622e+00 2.05186741972425e-02 1.76405188517508e-04
7.22027027027027e+00 2.03279526446163e-02 1.75668721185318e-04
7.29432432432433e+00 2.01390038530916e-02 1.74926126103198e-04
7.36837837837838e+00 1.99518113450721e-02 1.74177692267783e-04
7.44243243243243e+00 1.97663587956087e-02 1.73423700449790e-04
7.51648648648649e+00 1.95826300319970e-02 1.72664423384167e-04
7.59054054054054e+00 1.94006090316023e-02 1.71900126251036e-04
7.66459459459460e+00 1.92202799204884e-02 1.71131066566975e-04
7.73864864864865e+00 1.90416269727406e-02 1.70357494639056e-04
7.81270270270270e+00 1.88646346081516e-02 1.69579653734228e-04
7.88675675675676e+00 1.86892873917901e-02 1.68797780228897e-04
7.96081081081081e+00 1.85155700319607e-02 1.68012104030497e-04
8.03486486486486e+00 1.83434673788930e-02 1.67222848451609e-04
8.10891891891892e+00 1.81729644240643e-02 1.66430230609302e-04
8.18297297297297e+00 1.80040462980332e-02 1.65634461560627e-04
8.25702702702703e+00 1.78366982699865e-02 1.64835746420870e-04
8.33108108108108e+00 1.76709057458230e-02 1.64034284736248e-04
8.40513513513514e+00 1.75066542669012e-02 1.63230270347484e-04
8.47918918918919e+00 1.73439295093648e-02 1.62423891743869e-04
8.55324324324324e+00 1.71827172821125e-02 1.61615332172265e-04
8.62729729729730e+00 1.70230035263292e-02 1.60804769730884e-04
8.70135135135135e+00 1.68647743136843e-02 1.59992377701283e-04
8.77540540540541e+00 1.67080158451350e-02 1.59178324406084e-04
8.84945945945946e+00 1.65527144502592e-02 1.58362773524988e-04
8.92351351351351e+00 1.63988565853488e-02 1.57545884182934e-04
8.99756756756757e+00 1.62464288329321e-02 1.56727811024629e-04
9.07162162162162e+00 1.60954179000772e-02 1.55908704512114e-04
9.14567567567568e+00 1.59458106172489e-02 1.55088710780003e-04
9.21972972972973e+00 1.57975939376507e-02 1.54267971919272e-04
9.29378378378378e+00 1.56507549354337e-02 1.53446626048773e-04
9.36783783783784e+00 1.55052808052129e-02 1.52624807374463e-04
9.44189189189189e+00 1.53611588604686e-02 1.51802646457635e-04
9.51594594594595e+00 1.52183765324547e-02 1.50980270070071e-04
9.59000000000000e+00 1.50769213695520e-02 1.50157801450179e-04
9.66405405405406e+00 1.49367810355838e-02 1.49335360361172e-04
9.73810810810811e+00 1.47979433093295e-02 1.48513063175176e-04
9.81216216216216e+00 1.46603960828784e-02 1.47691022967390e-04
9.88621621621622e+00 1.45241273611454e-02 1.46869349558722e-04
9.96027027027027e+00 1.43891252603972e-02 1.46048149750140e-04
1.00343243243243e+01 1.42553780072280e-02 1.45227527356619e-04
1.01083783783784e+01 1.41228739372776e-02 1.44407582686984e-04
1.01824324324324e+01 1.39916014964391e-02 1.43588413751214e-04
1.02564864864865e+01 1.38615492354001e-02 1.42770115543248e-04
1.03305405405405e+01 1.37327058138263e-02 1.41952780271036e-04
1.04045945945946e+01 1.36050599942802e-02 1.41136497490733e-04
1.04786486486486e+01 1.34786006462448e-02 1.40321354110195e-04
1.05527027027027e+01 1.33533167402360e-02 1.39507434517475e-04
1.06267567567568e+01 1.32291973516731e-02 1.38694820582527e-04
1.07008108108108e+01 1.31062316551762e-02 1.37883591780201e-04
1.07748648648649e+01 1.29844089282913e-02 1.37073825190356e-04
1.08489189189189e+01 1.28637185459652e-02 1.36265595615678e-04
1.09229729729730e+01 1.27441499841314e-02 1.35458975580334e-04
1.09970270270270e+01 1.26256928143557e-02 1.34654035740738e-04
1.10710810810811e+01 1.25083367062341e-02 1.33850843688970e-04
1.11451351351351e+01 1.23920714264313e-02 1.33049465842235e-04
1.12191891891892e+01 1.22768868346292e-02 1.32249966294350e-04
1.12932432432432e+01 1.21627728868313e-02 1.31452407125174e-04
1.13672972972973e+01 1.20497196303676e-02 1.30656848503090e-04
1.14413513513514e+01 1.19377172070773e-02 1.29863348678957e-04
1.15154054054054e+01 1.18267558484658e-02 1.29071964084506e-04
1.15894594594595e+01 1.17168258787700e-02 1.28282749325442e-04
1.16635135135135e+01 1.16079177102621e-02 1.27495757275959e-04
1.17375675675676e+01 1.15000218462026e-02 1.26711039071065e-04
1.18116216216216e+01 1.13931288762847e-02 1.25928644197425e-04
1.18856756756757e+01 1.12872294794804e-02 1.25148620485036e-04
1.19597297297297e+01 1.11823144196205e-02 1.24371014447258e-04
1.20337837837838e+01 1.10783745472792e-02 1.23595870258285e-04
1.21078378378378e+01 1.09754007989273e-02 1.22823231349732e-04
1.21818918918919e+01 1.08733841935701e-02 1.22053139428336e-04
1.22559459459459e+01 1.07723158353753e-02 1.21285634732531e-04
1.23300000000000e+01 1.06721869095409e-02 1.20520756112300e-04
1.24040540540541e+01 1.05729886848286e-02 1.19758541018407e-04
1.24781081081081e+01 1.04747125095535e-02 1.18999025579300e-04
1.25521621621622e+01 1.03773498140265e-02 1.18242244589954e-04
1.26262162162162e+01 1.02808921066608e-02 1.17488231585943e-04
1.27002702702703e+01 1.01853309763279e-02 1.16737018831947e-04
1.27743243243243e+01 1.00906580885761e-02 1.15988637614111e-04
1.28483783783784e+01 9.99686518717753e-03 1.15243117342383e-04
1.29224324324324e+01 9.90394409336695e-03 1.14500486941341e-04
1.29964864864865e+01 9.81188670295374e-03 1.13760773987530e-04
1.30705405405405e+01 9.72068498850056e-03 1.13024004930205e-04
1.31445945945946e+01 9.63033099578300e-03 1.12290205156856e-04
1.32186486486486e+01 9.54081684589183e-03 1.11559398980463e-04
1.32927027027027e+01 9.45213473179351e-03 1.10831609702760e-04
1.33667567567568e+01 9.36427692035894e-03 1.10106859601353e-04
1.34408108108108e+01 9.27723574902152e-03 1.09385169990773e-04
1.35148648648649e+01 9.19100362773520e-03 1.08666561209476e-04
1.35889189189189e+01 9.10557303572676e-03 1.07951052678761e-04
1.36629729729730e+01 9.02093652338601e-03 1.07238662889692e-04
1.37370270270270e+01 8.93708670910910e-03 1.06529409648715e-04
1.38110810810811e+01 8.85401628052524e-03 1.05823309308006e-04
1.38851351351351e+01 8.77171799382601e-03 1.05120377949340e-04
1.39591891891892e+01 8.69018467134268e-03 1.04420630644360e-04
1.40332432432432e+01 8.60940920329667e-03 1.03724081639983e-04
1.41072972972973e+01 8.52938454483929e-03 1.03030744410920e-04
1.41813513513514e+01 8.45010371774207e-03 1.02340631646130e-04
1.42554054054054e+01 8.37155980751838e-03 1.01653755299576e-04
1.43294594594595e+01 8.29374596505596e-03 1.00970126576690e-04
1.44035135135135e+01 8.21665540381784e-03 1.00289755983446e-04
1.44775675675676e+01 8.14028140141911e-03 9.96126533128569e-05
1.45516216216216e+01 8.06461729690464e-03 9.89388276924180e-05
1.46256756756757e+01 7.98965649227221e-03 9.82682875706859e-05
1.46997297297297e+01 7.91539244982446e-03 9.76010409245751e-05
1.47737837837838e+01 7.84181869314570e-03 9.69370945985274e-05
1.48478378378378e+01 7.76892880650982e-03 9.62764553153158e-05
1.49218918918919e+01 7.69671643283899e-03 9.56191290404537e-05
1.49959459459459e+01 7.62517527511598e-03 9.49651211388995e-05
1.50700000000000e+01 7.55429909389750e-03 9.43144364175594e-05
1.51440540540541e+01 7.48408170867888e-03 9.36670791118275e-05
1.52181081081081e+01 7.41451699547446e-03 9.30230529267065e-05
1.52921621621622e+01 7.34559888813646e-03 9.23823610234625e-05
1.53662162162162e+01 7.27732137600027e-03 9.17450060594395e-05
1.54402702702703e+01 7.20967850515914e-03 9.11109901748093e-05
1.55143243243243e+01 7.14266437617246e-03 9.04803151730815e-05
1.55883783783784e+01 7.07627314487435e-03 8.98529819388226e-05
1.56624324324324e+01 7.01049902184075e-03 8.92289913245314e-05
1.57364864864865e+01 6.94533627061674e-03 8.86083435904157e-05
1.58105405405405e+01 6.88077920889938e-03 8.79910385409377e-05
1.58845945945946e+01 6.81682220638347e-03 8.73770755605650e-05
1.59586486486486e+01 6.75345968590518e-03 8.67664536007525e-05
1.60327027027027e+01 6.69068612134468e-03 8.61591712146138e-05
1.61067567567568e+01 6.62849603873195e-03 8.55552265440407e-05
1.61808108108108e+01 6.56688401420459e-03 8.49546173532951e-05
1.62548648648649e+01 6.50584467507706e-03 8.43573410162714e-05
1.63289189189189e+01 6.44537269785212e-03 8.37633945490611e-05
1.64029729729730e+01 6.38546280925474e-03 8.31727745973598e-05
1.64770270270270e+01 6.32610978429552e-03 8.25854775900143e-05
1.65510810810811e+01 6.26730844691747e-03 8.20014992375164e-05
1.66251351351351e+01 6.20905366952559e-03 8.14208352925915e-05
1.66991891891892e+01 6.15134037148250e-03 8.08434810676348e-05
1.67732432432432e+01 6.09416352006896e-03 8.02694315508401e-05
1.68472972972973e+01 6.03751812866135e-03 7.96986814355650e-05
1.69213513513514e+01 5.98139925766076e-03 7.91312251081040e-05
1.69954054054054e+01 5.92580201271760e-03 7.85670566761685e-05
1.70694594594595e+01 5.87072154563036e-03 7.80061699568371e-05
1.71435135135135e+01 5.81615305261598e-03 7.74485585041768e-05
1.72175675675676e+01 5.76209177517926e-03 7.68942155973396e-05
1.72916216216216e+01 5.70853299842771e-03 7.63431342673578e-05
1.73656756756757e+01 5.65547205191269e-03 7.57953072854324e-05
1.74397297297297e+01 5.60290430798733e-03 7.52507272938661e-05
1.75137837837838e+01 5.55082518232505e-03 7.47093863736026e-05
1.75878378378378e+01 5.49923013350375e-03 7.41712766978001e-05
1.76618918918919e+01 5.44811466172543e-03 7.36363901154992e-05
1.77359459459459e+01 5.39747430959817e-03 7.31047182507402e-05
1.78100000000000e+01 5.34730466058935e-03 7.25762525267993e-05
1.78840540540541e+01 5.29760133978241e-03 7.20509841548972e-05
1.79581081081081e+01 5.24836001236935e-03 7.15289041577236e-05
1.80321621621622e+01 5.19957638438297e-03 7.10100033583077e-05
1.81062162162162e+01 5.15124620122754e-03 7.04942724028535e-05
1.81802702702703e+01 5.10336524838750e-03 6.99817017497843e-05
1.82543243243243e+01 5.05592934999509e-03 6.94722817845616e-05
1.83283783783784e+01 5.00893436926142e-03 6.89660024374068e-05
1.84024324324324e+01 4.96237620810192e-03 6.84628537594028e-05
1.84764864864865e+01 4.91625080601610e-03 6.79628255543778e-05
1.85505405405405e+01 4.87055414074673e-03 6.74659074658643e-05
1.86245945945946e+01 4.82528222692963e-03 6.69720889977769e-05
1.86986486486486e+01 4.78043111673181e-03 6.64813595039224e-05
1.87727027027027e+01 4.73599689853504e-03 6.59937082080955e-05
1.88467567567568e+01 4.69197569755355e-03 6.55091241937446e-05
1.89208108108108e+01 4.64836367455041e-03 6.50275964234982e-05
1.89948648648649e+01 4.60515702643548e-03 6.45491137290037e-05
1.90689189189189e+01 4.56235198501375e-03 6.40736648298731e-05
1.91429729729730e+01 4.51994481756417e-03 6.36012383236851e-05
1.92170270270270e+01 4.47793182561903e-03 6.31318227843835e-05
1.92910810810811e+01 4.43630934530993e-03 6.26654064317988e-05
1.93651351351351e+01 4.39507374703690e-03 6.22019776281864e-05
1.94391891891892e+01 4.35422143451014e-03 6.17415245599869e-05
1.95132432432432e+01 4.31374884528872e-03 6.12840353123036e-05
1.95872972972973e+01 4.27365244962910e-03 6.08294978861323e-05
1.96613513513514e+01 4.23392875100679e-03 6.03779001888245e-05
1.97354054054054e+01 4.19457428499309e-03 5.99292300508064e-05
1.98094594594595e+01 4.15558561976029e-03 5.94834752162093e-05
1.98835135135135e+01 4.11695935498596e-03 5.90406233591226e-05
1.99575675675676e+01 4.07869212234208e-03 5.86006620743758e-05
2.00316216216216e+01 4.04078058442620e-03 5.81635788933336e-05
2.01056756756757e+01 4.00322143523510e-03 5.77293612748325e-05
2.01797297297297e+01 3.96601139912199e-03 5.72979966896183e-05
2.02537837837838e+01 3.92914723107447e-03 5.68694723344000e-05
2.03278378378378e+01 3.89262571642192e-03 5.64437755603940e-05
2.04018918918919e+01 3.85644367001404e-03 5.60208935978474e-05
2.04759459459459e+01 3.82059793666190e-03 5.56008136200038e-05
2.05500000000000e+01 3.78508539015353e-03 5.51835227574741e-05
2.06240540540541e+01 3.74990293368113e-03 5.47690080896217e-05
2.06981081081081e+01 3.71504749888044e-03 5.43572566585315e-05
2.07721621621622e+01 3.68051604624454e-03 5.39482554605407e-05
2.08462162162162e+01 3.64630556418647e-03 5.35419914598187e-05
2.09202702702703e+01 3.61241306943996e-03 5.31384515800461e-05
2.09943243243243e+01 3.57883560614470e-03 5.27376227787873e-05
2.10683783783784e+01 3.54557024607756e-03 5.23394917940725e-05
2.11424324324324e+01 3.51261408838891e-03 5.19440455233814e-05
2.12164864864865e+01 3.47996425888007e-03 5.15512707794559e-05
2.12905405405405e+01 3.44761791037653e-03 5.11611543466645e-05
2.13645945945946e+01 3.41557222186396e-03 5.07736829933661e-05
2.14386486486487e+01 3.38382439884981e-03 5.03888434640097e-05
2.15127027027027e+01 3.35237167251998e-03 5.00066224911670e-05
2.15867567567568e+01 3.32121130008908e-03 4.96270067877789e-05
2.16608108108108e+01 3.29034056397731e-03 4.92499830588563e-05
2.17348648648649e+01 3.25975677214971e-03 4.88755379938506e-05
2.18089189189189e+01 3.22945725731273e-03 4.85036582780378e-05
2.18829729729730e+01 3.19943937724282e-03 4.81343305850338e-05
2.19570270270270e+01 3.16970051400212e-03 4.77675416408274e-05
2.20310810810811e+01 3.14023807412399e-03 4.74032780040684e-05
2.21051351351351e+01 3.11104948837990e-03 4.70415263938777e-05
2.21791891891892e+01 3.08213221115774e-03 4.66822734781371e-05
2.22532432432432e+01 3.05348372076811e-03 4.63255059219919e-05
2.23272972972973e+01 3.02510151870297e-03 4.59712103982284e-05
2.24013513513514e+01 2.99698312993243e-03 4.56193735801884e-05
2.24754054054054e+01 2.96912610218091e-03 4.52699821518607e-05
2.25494594594595e+01 2.94152800621469e-03 4.49230228009257e-05
2.26235135135135e+01 2.91418643513516e-03 4.45784822285750e-05
2.26975675675676e+01 2.88709900465738e-03 4.42363471426679e-05
2.27716216216216e+01 2.86026335242004e-03 4.38966042672899e-05
2.28456756756757e+01 2.83367713825531e-03 4.35592403360404e-05
2.29197297297297e+01 2.80733804351502e-03 4.32242421472232e-05
2.29937837837838e+01 2.78124377121946e-03 4.28915963732130e-05
2.30678378378378e+01 2.75539204585119e-03 4.25612898443019e-05
2.31418918918919e+01 2.72978061281926e-03 4.22333093649428e-05
2.32159459459459e+01 2.70440723871078e-03 4.19076417555757e-05
2.32900000000000e+01 2.67926971065377e-03 4.15842738613511e-05
2.33640540540541e+01 2.65436583656087e-03 4.12631925457829e-05
