Energy (eV)          EEDF (eV^-(3/2))     First Anisotropy
6.50000000000000e-02 1.78276031998612e-01 2.19270867857562e-04
1.95000000000000e-01 1.71543415458612e-01 3.56439836808360e-04
3.25000000000000e-01 1.65065057020297e-01 4.55835799892768e-04
4.55000000000000e-01 1.58831354594821e-01 5.22940389773390e-04
5.85000000000000e-01 1.52833068717404e-01 5.72324426013845e-04
7.15000000000000e-01 1.47061308852808e-01 6.09776429507803e-04
8.45000000000000e-01 1.41507520217960e-01 6.38428552064461e-04
9.75000000000000e-01 1.36163471102235e-01 6.60250211392719e-04
1.10500000000000e+00 1.31021240666587e-01 6.76596046902138e-04
1.23500000000000e+00 1.26073207203440e-01 6.88455167210143e-04
1.36500000000000e+00 1.21312036839954e-01 6.96581068477689e-04
1.49500000000000e+00 1.16730672667910e-01 7.01566112507966e-04
1.62500000000000e+00 1.12322324284106e-01 7.03887350747263e-04
1.75500000000000e+00 1.08080457725763e-01 7.03936308170518e-04
1.88500000000000e+00 1.03998785786018e-01 7.02039211035121e-04
2.01500000000000e+00 1.00071258695159e-01 6.98471228655717e-04
2.14500000000000e+00 9.62920551537811e-02 6.93466807284826e-04
2.27500000000000e+00 9.26555737045738e-02 6.87227362580906e-04
2.40500000000000e+00 8.91564244299608e-02 6.79927132987207e-04
2.53500000000000e+00 8.57894209632737e-02 6.71717719411190e-04
2.66500000000000e+00 8.25495728016267e-02 6.62731665259073e-04
2.79500000000000e+00 7.94320779090969e-02 6.53085321486028e-04
2.92500000000000e+00 7.64323155992457e-02 6.42881169521458e-04
3.05500000000000e+00 7.35458396864329e-02 6.32209726636603e-04
3.18500000000000e+00 7.07683718957728e-02 6.21151125125924e-04
3.31500000000000e+00 6.80957955219629e-02 6.09776433404975e-04
3.44500000000000e+00 6.55241493275892e-02 5.98148770526185e-04
3.57500000000000e+00 6.30496216718616e-02 5.86324253578404e-04
3.70500000000000e+00 6.06685448610789e-02 5.74352808581858e-04
3.83500000000000e+00 5.83773897124491e-02 5.62278868888287e-04
3.96500000000000e+00 5.61727603232077e-02 5.50141980112644e-04
4.09500000000000e+00 5.40513890372808e-02 5.37977326817641e-04
4.22500000000000e+00 5.20101316020327e-02 5.25816193236369e-04
4.35500000000000e+00 5.00459625079202e-02 5.13686368030219e-04
4.48500000000000e+00 4.81559705041444e-02 5.01612501280020e-04
4.61500000000000e+00 4.63373542836552e-02 4.89616420481080e-04
4.74500000000000e+00 4.45874183311120e-02 4.77717411171692e-04
4.87500000000000e+00 4.29035689276467e-02 4.65932466905287e-04
5.00500000000000e+00 4.12833103065069e-02 4.54276512530577e-04
5.13500000000000e+00 3.97242409538823e-02 4.42762604134784e-04
5.26500000000000e+00 3.82240500494308e-02 4.31402108504262e-04
5.39500000000000e+00 3.67805140412280e-02 4.20204864542807e-04
5.52500000000000e+00 3.53914933500647e-02 4.09179328743661e-04
5.65500000000000e+00 3.40549291982068e-02 3.98332706523366e-04
5.78500000000000e+00 3.27688405579179e-02 3.87671070983800e-04
5.91500000000000e+00 3.15313212152203e-02 3.77199470464514e-04
6.04500000000000e+00 3.03405369445447e-02 3.66922026074301e-04
6.17500000000000e+00 2.91947227900787e-02 3.56842020243374e-04
6.30500000000000e+00 2.80921804497856e-02 3.46961977211333e-04
6.43500000000000e+00 2.70312757582170e-02 3.37283736257671e-04
6.56500000000000e+00 2.60104362643857e-02 3.27808518388114e-04
6.69500000000000e+00 2.50281489011118e-02 3.18536987109222e-04
6.82500000000000e+00 2.40829577423860e-02 3.09469303853508e-04
6.95500000000000e+00 2.31734618454258e-02 3.00605178556113e-04
7.08500000000000e+00 2.22983131742272e-02 2.91943915830668e-04
7.21500000000000e+00 2.14562146015341e-02 2.83484457145144e-04
7.34500000000000e+00 2.06459179862621e-02 2.75225419357293e-04
7.47500000000000e+00 1.98662223235307e-02 2.67165129932998e-04
7.60500000000000e+00 1.91159719645579e-02 2.59301659138798e-04
7.73500000000000e+00 1.83940549037821e-02 2.51632849471417e-04
7.86500000000000e+00 1.76994011306698e-02 2.44156342561906e-04
7.99500000000000e+00 1.70309810437689e-02 2.36869603769516e-04
8.12500000000000e+00 1.63878039246539e-02 2.29769944660439e-04
8.25500000000000e+00 1.57689164695043e-02 2.22854543548573e-04
8.38500000000000e+00 1.51734013761368e-02 2.16120464259449e-04
8.51500000000000e+00 1.46003759843994e-02 2.09564673264064e-04
8.64500000000000e+00 1.40489909679104e-02 2.03184055316394e-04
8.77500000000000e+00 1.35184290752050e-02 1.96975427716687e-04
8.90500000000000e+00 1.30079039184213e-02 1.90935553312129e-04
9.03500000000000e+00 1.25166588077332e-02 1.85061152336949e-04
9.16500000000000e+00 1.20439656297998e-02 1.79348913185414e-04
9.29500000000000e+00 1.15891237685713e-02 1.73795502203370e-04
9.42500000000000e+00 1.11514590668503e-02 1.68397572576881e-04
9.55500000000000e+00 1.07303228270699e-02 1.63151772390088e-04
9.68500000000000e+00 1.03250908498073e-02 1.58054751918540e-04
9.81500000000000e+00 9.93516250860880e-03 1.53103170218907e-04
9.94500000000000e+00 9.55995985975353e-03 1.48293701071113e-04
1.00750000000000e+01 9.19892678563707e-03 1.43623038324453e-04
1.02050000000000e+01 8.85152817050561e-03 1.39087900695240e-04
1.03350000000000e+01 8.51724910731837e-03 1.34685036059708e-04
1.04650000000000e+01 8.19559413456307e-03 1.30411225282591e-04
1.05950000000000e+01 7.88608650189312e-03 1.26263285618583e-04
1.07250000000000e+01 7.58826746349810e-03 1.22238073721033e-04
1.08550000000000e+01 7.30169559816025e-03 1.18332488289622e-04
1.09850000000000e+01 7.02594615498902e-03 1.14543472386281e-04
1.11150000000000e+01 6.76061042386413e-03 1.10868015446439e-04
1.12450000000000e+01 6.50529512965385e-03 1.07303155010576e-04
1.13750000000000e+01 6.25962184931079e-03 1.03845978199200e-04
1.15050000000000e+01 6.02322645098101e-03 1.00493622952610e-04
1.16350000000000e+01 5.79575855429537e-03 9.72432790551793e-05
1.17650000000000e+01 5.57688101104302e-03 9.40921889624388e-05
1.18950000000000e+01 5.36626940545721e-03 9.10376484478301e-05
1.20250000000000e+01 5.16361157337305e-03 8.80770070847477e-05
1.21550000000000e+01 4.96860713954415e-03 8.52076685783220e-05
1.22850000000000e+01 4.78096707243273e-03 8.24270909602905e-05
1.24150000000000e+01 4.60041325581300e-03 7.97327866593193e-05
1.25450000000000e+01 4.42667807655304e-03 7.71223224581910e-05
1.26750000000000e+01 4.25950402796419e-03 7.45933193484239e-05
1.28050000000000e+01 4.09864332812993e-03 7.21434522920918e-05
1.29350000000000e+01 3.94385755264867e-03 6.97704498998623e-05
1.30650000000000e+01 3.79491728124601e-03 6.74720940336006e-05
1.31950000000000e+01 3.65160175773279e-03 6.52462193412485e-05
1.33250000000000e+01 3.51369856280479e-03 6.30907127310843e-05
1.34550000000000e+01 3.38100329919929e-03 6.10035127919449e-05
1.35850000000000e+01 3.25331928874160e-03 5.89826091654734e-05
1.37150000000000e+01 3.13045728083281e-03 5.70260418759799e-05
1.38450000000000e+01 3.01223517194641e-03 5.51319006230829e-05
1.39750000000000e+01 2.89847773571826e-03 5.32983240418790e-05
1.41050000000000e+01 2.78901636322967e-03 5.15234989350175e-05
1.42350000000000e+01 2.68368881309873e-03 4.98056594807120e-05
1.43650000000000e+01 2.58233897100954e-03 4.81430864203926e-05
1.44950000000000e+01 2.48481661832275e-03 4.65341062294028e-05
1.46250000000000e+01 2.39097720942466e-03 4.49770902738648e-05
1.47550000000000e+01 2.30068165748463e-03 4.34704539565823e-05
1.48850000000000e+01 2.21379612830350e-03 4.20126558546051e-05
1.50150000000000e+01 2.13019184194730e-03 4.06021968508567e-05
1.51450000000000e+01 2.04974488187232e-03 3.92376192620242e-05
1.52750000000000e+01 1.97233601125851e-03 3.79175059647118e-05
1.54050000000000e+01 1.89785049627920e-03 3.66404795216837e-05
1.55350000000000e+01 1.82617793604495e-03 3.54052013098560e-05
1.56650000000000e+01 1.75721209896967e-03 3.42103706515446e-05
1.57950000000000e+01 1.69085076531633e-03 3.30547239503355e-05
1.59250000000000e+01 1.62699557568898e-03 3.19370338328081e-05
1.60550000000000e+01 1.56555188524654e-03 3.08561082972232e-05
1.61850000000000e+01 1.50642862342209e-03 2.98107898701766e-05
1.63150000000000e+01 1.44953815894004e-03 2.87999547721056e-05
1.64450000000000e+01 1.39479616993082e-03 2.78225120924510e-05
1.65750000000000e+01 1.34212151895075e-03 2.68774029751793e-05
1.67050000000000e+01 1.29143613272182e-03 2.59635998152880e-05
1.68350000000000e+01 1.24266488641308e-03 2.50801054668448e-05
1.69650000000000e+01 1.19573549229219e-03 2.42259524630352e-05
1.70950000000000e+01 1.15057839258199e-03 2.34002022486320e-05
1.72250000000000e+01 1.10712665636344e-03 2.26019444252390e-05
1.73550000000000e+01 1.06531588037202e-03 2.18302960096057e-05
1.74850000000000e+01 1.02508409354046e-03 2.10844007052558e-05
1.76150000000000e+01 9.86371665146609e-04 2.03634281876338e-05
1.77450000000000e+01 9.49121216429929e-04 1.96665734029206e-05
1.78750000000000e+01 9.13277535545928e-04 1.89930558806385e-05
1.80050000000000e+01 8.78787495732291e-04 1.83421190601230e-05
1.81350000000000e+01 8.45599976565498e-04 1.77130296309104e-05
1.82650000000000e+01 8.13665788191183e-04 1.71050768870579e-05
1.83950000000000e+01 7.82937598415955e-04 1.65175720953856e-05
1.85250000000000e+01 7.53369862552599e-04 1.59498478776045e-05
1.86550000000000e+01 7.24918755914680e-04 1.54012576062725e-05
1.87850000000000e+01 6.97542108860504e-04 1.48711748144993e-05
1.89150000000000e+01 6.71199344290142e-04 1.43589926193017e-05
1.90450000000000e+01 6.45851417502897e-04 1.38641231584955e-05
1.91750000000000e+01 6.21460758326054e-04 1.33859970409937e-05
1.93050000000000e+01 5.97991215429145e-04 1.29240628103673e-05
1.94350000000000e+01 5.75408002741200e-04 1.24777864215137e-05
1.95650000000000e+01 5.53677647891548e-04 1.20466507302658e-05
1.96950000000000e+01 5.32767942597762e-04 1.16301549957670e-05
1.98250000000000e+01 5.12647894927212e-04 1.12278143954258e-05
1.99550000000000e+01 4.93287683361461e-04 1.08391595522614e-05
2.00850000000000e+01 4.74658612595428e-04 1.04637360744398e-05
2.02150000000000e+01 4.56733071005800e-04 1.01011041067992e-05
2.03450000000000e+01 4.39484489725655e-04 9.75083789415581e-06
2.04750000000000e+01 4.22887303264638e-04 9.41252535617976e-06
2.06050000000000e+01 4.06916911616320e-04 9.08576767362575e-06
2.07350000000000e+01 3.91549643796578e-04 8.77017888570242e-06
2.08650000000000e+01 3.76762722758947e-04 8.46538549836114e-06
2.09950000000000e+01 3.62534231634962e-04 8.17102610328521e-06
2.11250000000000e+01 3.48843081249421e-04 7.88675100735861e-06
2.12550000000000e+01 3.35668978862448e-04 7.61222187239388e-06
2.13850000000000e+01 3.22992398092017e-04 7.34711136489835e-06
2.15150000000000e+01 3.10794549972347e-04 7.09110281565927e-06
2.16450000000000e+01 2.99057355105291e-04 6.84388988892842e-06
2.17750000000000e+01 2.87763416863421e-04 6.60517626098892e-06
2.19050000000000e+01 2.76895995605113e-04 6.37467530788827e-06
2.20350000000000e+01 2.66438983863388e-04 6.15210980212261e-06
2.21650000000000e+01 2.56376882471767e-04 5.93721161806059e-06
2.22950000000000e+01 2.46694777591719e-04 5.72972144589660e-06
2.24250000000000e+01 2.37378318607684e-04 5.52938851392577e-06
2.25550000000000e+01 2.28413696856883e-04 5.33597031893599e-06
2.26850000000000e+01 2.19787625162406e-04 5.14923236451458e-06
2.28150000000000e+01 2.11487318139236e-04 4.96894790707055e-06
2.29450000000000e+01 2.03500473244007e-04 4.79489770937589e-06
2.30750000000000e+01 1.95815252540441e-04 4.62686980143310e-06
2.32050000000000e+01 1.88420265153392e-04 4.46465924847872e-06
2.33350000000000e+01 1.81304550385535e-04 4.30806792593651e-06
2.34650000000000e+01 1.74457561471641e-04 4.15690430113640e-06
2.35950000000000e+01 1.67869149946387e-04 4.01098322161966e-06
2.37250000000000e+01 1.61529550602501e-04 3.87012570985357e-06
2.38550000000000e+01 1.55429367016984e-04 3.73415876418251e-06
2.39850000000000e+01 1.49559557623917e-04 3.60291516584577e-06
2.41150000000000e+01 1.43911422313247e-04 3.47623329189577e-06
2.42450000000000e+01 1.38476589535658e-04 3.35395693385405e-06
2.43750000000000e+01 1.33247003894436e-04 3.23593512194567e-06
2.45050000000000e+01 1.28214914205927e-04 3.12202195475669e-06
2.46350000000000e+01 1.23372862010894e-04 3.01207643416168e-06
2.47650000000000e+01 1.18713670519740e-04 2.90596230537270e-06
2.48950000000000e+01 1.14230433975220e-04 2.80354790196442e-06
2.50250000000000e+01 1.09916507416872e-04 2.70470599573305e-06
2.51550000000000e+01 1.05765496831992e-04 2.60931365125028e-06
2.52850000000000e+01 1.01771249678564e-04 2.51725208497686e-06
2.54150000000000e+01 9.79278457660839e-05 2.42840652880368e-06
2.55450000000000e+01 9.42295884807814e-05 2.34266609789126e-06
2.56750000000000e+01 9.06709963422132e-05 2.25992366268207e-06
2.58050000000000e+01 8.72467948787274e-05 2.18007572496290e-06
2.59350000000000e+01 8.39519088097509e-05 2.10302229785801e-06
2.60650000000000e+01 8.07814545233130e-05 2.02866678963637e-06
2.61950000000000e+01 7.77307328376568e-05 1.95691589121963e-06
2.63250000000000e+01 7.47952220362098e-05 1.88767946728046e-06
2.64550000000000e+01 7.19705711655885e-05 1.82087045082343e-06
2.65850000000000e+01 6.92525935867056e-05 1.75640474114394e-06
2.67150000000000e+01 6.66372607694199e-05 1.69420110506295e-06
2.68450000000000e+01 6.41206963215327e-05 1.63418108133860e-06
2.69750000000000e+01 6.16991702432790e-05 1.57626888815796e-06
2.71050000000000e+01 5.93690933987994e-05 1.52039133361523e-06
2.72350000000000e+01 5.71270121963968e-05 1.46647772908479e-06
2.73650000000000e+01 5.49696034696947e-05 1.41445980540070e-06
2.74950000000000e+01 5.28936695521082e-05 1.36427163175583e-06
2.76250000000000e+01 5.08961335373293e-05 1.31584953723721e-06
2.77550000000000e+01 4.89740347187994e-05 1.26913203491576e-06
2.78850000000000e+01 4.71245242014120e-05 1.22405974841106e-06
2.80150000000000e+01 4.53448606789387e-05 1.18057534085454e-06
2.81450000000000e+01 4.36324063709221e-05 1.13862344617595e-06
2.82750000000000e+01 4.19846231130121e-05 1.09815060264066e-06
2.84050000000000e+01 4.03990685949512e-05 1.05910518856718e-06
2.85350000000000e+01 3.88733927406330e-05 1.02143736015633e-06
2.86650000000000e+01 3.74053342248674e-05 9.85098991365853e-07
2.87950000000000e+01 3.59927171216920e-05 9.50043615765481e-07
2.89250000000000e+01 3.46334476792590e-05 9.16226370310124e-07
2.90550000000000e+01 3.33255112165198e-05 8.83603940970280e-07
2.91850000000000e+01 3.20669691371064e-05 8.52134510160658e-07
2.93150000000000e+01 3.08559560559838e-05 8.21777705909711e-07
2.94450000000000e+01 2.96906770346154e-05 7.92494552714601e-07
2.95750000000000e+01 2.85694049205416e-05 7.64247424027748e-07
2.97050000000000e+01 2.74904777874305e-05 7.36999996322609e-07
2.98350000000000e+01 2.64522964718049e-05 7.10717204688068e-07
2.99650000000000e+01 2.54533222027955e-05 6.85365199902332e-07
3.00950000000000e+01 2.44920743214065e-05 6.60911306938588e-07
3.02250000000000e+01 2.35671280859131e-05 6.37323984856279e-07
3.03550000000000e+01 2.26771125601394e-05 6.14572788033222e-07
3.04850000000000e+01 2.18207085814847e-05 5.92628328695118e-07
3.06150000000000e+01 2.09966468056880e-05 5.71462240700413e-07
3.07450000000000e+01 2.02037058254326e-05 5.51047144539706e-07
3.08750000000000e+01 1.94407103600009e-05 5.31356613510167e-07
3.10050000000000e+01 1.87065295132981e-05 5.12365141026728e-07
3.11350000000000e+01 1.80000750976609e-05 4.94048109032904e-07
3.12650000000000e+01 1.73203000209690e-05 4.76381757475299e-07
3.13950000000000e+01 1.66661967346659e-05 4.59343154806964e-07
3.15250000000000e+01 1.60367957403921e-05 4.42910169485926e-07
3.16550000000000e+01 1.54311641530142e-05 4.27061442436171e-07
3.17850000000000e+01 1.48484043179219e-05 4.11776360439421e-07
3.19150000000000e+01 1.42876524805432e-05 3.97035030427118e-07
3.20450000000000e+01 1.37480775061048e-05 3.82818254642889e-07
3.21750000000000e+01 1.32288796477418e-05 3.69107506646783e-07
3.23050000000000e+01 1.27292893611290e-05 3.55884908133431e-07
3.24350000000000e+01 1.22485661638786e-05 3.43133206537198e-07
3.25650000000000e+01 1.17859975380122e-05 3.30835753398288e-07
3.26950000000000e+01 1.13408978738816e-05 3.18976483464490e-07
3.28250000000000e+01 1.09126074539725e-05 3.07539894504173e-07
3.29550000000000e+01 1.05004914750843e-05 2.96511027806844e-07
3.30850000000000e+01 1.01039391074386e-05 2.85875449348407e-07
3.32150000000000e+01 9.72236258931934e-06 2.75619231598955e-07
3.33450000000000e+01 9.35519635590510e-06 2.65728935951622e-07
3.34750000000000e+01 9.00189620100019e-06 2.56191595751795e-07
3.36050000000000e+01 8.66193847042366e-06 2.46994699906560e-07
3.37350000000000e+01 8.33481928585990e-06 2.38126177054984e-07
3.38650000000000e+01 8.02005379802062e-06 2.29574380280433e-07
3.39950000000000e+01 7.71717546801123e-06 2.21328072346734e-07
3.41250000000000e+01 7.42573537583660e-06 2.13376411440563e-07
3.42550000000000e+01 7.14530155502108e-06 2.05708937403094e-07
3.43850000000000e+01 6.87545835235673e-06 1.98315558434397e-07
3.45150000000000e+01 6.61580581183078e-06 1.91186538254677e-07
3.46450000000000e+01 6.36595908181904e-06 1.84312483706960e-07
3.47750000000000e+01 6.12554784466684e-06 1.77684332786306e-07
3.49050000000000e+01 5.89421576781180e-06 1.71293343081161e-07
3.50350000000000e+01 5.67161997563515e-06 1.65131080612899e-07
3.51650000000000e+01 5.45743054125851e-06 1.59189409060092e-07
3.52950000000000e+01 5.25132999753317e-06 1.53460479354463e-07
3.54250000000000e+01 5.05301286649678e-06 1.47936719635935e-07
3.55550000000000e+01 4.86218520660026e-06 1.42610825554576e-07
3.56850000000000e+01 4.67856417703374e-06 1.37475750907679e-07
3.58150000000000e+01 4.50187761850574e-06 1.32524698600577e-07
3.59450000000000e+01 4.33186364985429e-06 1.27751111920177e-07
3.60750000000000e+01 4.16827027989211e-06 1.23148666110577e-07
3.62050000000000e+01 4.01085503391047e-06 1.18711260240472e-07
3.63350000000000e+01 3.85938459428819e-06 1.14433009352399e-07
3.64650000000000e+01 3.71363445467312e-06 1.10308236884202e-07
3.65950000000000e+01 3.57338858722342e-06 1.06331467353425e-07
3.67250000000000e+01 3.43843912241560e-06 1.02497419295652e-07
3.68550000000000e+01 3.30858604094461e-06 9.88009984481059e-08
3.69850000000000e+01 3.18363687725933e-06 9.52372911701011e-08
3.71150000000000e+01 3.06340643429415e-06 9.18015580922645e-08
3.72450000000000e+01 2.94771650897370e-06 8.84892279866610e-08
3.73750000000000e+01 2.83639562808393e-06 8.52958918502586e-08
3.75050000000000e+01 2.72927879411805e-06 8.22172971944114e-08
3.76350000000000e+01 2.62620724072068e-06 7.92493425332808e-08
3.77650000000000e+01 2.52702819736759e-06 7.63880720643647e-08
3.78950000000000e+01 2.43159466293242e-06 7.36296705345225e-08
3.80250000000000e+01 2.33976518780466e-06 7.09704582851173e-08
3.81550000000000e+01 2.25140366423592e-06 6.84068864701077e-08
3.82850000000000e+01 2.16637912460390e-06 6.59355324411268e-08
3.84150000000000e+01 2.08456554729484e-06 6.35530952937963e-08
3.85450000000000e+01 2.00584166991691e-06 6.12563915697103e-08
3.86750000000000e+01 1.93009080956762e-06 5.90423511087181e-08
3.88050000000000e+01 1.85720068988881e-06 5.69080130463126e-08
3.89350000000000e+01 1.78706327465294e-06 5.48505219511101e-08
3.90650000000000e+01 1.71957460763408e-06 5.28671240975802e-08
3.91950000000000e+01 1.65463465852610e-06 5.09551638693410e-08
3.93250000000000e+01 1.59214717467983e-06 4.91120802885050e-08
3.94550000000000e+01 1.53201953843939e-06 4.73354036667056e-08
3.95850000000000e+01 1.47416262986619e-06 4.56227523735903e-08
3.97150000000000e+01 1.41849069464721e-06 4.39718297187044e-08
3.98450000000000e+01 1.36492121699176e-06 4.23804209428328e-08
3.99750000000000e+01 1.31337479732824e-06 4.08463903149998e-08
4.01050000000000e+01 1.26377503461974e-06 3.93676783314570e-08
4.02350000000000e+01 1.21604841312405e-06 3.79422990131151e-08
4.03650000000000e+01 1.17012419343011e-06 3.65683372979982e-08
4.04950000000000e+01 1.12593430760950e-06 3.52439465254130e-08
4.06250000000000e+01 1.08341325832761e-06 3.39673460086421e-08
4.07550000000000e+01 1.04249802176482e-06 3.27368186930784e-08
4.08850000000000e+01 1.00312795420391e-06 3.15507088968248e-08
4.10150000000000e+01 9.65244702145181e-07 3.04074201308852e-08
