Energy (eV)          EEDF (eV^-(3/2))     First Anisotropy
1.16142857142857e-03 9.83560906126269e+00 5.88471502006389e-03
3.48428571428571e-03 9.73899775682416e+00 9.70222933040883e-03
5.80714285714286e-03 9.64333542688473e+00 1.27680814314412e-02
8.13000000000000e-03 9.54861275034694e+00 1.50730560304147e-02
1.04528571428571e-02 9.45482049729541e+00 1.69755292174498e-02
1.27757142857143e-02 9.36194952859142e+00 1.86115947768990e-02
1.50985714285714e-02 9.26999079437036e+00 2.00519757460564e-02
1.74214285714286e-02 9.17893533477509e+00 2.13395536623120e-02
1.97442857142857e-02 9.08877427717731e+00 2.25028825026429e-02
2.20671428571429e-02 8.99949883582330e+00 2.35622236710058e-02
2.43900000000000e-02 8.91110031203055e+00 2.45326346666897e-02
2.67128571428571e-02 8.82357009185272e+00 2.54257072110831e-02
2.90357142857143e-02 8.73689964659912e+00 2.62506168383623e-02
3.13585714285714e-02 8.65108053075840e+00 2.70147922609749e-02
3.36814285714286e-02 8.56610438232399e+00 2.77243612570998e-02
3.60042857142857e-02 8.48196292113268e+00 2.83844586036264e-02
3.83271428571429e-02 8.39864794817680e+00 2.89994449775544e-02
4.06500000000000e-02 8.31615134538626e+00 2.95730668108592e-02
4.29728571428571e-02 8.23446507405135e+00 3.01085754359625e-02
4.52957142857143e-02 8.15358117478231e+00 3.06088176454983e-02
4.76185714285714e-02 8.07349176603088e+00 3.10763056832989e-02
4.99414285714286e-02 7.99418904398871e+00 3.15132721204492e-02
5.22642857142857e-02 7.91566528133127e+00 3.19217135300238e-02
5.45871428571429e-02 7.83791282651621e+00 3.23034254922576e-02
5.69100000000000e-02 7.76092410341951e+00 3.26600311585218e-02
5.92328571428571e-02 7.68469161008495e+00 3.29930046445204e-02
6.15557142857143e-02 7.60920791848392e+00 3.33036904074750e-02
6.38785714285714e-02 7.53446567332111e+00 3.35933194271331e-02
6.62014285714286e-02 7.46045759176934e+00 3.38630228007129e-02
6.85242857142857e-02 7.38717646242304e+00 3.41138433081716e-02
7.08471428571429e-02 7.31461514462367e+00 3.43467451728296e-02
7.31700000000000e-02 7.24276656803857e+00 3.45626225218019e-02
7.54928571428572e-02 7.17162373160455e+00 3.47623066369323e-02
7.78157142857143e-02 7.10117970320038e+00 3.49465722434156e-02
8.01385714285714e-02 7.03142761862886e+00 3.51161429892536e-02
8.24614285714286e-02 6.96236068127885e+00 3.52716962261543e-02
8.47842857142857e-02 6.89397216121585e+00 3.54138672525881e-02
8.71071428571429e-02 6.82625539454367e+00 3.55432529744025e-02
8.94300000000000e-02 6.75920378296362e+00 3.56604152235356e-02
9.17528571428571e-02 6.69281079285304e+00 3.57658836697925e-02
9.40757142857143e-02 6.62706995489873e+00 3.58601584210811e-02
9.63985714285714e-02 6.56197486320464e+00 3.59437123517845e-02
9.87214285714286e-02 6.49751917492185e+00 3.60169931812428e-02
1.01044285714286e-01 6.43369660944051e+00 3.60804253606156e-02
1.03367142857143e-01 6.37050094795149e+00 3.61344117773963e-02
1.05690000000000e-01 6.30792603256405e+00 3.61793353459312e-02
1.08012857142857e-01 6.24596576541731e+00 3.62155601710400e-02
1.10335714285714e-01 6.18461410959086e+00 3.62434329715901e-02
1.12658571428571e-01 6.12386508693122e+00 3.62632843564982e-02
1.14981428571429e-01 6.06371277800629e+00 3.62754296707492e-02
1.17304285714286e-01 6.00415132152652e+00 3.62801700235208e-02
1.19627142857143e-01 5.94517491377794e+00 3.62777931680528e-02
1.21950000000000e-01 5.88677780805437e+00 3.62685743666432e-02
1.24272857142857e-01 5.82895431368219e+00 3.62527769624851e-02
1.26595714285714e-01 5.77169879672907e+00 3.62306531806614e-02
1.28918571428571e-01 5.71500567817359e+00 3.62024448770000e-02
1.31241428571429e-01 5.65886943379503e+00 3.61683839464264e-02
1.33564285714286e-01 5.60328459363373e+00 3.61286929240777e-02
1.35887142857143e-01 5.54824574146096e+00 3.60835854879521e-02
1.38210000000000e-01 5.49374751424965e+00 3.60332669757617e-02
1.40532857142857e-01 5.43978460130933e+00 3.59779346689477e-02
1.42855714285714e-01 5.38635174480942e+00 3.59177782987007e-02
1.45178571428571e-01 5.33344373821211e+00 3.58529805254969e-02
1.47501428571429e-01 5.28105542612154e+00 3.57837171367747e-02
1.49824285714286e-01 5.22918170378032e+00 3.57101574285668e-02
1.52147142857143e-01 5.17781751657435e+00 3.56324645141703e-02
1.54470000000000e-01 5.12695785953911e+00 3.55507956575003e-02
1.56792857142857e-01 5.07659777658577e+00 3.54653024118495e-02
1.59115714285714e-01 5.02673236088756e+00 3.53761309642619e-02
1.61438571428571e-01 4.97735675352126e+00 3.52834224655524e-02
1.63761428571429e-01 4.92846614329106e+00 3.51873131193155e-02
1.66084285714286e-01 4.88005576625892e+00 3.50879344404853e-02
1.68407142857143e-01 4.83212090528202e+00 3.49854134559402e-02
1.70730000000000e-01 4.78465688955225e+00 3.48798729329413e-02
1.73052857142857e-01 4.73765909389922e+00 3.47714314402540e-02
1.75375714285714e-01 4.69112293907379e+00 3.46602035965817e-02
1.77698571428571e-01 4.64504389055873e+00 3.45463003108605e-02
1.80021428571429e-01 4.59941745837767e+00 3.44298288125737e-02
1.82344285714286e-01 4.55423919665695e+00 3.43108928362631e-02
1.84667142857143e-01 4.50950470319370e+00 3.41895927579606e-02
1.86990000000000e-01 4.46520961902621e+00 3.40660257595550e-02
1.89312857142857e-01 4.42134962780294e+00 3.39402858468263e-02
1.91635714285714e-01 4.37792045598774e+00 3.38124640370603e-02
1.93958571428571e-01 4.33491787181033e+00 3.36826485419274e-02
1.96281428571429e-01 4.29233768506751e+00 3.35509247652418e-02
1.98604285714286e-01 4.25017574671434e+00 3.34173754402651e-02
2.00927142857143e-01 4.20842794846088e+00 3.32820807259897e-02
2.03250000000000e-01 4.16709022237136e+00 3.31451183301593e-02
2.05572857142857e-01 4.12615854029061e+00 3.30065635029318e-02
2.07895714285714e-01 4.08562891398892e+00 3.28664891837529e-02
2.10218571428571e-01 4.04549739423003e+00 3.27249661454542e-02
2.12541428571429e-01 4.00576007056951e+00 3.25820629738606e-02
2.14864285714286e-01 3.96641307097333e+00 3.24378461734790e-02
2.17187142857143e-01 3.92745256144136e+00 3.22923802375592e-02
2.19510000000000e-01 3.88887474563341e+00 3.21457277431736e-02
2.21832857142857e-01 3.85067586434607e+00 3.19979493310859e-02
2.24155714285714e-01 3.81285219561091e+00 3.18491038240490e-02
2.26478571428571e-01 3.77540005386227e+00 3.16992483434887e-02
2.28801428571429e-01 3.73831578973636e+00 3.15484382791962e-02
2.31124285714286e-01 3.70159578971542e+00 3.13967273729596e-02
2.33447142857143e-01 3.66523647577615e+00 3.12441677708466e-02
2.35770000000000e-01 3.62923430504084e+00 3.10908100986426e-02
2.38092857142857e-01 3.59358576929892e+00 3.09367034341372e-02
2.40415714285714e-01 3.55828739506877e+00 3.07818954045605e-02
2.42738571428571e-01 3.52333574285135e+00 3.06264322831315e-02
2.45061428571429e-01 3.48872740693249e+00 3.04703589536922e-02
2.47384285714286e-01 3.45445901505079e+00 3.03137189783798e-02
2.49707142857143e-01 3.42052722806953e+00 3.01565546374913e-02
2.52030000000000e-01 3.38692873965101e+00 2.99989069906358e-02
2.54352857142857e-01 3.35366027581816e+00 2.98408158451488e-02
2.56675714285714e-01 3.32071859498787e+00 2.96823198378014e-02
2.58998571428571e-01 3.28810048729907e+00 2.95234565160724e-02
2.61321428571429e-01 3.25580277441993e+00 2.93642623006255e-02
2.63644285714286e-01 3.22382230923794e+00 2.92047725410884e-02
2.65967142857143e-01 3.19215597555366e+00 2.90450215470004e-02
2.68290000000000e-01 3.16080068777686e+00 2.88850426382645e-02
2.70612857142857e-01 3.12975339052391e+00 2.87248681119680e-02
2.72935714285714e-01 3.09901105862899e+00 2.85645293118872e-02
2.75258571428571e-01 3.06857069653726e+00 2.84040566978401e-02
2.77581428571429e-01 3.03842933811804e+00 2.82434798077777e-02
2.79904285714286e-01 3.00858404637562e+00 2.80828273044595e-02
2.82227142857143e-01 2.97903191316346e+00 2.79221269998457e-02
2.84550000000000e-01 2.94977005890058e+00 2.77614058973330e-02
2.86872857142857e-01 2.92079563220127e+00 2.76006901583759e-02
2.89195714285714e-01 2.89210580986911e+00 2.74400051622963e-02
2.91518571428571e-01 2.86369779634732e+00 2.72793755661248e-02
2.93841428571429e-01 2.83556882353876e+00 2.71188252673673e-02
2.96164285714286e-01 2.80771615053609e+00 2.69583774435535e-02
2.98487142857143e-01 2.78013706335500e+00 2.67980545717120e-02
3.00810000000000e-01 2.75282887466958e+00 2.66378784641641e-02
3.03132857142857e-01 2.72578892347120e+00 2.64778702357964e-02
3.05455714285714e-01 2.69901457504934e+00 2.63180503560086e-02
3.07778571428571e-01 2.67250322049236e+00 2.61584387008153e-02
3.10101428571429e-01 2.64625227651500e+00 2.59990545169210e-02
3.12424285714286e-01 2.62025918520643e+00 2.58399164555781e-02
3.14747142857143e-01 2.59452141378134e+00 2.56810425883126e-02
3.17070000000000e-01 2.56903645433298e+00 2.55224504375620e-02
3.19392857142857e-01 2.54380182351859e+00 2.53641569451125e-02
3.21715714285714e-01 2.51881506252998e+00 2.52061785175677e-02
3.24038571428571e-01 2.49407373663938e+00 2.50485310720469e-02
3.26361428571429e-01 2.46957543503438e+00 2.48912300019265e-02
3.28684285714286e-01 2.44531777058296e+00 2.47342902060801e-02
3.31007142857143e-01 2.42129837960104e+00 2.45777261016955e-02
3.33330000000000e-01 2.39751492162211e+00 2.44215516507227e-02
3.35652857142857e-01 2.37396507910681e+00 2.42657803297697e-02
3.37975714285714e-01 2.35064655740585e+00 2.41104251701527e-02
3.40298571428571e-01 2.32755708434590e+00 2.39554987982257e-02
3.42621428571429e-01 2.30469441007229e+00 2.38010134029731e-02
3.44944285714286e-01 2.28205630682972e+00 2.36469807614419e-02
3.47267142857143e-01 2.25964056874534e+00 2.34934122492751e-02
3.49590000000000e-01 2.23744501161374e+00 2.33403188637103e-02
3.51912857142857e-01 2.21546747262863e+00 2.31877111950820e-02
3.54235714285714e-01 2.19370581034003e+00 2.30355994622893e-02
3.56558571428571e-01 2.17215790427612e+00 2.28839935485665e-02
3.58881428571429e-01 2.15082165479364e+00 2.27329029709987e-02
3.61204285714286e-01 2.12969498287323e+00 2.25823369027856e-02
3.63527142857143e-01 2.10877582991703e+00 2.24323041819554e-02
3.65850000000000e-01 2.08806215754793e+00 2.22828133314814e-02
3.68172857142857e-01 2.06755194736157e+00 2.21338725324577e-02
3.70495714285714e-01 2.04724320087936e+00 2.19854896556489e-02
3.72818571428571e-01 2.02713393920266e+00 2.18376722933508e-02
3.75141428571429e-01 2.00722220287074e+00 2.16904277308352e-02
3.77464285714286e-01 1.98750605166987e+00 2.15437629659378e-02
3.79787142857143e-01 1.96798356444430e+00 2.13976847163129e-02
3.82110000000000e-01 1.94865283890906e+00 2.12521994371223e-02
3.84432857142857e-01 1.92951199142038e+00 2.11073132958830e-02
3.86755714285714e-01 1.91055915692595e+00 2.09630322006373e-02
3.89078571428571e-01 1.89179248864814e+00 2.08193618284368e-02
3.91401428571429e-01 1.87321015794952e+00 2.06763075986744e-02
3.93724285714286e-01 1.85481035415459e+00 2.05338746903958e-02
3.96047142857143e-01 1.83659128437344e+00 2.03920680483676e-02
3.98370000000000e-01 1.81855117332704e+00 2.02508923987006e-02
4.00692857142857e-01 1.80068826313464e+00 2.01103522253362e-02
4.03015714285714e-01 1.78300081326229e+00 1.99704517952813e-02
4.05338571428571e-01 1.76548710023236e+00 1.98311951841534e-02
4.07661428571429e-01 1.74814541749626e+00 1.96925862513261e-02
4.09984285714286e-01 1.73097407526813e+00 1.95546286552887e-02
4.12307142857143e-01 1.71397140036025e+00 1.94173258587457e-02
4.14630000000000e-01 1.69713573601997e+00 1.92806811424709e-02
4.16952857142857e-01 1.68046544173277e+00 1.91446975833694e-02
4.19275714285714e-01 1.66395889316984e+00 1.90093780771466e-02
4.21598571428571e-01 1.64761448192142e+00 1.88747253612809e-02
4.23921428571429e-01 1.63143061537653e+00 1.87407419918956e-02
4.26244285714286e-01 1.61540571656776e+00 1.86074303574365e-02
4.28567142857143e-01 1.59953822401764e+00 1.84747926829709e-02
4.30890000000000e-01 1.58382659158650e+00 1.83428310425100e-02
4.33212857142857e-01 1.56826928828992e+00 1.82115473385796e-02
4.35535714285714e-01 1.55286479824600e+00 1.80809433226336e-02
4.37858571428571e-01 1.53761162043036e+00 1.79510206157569e-02
4.40181428571429e-01 1.52250826856258e+00 1.78217806871771e-02
4.42504285714286e-01 1.50755327096137e+00 1.76932248664759e-02
4.44827142857143e-01 1.49274517040120e+00 1.75653543472217e-02
4.47150000000000e-01 1.47808252397032e+00 1.74381701979659e-02
4.49472857142857e-01 1.46356390290145e+00 1.73116733432415e-02
4.51795714285714e-01 1.44918789251934e+00 1.71858645819819e-02
4.54118571428571e-01 1.43495309201539e+00 1.70607446062200e-02
4.56441428571429e-01 1.42085811434059e+00 1.69363139811377e-02
4.58764285714286e-01 1.40690158607037e+00 1.68125731559966e-02
4.61087142857143e-01 1.39308214727076e+00 1.66895224672191e-02
4.63410000000000e-01 1.37939845136590e+00 1.65671621482229e-02
4.65732857142857e-01 1.36584916498102e+00 1.64454923117623e-02
4.68055714285714e-01 1.35243296789058e+00 1.63245129665823e-02
4.70378571428571e-01 1.33914855281088e+00 1.62042240343355e-02
4.72701428571429e-01 1.32599462529915e+00 1.60846253310737e-02
4.75024285714286e-01 1.31296990362740e+00 1.59657165770543e-02
4.77347142857143e-01 1.30007311865758e+00 1.58474973993567e-02
4.79670000000000e-01 1.28730301371787e+00 1.57299673406975e-02
4.81992857142857e-01 1.27465834445698e+00 1.56131258430356e-02
4.84315714285714e-01 1.26213787879331e+00 1.54969722626508e-02
4.86638571428571e-01 1.24974039672387e+00 1.53815058854749e-02
4.88961428571429e-01 1.23746469022926e+00 1.52667259099293e-02
4.91284285714286e-01 1.22530956315598e+00 1.51526314557396e-02
4.93607142857143e-01 1.21327383109990e+00 1.50392215661611e-02
4.95930000000000e-01 1.20135632129080e+00 1.49264952158970e-02
4.98252857142857e-01 1.18955587245713e+00 1.48144512958840e-02
5.00575714285714e-01 1.17787133477641e+00 1.47030886269649e-02
5.02898571428571e-01 1.16630156969905e+00 1.45924059737989e-02
5.05221428571429e-01 1.15484544985899e+00 1.44824020289575e-02
5.07544285714286e-01 1.14350185896385e+00 1.43730754208623e-02
5.09867142857143e-01 1.13226969168614e+00 1.42644247156758e-02
5.12190000000000e-01 1.12114785355557e+00 1.41564484244278e-02
5.14512857142857e-01 1.11013526083344e+00 1.40491449889018e-02
5.16835714285714e-01 1.09923084046443e+00 1.39425127940497e-02
5.19158571428571e-01 1.08843352991414e+00 1.38365501806320e-02
5.21481428571429e-01 1.07774227708504e+00 1.37312554304778e-02
5.23804285714286e-01 1.06715604021391e+00 1.36266267736457e-02
5.26127142857143e-01 1.05667378777040e+00 1.35226623900338e-02
5.28450000000000e-01 1.04629449835644e+00 1.34193604158014e-02
5.30772857142857e-01 1.03601716058961e+00 1.33167189302792e-02
5.33095714285714e-01 1.02584077305650e+00 1.32147359672575e-02
5.35418571428571e-01 1.01576434416275e+00 1.31134095264831e-02
5.37741428571429e-01 1.00578689205405e+00 1.30127375600030e-02
5.40064285714286e-01 9.95907444520419e-01 1.29127179786315e-02
5.42387142857143e-01 9.86125038901558e-01 1.28133486533208e-02
5.44710000000000e-01 9.76438721992987e-01 1.27146274209576e-02
5.47032857142857e-01 9.66847549937623e-01 1.26165520722266e-02
5.49355714285714e-01 9.57350588180866e-01 1.25191203618822e-02
5.51678571428571e-01 9.47946911332085e-01 1.24223300192168e-02
5.54001428571429e-01 9.38635603090400e-01 1.23261787354106e-02
5.56324285714286e-01 9.29415756155377e-01 1.22306641693802e-02
5.58647142857143e-01 9.20286472138655e-01 1.21357839489455e-02
5.60970000000000e-01 9.11246861476384e-01 1.20415356760657e-02
5.63292857142857e-01 9.02296043328457e-01 1.19479169155892e-02
5.65615714285714e-01 8.93433145535313e-01 1.18549252046104e-02
5.67938571428572e-01 8.84657304489962e-01 1.17625580620115e-02
5.70261428571429e-01 8.75967665068289e-01 1.16708129767428e-02
5.72584285714286e-01 8.67363380545711e-01 1.15796874131184e-02
5.74907142857143e-01 8.58843612514703e-01 1.14891788118075e-02
5.77230000000000e-01 8.50407530803086e-01 1.13992845945729e-02
5.79552857142857e-01 8.42054313380346e-01 1.13100021538413e-02
5.81875714285714e-01 8.33783146316218e-01 1.12213288612338e-02
5.84198571428571e-01 8.25593223662372e-01 1.11332620762710e-02
5.86521428571429e-01 8.17483747386992e-01 1.10457991355153e-02
5.88844285714286e-01 8.09453927297007e-01 1.09589373573713e-02
5.91167142857143e-01 8.01502980961109e-01 1.08726740429280e-02
5.93490000000000e-01 7.93630133633508e-01 1.07870064802487e-02
5.95812857142857e-01 7.85834618166827e-01 1.07019319347044e-02
5.98135714285714e-01 7.78115674972459e-01 1.06174476567571e-02
6.00458571428572e-01 7.70472551911160e-01 1.05335508899048e-02
6.02781428571429e-01 7.62904504231653e-01 1.04502388606266e-02
6.05104285714286e-01 7.55410794498051e-01 1.03675087827371e-02
6.07427142857143e-01 7.47990692518020e-01 1.02853578580986e-02
6.09750000000000e-01 7.40643475271615e-01 1.02037832805092e-02
6.12072857142857e-01 7.33368426830291e-01 1.01227822267442e-02
6.14395714285714e-01 7.26164838319024e-01 1.00423518636633e-02
6.16718571428571e-01 7.19032007815094e-01 9.96248935546746e-03
6.19041428571429e-01 7.11969240290491e-01 9.88319185438484e-03
6.21364285714286e-01 7.04975847544183e-01 9.80445650462424e-03
6.23687142857143e-01 6.98051148135076e-01 9.72628044297715e-03
6.26010000000000e-01 6.91194467315602e-01 9.64866080234599e-03
6.28332857142857e-01 6.84405136956388e-01 9.57159470343700e-03
6.30655714285714e-01 6.77682495510141e-01 9.49507926125638e-03
6.32978571428572e-01 6.71025887917961e-01 9.41911159174529e-03
6.35301428571429e-01 6.64434665555334e-01 9.34368880315002e-03
6.37624285714286e-01 6.57908186168924e-01 9.26880799961364e-03
6.39947142857143e-01 6.51445813814001e-01 9.19446628168278e-03
6.42270000000000e-01 6.45046918792473e-01 9.12066074951141e-03
6.44592857142857e-01 6.38710877582802e-01 9.04738849516194e-03
6.46915714285714e-01 6.32437072805622e-01 8.97464660854303e-03
6.49238571428571e-01 6.26224893136994e-01 8.90243218347856e-03
6.51561428571429e-01 6.20073733257775e-01 8.83074230971193e-03
6.53884285714286e-01 6.13982993794627e-01 8.75957407617346e-03
6.56207142857143e-01 6.07952081261627e-01 8.68892457140473e-03
6.58530000000000e-01 6.01980408002430e-01 8.61879088646858e-03
6.60852857142857e-01 5.96067392125071e-01 8.54917010781303e-03
6.63175714285714e-01 5.90212457469266e-01 8.48005932270281e-03
6.65498571428571e-01 5.84415033526077e-01 8.41145562477318e-03
6.67821428571429e-01 5.78674555390450e-01 8.34335610662227e-03
6.70144285714286e-01 5.72990463706167e-01 8.27575786278451e-03
6.72467142857143e-01 5.67362204611349e-01 8.20865799008355e-03
6.74790000000000e-01 5.61789229684488e-01 8.14205359027816e-03
6.77112857142857e-01 5.56270995883772e-01 8.07594176344671e-03
6.79435714285714e-01 5.50806965516035e-01 8.01031961295884e-03
6.81758571428571e-01 5.45396606162327e-01 7.94518425056042e-03
6.84081428571429e-01 5.40039390633442e-01 7.88053278950980e-03
6.86404285714286e-01 5.34734796918539e-01 7.81636234728483e-03
6.88727142857143e-01 5.29482308134289e-01 7.75267004587470e-03
6.91050000000000e-01 5.24281412474505e-01 7.68945301418696e-03
6.93372857142857e-01 5.19131603153684e-01 7.62670838191472e-03
6.95695714285714e-01 5.14032378377543e-01 7.56443328408900e-03
6.98018571428571e-01 5.08983241274046e-01 7.50262486573669e-03
7.00341428571429e-01 5.03983699851737e-01 7.44128027552090e-03
7.02664285714286e-01 4.99033266951790e-01 7.38039666820612e-03
7.04987142857143e-01 4.94131460200558e-01 7.31997120489747e-03
7.07310000000000e-01 4.89277801962557e-01 7.26000105523212e-03
7.09632857142857e-01 4.84471819287922e-01 7.20048339169248e-03
7.11955714285714e-01 4.79713043884486e-01 7.14141539377766e-03
7.14278571428571e-01 4.75001012053839e-01 7.08279425227219e-03
7.16601428571429e-01 4.70335264652298e-01 7.02461716335103e-03
7.18924285714286e-01 4.65715347046165e-01 6.96688133082704e-03
7.21247142857143e-01 4.61140809067432e-01 6.90958396634533e-03
7.23570000000000e-01 4.56611204969917e-01 6.85272229137874e-03
7.25892857142857e-01 4.52126093380344e-01 6.79629353195499e-03
7.28215714285714e-01 4.47685037271910e-01 6.74029492247902e-03
7.30538571428571e-01 4.43287603904995e-01 6.68472370964737e-03
7.32861428571429e-01 4.38933364790615e-01 6.62957714698471e-03
