Energy (eV)          EEDF (eV^-(3/2))     First Anisotropy
5.20000000000000e-04 2.12032832362925e+02 9.35717731128531e-02
1.56000000000000e-03 2.04837500518964e+02 1.52404237965616e-01
2.60000000000000e-03 1.97886342182330e+02 1.95679124874273e-01
3.64000000000000e-03 1.91171071327719e+02 2.25379033888158e-01
4.68000000000000e-03 1.84683683116011e+02 2.47644602925132e-01
5.72000000000000e-03 1.78416444352215e+02 2.64900317419981e-01
6.76000000000000e-03 1.72361884267226e+02 2.78451400586543e-01
7.80000000000000e-03 1.66512785612409e+02 2.89115192487846e-01
8.84000000000000e-03 1.60862176056382e+02 2.97452128034092e-01
9.88000000000000e-03 1.55403319873750e+02 3.03870505048265e-01
1.09200000000000e-02 1.50129709915887e+02 3.08680937395286e-01
1.19600000000000e-02 1.45035059854186e+02 3.12127480058307e-01
1.30000000000000e-02 1.40113296686529e+02 3.14406722325597e-01
1.40400000000000e-02 1.35358553498061e+02 3.15680160004709e-01
1.50800000000000e-02 1.30765162467618e+02 3.16082572209524e-01
1.61200000000000e-02 1.26327648111483e+02 3.15727900976901e-01
1.71600000000000e-02 1.22040720756423e+02 3.14713504357043e-01
1.82000000000000e-02 1.17899270234203e+02 3.13123312691144e-01
1.92400000000000e-02 1.13898359790096e+02 3.11030223073245e-01
2.02800000000000e-02 1.10033220198090e+02 3.08497950976186e-01
2.13200000000000e-02 1.06299244075806e+02 3.05582486342179e-01
2.23600000000000e-02 1.02691980392335e+02 3.02333255736843e-01
2.34000000000000e-02 9.92071291624542e+01 2.98794062211762e-01
2.44400000000000e-02 9.58405363208915e+01 2.95003854403428e-01
2.54800000000000e-02 9.25881887705346e+01 2.90997362588694e-01
2.65200000000000e-02 8.94462095986777e+01 2.86805629752725e-01
2.75600000000000e-02 8.64108534556053e+01 2.82456458841342e-01
2.86000000000000e-02 8.34785020900034e+01 2.77974792386652e-01
2.96400000000000e-02 8.06456600358766e+01 2.73383037035077e-01
3.06800000000000e-02 7.79089504458299e+01 2.68701342782644e-01
3.17200000000000e-02 7.52651110657477e+01 2.63947844669463e-01
3.27600000000000e-02 7.27109903460719e+01 2.59138873120638e-01
3.38000000000000e-02 7.02435436850444e+01 2.54289137915628e-01
3.48400000000000e-02 6.78598297994342e+01 2.49411889830656e-01
3.58800000000000e-02 6.55570072184245e+01 2.44519063262873e-01
3.69200000000000e-02 6.33323308964797e+01 2.39621402562531e-01
3.79600000000000e-02 6.11831489411544e+01 2.34728574334489e-01
3.90000000000000e-02 5.91068994519442e+01 2.29849267596660e-01
4.00400000000000e-02 5.71011074664102e+01 2.24991283380372e-01
4.10800000000000e-02 5.51633820099369e+01 2.20161615110962e-01
4.21200000000000e-02 5.32914132456061e+01 2.15366520904633e-01
4.31600000000000e-02 5.14829697207902e+01 2.10611588750634e-01
4.42000000000000e-02 4.97358957071820e+01 2.05901795409326e-01
4.52400000000000e-02 4.80481086310907e+01 2.01241559741206e-01
4.62800000000000e-02 4.64175965909411e+01 1.96634791085029e-01
4.73200000000000e-02 4.48424159590158e+01 1.92084933221598e-01
4.83600000000000e-02 4.33206890645827e+01 1.87595004390715e-01
4.94000000000000e-02 4.18506019556455e+01 1.83167633770074e-01
5.04400000000000e-02 4.04304022366490e+01 1.78805094774756e-01
5.14800000000000e-02 3.90583969795619e+01 1.74509335493073e-01
5.25200000000000e-02 3.77329507058472e+01 1.70282006537484e-01
5.35600000000000e-02 3.64524834369141e+01 1.66124486557511e-01
5.46000000000000e-02 3.52154688107279e+01 1.62037905633850e-01
5.56400000000000e-02 3.40204322623330e+01 1.58023166748894e-01
5.66800000000000e-02 3.28659492661192e+01 1.54080965507925e-01
5.77200000000000e-02 3.17506436377375e+01 1.50211808266892e-01
5.87600000000000e-02 3.06731858936395e+01 1.46416028806613e-01
5.98000000000000e-02 2.96322916662867e+01 1.42693803679103e-01
6.08400000000000e-02 2.86267201731387e+01 1.39045166339221e-01
6.18800000000000e-02 2.76552727375972e+01 1.35470020163822e-01
6.29200000000000e-02 2.67167913601410e+01 1.31968150450769e-01
6.39600000000000e-02 2.58101573379500e+01 1.28539235481505e-01
6.50000000000000e-02 2.49342899313722e+01 1.25182856723095e-01
6.60400000000000e-02 2.40881450756437e+01 1.21898508238734e-01
6.70800000000000e-02 2.32707141363269e+01 1.18685605369547e-01
6.81200000000000e-02 2.24810227069830e+01 1.15543492744914e-01
6.91600000000000e-02 2.17181294476447e+01 1.12471451673615e-01
7.02000000000000e-02 2.09811249627065e+01 1.09468706963538e-01
7.12400000000000e-02 2.02691307168927e+01 1.06534433213712e-01
7.22800000000000e-02 1.95812979880124e+01 1.03667760618710e-01
7.33200000000000e-02 1.89168068552532e+01 1.00867780322203e-01
7.43600000000000e-02 1.82748652218064e+01 9.81335493534211e-02
7.54000000000000e-02 1.76547078706597e+01 9.54640951775655e-02
7.64400000000000e-02 1.70555955524319e+01 9.28584198887478e-02
7.74800000000000e-02 1.64768141041613e+01 9.03155040717690e-02
7.85200000000000e-02 1.59176735979988e+01 8.78343103570049e-02
7.95600000000000e-02 1.53775075187889e+01 8.54137866907907e-02
8.06000000000000e-02 1.48556719695608e+01 8.30528693419869e-02
8.16400000000000e-02 1.43515449039804e+01 8.07504856638366e-02
8.26800000000000e-02 1.38645253848490e+01 7.85055566287996e-02
8.37200000000000e-02 1.33940328677652e+01 7.63169991527172e-02
8.47600000000000e-02 1.29395065090956e+01 7.41837282234644e-02
8.58000000000000e-02 1.25004044974293e+01 7.21046588481397e-02
8.68400000000000e-02 1.20762034077196e+01 7.00787078318057e-02
8.78800000000000e-02 1.16663975773432e+01 6.81047953998660e-02
8.89200000000000e-02 1.12704985033322e+01 6.61818466752920e-02
8.99600000000000e-02 1.08880342600616e+01 6.43087930211120e-02
9.10000000000000e-02 1.05185489366976e+01 6.24845732578446e-02
9.20400000000000e-02 1.01616020937350e+01 6.07081347648589e-02
9.30800000000000e-02 9.81676823797901e+00 5.89784344740341e-02
9.41200000000000e-02 9.48363631534126e+00 5.72944397634923e-02
9.51600000000000e-02 9.16180922084961e+00 5.56551292586410e-02
9.62000000000000e-02 8.85090332528472e+00 5.40594935472653e-02
9.72400000000000e-02 8.55054801788062e+00 5.25065358149396e-02
9.82800000000000e-02 8.26038526454365e+00 5.09952724066007e-02
9.93200000000000e-02 7.98006918106316e+00 4.95247333197218e-02
1.00360000000000e-01 7.70926562080542e+00 4.80939626341550e-02
1.01400000000000e-01 7.44765177639905e+00 4.67020188833692e-02
1.02440000000000e-01 7.19491579493729e+00 4.53479753714836e-02
1.03480000000000e-01 6.95075640623835e+00 4.40309204401968e-02
1.04520000000000e-01 6.71488256372074e+00 4.27499576894387e-02
1.05560000000000e-01 6.48701309746557e+00 4.15042061553136e-02
1.06600000000000e-01 6.26687637905204e+00 4.02928004486546e-02
1.07640000000000e-01 6.05420999776681e+00 3.91148908572857e-02
1.08680000000000e-01 5.84876044780128e+00 3.79696434148903e-02
1.09720000000000e-01 5.65028282606364e+00 3.68562399391734e-02
1.10760000000000e-01 5.45854054024584e+00 3.57738780418290e-02
1.11800000000000e-01 5.27330502679722e+00 3.47217711126566e-02
1.12840000000000e-01 5.09435547846868e+00 3.36991482800086e-02
1.13880000000000e-01 4.92147858110273e+00 3.27052543496017e-02
1.14920000000000e-01 4.75446825935547e+00 3.17393497235871e-02
1.15960000000000e-01 4.59312543104751e+00 3.08007103016484e-02
1.17000000000000e-01 4.43725776985108e+00 2.98886273657683e-02
1.18040000000000e-01 4.28667947603021e+00 2.90024074501985e-02
1.19080000000000e-01 4.14121105496095e+00 2.81413721980590e-02
1.20120000000000e-01 4.00067910316743e+00 2.73048582058938e-02
1.21160000000000e-01 3.86491610161884e+00 2.64922168574164e-02
1.22200000000000e-01 3.73376021604087e+00 2.57028141475970e-02
1.23240000000000e-01 3.60705510400350e+00 2.49360304981581e-02
1.24280000000000e-01 3.48464972855538e+00 2.41912605654699e-02
1.25320000000000e-01 3.36639817818245e+00 2.34679130417678e-02
1.26360000000000e-01 3.25215949287627e+00 2.27654104505490e-02
1.27400000000000e-01 3.14179749610476e+00 2.20831889369408e-02
1.28440000000000e-01 3.03518063248496e+00 2.14206980537770e-02
1.29480000000000e-01 2.93218181096437e+00 2.07774005440644e-02
1.30520000000000e-01 2.83267825332399e+00 2.01527721204704e-02
1.31560000000000e-01 2.73655134782232e+00 1.95463012424166e-02
1.32600000000000e-01 2.64368650780603e+00 1.89574888913166e-02
1.33640000000000e-01 2.55397303511858e+00 1.83858483444594e-02
1.34680000000000e-01 2.46730398814420e+00 1.78309049479941e-02
1.35720000000000e-01 2.38357605432965e+00 1.72921958894419e-02
1.36760000000000e-01 2.30268942703207e+00 1.67692699701248e-02
1.37800000000000e-01 2.22454768654592e+00 1.62616873778683e-02
1.38840000000000e-01 2.14905768516732e+00 1.57690194603061e-02
1.39880000000000e-01 2.07612943615870e+00 1.52908484990887e-02
1.40920000000000e-01 2.00567600648144e+00 1.48267674852710e-02
1.41960000000000e-01 1.93761341316864e+00 1.43763798961276e-02
1.43000000000000e-01 1.87186052321446e+00 1.39392994736262e-02
1.44040000000000e-01 1.80833895686071e+00 1.35151500047656e-02
1.45080000000000e-01 1.74697299416546e+00 1.31035651039665e-02
1.46120000000000e-01 1.68768948474216e+00 1.27041879976831e-02
1.47160000000000e-01 1.63041776056184e+00 1.23166713113898e-02
1.48200000000000e-01 1.57508955171431e+00 1.19406768590781e-02
1.49240000000000e-01 1.52163890502804e+00 1.15758754353853e-02
1.50280000000000e-01 1.47000210545165e+00 1.12219466104636e-02
1.51320000000000e-01 1.42011760010333e+00 1.08785785276839e-02
1.52360000000000e-01 1.37192592489765e+00 1.05454677042584e-02
1.53400000000000e-01 1.32536963366226e+00 1.02223188348518e-02
1.54440000000000e-01 1.28039322966003e+00 9.90884459824590e-03
1.55480000000000e-01 1.23694309943501e+00 9.60476546710635e-03
1.56520000000000e-01 1.19496744890329e+00 9.30980952089762e-03
1.57560000000000e-01 1.15441624161263e+00 9.02371226197918e-03
1.58600000000000e-01 1.11524113909724e+00 8.74621643491128e-03
1.59640000000000e-01 1.07739544325664e+00 8.47707184899053e-03
1.60680000000000e-01 1.04083404068990e+00 8.21603520402864e-03
1.61720000000000e-01 1.00551334891881e+00 7.96286991938234e-03
1.62760000000000e-01 9.71391264436126e-01 7.71734596623733e-03
1.63800000000000e-01 9.38427112516642e-01 7.47923970314270e-03
1.64840000000000e-01 9.06581598731505e-01 7.24833371478832e-03
1.65880000000000e-01 8.75816762107879e-01 7.02441665401370e-03
1.66920000000000e-01 8.46095929878124e-01 6.80728308703262e-03
1.67960000000000e-01 8.17383673764569e-01 6.59673334185395e-03
1.69000000000000e-01 7.89645767747756e-01 6.39257335987595e-03
1.70040000000000e-01 7.62849147267825e-01 6.19461455062854e-03
1.71080000000000e-01 7.36961869810390e-01 6.00267364963528e-03
1.72120000000000e-01 7.11953076829943e-01 5.81657257936410e-03
1.73160000000000e-01 6.87792956965379e-01 5.63613831323390e-03
1.74200000000000e-01 6.64452710503806e-01 5.46120274264163e-03
1.75240000000000e-01 6.41904515050272e-01 5.29160254697372e-03
1.76280000000000e-01 6.20121492362495e-01 5.12717906656297e-03
1.77320000000000e-01 5.99077676311049e-01 4.96777817855122e-03
1.78360000000000e-01 5.78747981926827e-01 4.81325017561689e-03
1.79400000000000e-01 5.59108175498873e-01 4.66344964752529e-03
1.80440000000000e-01 5.40134845686946e-01 4.51823536545874e-03
1.81480000000000e-01 5.21805375614382e-01 4.37747016908263e-03
1.82520000000000e-01 5.04097915907977e-01 4.24102085630299e-03
1.83560000000000e-01 4.86991358652767e-01 4.10875807567059e-03
1.84600000000000e-01 4.70465312230654e-01 3.98055622138615e-03
1.85640000000000e-01 4.54500077012874e-01 3.85629333086097e-03
1.86680000000000e-01 4.39076621877350e-01 3.73585098478693e-03
1.87720000000000e-01 4.24176561522924e-01 3.61911420966970e-03
1.88760000000000e-01 4.09782134553434e-01 3.50597138277903e-03
1.89800000000000e-01 3.95876182305498e-01 3.39631413946984e-03
1.90840000000000e-01 3.82442128394791e-01 3.29003728282801e-03
1.91880000000000e-01 3.69463958956408e-01 3.18703869559496e-03
1.92920000000000e-01 3.56926203555773e-01 3.08721925432513e-03
1.93960000000000e-01 3.44813916747339e-01 2.99048274573082e-03
1.95000000000000e-01 3.33112660259089e-01 2.89673578516916e-03
1.96040000000000e-01 3.21808485781610e-01 2.80588773722630e-03
1.97080000000000e-01 3.10887918341215e-01 2.71785063835425e-03
1.98120000000000e-01 3.00337940237303e-01 2.63253912151624e-03
1.99160000000000e-01 2.90145975524799e-01 2.54987034279712e-03
2.00200000000000e-01 2.80299875023186e-01 2.46976390993520e-03
2.01240000000000e-01 2.70787901834256e-01 2.39214181273327e-03
2.02280000000000e-01 2.61598717351312e-01 2.31692835530635e-03
2.03320000000000e-01 2.52721367743153e-01 2.24405009012469e-03
2.04360000000000e-01 2.44145270896718e-01 2.17343575381098e-03
2.05400000000000e-01 2.35860203802837e-01 2.10501620465122e-03
2.06440000000000e-01 2.27856290370044e-01 2.03872436177947e-03
2.07480000000000e-01 2.20123989651931e-01 1.97449514599724e-03
2.08520000000000e-01 2.12654084473998e-01 1.91226542218880e-03
2.09560000000000e-01 2.05437670446465e-01 1.85197394329451e-03
2.10600000000000e-01 1.98466145349919e-01 1.79356129580481e-03
2.11640000000000e-01 1.91731198881168e-01 1.73696984673806e-03
2.12680000000000e-01 1.85224802747070e-01 1.68214369206627e-03
2.13720000000000e-01 1.78939201094521e-01 1.62902860655326e-03
2.14760000000000e-01 1.72866901265208e-01 1.57757199497047e-03
2.15800000000000e-01 1.67000664864097e-01 1.52772284465628e-03
2.16840000000000e-01 1.61333499131007e-01 1.47943167938548e-03
2.17880000000000e-01 1.55858648605000e-01 1.43265051451604e-03
2.18920000000000e-01 1.50569587071630e-01 1.38733281338092e-03
2.19960000000000e-01 1.45460009783466e-01 1.34343344489355e-03
2.21000000000000e-01 1.40523825944614e-01 1.30090864233601e-03
2.22040000000000e-01 1.35755151450269e-01 1.25971596329975e-03
2.23080000000000e-01 1.31148301872661e-01 1.21981425074913e-03
2.24120000000000e-01 1.26697785685013e-01 1.18116359517907e-03
2.25160000000000e-01 1.22398297715449e-01 1.14372529783812e-03
2.26200000000000e-01 1.18244712823042e-01 1.10746183498935e-03
2.27240000000000e-01 1.14232079788466e-01 1.07233682318213e-03
2.28280000000000e-01 1.10355615411970e-01 1.03831498550800e-03
2.29320000000000e-01 1.06610698811634e-01 1.00536211881478e-03
2.30360000000000e-01 1.02992865915114e-01 9.73445061853701e-04
2.31400000000000e-01 9.94978041383135e-02 9.42531664334586e-04
2.32440000000000e-01 9.61213472446288e-02 9.12590756865106e-04
2.33480000000000e-01 9.28594703786506e-02 8.83592121750264e-04
2.34520000000000e-01 8.97082852683938e-02 8.55506464629212e-04
2.35560000000000e-01 8.66640355903401e-02 8.28305386926733e-04
2.36600000000000e-01 8.37230924917691e-02 8.01961359097419e-04
2.37640000000000e-01 8.08819502650374e-02 7.76447694641163e-04
2.38680000000000e-01 7.81372221686523e-02 7.51738524868857e-04
2.39720000000000e-01 7.54856363901564e-02 7.27808774397962e-04
2.40760000000000e-01 7.29240321460123e-02 7.04634137357944e-04
2.41800000000000e-01 7.04493559138372e-02 6.82191054286133e-04
2.42840000000000e-01 6.80586577924972e-02 6.60456689695021e-04
2.43880000000000e-01 6.57490879857207e-02 6.39408910292512e-04
2.44920000000000e-01 6.35178934050416e-02 6.19026263837057e-04
2.45960000000000e-01 6.13624143880208e-02 5.99287958610079e-04
2.47000000000000e-01 5.92800815278347e-02 5.80173843488541e-04
2.48040000000000e-01 5.72684126104522e-02 5.61664388600965e-04
2.49080000000000e-01 5.53250096557483e-02 5.43740666550606e-04
2.50120000000000e-01 5.34475560590272e-02 5.26384334189893e-04
2.51160000000000e-01 5.16338138295481e-02 5.09577614930708e-04
2.52200000000000e-01 4.98816209227613e-02 4.93303281575419e-04
2.53240000000000e-01 4.81888886630754e-02 4.77544639653992e-04
2.54280000000000e-01 4.65535992540824e-02 4.62285511252917e-04
2.55320000000000e-01 4.49738033732730e-02 4.47510219322036e-04
2.56360000000000e-01 4.34476178483762e-02 4.33203572445702e-04
2.57400000000000e-01 4.19732234125512e-02 4.19350850065082e-04
2.58440000000000e-01 4.05488625357577e-02 4.05937788138789e-04
2.59480000000000e-01 3.91728373297178e-02 3.92950565229323e-04
2.60520000000000e-01 3.78435075239740e-02 3.80375789003153e-04
2.61560000000000e-01 3.65592885106286e-02 3.68200483132619e-04
2.62600000000000e-01 3.53186494554358e-02 3.56412074588105e-04
2.63640000000000e-01 3.41201114729927e-02 3.44998381309283e-04
2.64680000000000e-01 3.29622458638570e-02 3.33947600244542e-04
2.65720000000000e-01 3.18436724114857e-02 3.23248295747960e-04
2.66760000000000e-01 3.07630577369695e-02 3.12889388323480e-04
2.67800000000000e-01 2.97191137095976e-02 3.02860143706296e-04
2.68840000000000e-01 2.87105959113608e-02 2.93150162271653e-04
2.69880000000000e-01 2.77363021535613e-02 2.83749368761557e-04
2.70920000000000e-01 2.67950710437618e-02 2.74648002320168e-04
2.71960000000000e-01 2.58857806013646e-02 2.65836606828879e-04
2.73000000000000e-01 2.50073469201711e-02 2.57306021532356e-04
2.74040000000000e-01 2.41587228763278e-02 2.49047371947046e-04
2.75080000000000e-01 2.33388968801179e-02 2.41052061043894e-04
2.76120000000000e-01 2.25468916701102e-02 2.33311760697234e-04
2.77160000000000e-01 2.17817631482296e-02 2.25818403392057e-04
2.78200000000000e-01 2.10425992543591e-02 2.18564174182078e-04
2.79240000000000e-01 2.03285188791313e-02 2.11541502891220e-04
2.80280000000000e-01 1.96386708136159e-02 2.04743056551347e-04
2.81320000000000e-01 1.89722327346483e-02 1.98161732069302e-04
2.82360000000000e-01 1.83284102245912e-02 1.91790649116458e-04
2.83400000000000e-01 1.77064358243615e-02 1.85623143234240e-04
2.84440000000000e-01 1.71055681185914e-02 1.79652759149183e-04
2.85480000000000e-01 1.65250908518356e-02 1.73873244291364e-04
2.86520000000000e-01 1.59643120747695e-02 1.68278542510167e-04
2.87560000000000e-01 1.54225633193612e-02 1.62862787981498e-04
2.88600000000000e-01 1.48991988020341e-02 1.57620299300782e-04
2.89640000000000e-01 1.43935946538704e-02 1.52545573756218e-04
2.90680000000000e-01 1.39051481769371e-02 1.47633281776905e-04
2.91720000000000e-01 1.34332771258487e-02 1.42878261550634e-04
2.92760000000000e-01 1.29774190137109e-02 1.38275513806276e-04
2.93800000000000e-01 1.25370304416157e-02 1.33820196755858e-04
2.94840000000000e-01 1.21115864508912e-02 1.29507621191533e-04
2.95880000000000e-01 1.17005798973322e-02 1.25333245732818e-04
2.96920000000000e-01 1.13035208466667e-02 1.21292672219592e-04
2.97960000000000e-01 1.09199359905368e-02 1.17381641246476e-04
2.99000000000000e-01 1.05493680822985e-02 1.13596027834353e-04
3.00040000000000e-01 1.01913753919675e-02 1.09931837234903e-04
3.01080000000000e-01 9.84553117966206e-03 1.06385200864152e-04
3.02120000000000e-01 9.51142318691333e-03 1.02952372361139e-04
3.03160000000000e-01 9.18865314523921e-03 9.96297237679481e-05
3.04200000000000e-01 8.87683630139416e-03 9.64137418274196e-05
3.05240000000000e-01 8.57560095872982e-03 9.33010243950047e-05
3.06280000000000e-01 8.28458803411952e-03 9.02882769613024e-05
3.07320000000000e-01 8.00345062991856e-03 8.73723092819325e-05
3.08360000000000e-01 7.73185362045000e-03 8.45500321114943e-05
3.09400000000000e-01 7.46947325252309e-03 8.18184540384537e-05
3.10440000000000e-01 7.21599675950806e-03 7.91746784179044e-05
3.11480000000000e-01 6.97112198850729e-03 7.66159003992222e-05
3.12520000000000e-01 6.73455704017846e-03 7.41394040457336e-05
3.13560000000000e-01 6.50601992078018e-03 7.17425595436004e-05
3.14600000000000e-01 6.28523820602563e-03 6.94228204972052e-05
3.15640000000000e-01 6.07194871634317e-03 6.71777213084049e-05
3.16680000000000e-01 5.86589720315703e-03 6.50048746370916e-05
3.17720000000000e-01 5.66683804581408e-03 6.29019689405822e-05
3.18760000000000e-01 5.47453395879538e-03 6.08667660894348e-05
3.19800000000000e-01 5.28875570886344e-03 5.88970990573509e-05
3.20840000000000e-01 5.10928184180821e-03 5.69908696829017e-05
3.21880000000000e-01 4.93589841846582e-03 5.51460465008810e-05
3.22920000000000e-01 4.76839875969557e-03 5.33606626411533e-05
3.23960000000000e-01 4.60658320001115e-03 5.16328137929280e-05
3.25000000000000e-01 4.45025884957234e-03 4.99606562324543e-05
3.26040000000000e-01 4.29923936425353e-03 4.83424049121939e-05
3.27080000000000e-01 4.15334472351497e-03 4.67763316095785e-05
3.28120000000000e-01 4.01240101581196e-03 4.52607631335287e-05
