Energy (eV)          EEDF (eV^-(3/2))     First Anisotropy
8.30000000000000e-02 5.75851539563871e-02 5.53021377846334e-05
2.49000000000000e-01 5.62747614327744e-02 9.05850554913318e-05
4.15000000000000e-01 5.49941878546290e-02 1.17652398581419e-04
5.81000000000000e-01 5.37427546699247e-02 1.37077627211440e-04
7.47000000000000e-01 5.25197987675812e-02 1.52362717542185e-04
9.13000000000000e-01 5.13246721260980e-02 1.64865239747099e-04
1.07900000000000e+00 5.01567414701800e-02 1.75304394756223e-04
1.24500000000000e+00 4.90153879351772e-02 1.84124291142280e-04
1.41100000000000e+00 4.79000067391596e-02 1.91625822393888e-04
1.57700000000000e+00 4.68100068624549e-02 1.98026027907960e-04
1.74300000000000e+00 4.57448107344778e-02 2.03488708896391e-04
1.90900000000000e+00 4.47038539276867e-02 2.08141791932860e-04
2.07500000000000e+00 4.36865848585036e-02 2.12087895812218e-04
2.24100000000000e+00 4.26924644950403e-02 2.15411123326159e-04
2.40700000000000e+00 4.17209660714759e-02 2.18181621747480e-04
2.57300000000000e+00 4.07715748089327e-02 2.20458756889999e-04
2.73900000000000e+00 3.98437876427052e-02 2.22293389508900e-04
2.90500000000000e+00 3.89371129556952e-02 2.23729550074547e-04
3.07100000000000e+00 3.80510703179129e-02 2.24805698281070e-04
3.23700000000000e+00 3.71851902319064e-02 2.25555688546370e-04
3.40300000000000e+00 3.63390138839834e-02 2.26009522685226e-04
3.56900000000000e+00 3.55120929010947e-02 2.26193945481173e-04
3.73500000000000e+00 3.47039891132494e-02 2.26132922261403e-04
3.90100000000000e+00 3.39142743213371e-02 2.25848026458498e-04
4.06700000000000e+00 3.31425300702330e-02 2.25358757539473e-04
4.23300000000000e+00 3.23883474270662e-02 2.24682804381910e-04
4.39900000000000e+00 3.16513267645342e-02 2.23836265416167e-04
4.56500000000000e+00 3.09310775491477e-02 2.22833834141373e-04
4.73100000000000e+00 3.02272181342937e-02 2.21688956639878e-04
4.89700000000000e+00 2.95393755580091e-02 2.20413966244852e-04
5.06300000000000e+00 2.88671853453541e-02 2.19020199412744e-04
5.22900000000000e+00 2.82102913152843e-02 2.17518096015350e-04
5.39500000000000e+00 2.75683453919170e-02 2.15917286624331e-04
5.56100000000000e+00 2.69410074200919e-02 2.14226668864107e-04
5.72700000000000e+00 2.63279449851299e-02 2.12454474520740e-04
5.89300000000000e+00 2.57288332366919e-02 2.10608328788499e-04
6.05900000000000e+00 2.51433547166476e-02 2.08695302792804e-04
6.22500000000000e+00 2.45711991908595e-02 2.06721960333880e-04
6.39100000000000e+00 2.40120634847963e-02 2.04694399638855e-04
6.55700000000000e+00 2.34656513228860e-02 2.02618290783043e-04
6.72300000000000e+00 2.29316731715252e-02 2.00498909337526e-04
6.88900000000000e+00 2.24098460856603e-02 1.98341166715111e-04
7.05500000000000e+00 2.18998935588608e-02 1.96149637616587e-04
7.22100000000000e+00 2.14015453768031e-02 1.93928584920917e-04
7.38700000000000e+00 2.09145374740894e-02 1.91681982314543e-04
7.55300000000000e+00 2.04386117943240e-02 1.89413534914239e-04
7.71900000000000e+00 1.99735161533745e-02 1.87126698103782e-04
7.88500000000000e+00 1.95190041057437e-02 1.84824694775774e-04
8.05100000000000e+00 1.90748348139829e-02 1.82510531145396e-04
8.21700000000000e+00 1.86407729210769e-02 1.80187011282006e-04
8.38300000000000e+00 1.82165884257322e-02 1.77856750486563e-04
8.54900000000000e+00 1.78020565605038e-02 1.75522187627578e-04
8.71500000000000e+00 1.73969576726954e-02 1.73185596535047e-04
8.88100000000000e+00 1.70010771079694e-02 1.70849096540388e-04
9.04700000000000e+00 1.66142050966051e-02 1.68514662240555e-04
9.21300000000000e+00 1.62361366423465e-02 1.66184132555884e-04
9.37900000000000e+00 1.58666714137778e-02 1.63859219143697e-04
9.54500000000000e+00 1.55056136381721e-02 1.61541514223188e-04
9.71100000000000e+00 1.51527719977548e-02 1.59232497861302e-04
9.87700000000000e+00 1.48079595283280e-02 1.56933544764308e-04
1.00430000000000e+01 1.44709935202014e-02 1.54645930615315e-04
1.02090000000000e+01 1.41416954213783e-02 1.52370837993992e-04
1.03750000000000e+01 1.38198907429438e-02 1.50109361911323e-04
1.05410000000000e+01 1.35054089666068e-02 1.47862514989108e-04
1.07070000000000e+01 1.31980834543450e-02 1.45631232311183e-04
1.08730000000000e+01 1.28977513601072e-02 1.43416375970845e-04
1.10390000000000e+01 1.26042535435234e-02 1.41218739336835e-04
1.12050000000000e+01 1.23174344855802e-02 1.39039051058206e-04
1.13710000000000e+01 1.20371422062134e-02 1.36877978826674e-04
1.15370000000000e+01 1.17632281837770e-02 1.34736132913497e-04
1.17030000000000e+01 1.14955472763443e-02 1.32614069496448e-04
1.18690000000000e+01 1.12339576447999e-02 1.30512293791195e-04
1.20350000000000e+01 1.09783206776816e-02 1.28431263000242e-04
1.22010000000000e+01 1.07285009177333e-02 1.26371389091550e-04
1.23670000000000e+01 1.04843659901279e-02 1.24333041417961e-04
1.25330000000000e+01 1.02457865323253e-02 1.22316549187732e-04
1.26990000000000e+01 1.00126361255248e-02 1.20322203795671e-04
1.28650000000000e+01 9.78479122767868e-03 1.18350261023680e-04
1.30310000000000e+01 9.56213110802916e-03 1.16400943118845e-04
1.31970000000000e+01 9.34453778313577e-03 1.14474440756591e-04
1.33630000000000e+01 9.13189595435798e-03 1.12570914895936e-04
1.35290000000000e+01 8.92409294676057e-03 1.10690498533336e-04
1.36950000000000e+01 8.72101864940935e-03 1.08833298361164e-04
1.38610000000000e+01 8.52256545702541e-03 1.06999396336459e-04
1.40270000000000e+01 8.32862821296707e-03 1.05188851165183e-04
1.41930000000000e+01 8.13910415350938e-03 1.03401699706889e-04
1.43590000000000e+01 7.95389285339150e-03 1.01637958304357e-04
1.45250000000000e+01 7.77289617260326e-03 9.98976240424581e-05
1.46910000000000e+01 7.59601820438259e-03 9.81806759402481e-05
1.48570000000000e+01 7.42316522439631e-03 9.64870760800096e-05
1.50230000000000e+01 7.25424564107737e-03 9.48167706767402e-05
1.51890000000000e+01 7.08916994709217e-03 9.31696910913581e-05
1.53550000000000e+01 6.92785067191230e-03 9.15457547907039e-05
1.55210000000000e+01 6.77020233546557e-03 8.99448662572137e-05
1.56870000000000e+01 6.61614140284167e-03 8.83669178509703e-05
1.58530000000000e+01 6.46558624002861e-03 8.68117906266753e-05
1.60190000000000e+01 6.31845707065637e-03 8.52793551079391e-05
1.61850000000000e+01 6.17467593372489e-03 8.37694720211360e-05
1.63510000000000e+01 6.03416664229400e-03 8.22819929909381e-05
1.65170000000000e+01 5.89685474311338e-03 8.08167611995320e-05
1.66830000000000e+01 5.76266747717117e-03 7.93736120113982e-05
1.68490000000000e+01 5.63153374114032e-03 7.79523735654263e-05
1.70150000000000e+01 5.50338404970227e-03 7.65528673360379e-05
1.71810000000000e+01 5.37815049872801e-03 7.51749086649028e-05
1.73470000000000e+01 5.25576672929687e-03 7.38183072647408e-05
1.75130000000000e+01 5.13616789253427e-03 7.24828676966173e-05
1.76790000000000e+01 5.01929061524942e-03 7.11683898220720e-05
1.78450000000000e+01 4.90507296635511e-03 6.98746692313382e-05
1.80110000000000e+01 4.79345442405153e-03 6.86014976488448e-05
1.81770000000000e+01 4.68437584375696e-03 6.73486633171385e-05
1.83430000000000e+01 4.57777942676813e-03 6.61159513602955e-05
1.85090000000000e+01 4.47360868963374e-03 6.49031441278335e-05
1.86750000000000e+01 4.37180843422499e-03 6.37100215200840e-05
1.88410000000000e+01 4.27232471848706e-03 6.25363612959424e-05
1.90070000000000e+01 4.17510482785627e-03 6.13819393638566e-05
1.91730000000000e+01 4.08009724732761e-03 6.02465300568768e-05
1.93390000000000e+01 3.98725163415787e-03 5.91299063925446e-05
1.95050000000000e+01 3.89651879119000e-03 5.80318403183528e-05
1.96710000000000e+01 3.80785064078442e-03 5.69521029434943e-05
1.98370000000000e+01 3.72120019934360e-03 5.58904647575512e-05
2.00030000000000e+01 3.63652155241632e-03 5.48466958367641e-05
2.01690000000000e+01 3.55376983036847e-03 5.38205660384890e-05
2.03350000000000e+01 3.47290118460745e-03 5.28118451844042e-05
2.05010000000000e+01 3.39387276434761e-03 5.18203032330160e-05
2.06670000000000e+01 3.31664269390449e-03 5.08457104419851e-05
2.08330000000000e+01 3.24117005050556e-03 4.98878375207650e-05
2.09990000000000e+01 3.16741484260613e-03 4.89464557740143e-05
2.11650000000000e+01 3.09533798869847e-03 4.80213372362362e-05
2.13310000000000e+01 3.02490129660332e-03 4.71122547980717e-05
2.14970000000000e+01 2.95606744323254e-03 4.62189823246464e-05
2.16630000000000e+01 2.88879995481232e-03 4.53412947663568e-05
2.18290000000000e+01 2.82306318755636e-03 4.44789682624665e-05
2.19950000000000e+01 2.75882230877896e-03 4.36317802378580e-05
2.21610000000000e+01 2.69604327843779e-03 4.27995094932759e-05
2.23270000000000e+01 2.63469283109670e-03 4.19819362893785e-05
2.24930000000000e+01 2.57473845829901e-03 4.11788424249035e-05
2.26590000000000e+01 2.51614839134189e-03 4.03900113092295e-05
2.28250000000000e+01 2.45889158444269e-03 3.96152280296113e-05
2.29910000000000e+01 2.40293769828838e-03 3.88542794133569e-05
2.31570000000000e+01 2.34825708395930e-03 3.81069540851903e-05
2.33230000000000e+01 2.29482076721876e-03 3.73730425200391e-05
2.34890000000000e+01 2.24260043316015e-03 3.66523370914737e-05
2.36550000000000e+01 2.19156841120335e-03 3.59446321160231e-05
2.38210000000000e+01 2.14169766043268e-03 3.52497238935625e-05
2.39870000000000e+01 2.09296175526833e-03 3.45674107439778e-05
2.41530000000000e+01 2.04533487146404e-03 3.38974930402971e-05
2.43190000000000e+01 1.99879177242322e-03 3.32397732384599e-05
2.44850000000000e+01 1.95330779582663e-03 3.25940559039067e-05
2.46510000000000e+01 1.90885884056422e-03 3.19601477351441e-05
2.48170000000000e+01 1.86542135396443e-03 3.13378575844476e-05
2.49830000000000e+01 1.82297231931404e-03 3.07269964758480e-05
2.51490000000000e+01 1.78148924366210e-03 3.01273776205421e-05
2.53150000000000e+01 1.74095014590128e-03 2.95388164298691e-05
2.54810000000000e+01 1.70133354512049e-03 2.89611305259799e-05
2.56470000000000e+01 1.66261844922262e-03 2.83941397503199e-05
2.58130000000000e+01 1.62478434380111e-03 2.78376661700447e-05
2.59790000000000e+01 1.58781118126985e-03 2.72915340824858e-05
2.61450000000000e+01 1.55167937024027e-03 2.67555700177696e-05
2.63110000000000e+01 1.51636976514025e-03 2.62296027396922e-05
2.64770000000000e+01 1.48186365606927e-03 2.57134632449495e-05
2.66430000000000e+01 1.44814275888433e-03 2.52069847608150e-05
2.68090000000000e+01 1.41518920551155e-03 2.47100027413575e-05
2.69750000000000e+01 1.38298553447822e-03 2.42223548622789e-05
2.71410000000000e+01 1.35151468166029e-03 2.37438810144555e-05
2.73070000000000e+01 1.32075997124037e-03 2.32744232962616e-05
2.74730000000000e+01 1.29070510687159e-03 2.28138260047487e-05
2.76390000000000e+01 1.26133416304242e-03 2.23619356257479e-05
2.78050000000000e+01 1.23263157663806e-03 2.19186008229664e-05
2.79710000000000e+01 1.20458213869383e-03 2.14836724261415e-05
2.81370000000000e+01 1.17717098633622e-03 2.10570034183112e-05
2.83030000000000e+01 1.15038359490736e-03 2.06384489222608e-05
2.84690000000000e+01 1.12420577026861e-03 2.02278661862003e-05
2.86350000000000e+01 1.09862364127942e-03 1.98251145687303e-05
2.88010000000000e+01 1.07362365244725e-03 1.94300555231381e-05
2.89670000000000e+01 1.04919255674475e-03 1.90425525810778e-05
2.91330000000000e+01 1.02531740859040e-03 1.86624713356823e-05
2.92990000000000e+01 1.00198555698894e-03 1.82896794241444e-05
2.94650000000000e+01 9.79184638827784e-04 1.79240465098117e-05
2.96310000000000e+01 9.56902572326084e-04 1.75654442638379e-05
2.97970000000000e+01 9.35127550632788e-04 1.72137463464215e-05
2.99630000000000e+01 9.13848035570423e-04 1.68688283876735e-05
3.01290000000000e+01 8.93052751521232e-04 1.65305679681460e-05
3.02950000000000e+01 8.72730679452429e-04 1.61988445990523e-05
3.04610000000000e+01 8.52871051077424e-04 1.58735397022123e-05
3.06270000000000e+01 8.33463343149905e-04 1.55545365897511e-05
3.07930000000000e+01 8.14497271887770e-04 1.52417204435786e-05
3.09590000000000e+01 7.95962787523939e-04 1.49349782946757e-05
3.11250000000000e+01 7.77850068981173e-04 1.46341990022139e-05
3.12910000000000e+01 7.60149518668068e-04 1.43392732325313e-05
3.14570000000000e+01 7.42851757393469e-04 1.40500934379868e-05
3.16230000000000e+01 7.25947619396613e-04 1.37665538357151e-05
3.17890000000000e+01 7.09428147490364e-04 1.34885503863014e-05
3.19550000000000e+01 6.93284588314965e-04 1.32159807723979e-05
3.21210000000000e+01 6.77508387699798e-04 1.29487443772958e-05
3.22870000000000e+01 6.62091186130686e-04 1.26867422634743e-05
3.24530000000000e+01 6.47024814320346e-04 1.24298771511397e-05
3.26190000000000e+01 6.32301288879634e-04 1.21780533967730e-05
3.27850000000000e+01 6.17912808087296e-04 1.19311769716976e-05
3.29510000000000e+01 6.03851747755982e-04 1.16891554406827e-05
3.31170000000000e+01 5.90110657192334e-04 1.14518979405947e-05
3.32830000000000e+01 5.76682255248996e-04 1.12193151591090e-05
3.34490000000000e+01 5.63559426466479e-04 1.09913193134934e-05
3.36150000000000e+01 5.50735217302803e-04 1.07678241294748e-05
3.37810000000000e+01 5.38202832448952e-04 1.05487448201975e-05
3.39470000000000e+01 5.25955631228162e-04 1.03339980652849e-05
3.41130000000000e+01 5.13987124077152e-04 1.01235019900117e-05
3.42790000000000e+01 5.02290969107427e-04 9.91717614459611e-06
3.44450000000000e+01 4.90860968744826e-04 9.71494148361992e-06
3.46110000000000e+01 4.79691066445547e-04 9.51672034558278e-06
3.47770000000000e+01 4.68775343486895e-04 9.32243643259836e-06
3.49430000000000e+01 4.58108015831064e-04 9.13201479023821e-06
3.51090000000000e+01 4.47683431060280e-04 8.94538178753039e-06
3.52750000000000e+01 4.37496065381692e-04 8.76246509711666e-06
3.54410000000000e+01 4.27540520700418e-04 8.58319367557469e-06
3.56070000000000e+01 4.17811521759194e-04 8.40749774390908e-06
3.57730000000000e+01 4.08303913343114e-04 8.23530876821623e-06
3.59390000000000e+01 3.99012657547979e-04 8.06655944052658e-06
3.61050000000000e+01 3.89932831110803e-04 7.90118365982761e-06
3.62710000000000e+01 3.81059622801072e-04 7.73911651327184e-06
3.64370000000000e+01 3.72388330871359e-04 7.58029425757183e-06
3.66030000000000e+01 3.63914360565956e-04 7.42465430058541e-06
3.67690000000000e+01 3.55633221686201e-04 7.27213518309363e-06
3.69350000000000e+01 3.47540526211206e-04 7.12267656077299e-06
3.71010000000000e+01 3.39631985972722e-04 6.97621918636492e-06
3.72670000000000e+01 3.31903410382924e-04 6.83270489204320e-06
3.74330000000000e+01 3.24350704213894e-04 6.69207657198113e-06
3.75990000000000e+01 3.16969865427637e-04 6.55427816511990e-06
3.77650000000000e+01 3.09756983055473e-04 6.41925463813910e-06
3.79310000000000e+01 3.02708235125695e-04 6.28695196862991e-06
3.80970000000000e+01 2.95819886638367e-04 6.15731712847167e-06
3.82630000000000e+01 2.89088287586228e-04 6.03029806741324e-06
3.84290000000000e+01 2.82509871020614e-04 5.90584369685835e-06
3.85950000000000e+01 2.76081151161401e-04 5.78390387385494e-06
3.87610000000000e+01 2.69798721549955e-04 5.66442938528958e-06
3.89270000000000e+01 2.63659253244114e-04 5.54737193228636e-06
3.90930000000000e+01 2.57659493054241e-04 5.43268411480997e-06
3.92590000000000e+01 2.51796261819422e-04 5.32031941647218e-06
3.94250000000000e+01 2.46066452722890e-04 5.21023218954191e-06
3.95910000000000e+01 2.40467029645775e-04 5.10237764015784e-06
3.97570000000000e+01 2.34995025558325e-04 4.99671181374295e-06
3.99230000000000e+01 2.29647540947733e-04 4.89319158062038e-06
4.00890000000000e+01 2.24421742281738e-04 4.79177462182922e-06
4.02550000000000e+01 2.19314860507187e-04 4.69241941513981e-06
4.04210000000000e+01 2.14324189582771e-04 4.59508522126689e-06
4.05870000000000e+01 2.09447085045140e-04 4.49973207028010e-06
4.07530000000000e+01 2.04680962607649e-04 4.40632074820993e-06
4.09190000000000e+01 2.00023296791000e-04 4.31481278384828e-06
4.10850000000000e+01 1.95471619585032e-04 4.22517043574202e-06
4.12510000000000e+01 1.91023519140970e-04 4.13735667937838e-06
4.14170000000000e+01 1.86676638493431e-04 4.05133519456055e-06
4.15830000000000e+01 1.82428674311513e-04 3.96707035297183e-06
4.17490000000000e+01 1.78277375678303e-04 3.88452720592717e-06
4.19150000000000e+01 1.74220542898156e-04 3.80367147230999e-06
4.20810000000000e+01 1.70256026331121e-04 3.72446952669287e-06
4.22470000000000e+01 1.66381725253883e-04 3.64688838764077e-06
4.24130000000000e+01 1.62595586746631e-04 3.57089570619443e-06
4.25790000000000e+01 1.58895604605256e-04 3.49645975453227e-06
4.27450000000000e+01 1.55279818278297e-04 3.42354941480976e-06
4.29110000000000e+01 1.51746311828082e-04 3.35213416817350e-06
4.30770000000000e+01 1.48293212915512e-04 3.28218408394894e-06
4.32430000000000e+01 1.44918691807940e-04 3.21366980899919e-06
4.34090000000000e+01 1.41620960409632e-04 3.14656255725357e-06
4.35750000000000e+01 1.38398271314284e-04 3.08083409940419e-06
4.37410000000000e+01 1.35248916879111e-04 3.01645675276780e-06
4.39070000000000e+01 1.32171228319994e-04 2.95340337131193e-06
4.40730000000000e+01 1.29163574827223e-04 2.89164733584298e-06
4.42390000000000e+01 1.26224362701364e-04 2.83116254435434e-06
4.44050000000000e+01 1.23352034508783e-04 2.77192340253269e-06
4.45710000000000e+01 1.20545068256396e-04 2.71390481442051e-06
4.47370000000000e+01 1.17801976585190e-04 2.65708217323283e-06
4.49030000000000e+01 1.15121305982100e-04 2.60143135232643e-06
4.50690000000000e+01 1.12501636009819e-04 2.54692869631942e-06
4.52350000000000e+01 1.09941578554136e-04 2.49355101235919e-06
4.54010000000000e+01 1.07439777088400e-04 2.44127556153700e-06
4.55670000000000e+01 1.04994905954721e-04 2.39008005044723e-06
4.57330000000000e+01 1.02605669661529e-04 2.33994262288927e-06
4.58990000000000e+01 1.00270802197118e-04 2.29084185171016e-06
4.60650000000000e+01 9.79890663588090e-05 2.24275673078598e-06
4.62310000000000e+01 9.57592530973788e-05 2.19566666714038e-06
4.63970000000000e+01 9.35801808764097e-05 2.14955147319817e-06
4.65630000000000e+01 9.14506950462135e-05 2.10439135917193e-06
4.67290000000000e+01 8.93696672320046e-05 2.06016692557992e-06
4.68950000000000e+01 8.73359947359955e-05 2.01685915589349e-06
4.70610000000000e+01 8.53485999530978e-05 1.97444940931205e-06
4.72270000000000e+01 8.34064297999193e-05 1.93291941366378e-06
4.73930000000000e+01 8.15084551567546e-05 1.89225125843018e-06
4.75590000000000e+01 7.96536703222743e-05 1.85242738789272e-06
4.77250000000000e+01 7.78410924806219e-05 1.81343059439979e-06
4.78910000000000e+01 7.60697611806387e-05 1.77524401175203e-06
4.80570000000000e+01 7.43387378269383e-05 1.73785110870458e-06
4.82230000000000e+01 7.26471051825624e-05 1.70123568258406e-06
4.83890000000000e+01 7.09939668829545e-05 1.66538185301895e-06
4.85550000000000e+01 6.93784469609923e-05 1.63027405578130e-06
4.87210000000000e+01 6.77996893828299e-05 1.59589703673830e-06
4.88870000000000e+01 6.62568575943007e-05 1.56223584591187e-06
4.90530000000000e+01 6.47491340776437e-05 1.52927583164473e-06
4.92190000000000e+01 6.32757199183153e-05 1.49700263487113e-06
4.93850000000000e+01 6.18358343816602e-05 1.46540218349063e-06
4.95510000000000e+01 6.04287144992141e-05 1.43446068684358e-06
4.97170000000000e+01 5.90536146644212e-05 1.40416463028613e-06
4.98830000000000e+01 5.77098062375511e-05 1.37450076986367e-06
5.00490000000000e+01 5.63965771596063e-05 1.34545612708100e-06
5.02150000000000e+01 5.51132315750156e-05 1.31701798376761e-06
5.03810000000000e+01 5.38590894629127e-05 1.28917387703646e-06
5.05470000000000e+01 5.26334862768063e-05 1.26191159433488e-06
5.07130000000000e+01 5.14357725924493e-05 1.23521916858617e-06
5.08790000000000e+01 5.02653137637207e-05 1.20908487342006e-06
5.10450000000000e+01 4.91214895863389e-05 1.18349721849102e-06
5.12110000000000e+01 4.80036939692265e-05 1.15844494488259e-06
5.13770000000000e+01 4.69113346133545e-05 1.13391702059650e-06
5.15430000000000e+01 4.58438326978938e-05 1.10990263612522e-06
5.17090000000000e+01 4.48006225735088e-05 1.08639120010630e-06
5.18750000000000e+01 4.37811514626307e-05 1.06337233505736e-06
5.20410000000000e+01 4.27848791665504e-05 1.04083587319032e-06
5.22070000000000e+01 4.18112777791782e-05 1.01877185230347e-06
5.23730000000000e+01 4.08598314073151e-05 9.97170511750085e-07
