Energy (eV)          EEDF (eV^-(3/2))     First Anisotropy
2.61000000000000e-01 5.23406605249508e-02 8.50945186030485e-05
7.83000000000000e-01 4.88502472943479e-02 1.36288179121144e-04
1.30500000000000e+00 4.55925973571036e-02 1.69054547392697e-04
1.82700000000000e+00 4.25521885537616e-02 1.88112254022622e-04
2.34900000000000e+00 3.97145338426910e-02 1.99688776695525e-04
2.87100000000000e+00 3.70661122717464e-02 2.06361407862607e-04
3.39300000000000e+00 3.45943045531821e-02 2.09563973587325e-04
3.91500000000000e+00 3.22873329348476e-02 2.10212891529498e-04
4.43700000000000e+00 3.01342050811599e-02 2.08942471361732e-04
4.95900000000000e+00 2.81246616964551e-02 2.06214599517906e-04
5.48100000000000e+00 2.62491276411531e-02 2.02377341397924e-04
6.00300000000000e+00 2.44986663078118e-02 1.97699375085223e-04
6.52500000000000e+00 2.28649370396808e-02 1.92391698175287e-04
7.04700000000000e+00 2.13401553888614e-02 1.86622072217046e-04
7.56900000000000e+00 1.99170560247083e-02 1.80525054504973e-04
8.09100000000000e+00 1.85888581157391e-02 1.74209209765463e-04
8.61300000000000e+00 1.73492330201014e-02 1.67762442996294e-04
9.13500000000000e+00 1.61922741306484e-02 1.61256036228996e-04
9.65700000000000e+00 1.51124687309396e-02 1.54747764455834e-04
1.01790000000000e+01 1.41046717280645e-02 1.48284340587262e-04
1.07010000000000e+01 1.31640811371321e-02 1.41903360732105e-04
1.12230000000000e+01 1.22862152006127e-02 1.35634870254504e-04
1.17450000000000e+01 1.14668910335091e-02 1.29502637233658e-04
1.22670000000000e+01 1.07022046926066e-02 1.23525196876738e-04
1.27890000000000e+01 9.98851257483344e-03 1.17716714341262e-04
1.33110000000000e+01 9.32241405609912e-03 1.12087701972204e-04
1.38330000000000e+01 8.70073528788681e-03 1.06645618663667e-04
1.43550000000000e+01 8.12051407439373e-03 1.01395372946284e-04
1.48770000000000e+01 7.57898575816141e-03 9.63397468357986e-05
1.53990000000000e+01 7.07357004694336e-03 9.14797540188546e-05
1.59210000000000e+01 6.60185871904217e-03 8.68149432981400e-05
1.64430000000000e+01 6.16160414853415e-03 8.23436561594838e-05
1.69650000000000e+01 5.75070859570612e-03 7.80632457084245e-05
1.74870000000000e+01 5.36721421167502e-03 7.39702629448344e-05
1.80090000000000e+01 5.00929370956401e-03 7.00606153223498e-05
1.85310000000000e+01 4.67524165778478e-03 6.63297017162261e-05
1.90530000000000e+01 4.36346635394006e-03 6.27725272550784e-05
1.95750000000000e+01 4.07248224062677e-03 5.93838009258018e-05
2.00970000000000e+01 3.80090282700236e-03 5.61580184116328e-05
2.06190000000000e+01 3.54743408238683e-03 5.30895322514116e-05
2.11410000000000e+01 3.31086827042209e-03 5.01726110986055e-05
2.16630000000000e+01 3.09007819440926e-03 4.74014895997755e-05
2.21850000000000e+01 2.88401182640415e-03 4.47704101946077e-05
2.27070000000000e+01 2.69168729447932e-03 4.22736579560085e-05
2.32290000000000e+01 2.51218820426783e-03 3.99055894331705e-05
2.37510000000000e+01 2.34465927249667e-03 3.76606563281862e-05
2.42730000000000e+01 2.18830225170443e-03 3.55334247238742e-05
2.47950000000000e+01 2.04237212672508e-03 3.35185904838311e-05
2.53170000000000e+01 1.90617356481472e-03 3.16109913627614e-05
2.58390000000000e+01 1.77905760250691e-03 2.98056162937500e-05
2.63610000000000e+01 1.66041855340978e-03 2.80976122575597e-05
2.68830000000000e+01 1.54969112221128e-03 2.64822890858042e-05
2.74050000000000e+01 1.44634771114110e-03 2.49551225037455e-05
2.79270000000000e+01 1.34989590605520e-03 2.35117556784704e-05
2.84490000000000e+01 1.25987613016441e-03 2.21479995034376e-05
2.89710000000000e+01 1.17585945422753e-03 2.08598318201535e-05
2.94930000000000e+01 1.09744555277496e-03 1.96433957513832e-05
3.00150000000000e+01 1.02426079662450e-03 1.84949972973271e-05
3.05370000000000e+01 9.55956472600502e-04 1.74111023261358e-05
3.10590000000000e+01 8.92207121973659e-04 1.63883330726157e-05
3.15810000000000e+01 8.32708989704372e-04 1.54234642436601e-05
3.21030000000000e+01 7.77178577100562e-04 1.45134188155472e-05
3.26250000000000e+01 7.25351290993614e-04 1.36552635965295e-05
3.31470000000000e+01 6.76980182995991e-04 1.28462046178849e-05
3.36690000000000e+01 6.31834772833293e-04 1.20835824076308e-05
3.41910000000000e+01 5.89699950144128e-04 1.13648671932517e-05
3.47130000000000e+01 5.50374949515066e-04 1.06876540729246e-05
3.52350000000000e+01 5.13672393866876e-04 1.00496581887252e-05
3.57570000000000e+01 4.79417401633946e-04 9.44870993004921e-06
3.62790000000000e+01 4.47446753482747e-04 8.88275019090382e-06
3.68010000000000e+01 4.17608114598888e-04 8.34982570072763e-06
3.73230000000000e+01 3.89759308837096e-04 7.84808444491394e-06
3.78450000000000e+01 3.63767641275558e-04 7.37577118818219e-06
3.83670000000000e+01 3.39509265946720e-04 6.93122311130872e-06
3.88890000000000e+01 3.16868595731870e-04 6.51286556944409e-06
3.94110000000000e+01 2.95737751607769e-04 6.11920797826833e-06
3.99330000000000e+01 2.76016048621072e-04 5.74883983252954e-06
4.04550000000000e+01 2.57609516141288e-04 5.40042686004310e-06
4.09770000000000e+01 2.40430450106379e-04 5.07270731297004e-06
4.14990000000000e+01 2.24396995127508e-04 4.76448839711760e-06
4.20210000000000e+01 2.09432754461739e-04 4.47464283909057e-06
4.25430000000000e+01 1.95466425994285e-04 4.20210559034959e-06
4.30650000000000e+01 1.82431462495803e-04 3.94587066658301e-06
4.35870000000000e+01 1.70265754535925e-04 3.70498812025920e-06
4.41090000000000e+01 1.58911334542170e-04 3.47856114377984e-06
4.46310000000000e+01 1.48314100594111e-04 3.26574330029222e-06
4.51530000000000e+01 1.38423558636737e-04 3.06573587892784e-06
4.56750000000000e+01 1.29192581884685e-04 2.87778537100634e-06
4.61970000000000e+01 1.20577186270961e-04 2.70118106357065e-06
4.67190000000000e+01 1.12536320870180e-04 2.53525274649245e-06
4.72410000000000e+01 1.05031672297749e-04 2.37936852930141e-06
4.77630000000000e+01 9.80274821529629e-05 2.23293276384101e-06
4.82850000000000e+01 9.14903766361855e-05 2.09538406883238e-06
4.88070000000000e+01 8.53892075282491e-05 1.96619345243288e-06
4.93290000000000e+01 7.96949037743778e-05 1.84486252890193e-06
4.98510000000000e+01 7.43803329654531e-05 1.73092182553106e-06
5.03730000000000e+01 6.94201720566023e-05 1.62392917605512e-06
5.08950000000000e+01 6.47907867071069e-05 1.52346819683347e-06
5.14170000000000e+01 6.04701186667050e-05 1.42914684217272e-06
5.19390000000000e+01 5.64375806717020e-05 1.34059603525312e-06
5.24610000000000e+01 5.26739583500876e-05 1.25746837121820e-06
5.29830000000000e+01 4.91613186682527e-05 1.17943688908920e-06
5.35050000000000e+01 4.58829244830709e-05 1.10619390927204e-06
5.40270000000000e+01 4.28231547921986e-05 1.03744993353266e-06
5.45490000000000e+01 3.99674303026002e-05 9.72932604426748e-07
5.50710000000000e+01 3.73021439626445e-05 9.12385721280296e-07
5.55930000000000e+01 3.48145961267700e-05 8.55568309928027e-07
5.61150000000000e+01 3.24929340437885e-05 8.02253743526664e-07
5.66370000000000e+01 3.03260953804992e-05 7.52228911868635e-07
5.71590000000000e+01 2.83037555115140e-05 7.05293436729014e-07
5.76810000000000e+01 2.64162783241358e-05 6.61258930883467e-07
5.82030000000000e+01 2.46546703038872e-05 6.19948298537922e-07
5.87250000000000e+01 2.30105376819111e-05 5.81195075010982e-07
5.92470000000000e+01 2.14760464400600e-05 5.44842803607669e-07
5.97690000000000e+01 2.00438849831043e-05 5.10744447717937e-07
6.02910000000000e+01 1.87072293001985e-05 4.78761836265174e-07
6.08130000000000e+01 1.74597104496059e-05 4.48765140718665e-07
6.13350000000000e+01 1.62953842117519e-05 4.20632381969737e-07
6.18570000000000e+01 1.52087027660077e-05 3.94248965453859e-07
6.23790000000000e+01 1.41944882562485e-05 3.69507242980517e-07
6.29010000000000e+01 1.32479081192318e-05 3.46306099808977e-07
6.34230000000000e+01 1.23644520582380e-05 3.24550565581474e-07
6.39450000000000e+01 1.15399105522580e-05 3.04151447795621e-07
6.44670000000000e+01 1.07703547983259e-05 2.85024986565167e-07
6.49890000000000e+01 1.00521179914280e-05 2.67092529482694e-07
6.55110000000000e+01 9.38177785278683e-06 2.50280225459403e-07
6.60330000000000e+01 8.75614032327308e-06 2.34518736475990e-07
6.65550000000000e+01 8.17222434424560e-06 2.19742966234754e-07
6.70770000000000e+01 7.62724765330346e-06 2.05891804756602e-07
6.75990000000000e+01 7.11861352726893e-06 1.92907888017678e-07
6.81210000000000e+01 6.64389840923395e-06 1.80737371768876e-07
6.86430000000000e+01 6.20084036071506e-06 1.69329718727796e-07
6.91650000000000e+01 5.78732828389323e-06 1.58637498376656e-07
6.96870000000000e+01 5.40139186258429e-06 1.48616198641483e-07
7.02090000000000e+01 5.04119217401043e-06 1.39224048767665e-07
7.07310000000000e+01 4.70501292663941e-06 1.30421852744618e-07
7.12530000000000e+01 4.39125228234121e-06 1.22172832668192e-07
7.17750000000000e+01 4.09841522389610e-06 1.14442481463358e-07
7.22970000000000e+01 3.82510643148654e-06 1.07198424421973e-07
7.28190000000000e+01 3.57002363423062e-06 1.00410289040934e-07
7.33410000000000e+01 3.33195140507820e-06 9.40495826749938e-08
7.38630000000000e+01 3.10975536950337e-06 8.80895775458952e-08
7.43850000000000e+01 2.90237680039876e-06 8.25052026754613e-08
7.49070000000000e+01 2.70882757341721e-06 7.72729423348233e-08
7.54290000000000e+01 2.52818545872377e-06 7.23707406252278e-08
7.59510000000000e+01 2.35958972672413e-06 6.77779118278443e-08
7.64730000000000e+01 2.20223704683146e-06 6.34750561807929e-08
7.69950000000000e+01 2.05537765972989e-06 5.94439807612702e-08
7.75170000000000e+01 1.91831180489629e-06 5.56676251692227e-08
7.80390000000000e+01 1.79038638635785e-06 5.21299917265772e-08
7.85610000000000e+01 1.67099186079858e-06 4.88160799226169e-08
7.90830000000000e+01 1.55955933318686e-06 4.57118248517524e-08
7.96050000000000e+01 1.45555784608543e-06 4.28040394047216e-08
8.01270000000000e+01 1.35849184972752e-06 4.00803599882041e-08
8.06490000000000e+01 1.26789884080485e-06 3.75291955610130e-08
8.11710000000000e+01 1.18334715871627e-06 3.51396797874498e-08
8.16930000000000e+01 1.10443392877697e-06 3.29016261201323e-08
8.22150000000000e+01 1.03078314258766e-06 3.08054856356605e-08
8.27370000000000e+01 9.62043866417166e-07 2.88423074569122e-08
8.32590000000000e+01 8.97888569061633e-07 2.70037016055901e-08
8.37810000000000e+01 8.38011561212903e-07 2.52818041379051e-08
8.43030000000000e+01 7.82127538899854e-07 2.36692444250167e-08
8.48250000000000e+01 7.29970224062494e-07 2.21591144480751e-08
8.53470000000000e+01 6.81291095781345e-07 2.07449399854669e-08
8.58690000000000e+01 6.35858206116648e-07 1.94206535771654e-08
8.63910000000000e+01 5.93455074915061e-07 1.81805691579674e-08
8.69130000000000e+01 5.53879658317773e-07 1.70193582578745e-08
8.74350000000000e+01 5.16943386055163e-07 1.59320276739763e-08
8.79570000000000e+01 4.82470262940875e-07 1.49138985239356e-08
8.84790000000000e+01 4.50296030284054e-07 1.39605865965800e-08
8.90010000000000e+01 4.20267383224043e-07 1.30679839201914e-08
8.95230000000000e+01 3.92241240258252e-07 1.22322414738743e-08
9.00450000000000e+01 3.66084061482623e-07 1.14497529718872e-08
9.05670000000000e+01 3.41671212296228e-07 1.07171396550610e-08
9.10890000000000e+01 3.18886369538148e-07 1.00312360274139e-08
9.16110000000000e+01 2.97620967226987e-07 9.38907647982713e-09
9.21330000000000e+01 2.77773679262044e-07 8.78788274616802e-09
9.26550000000000e+01 2.59249936621323e-07 8.22505214056991e-09
9.31770000000000e+01 2.41961476755885e-07 7.69814652769420e-09
9.36990000000000e+01 2.25825923033507e-07 7.20488198073548e-09
9.42210000000000e+01 2.10766392227747e-07 6.74311908468675e-09
9.47430000000000e+01 1.96711128182167e-07 6.31085384497503e-09
9.52650000000000e+01 1.83593159904204e-07 5.90620916401445e-09
9.57870000000000e+01 1.71349982459540e-07 5.52742685051358e-09
9.63090000000000e+01 1.59923259146499e-07 5.17286012852655e-09
9.68310000000000e+01 1.49258543531379e-07 4.84096661526000e-09
9.73530000000000e+01 1.39305020020262e-07 4.53030173854850e-09
9.78750000000000e+01 1.30015261731170e-07 4.23951256669651e-09
9.83970000000000e+01 1.21345004512875e-07 3.96733202506268e-09
9.89190000000000e+01 1.13252936033581e-07 3.71257347533810e-09
9.94410000000000e+01 1.05700498934553e-07 3.47412563495046e-09
9.99630000000000e+01 9.86517071107153e-08 3.25094781541644e-09
1.00485000000000e+02 9.20729742428583e-08 3.04206545977042e-09
1.01007000000000e+02 8.59329537644184e-08 2.84656596042387e-09
1.01529000000000e+02 8.02023895003093e-08 2.66359473996142e-09
1.02051000000000e+02 7.48539762661196e-08 2.49235157846123e-09
1.02573000000000e+02 6.98622297634560e-08 2.33208717194171e-09
1.03095000000000e+02 6.52033651515053e-08 2.18209990749080e-09
1.03617000000000e+02 6.08551837162294e-08 2.04173284152819e-09
1.04139000000000e+02 5.67969670971886e-08 1.91037086849131e-09
1.04661000000000e+02 5.30093785680056e-08 1.78743806802411e-09
1.05183000000000e+02 4.94743709000831e-08 1.67239521948802e-09
1.05705000000000e+02 4.61751003705661e-08 1.56473747330901e-09
1.06227000000000e+02 4.30958465048066e-08 1.46399216932662e-09
1.06749000000000e+02 4.02219371709204e-08 1.36971679292276e-09
1.07271000000000e+02 3.75396786695217e-08 1.28149706028200e-09
1.07793000000000e+02 3.50362904855260e-08 1.19894512467398e-09
1.08315000000000e+02 3.26998443911240e-08 1.12169789615396e-09
1.08837000000000e+02 3.05192076097628e-08 1.04941546755186e-09
1.09359000000000e+02 2.84839897703192e-08 9.81779640065122e-10
1.09881000000000e+02 2.65844933987115e-08 9.18492542188115e-10
1.10403000000000e+02 2.48116677110511e-08 8.59275336102400e-10
1.10925000000000e+02 2.31570654881636e-08 8.03867006019644e-10
1.11447000000000e+02 2.16128028259967e-08 7.52023223313413e-10
1.11969000000000e+02 2.01715215701303e-08 7.03515283599359e-10
1.12491000000000e+02 1.88263542553957e-08 6.58129111226440e-10
1.13013000000000e+02 1.75708913835480e-08 6.15664326926101e-10
1.13535000000000e+02 1.63991508830744e-08 5.75933374633008e-10
1.14057000000000e+02 1.53055496056190e-08 5.38760703740981e-10
1.14579000000000e+02 1.42848767232116e-08 5.03982003292221e-10
1.15101000000000e+02 1.33322688995395e-08 4.71443484817866e-10
1.15623000000000e+02 1.24431871169600e-08 4.41001210754056e-10
1.16145000000000e+02 1.16133950488372e-08 4.12520465550970e-10
1.16667000000000e+02 1.08389388741514e-08 3.85875166773663e-10
1.17189000000000e+02 1.01161284381997e-08 3.60947313663361e-10
1.17711000000000e+02 9.44151966962400e-09 3.37626470787244e-10
1.18233000000000e+02 8.81189816998421e-09 3.15809284554133e-10
1.18755000000000e+02 8.22426389768495e-09 2.95399030513468e-10
1.19277000000000e+02 7.67581687327706e-09 2.76305189486261e-10
1.19799000000000e+02 7.16394383802176e-09 2.58443050699734e-10
1.20321000000000e+02 6.68620580214791e-09 2.41733340212685e-10
1.20843000000000e+02 6.24032642347197e-09 2.26101873026726e-10
1.21365000000000e+02 5.82418116100654e-09 2.11479227379870e-10
1.21887000000000e+02 5.43578715187636e-09 1.97800439813892e-10
1.22409000000000e+02 5.07329376330691e-09 1.85004719695908e-10
1.22931000000000e+02 4.73497377466745e-09 1.73035181958014e-10
1.23453000000000e+02 4.41921514755230e-09 1.61838596897015e-10
1.23975000000000e+02 4.12451334468633e-09 1.51365155949521e-10
1.24497000000000e+02 3.84946416105537e-09 1.41568252426313e-10
1.25019000000000e+02 3.59275703310318e-09 1.32404276254270e-10
1.25541000000000e+02 3.35316879411433e-09 1.23832421834352e-10
1.26063000000000e+02 3.12955784602850e-09 1.15814508180669e-10
1.26585000000000e+02 2.92085871991585e-09 1.08314810558572e-10
1.27107000000000e+02 2.72607699919498e-09 1.01299902889267e-10
1.27629000000000e+02 2.54428458140351e-09 9.47385102349533e-11
1.28151000000000e+02 2.37461525594443e-09 8.86013707219624e-11
1.28673000000000e+02 2.21626057673687e-09 8.28611063002029e-11
1.29195000000000e+02 2.06846601010508e-09 7.74921017753827e-11
1.29717000000000e+02 1.93052733955119e-09 7.24703915862855e-11
1.30239000000000e+02 1.80178731028086e-09 6.77735538329090e-11
1.30761000000000e+02 1.68163249749359e-09 6.33806110926747e-11
1.31283000000000e+02 1.56949038351576e-09 5.92719375913359e-11
1.31805000000000e+02 1.46482662984921e-09 5.54291723227830e-11
1.32327000000000e+02 1.36714253113730e-09 5.18351377377503e-11
1.32849000000000e+02 1.27597263891694e-09 4.84737636456110e-11
1.33371000000000e+02 1.19088254383417e-09 4.53300159960982e-11
1.33893000000000e+02 1.11146680575590e-09 4.23898302290011e-11
1.34415000000000e+02 1.03734702191524e-09 3.96400488997514e-11
1.34937000000000e+02 9.68170023885308e-10 3.70683633074301e-11
1.35459000000000e+02 9.03606194790492e-10 3.46632588691486e-11
1.35981000000000e+02 8.43347898736926e-10 3.24139640010774e-11
1.36503000000000e+02 7.87108014978685e-10 3.03104022816880e-11
1.37025000000000e+02 7.34618569835253e-10 2.83431476870863e-11
1.37547000000000e+02 6.85629459841552e-10 2.65033827017166e-11
1.38069000000000e+02 6.39907260046586e-10 2.47828591202782e-11
1.38591000000000e+02 5.97234111782419e-10 2.31738613684460e-11
1.39113000000000e+02 5.57406684603903e-10 2.16691721809961e-11
1.39635000000000e+02 5.20235207452966e-10 2.02620404862484e-11
1.40157000000000e+02 4.85542564431126e-10 1.89461513553870e-11
1.40679000000000e+02 4.53163450871725e-10 1.77155978842605e-11
1.41201000000000e+02 4.22943585690726e-10 1.65648548837234e-11
1.41723000000000e+02 3.94738976263033e-10 1.54887542625080e-11
1.42245000000000e+02 3.68415232321620e-10 1.44824619940303e-11
1.42767000000000e+02 3.43846925610279e-10 1.35414565654837e-11
1.43289000000000e+02 3.20916992238876e-10 1.26615088140759e-11
1.43811000000000e+02 2.99516174893401e-10 1.18386630613531e-11
1.44333000000000e+02 2.79542502243068e-10 1.10692194622567e-11
1.44855000000000e+02 2.60900803063899e-10 1.03497174908948e-11
1.45377000000000e+02 2.43502252763695e-10 9.67692049000660e-12
1.45899000000000e+02 2.27263950147645e-10 9.04780121577556e-12
1.46421000000000e+02 2.12108522407937e-10 8.45952831402585e-12
1.46943000000000e+02 1.97963756455214e-10 7.90945366793587e-12
1.47465000000000e+02 1.84762254835229e-10 7.39510056124032e-12
1.47987000000000e+02 1.72441114591202e-10 6.91415260448376e-12
1.48509000000000e+02 1.60941627541699e-10 6.46444337525163e-12
1.49031000000000e+02 1.50209000545932e-10 6.04394672645239e-12
1.49553000000000e+02 1.40192094423563e-10 5.65076771967057e-12
1.50075000000000e+02 1.30843180285028e-10 5.28313414336854e-12
1.50597000000000e+02 1.22117712111324e-10 4.93938857829649e-12
1.51119000000000e+02 1.13974114499652e-10 4.61798097488595e-12
1.51641000000000e+02 1.06373584563537e-10 4.31746170966425e-12
1.52163000000000e+02 9.92799070435476e-11 4.03647508984411e-12
1.52685000000000e+02 9.26592817476045e-11 3.77375327722360e-12
1.53207000000000e+02 8.64801624987012e-11 3.52811060438650e-12
1.53729000000000e+02 8.07131068226213e-11 3.29843825792843e-12
1.54251000000000e+02 7.53306356594522e-11 3.08369930505862e-12
1.54773000000000e+02 7.03071024304406e-11 2.88292404144738e-12
1.55295000000000e+02 6.56185708363158e-11 2.69520563961241e-12
1.55817000000000e+02 6.12427008048100e-11 2.51969607846839e-12
1.56339000000000e+02 5.71586420439335e-11 2.35560233591063e-12
1.56861000000000e+02 5.33469346938064e-11 2.20218282746983e-12
1.57383000000000e+02 4.97894166036664e-11 2.05874407516647e-12
1.57905000000000e+02 4.64691367922450e-11 1.92463759171454e-12
1.58427000000000e+02 4.33702746791647e-11 1.79925696618042e-12
1.58949000000000e+02 4.04780647025082e-11 1.68203513809689e-12
1.59471000000000e+02 3.77787259633744e-11 1.57244184786967e-12
1.59993000000000e+02 3.52593965621904e-11 1.46998125209668e-12
1.60515000000000e+02 3.29080723139019e-11 1.37418969315361e-12
1.61037000000000e+02 3.07135495500300e-11 1.28463361308489e-12
1.61559000000000e+02 2.86653717350575e-11 1.20090760248128e-12
1.62081000000000e+02 2.67537796427776e-11 1.12263257562545e-12
1.62603000000000e+02 2.49696648552066e-11 1.04945406374916e-12
1.63125000000000e+02 2.33045263624894e-11 9.81040618771331e-13
1.63647000000000e+02 2.17504300570024e-11 9.17082320378273e-13
1.64169000000000e+02 2.02999709286526e-11 8.57289379767607e-13
1.64691000000000e+02 1.89462377812374e-11 8.01390833808261e-13
