Energy (eV)          EEDF (eV^-(3/2))     First Anisotropy
3.26250000000000e-02 5.39765326941820e-02 3.19581455682433e-05
9.78750000000000e-02 5.35130731420812e-02 5.27226666205944e-05
1.63125000000000e-01 5.30535930001466e-02 6.94693727521716e-05
2.28375000000000e-01 5.25980580998143e-02 8.21128165417227e-05
2.93625000000000e-01 5.21464345659767e-02 9.25922973545228e-05
3.58875000000000e-01 5.16986888144000e-02 1.01642895165505e-04
4.24125000000000e-01 5.12547875492187e-02 1.09645928825676e-04
4.89375000000000e-01 5.08146977604575e-02 1.16832205149442e-04
5.54625000000000e-01 5.03783867215754e-02 1.23355153062172e-04
6.19875000000000e-01 4.99458219870326e-02 1.29323461312652e-04
6.85125000000000e-01 4.95169713898768e-02 1.34817769812859e-04
7.50375000000000e-01 4.90918030393514e-02 1.39900056654712e-04
8.15625000000000e-01 4.86702853185241e-02 1.44619302754086e-04
8.80875000000000e-01 4.82523868819357e-02 1.49015101962362e-04
9.46125000000000e-01 4.78380766532688e-02 1.53120064422242e-04
1.01137500000000e+00 4.74273238230371e-02 1.56961474785689e-04
1.07662500000000e+00 4.70200978462946e-02 1.60562471006911e-04
1.14187500000000e+00 4.66163684403636e-02 1.63942903843438e-04
1.20712500000000e+00 4.62161055825829e-02 1.67119977371682e-04
1.27237500000000e+00 4.58192795080758e-02 1.70108735456444e-04
1.33762500000000e+00 4.54258607075358e-02 1.72922437434303e-04
1.40287500000000e+00 4.50358199250330e-02 1.75572852556882e-04
1.46812500000000e+00 4.46491281558377e-02 1.78070493822650e-04
1.53337500000000e+00 4.42657566442645e-02 1.80424805884597e-04
1.59862500000000e+00 4.38856768815329e-02 1.82644317675682e-04
1.66387500000000e+00 4.35088606036482e-02 1.84736767585490e-04
1.72912500000000e+00 4.31352797892990e-02 1.86709207037279e-04
1.79437500000000e+00 4.27649066577739e-02 1.88568086890133e-04
1.85962500000000e+00 4.23977136668953e-02 1.90319330053351e-04
1.92487500000000e+00 4.20336735109716e-02 1.91968392934520e-04
1.99012500000000e+00 4.16727591187664e-02 1.93520317770557e-04
2.05537500000000e+00 4.13149436514855e-02 1.94979777458604e-04
2.12062500000000e+00 4.09602005007810e-02 1.96351114173768e-04
2.18587500000000e+00 4.06085032867728e-02 1.97638372806103e-04
2.25112500000000e+00 4.02598258560868e-02 1.98845330051408e-04
2.31637500000000e+00 3.99141422799098e-02 1.99975519835103e-04
2.38162500000000e+00 3.95714268520618e-02 2.01032255625693e-04
2.44687500000000e+00 3.92316540870840e-02 2.02018650096709e-04
2.51212500000000e+00 3.88947987183441e-02 2.02937632517376e-04
2.57737500000000e+00 3.85608356961567e-02 2.03791964189233e-04
2.64262500000000e+00 3.82297401859211e-02 2.04584252194436e-04
2.70787500000000e+00 3.79014875662744e-02 2.05316961679424e-04
2.77312500000000e+00 3.75760534272603e-02 2.05992426863327e-04
2.83837500000000e+00 3.72534135685143e-02 2.06612860931821e-04
2.90362500000000e+00 3.69335439974638e-02 2.07180364953750e-04
2.96887500000000e+00 3.66164209275438e-02 2.07696935937969e-04
3.03412500000000e+00 3.63020207764286e-02 2.08164474131409e-04
3.09937500000000e+00 3.59903201642775e-02 2.08584789645624e-04
3.16462500000000e+00 3.56812959119967e-02 2.08959608487261e-04
3.22987500000000e+00 3.53749250395153e-02 2.09290578057971e-04
3.29512500000000e+00 3.50711847640766e-02 2.09579272180958e-04
3.36037500000000e+00 3.47700524985438e-02 2.09827195704053e-04
3.42562500000000e+00 3.44715058497205e-02 2.10035788723051e-04
3.49087500000000e+00 3.41755226166851e-02 2.10206430463815e-04
3.55612500000000e+00 3.38820807891404e-02 2.10340442857007e-04
3.62137500000000e+00 3.35911585457764e-02 2.10439093835377e-04
3.68662500000000e+00 3.33027342526479e-02 2.10503600380141e-04
3.75187500000000e+00 3.30167864615654e-02 2.10535131339999e-04
3.81712500000000e+00 3.27332939085004e-02 2.10534810043658e-04
3.88237500000000e+00 3.24522355120042e-02 2.10503716724605e-04
3.94762500000000e+00 3.21735903716398e-02 2.10442890774800e-04
4.01287500000000e+00 3.18973377664283e-02 2.10353332842208e-04
4.07812500000000e+00 3.16234571533072e-02 2.10236006785525e-04
4.14337500000000e+00 3.13519281656038e-02 2.10091841498231e-04
4.20862500000000e+00 3.10827306115196e-02 2.09921732612744e-04
4.27387500000000e+00 3.08158444726294e-02 2.09726544094476e-04
4.33912500000000e+00 3.05512499023926e-02 2.09507109734650e-04
4.40437500000000e+00 3.02889272246773e-02 2.09264234549802e-04
4.46962500000000e+00 3.00288569322969e-02 2.08998696095323e-04
4.53487500000000e+00 2.97710196855597e-02 2.08711245699532e-04
4.60012500000000e+00 2.95153963108310e-02 2.08402609624327e-04
4.66537500000000e+00 2.92619677991065e-02 2.08073490157857e-04
4.73062500000000e+00 2.90107153045996e-02 2.07724566644114e-04
4.79587500000000e+00 2.87616201433393e-02 2.07356496454094e-04
4.86112500000000e+00 2.85146637917813e-02 2.06969915902605e-04
4.92637500000000e+00 2.82698278854302e-02 2.06565441114550e-04
4.99162500000000e+00 2.80270942174740e-02 2.06143668844191e-04
5.05687500000000e+00 2.77864447374300e-02 2.05705177250504e-04
5.12212500000000e+00 2.75478615498028e-02 2.05250526631670e-04
5.18737500000000e+00 2.73113269127532e-02 2.04780260121354e-04
5.25262500000000e+00 2.70768232367793e-02 2.04294904349287e-04
5.31787500000000e+00 2.68443330834079e-02 2.03794970068438e-04
5.38312500000000e+00 2.66138391638984e-02 2.03280952750868e-04
5.44837500000000e+00 2.63853243379564e-02 2.02753333154264e-04
5.51362500000000e+00 2.61587716124597e-02 2.02212577860981e-04
5.57887500000000e+00 2.59341641401944e-02 2.01659139791245e-04
5.64412500000000e+00 2.57114852186021e-02 2.01093458692042e-04
5.70937500000000e+00 2.54907182885378e-02 2.00515961603201e-04
5.77462500000000e+00 2.52718469330386e-02 1.99927063302010e-04
5.83987500000000e+00 2.50548548761027e-02 1.99327166727535e-04
5.90512500000000e+00 2.48397259814793e-02 1.98716663385900e-04
5.97037500000000e+00 2.46264442514685e-02 1.98095933737554e-04
6.03562500000000e+00 2.44149938257318e-02 1.97465347567525e-04
6.10087500000000e+00 2.42053589801125e-02 1.96825264339648e-04
6.16612500000000e+00 2.39975241254664e-02 1.96176033535582e-04
6.23137500000000e+00 2.37914738065027e-02 1.95517994979517e-04
6.29662500000000e+00 2.35871927006347e-02 1.94851479149257e-04
6.36187500000000e+00 2.33846656168400e-02 1.94176807474415e-04
6.42712500000000e+00 2.31838774945313e-02 1.93494292622457e-04
6.49237500000000e+00 2.29848134024364e-02 1.92804238773132e-04
6.55762500000000e+00 2.27874585374874e-02 1.92106941881931e-04
6.62287500000000e+00 2.25917982237204e-02 1.91402689933142e-04
6.68812500000000e+00 2.23978179111839e-02 1.90691763182951e-04
6.75337500000000e+00 2.22055031748569e-02 1.89974434393139e-04
6.81862500000000e+00 2.20148397135763e-02 1.89250969055866e-04
6.88387500000000e+00 2.18258133489730e-02 1.88521625609895e-04
6.94912500000000e+00 2.16384100244182e-02 1.87786655648703e-04
7.01437500000000e+00 2.14526158039775e-02 1.87046304120819e-04
7.07962500000000e+00 2.12684168713750e-02 1.86300809522876e-04
7.14487500000000e+00 2.10857995289655e-02 1.85550404085570e-04
7.21012500000000e+00 2.09047501967165e-02 1.84795313952898e-04
7.27537500000000e+00 2.07252554111974e-02 1.84035759355065e-04
7.34062500000000e+00 2.05473018245794e-02 1.83271954775218e-04
7.40587500000000e+00 2.03708762036419e-02 1.82504109110344e-04
7.47112500000000e+00 2.01959654287893e-02 1.81732425826599e-04
7.53637500000000e+00 2.00225564930748e-02 1.80957103109283e-04
7.60162500000000e+00 1.98506365012334e-02 1.80178334007703e-04
7.66687500000000e+00 1.96801926687228e-02 1.79396306575173e-04
7.73212500000000e+00 1.95112123207729e-02 1.78611204004291e-04
7.79737500000000e+00 1.93436828914434e-02 1.77823204757731e-04
7.86262500000000e+00 1.91775919226887e-02 1.77032482694759e-04
7.92787500000000e+00 1.90129270634322e-02 1.76239207193608e-04
7.99312500000000e+00 1.88496760686475e-02 1.75443543269897e-04
8.05837500000000e+00 1.86878267984479e-02 1.74645651691267e-04
8.12362500000000e+00 1.85273672171834e-02 1.73845689088360e-04
8.18887500000000e+00 1.83682853925461e-02 1.73043808062285e-04
8.25412500000000e+00 1.82105694946826e-02 1.72240157288766e-04
8.31937500000000e+00 1.80542077953144e-02 1.71434881619027e-04
8.38462500000000e+00 1.78991886668656e-02 1.70628122177564e-04
8.44987500000000e+00 1.77455005815983e-02 1.69820016456969e-04
8.51512500000000e+00 1.75931321107556e-02 1.69010698409852e-04
8.58037500000000e+00 1.74420719237115e-02 1.68200298538009e-04
8.64562500000000e+00 1.72923087871280e-02 1.67388943978913e-04
8.71087500000000e+00 1.71438315641205e-02 1.66576758589677e-04
8.77612500000000e+00 1.69966292134290e-02 1.65763863028516e-04
8.84137500000000e+00 1.68506907885972e-02 1.64950374833827e-04
8.90662500000000e+00 1.67060054371587e-02 1.64136408501020e-04
8.97187500000000e+00 1.65625623998296e-02 1.63322075557106e-04
9.03712500000000e+00 1.64203510097089e-02 1.62507484633144e-04
9.10237500000000e+00 1.62793606914846e-02 1.61692741534671e-04
9.16762500000000e+00 1.61395809606479e-02 1.60877949310101e-04
9.23287500000000e+00 1.60010014227134e-02 1.60063208317228e-04
9.29812500000000e+00 1.58636117724457e-02 1.59248616287897e-04
9.36337500000000e+00 1.57274017930938e-02 1.58434268390877e-04
9.42862500000000e+00 1.55923613556306e-02 1.57620257292990e-04
9.49387500000000e+00 1.54584804180003e-02 1.56806673218603e-04
9.55912500000000e+00 1.53257490243712e-02 1.55993604007474e-04
9.62437500000000e+00 1.51941573043955e-02 1.55181135171073e-04
9.68962500000000e+00 1.50636954724755e-02 1.54369349947379e-04
9.75487500000000e+00 1.49343538270355e-02 1.53558329354213e-04
9.82012500000000e+00 1.48061227498007e-02 1.52748152241171e-04
9.88537500000000e+00 1.46789927050819e-02 1.51938895340195e-04
9.95062500000000e+00 1.45529542390663e-02 1.51130633314804e-04
1.00158750000000e+01 1.44279979791145e-02 1.50323438808061e-04
1.00811250000000e+01 1.43041146330635e-02 1.49517382489309e-04
1.01463750000000e+01 1.41812949885358e-02 1.48712533099677e-04
1.02116250000000e+01 1.40595299122543e-02 1.47908957496449e-04
1.02768750000000e+01 1.39388103493630e-02 1.47106720696282e-04
1.03421250000000e+01 1.38191273227540e-02 1.46305885917353e-04
1.04073750000000e+01 1.37004719323994e-02 1.45506514620451e-04
1.04726250000000e+01 1.35828353546898e-02 1.44708666549008e-04
1.05378750000000e+01 1.34662088417782e-02 1.43912399768162e-04
1.06031250000000e+01 1.33505837209294e-02 1.43117770702845e-04
1.06683750000000e+01 1.32359513938750e-02 1.42324834174928e-04
1.07336250000000e+01 1.31223033361739e-02 1.41533643439459e-04
1.07988750000000e+01 1.30096310965787e-02 1.40744250220021e-04
1.08641250000000e+01 1.28979262964070e-02 1.39956704743223e-04
1.09293750000000e+01 1.27871806289186e-02 1.39171055772361e-04
1.09946250000000e+01 1.26773858586974e-02 1.38387350640269e-04
1.10598750000000e+01 1.25685338210392e-02 1.37605635281387e-04
1.11251250000000e+01 1.24606164213445e-02 1.36825954263057e-04
1.11903750000000e+01 1.23536256345168e-02 1.36048350816079e-04
1.12556250000000e+01 1.22475535043653e-02 1.35272866864554e-04
1.13208750000000e+01 1.21423921430138e-02 1.34499543055013e-04
1.13861250000000e+01 1.20381337303139e-02 1.33728418784864e-04
1.14513750000000e+01 1.19347705132633e-02 1.32959532230188e-04
1.15166250000000e+01 1.18322948054295e-02 1.32192920372879e-04
1.15818750000000e+01 1.17306989863782e-02 1.31428619027133e-04
1.16471250000000e+01 1.16299755011065e-02 1.30666662865378e-04
1.17123750000000e+01 1.15301168594811e-02 1.29907085443579e-04
1.17776250000000e+01 1.14311156356814e-02 1.29149919225956e-04
1.18428750000000e+01 1.13329644676473e-02 1.28395195609158e-04
1.19081250000000e+01 1.12356560565315e-02 1.27642944945867e-04
1.19733750000000e+01 1.11391831661571e-02 1.26893196567895e-04
1.20386250000000e+01 1.10435386224791e-02 1.26145978808729e-04
1.21038750000000e+01 1.09487153130514e-02 1.25401319025603e-04
1.21691250000000e+01 1.08547061864973e-02 1.24659243621067e-04
1.22343750000000e+01 1.07615042519856e-02 1.23919778064043e-04
1.22996250000000e+01 1.06691025787106e-02 1.23182946910451e-04
1.23648750000000e+01 1.05774942953767e-02 1.22448773823359e-04
1.24301250000000e+01 1.04866725896873e-02 1.21717281592715e-04
1.24953750000000e+01 1.03966307078383e-02 1.20988492154611e-04
1.25606250000000e+01 1.03073619540162e-02 1.20262426610127e-04
1.26258750000000e+01 1.02188596898995e-02 1.19539105243784e-04
1.26911250000000e+01 1.01311173341657e-02 1.18818547541583e-04
1.27563750000000e+01 1.00441283620014e-02 1.18100772208659e-04
1.28216250000000e+01 9.95788630461743e-03 1.17385797186543e-04
1.28868750000000e+01 9.87238474876767e-03 1.16673639670042e-04
1.29521250000000e+01 9.78761733627214e-03 1.15964316123786e-04
1.30173750000000e+01 9.70357776354420e-03 1.15257842298392e-04
1.30826250000000e+01 9.62025978112182e-03 1.14554233246287e-04
1.31478750000000e+01 9.53765719320280e-03 1.13853503337203e-04
1.32131250000000e+01 9.45576385718405e-03 1.13155666273337e-04
1.32783750000000e+01 9.37457368320483e-03 1.12460735104183e-04
1.33436250000000e+01 9.29408063369385e-03 1.11768722241047e-04
1.34088750000000e+01 9.21427872292032e-03 1.11079639471261e-04
1.34741250000000e+01 9.13516201654883e-03 1.10393497972108e-04
1.35393750000000e+01 9.05672463119805e-03 1.09710308324441e-04
1.36046250000000e+01 8.97896073400319e-03 1.09030080526007e-04
1.36698750000000e+01 8.90186454218232e-03 1.08352824004507e-04
1.37351250000000e+01 8.82543032260627e-03 1.07678547630377e-04
1.38003750000000e+01 8.74965239137235e-03 1.07007259729300e-04
1.38656250000000e+01 8.67452511338163e-03 1.06338968094472e-04
1.39308750000000e+01 8.60004290191995e-03 1.05673679998594e-04
1.39961250000000e+01 8.52620021824240e-03 1.05011402205615e-04
1.40613750000000e+01 8.45299157116152e-03 1.04352140982245e-04
1.41266250000000e+01 8.38041151663889e-03 1.03695902109227e-04
1.41918750000000e+01 8.30845465738036e-03 1.03042690892376e-04
1.42571250000000e+01 8.23711564243460e-03 1.02392512173381e-04
1.43223750000000e+01 8.16638916679529e-03 1.01745370340395e-04
1.43876250000000e+01 8.09626997100653e-03 1.01101269338402e-04
1.44528750000000e+01 8.02675284077180e-03 1.00460212679388e-04
1.45181250000000e+01 7.95783260656616e-03 9.98222034522826e-05
1.45833750000000e+01 7.88950414325183e-03 9.91872443326980e-05
1.46486250000000e+01 7.82176236969710e-03 9.85553375924852e-05
1.47138750000000e+01 7.75460224839846e-03 9.79264851090851e-05
1.47791250000000e+01 7.68801878510600e-03 9.73006883747021e-05
1.48443750000000e+01 7.62200702845199e-03 9.66779485052649e-05
1.49096250000000e+01 7.55656206958273e-03 9.60582662492257e-05
1.49748750000000e+01 7.49167904179349e-03 9.54416419961897e-05
1.50401250000000e+01 7.42735312016660e-03 9.48280757853455e-05
1.51053750000000e+01 7.36357952121264e-03 9.42175673137444e-05
1.51706250000000e+01 7.30035350251476e-03 9.36101159444068e-05
1.52358750000000e+01 7.23767036237599e-03 9.30057207142553e-05
1.53011250000000e+01 7.17552543946962e-03 9.24043803419013e-05
1.53663750000000e+01 7.11391411249256e-03 9.18060932352786e-05
1.54316250000000e+01 7.05283179982168e-03 9.12108574991132e-05
1.54968750000000e+01 6.99227395917313e-03 9.06186709422337e-05
1.55621250000000e+01 6.93223608726452e-03 9.00295310847570e-05
1.56273750000000e+01 6.87271371948009e-03 8.94434351651297e-05
1.56926250000000e+01 6.81370242953866e-03 8.88603801469998e-05
1.57578750000000e+01 6.75519782916450e-03 8.82803627259751e-05
1.58231250000000e+01 6.69719556776102e-03 8.77033793362536e-05
1.58883750000000e+01 6.63969133208721e-03 8.71294261571013e-05
1.59536250000000e+01 6.58268084593691e-03 8.65584991192057e-05
1.60188750000000e+01 6.52615986982081e-03 8.59905939109112e-05
1.60841250000000e+01 6.47012420065122e-03 8.54257059843204e-05
1.61493750000000e+01 6.41456967142945e-03 8.48638305612806e-05
1.62146250000000e+01 6.35949215093600e-03 8.43049626392443e-05
1.62798750000000e+01 6.30488754342333e-03 8.37490969970207e-05
1.63451250000000e+01 6.25075178831126e-03 8.31962282004132e-05
1.64103750000000e+01 6.19708085988506e-03 8.26463506077277e-05
1.64756250000000e+01 6.14387076699604e-03 8.20994583751939e-05
1.65408750000000e+01 6.09111755276477e-03 8.15555454622701e-05
1.66061250000000e+01 6.03881729428686e-03 8.10146056368371e-05
1.66713750000000e+01 5.98696610234117e-03 8.04766324802925e-05
1.67366250000000e+01 5.93556012110069e-03 7.99416193925404e-05
1.68018750000000e+01 5.88459552784574e-03 7.94095595968950e-05
1.68671250000000e+01 5.83406853267969e-03 7.88804461448695e-05
1.69323750000000e+01 5.78397537824722e-03 7.83542719208854e-05
1.69976250000000e+01 5.73431233945478e-03 7.78310296468739e-05
1.70628750000000e+01 5.68507572319370e-03 7.73107118867895e-05
1.71281250000000e+01 5.63626186806549e-03 7.67933110510456e-05
1.71933750000000e+01 5.58786714410958e-03 7.62788194008468e-05
1.72586250000000e+01 5.53988795253339e-03 7.57672290524401e-05
1.73238750000000e+01 5.49232072544471e-03 7.52585319812827e-05
1.73891250000000e+01 5.44516192558638e-03 7.47527200261319e-05
1.74543750000000e+01 5.39840804607325e-03 7.42497848930454e-05
1.75196250000000e+01 5.35205561013138e-03 7.37497181592960e-05
1.75848750000000e+01 5.30610117083953e-03 7.32525112772274e-05
1.76501250000000e+01 5.26054131087280e-03 7.27581555780210e-05
1.77153750000000e+01 5.21537264224851e-03 7.22666422753806e-05
1.77806250000000e+01 5.17059180607429e-03 7.17779624691605e-05
1.78458750000000e+01 5.12619547229828e-03 7.12921071489074e-05
1.79111250000000e+01 5.08218033946147e-03 7.08090671973365e-05
1.79763750000000e+01 5.03854313445225e-03 7.03288333937415e-05
1.80416250000000e+01 4.99528061226297e-03 6.98513964173326e-05
1.81068750000000e+01 4.95238955574864e-03 6.93767468505016e-05
1.81721250000000e+01 4.90986677538768e-03 6.89048751820293e-05
1.82373750000000e+01 4.86770910904476e-03 6.84357718102287e-05
1.83026250000000e+01 4.82591342173565e-03 6.79694270460228e-05
1.83678750000000e+01 4.78447660539408e-03 6.75058311159652e-05
1.84331250000000e+01 4.74339557864061e-03 6.70449741651841e-05
1.84983750000000e+01 4.70266728655350e-03 6.65868462602795e-05
1.85636250000000e+01 4.66228870044154e-03 6.61314373921696e-05
1.86288750000000e+01 4.62225681761880e-03 6.56787374788654e-05
1.86941250000000e+01 4.58256866118139e-03 6.52287363681891e-05
1.87593750000000e+01 4.54322127978603e-03 6.47814238404453e-05
1.88246250000000e+01 4.50421174743062e-03 6.43367896110401e-05
1.88898750000000e+01 4.46553716323662e-03 6.38948233330332e-05
1.89551250000000e+01 4.42719465123338e-03 6.34555145996504e-05
1.90203750000000e+01 4.38918136014422e-03 6.30188529467405e-05
1.90856250000000e+01 4.35149446317442e-03 6.25848278551858e-05
1.91508750000000e+01 4.31413115780102e-03 6.21534287532570e-05
1.92161250000000e+01 4.27708866556440e-03 6.17246450189137e-05
1.92813750000000e+01 4.24036423186167e-03 6.12984659820777e-05
1.93466250000000e+01 4.20395512574186e-03 6.08748809268474e-05
1.94118750000000e+01 4.16785863970276e-03 6.04538790936618e-05
1.94771250000000e+01 4.13207208948966e-03 6.00354496814284e-05
1.95423750000000e+01 4.09659281389570e-03 5.96195818496074e-05
1.96076250000000e+01 4.06141817456400e-03 5.92062647202437e-05
1.96728750000000e+01 4.02654555579140e-03 5.87954873799647e-05
1.97381250000000e+01 3.99197236433405e-03 5.83872388819316e-05
1.98033750000000e+01 3.95769602921446e-03 5.79815082477561e-05
1.98686250000000e+01 3.92371400153039e-03 5.75782844693695e-05
1.99338750000000e+01 3.89002375426529e-03 5.71775565108599e-05
1.99991250000000e+01 3.85662278210034e-03 5.67793133102615e-05
2.00643750000000e+01 3.82350860122821e-03 5.63835437813108e-05
2.01296250000000e+01 3.79067874916830e-03 5.59902368151783e-05
2.01948750000000e+01 3.75813078458366e-03 5.55993812821414e-05
2.02601250000000e+01 3.72586228709942e-03 5.52109660332309e-05
2.03253750000000e+01 3.69387085712283e-03 5.48249799018488e-05
2.03906250000000e+01 3.66215411566479e-03 5.44414117053455e-05
2.04558750000000e+01 3.63070970416294e-03 5.40602502465618e-05
2.05211250000000e+01 3.59953528430631e-03 5.36814843153397e-05
2.05863750000000e+01 3.56862853786137e-03 5.33051026900015e-05
