Energy (eV)          EEDF (eV^-(3/2))     First Anisotropy
2.70731707317073e-04 6.88703751820548e+01 3.12134097246722e-02
8.12195121951220e-04 6.82930854715564e+01 5.14993216333531e-02
1.35365853658537e-03 6.77206347561132e+01 6.78714135941563e-02
1.89512195121951e-03 6.71529824750734e+01 8.02405399931657e-02
2.43658536585366e-03 6.65900884047326e+01 9.04996979920763e-02
2.97804878048781e-03 6.60319126620660e+01 9.93661981598727e-02
3.51951219512195e-03 6.54784156955900e+01 1.07212033702932e-01
4.06097560975610e-03 6.49295582876050e+01 1.14262303155910e-01
4.60243902439024e-03 6.43853015472267e+01 1.20666599197701e-01
5.14390243902439e-03 6.38456069112205e+01 1.26530863813254e-01
5.68536585365854e-03 6.33104361381372e+01 1.31933677562055e-01
6.22682926829268e-03 6.27797513083794e+01 1.36935419485046e-01
6.76829268292683e-03 6.22535148190270e+01 1.41583794074273e-01
7.30975609756098e-03 6.17316893834244e+01 1.45917353267140e-01
7.85121951219512e-03 6.12142380268937e+01 1.49967840919926e-01
8.39268292682927e-03 6.07011240843608e+01 1.53761810141323e-01
8.93414634146342e-03 6.01923111988395e+01 1.57321772981778e-01
9.47560975609756e-03 5.96877633173934e+01 1.60667038575878e-01
1.00170731707317e-02 5.91874446899519e+01 1.63814337703149e-01
1.05585365853659e-02 5.86913198648902e+01 1.66778297008174e-01
1.11000000000000e-02 5.81993536898544e+01 1.69571805286166e-01
1.16414634146341e-02 5.77115113058749e+01 1.72206300529735e-01
1.21829268292683e-02 5.72277581461906e+01 1.74691997738641e-01
1.27243902439024e-02 5.67480599338076e+01 1.77038072138444e-01
1.32658536585366e-02 5.62723826768745e+01 1.79252807687548e-01
1.38073170731707e-02 5.58006926729566e+01 1.81343719191732e-01
1.43487804878049e-02 5.53329564998097e+01 1.83317653320311e-01
1.48902439024390e-02 5.48691410153479e+01 1.85180872564494e-01
1.54317073170732e-02 5.44092133552847e+01 1.86939126027805e-01
1.59731707317073e-02 5.39531409308202e+01 1.88597709263991e-01
1.65146341463415e-02 5.35008914263299e+01 1.90161515286257e-01
1.70560975609756e-02 5.30524327954798e+01 1.91635078041656e-01
1.75975609756098e-02 5.26077332638102e+01 1.93022610127215e-01
1.81390243902439e-02 5.21667613215373e+01 1.94328035435842e-01
1.86804878048781e-02 5.17294857230022e+01 1.95555017298261e-01
1.92219512195122e-02 5.12958754844500e+01 1.96706983279416e-01
1.97634146341463e-02 5.08658998818479e+01 1.97787146887520e-01
2.03048780487805e-02 5.04395284487030e+01 1.98798526747850e-01
2.08463414634146e-02 5.00167309726797e+01 1.99743963373905e-01
2.13878048780488e-02 4.95974774971823e+01 2.00626134282392e-01
2.19292682926829e-02 4.91817383154476e+01 2.01447567451234e-01
2.24707317073171e-02 4.87694839697235e+01 2.02210653117829e-01
2.30121951219512e-02 4.83606852491758e+01 2.02917654529598e-01
2.35536585365854e-02 4.79553131878301e+01 2.03570717560505e-01
2.40951219512195e-02 4.75533390625134e+01 2.04171879417006e-01
2.46365853658537e-02 4.71547343898464e+01 2.04723076343042e-01
2.51780487804878e-02 4.67594709271833e+01 2.05226150797326e-01
2.57195121951220e-02 4.63675206676084e+01 2.05682857969664e-01
2.62609756097561e-02 4.59788558389677e+01 2.06094871512200e-01
2.68024390243902e-02 4.55934489018988e+01 2.06463788923264e-01
2.73439024390244e-02 4.52112725478853e+01 2.06791136428031e-01
2.78853658536585e-02 4.48322996973188e+01 2.07078373482563e-01
2.84268292682927e-02 4.44565034967867e+01 2.07326896765553e-01
2.89682926829268e-02 4.40838573195793e+01 2.07538044020876e-01
2.95097560975610e-02 4.37143347613611e+01 2.07713097597118e-01
3.00512195121951e-02 4.33479096391238e+01 2.07853287535893e-01
3.05926829268293e-02 4.29845559893319e+01 2.07959794564705e-01
3.11341463414634e-02 4.26242480660852e+01 2.08033752831281e-01
3.16756097560976e-02 4.22669603392929e+01 2.08076252468214e-01
3.22170731707317e-02 4.19126674922059e+01 2.08088341849278e-01
3.27585365853659e-02 4.15613444216228e+01 2.08071029839720e-01
3.33000000000000e-02 4.12129662340860e+01 2.08025287892775e-01
3.38414634146341e-02 4.08675082448007e+01 2.07952051845830e-01
3.43829268292683e-02 4.05249459758870e+01 2.07852223721358e-01
3.49243902439024e-02 4.01852551546463e+01 2.07726673406214e-01
3.54658536585366e-02 3.98484117112707e+01 2.07576240110104e-01
3.60073170731707e-02 3.95143917788666e+01 2.07401733870289e-01
3.65487804878049e-02 3.91831716900141e+01 2.07203936964972e-01
3.70902439024390e-02 3.88547279756795e+01 2.06983605095714e-01
3.76317073170732e-02 3.85290373635521e+01 2.06741468612562e-01
3.81731707317073e-02 3.82060767763969e+01 2.06478233637522e-01
3.87146341463415e-02 3.78858233304186e+01 2.06194583147281e-01
3.92560975609756e-02 3.75682543331558e+01 2.05891177892978e-01
3.97975609756098e-02 3.72533472833427e+01 2.05568657392097e-01
4.03390243902439e-02 3.69410798678283e+01 2.05227640867758e-01
4.08804878048781e-02 3.66314299604962e+01 2.04868728006430e-01
4.14219512195122e-02 3.63243756206961e+01 2.04492499777420e-01
4.19634146341463e-02 3.60198950916912e+01 2.04099519182664e-01
4.25048780487805e-02 3.57179667991156e+01 2.03690331989528e-01
4.30463414634146e-02 3.54185693490292e+01 2.03265467335174e-01
4.35878048780488e-02 3.51216815276644e+01 2.02825438411731e-01
4.41292682926829e-02 3.48272822986465e+01 2.02370743119792e-01
4.46707317073171e-02 3.45353508019333e+01 2.01901864571969e-01
4.52121951219512e-02 3.42458663523362e+01 2.01419271664713e-01
4.57536585365854e-02 3.39588084380566e+01 2.00923419599072e-01
4.62951219512195e-02 3.36741567192310e+01 2.00414750396862e-01
4.68365853658537e-02 3.33918910261298e+01 1.99893693310851e-01
4.73780487804878e-02 3.31119913588205e+01 1.99360665316763e-01
4.79195121951220e-02 3.28344378846467e+01 1.98816071585611e-01
4.84609756097561e-02 3.25592109371945e+01 1.98260305827994e-01
4.90024390243902e-02 3.22862910148985e+01 1.97693750707417e-01
4.95439024390244e-02 3.20156587796614e+01 1.97116778214132e-01
5.00853658536585e-02 3.17472950554833e+01 1.96529750040968e-01
5.06268292682927e-02 3.14811808267881e+01 1.95933017869062e-01
5.11682926829268e-02 3.12172972380286e+01 1.95326923732774e-01
5.17097560975610e-02 3.09556255913888e+01 1.94711800372128e-01
5.22512195121951e-02 3.06961473457825e+01 1.94087971473583e-01
5.27926829268293e-02 3.04388441155398e+01 1.93455751977734e-01
5.33341463414634e-02 3.01836976691047e+01 1.92815448355218e-01
5.38756097560976e-02 2.99306899277432e+01 1.92167358888155e-01
5.44170731707317e-02 2.96798029639864e+01 1.91511773873295e-01
5.49585365853659e-02 2.94310190011948e+01 1.90848975900197e-01
5.55000000000000e-02 2.91843204114564e+01 1.90179240121396e-01
5.60414634146342e-02 2.89396897146206e+01 1.89502834423695e-01
5.65829268292683e-02 2.86971095770603e+01 1.88820019663077e-01
5.71243902439024e-02 2.84565628104436e+01 1.88131049888592e-01
5.76658536585366e-02 2.82180323702683e+01 1.87436172495970e-01
5.82073170731707e-02 2.79815013554039e+01 1.86735628452231e-01
5.87487804878049e-02 2.77469530061370e+01 1.86029652514828e-01
5.92902439024390e-02 2.75143707032385e+01 1.85318473360885e-01
5.98317073170732e-02 2.72837379667860e+01 1.84602313776816e-01
6.03731707317073e-02 2.70550384549962e+01 1.83881390824879e-01
6.09146341463415e-02 2.68282559630674e+01 1.83155916017956e-01
6.14560975609756e-02 2.66033744218119e+01 1.82426095431686e-01
6.19975609756098e-02 2.63803778971799e+01 1.81692129882771e-01
6.25390243902439e-02 2.61592505884623e+01 1.80954215103810e-01
6.30804878048781e-02 2.59399768273953e+01 1.80212541837168e-01
6.36219512195122e-02 2.57225410770508e+01 1.79467295985224e-01
6.41634146341463e-02 2.55069279307355e+01 1.78718658740680e-01
6.47048780487805e-02 2.52931221108990e+01 1.77966806725450e-01
6.52463414634146e-02 2.50811084678573e+01 1.77211912073315e-01
6.57878048780488e-02 2.48708719793073e+01 1.76454142573919e-01
6.63292682926829e-02 2.46623977486686e+01 1.75693661814650e-01
6.68707317073171e-02 2.44556710042282e+01 1.74930629249255e-01
6.74121951219512e-02 2.42506770980931e+01 1.74165200318794e-01
6.79536585365854e-02 2.40474015051532e+01 1.73397526555138e-01
6.84951219512195e-02 2.38458298220517e+01 1.72627755693077e-01
6.90365853658537e-02 2.36459477659917e+01 1.71856031731620e-01
6.95780487804878e-02 2.34477411742475e+01 1.71082495052016e-01
7.01195121951220e-02 2.32511960026328e+01 1.70307282534605e-01
7.06609756097561e-02 2.30562983246838e+01 1.69530527609056e-01
7.12024390243902e-02 2.28630343306715e+01 1.68752360353123e-01
7.17439024390244e-02 2.26713903266240e+01 1.67972907575940e-01
7.22853658536586e-02 2.24813527333560e+01 1.67192292909719e-01
7.28268292682927e-02 2.22929080853521e+01 1.66410636855321e-01
7.33682926829268e-02 2.21060430302800e+01 1.65628056880276e-01
7.39097560975610e-02 2.19207443275731e+01 1.64844667516238e-01
7.44512195121951e-02 2.17369988476504e+01 1.64060580395653e-01
7.49926829268293e-02 2.15547935709868e+01 1.63275904333409e-01
7.55341463414634e-02 2.13741155871902e+01 1.62490745394628e-01
7.60756097560976e-02 2.11949520940872e+01 1.61705206970538e-01
7.66170731707317e-02 2.10172903966768e+01 1.60919389812336e-01
7.71585365853659e-02 2.08411179066504e+01 1.60133392113479e-01
7.77000000000000e-02 2.06664221410767e+01 1.59347309591888e-01
7.82414634146342e-02 2.04931907216602e+01 1.58561235516523e-01
7.87829268292683e-02 2.03214113738629e+01 1.57775260775553e-01
7.93243902439024e-02 2.01510719260357e+01 1.56989473941386e-01
7.98658536585366e-02 1.99821603084292e+01 1.56203961296784e-01
8.04073170731707e-02 1.98146645527205e+01 1.55418806906322e-01
8.09487804878049e-02 1.96485727907799e+01 1.54634092687974e-01
8.14902439024390e-02 1.94838732539596e+01 1.53849898432996e-01
8.20317073170732e-02 1.93205542722594e+01 1.53066301864821e-01
8.25731707317073e-02 1.91586042735006e+01 1.52283378686505e-01
8.31146341463415e-02 1.89980117825052e+01 1.51501202635489e-01
8.36560975609756e-02 1.88387654201698e+01 1.50719845502761e-01
8.41975609756098e-02 1.86808539030028e+01 1.49939377193870e-01
8.47390243902439e-02 1.85242660419782e+01 1.49159865790327e-01
8.52804878048781e-02 1.83689907418594e+01 1.48381377563502e-01
8.58219512195122e-02 1.82150170004131e+01 1.47603977024615e-01
8.63634146341463e-02 1.80623339076295e+01 1.46827726964330e-01
8.69048780487805e-02 1.79109306449494e+01 1.46052688499268e-01
8.74463414634147e-02 1.77607964843955e+01 1.45278921085830e-01
8.79878048780488e-02 1.76119207881214e+01 1.44506482572698e-01
8.85292682926829e-02 1.74642930073461e+01 1.43735429253865e-01
8.90707317073171e-02 1.73179026817113e+01 1.42965815877998e-01
8.96121951219512e-02 1.71727394385399e+01 1.42197695691164e-01
9.01536585365854e-02 1.70287929921017e+01 1.41431120470117e-01
9.06951219512195e-02 1.68860531428839e+01 1.40666140562062e-01
9.12365853658537e-02 1.67445097767764e+01 1.39902804894354e-01
9.17780487804878e-02 1.66041528646347e+01 1.39141161019993e-01
9.23195121951220e-02 1.64649724612875e+01 1.38381255163732e-01
9.28609756097561e-02 1.63269587049262e+01 1.37623132227933e-01
9.34024390243903e-02 1.61901018164065e+01 1.36866835829359e-01
9.39439024390244e-02 1.60543920985558e+01 1.36112408327304e-01
9.44853658536585e-02 1.59198199354856e+01 1.35359890857785e-01
9.50268292682927e-02 1.57863757918264e+01 1.34609323340076e-01
9.55682926829268e-02 1.56540502123059e+01 1.33860744516343e-01
9.61097560975610e-02 1.55228338208231e+01 1.33114191991977e-01
9.66512195121951e-02 1.53927173198699e+01 1.32369702238765e-01
9.71926829268293e-02 1.52636914898725e+01 1.31627310626717e-01
9.77341463414634e-02 1.51357471885379e+01 1.30887051447984e-01
9.82756097560976e-02 1.50088753502064e+01 1.30148957946426e-01
9.88170731707317e-02 1.48830669851330e+01 1.29413062321679e-01
9.93585365853659e-02 1.47583131790802e+01 1.28679395763880e-01
9.99000000000000e-02 1.46346050924550e+01 1.27947988507122e-01
1.00441463414634e-01 1.45119339595404e+01 1.27218869752192e-01
1.00982926829268e-01 1.43902910888265e+01 1.26492067837418e-01
1.01524390243902e-01 1.42696678604283e+01 1.25767610121339e-01
1.02065853658537e-01 1.41500557281474e+01 1.25045523009599e-01
1.02607317073171e-01 1.40314462166985e+01 1.24325832205964e-01
1.03148780487805e-01 1.39138309211611e+01 1.23608562368293e-01
1.03690243902439e-01 1.37972015084366e+01 1.22893737360580e-01
1.04231707317073e-01 1.36815497139235e+01 1.22181380227333e-01
1.04773170731707e-01 1.35668673436328e+01 1.21471513137633e-01
1.05314634146341e-01 1.34531462715849e+01 1.20764157640087e-01
1.05856097560976e-01 1.33403784392820e+01 1.20059334336660e-01
1.06397560975610e-01 1.32285558570528e+01 1.19357063119953e-01
1.06939024390244e-01 1.31176706009352e+01 1.18657363148234e-01
1.07480487804878e-01 1.30077148146347e+01 1.17960252842825e-01
1.08021951219512e-01 1.28986807064786e+01 1.17265749922320e-01
1.08563414634146e-01 1.27905605513227e+01 1.16573871349266e-01
1.09104878048780e-01 1.26833466881628e+01 1.15884633565568e-01
1.09646341463415e-01 1.25770315196350e+01 1.15198052188869e-01
1.10187804878049e-01 1.24716075132234e+01 1.14514142231366e-01
1.10729268292683e-01 1.23670671984005e+01 1.13832918075706e-01
1.11270731707317e-01 1.22634031683960e+01 1.13154393423808e-01
1.11812195121951e-01 1.21606080779508e+01 1.12478581518867e-01
1.12353658536585e-01 1.20586746428372e+01 1.11805494857404e-01
1.12895121951220e-01 1.19575956409745e+01 1.11135145395612e-01
1.13436585365854e-01 1.18573639097437e+01 1.10467544525970e-01
1.13978048780488e-01 1.17579723476275e+01 1.09802703028080e-01
1.14519512195122e-01 1.16594139120991e+01 1.09140631278248e-01
1.15060975609756e-01 1.15616816191599e+01 1.08481338976361e-01
1.15602439024390e-01 1.14647685443712e+01 1.07824835340454e-01
1.16143902439024e-01 1.13686678203308e+01 1.07171129084164e-01
1.16685365853659e-01 1.12733726381948e+01 1.06520228412144e-01
1.17226829268293e-01 1.11788762452108e+01 1.05872141046681e-01
1.17768292682927e-01 1.10851719462001e+01 1.05226874181177e-01
1.18309756097561e-01 1.09922531016151e+01 1.04584434674019e-01
1.18851219512195e-01 1.09001131271019e+01 1.03944828794232e-01
1.19392682926829e-01 1.08087454944290e+01 1.03308062401413e-01
1.19934146341463e-01 1.07181437291666e+01 1.02674140924087e-01
1.20475609756098e-01 1.06283014120642e+01 1.02043069315118e-01
1.21017073170732e-01 1.05392121772204e+01 1.01414852234911e-01
1.21558536585366e-01 1.04508697116631e+01 1.00789493810053e-01
1.22100000000000e-01 1.03632677562085e+01 1.00166997803229e-01
1.22641463414634e-01 1.02764001032779e+01 9.95473675923755e-02
1.23182926829268e-01 1.01902605981772e+01 9.89306061654497e-02
1.23724390243902e-01 1.01048431369614e+01 9.83167161429410e-02
1.24265853658537e-01 1.00201416676815e+01 9.77056997357108e-02
1.24807317073171e-01 9.93615018869848e+00 9.70975589147427e-02
1.25348780487805e-01 9.85286274828544e+00 9.64922951862994e-02
1.25890243902439e-01 9.77027344540214e+00 9.58899097492039e-02
1.26431707317073e-01 9.68837642768402e+00 9.52904034749893e-02
1.26973170731707e-01 9.60716589260181e+00 9.46937768675848e-02
1.27514634146341e-01 9.52663608587141e+00 9.41000302238305e-02
1.28056097560976e-01 9.44678130107235e+00 9.35091634200240e-02
1.28597560975610e-01 9.36759588036470e+00 9.29211760606407e-02
1.29139024390244e-01 9.28907421259486e+00 9.23360674592307e-02
1.29680487804878e-01 9.21121073437406e+00 9.17538366328610e-02
1.30221951219512e-01 9.13399992822502e+00 9.11744823212589e-02
1.30763414634146e-01 9.05743632363325e+00 9.05980029487606e-02
1.31304878048780e-01 8.98151449557962e+00 9.00243967731990e-02
1.31846341463415e-01 8.90622906417940e+00 8.94536616869850e-02
1.32387804878049e-01 8.83157469532893e+00 8.88857953549281e-02
1.32929268292683e-01 8.75754609895874e+00 8.83207951960980e-02
1.33470731707317e-01 8.68413803001205e+00 8.77586583474719e-02
1.34012195121951e-01 8.61134528705956e+00 8.71993818048373e-02
1.34553658536585e-01 8.53916271195310e+00 8.66429622338856e-02
1.35095121951220e-01 8.46758519042487e+00 8.60893961006338e-02
1.35636585365854e-01 8.39660765044010e+00 8.55386796539994e-02
1.36178048780488e-01 8.32622506310801e+00 8.49908088910202e-02
1.36719512195122e-01 8.25643244137424e+00 8.44457796902991e-02
1.37260975609756e-01 8.18722483968773e+00 8.39035876325817e-02
1.37802439024390e-01 8.11859735455664e+00 8.33642281241441e-02
1.38343902439024e-01 8.05054512299416e+00 8.28276963801288e-02
1.38885365853659e-01 7.98306332336687e+00 8.22939874189215e-02
1.39426829268293e-01 7.91614717387363e+00 8.17630960774403e-02
1.39968292682927e-01 7.84979193337292e+00 8.12350169784022e-02
1.40509756097561e-01 7.78399290017360e+00 8.07097446542318e-02
1.41051219512195e-01 7.71874541172047e+00 8.01872733797486e-02
1.41592682926829e-01 7.65404484509597e+00 7.96675972867219e-02
1.42134146341463e-01 7.58988661558438e+00 7.91507103480524e-02
1.42675609756098e-01 7.52626617744279e+00 7.86366063464784e-02
1.43217073170732e-01 7.46317902275836e+00 7.81252789919832e-02
1.43758536585366e-01 7.40062068114628e+00 7.76167217628260e-02
1.44300000000000e-01 7.33858672021530e+00 7.71109280140329e-02
1.44841463414634e-01 7.27707274421188e+00 7.66078909622437e-02
1.45382926829268e-01 7.21607439473885e+00 7.61076036802160e-02
1.45924390243902e-01 7.15558734942796e+00 7.56100591099745e-02
1.46465853658537e-01 7.09560732264079e+00 7.51152500333532e-02
1.47007317073171e-01 7.03613006441093e+00 7.46231691811216e-02
1.47548780487805e-01 6.97715136015869e+00 7.41338090846886e-02
1.48090243902439e-01 6.91866703111162e+00 7.36471621768782e-02
1.48631707317073e-01 6.86067293305062e+00 7.31632207776059e-02
1.49173170731707e-01 6.80316495696347e+00 7.26819770657453e-02
1.49714634146341e-01 6.74613902804438e+00 7.22034231825734e-02
1.50256097560976e-01 6.68959110542003e+00 7.17275510908286e-02
1.50797560975610e-01 6.63351718253994e+00 7.12543526702187e-02
1.51339024390244e-01 6.57791328599144e+00 7.07838197036973e-02
1.51880487804878e-01 6.52277547610927e+00 7.03159438721818e-02
1.52421951219512e-01 6.46809984581512e+00 6.98507167658739e-02
1.52963414634146e-01 6.41388252121230e+00 6.93881298577940e-02
1.53504878048781e-01 6.36011966065873e+00 6.89281746000021e-02
1.54046341463415e-01 6.30680745450815e+00 6.84708422920643e-02
1.54587804878049e-01 6.25394212546299e+00 6.80161241698396e-02
1.55129268292683e-01 6.20151992747730e+00 6.75640113925133e-02
1.55670731707317e-01 6.14953714631163e+00 6.71144950173334e-02
1.56212195121951e-01 6.09799009865553e+00 6.66675660908742e-02
1.56753658536585e-01 6.04687513187927e+00 6.62232155239778e-02
1.57295121951220e-01 5.99618862436135e+00 6.57814341759516e-02
1.57836585365854e-01 5.94592698445102e+00 6.53422128421495e-02
1.58378048780488e-01 5.89608665098610e+00 6.49055422298336e-02
1.58919512195122e-01 5.84666409246231e+00 6.44714130447721e-02
1.59460975609756e-01 5.79765580679475e+00 6.40398158723216e-02
1.60002439024390e-01 5.74905832162216e+00 6.36107412572632e-02
1.60543902439024e-01 5.70086819332535e+00 6.31841796919425e-02
1.61085365853659e-01 5.65308200751069e+00 6.27601216113661e-02
1.61626829268293e-01 5.60569637804855e+00 6.23385574023868e-02
1.62168292682927e-01 5.55870794754518e+00 6.19194773810161e-02
1.62709756097561e-01 5.51211338657175e+00 6.15028718730234e-02
1.63251219512195e-01 5.46590939343938e+00 6.10887311029105e-02
1.63792682926829e-01 5.42009269447417e+00 6.06770452682145e-02
1.64334146341463e-01 5.37466004310731e+00 6.02678045282972e-02
1.64875609756098e-01 5.32960822031566e+00 5.98609989826693e-02
1.65417073170732e-01 5.28493403389145e+00 5.94566187475090e-02
1.65958536585366e-01 5.24063431822621e+00 5.90546538500522e-02
1.66500000000000e-01 5.19670593456631e+00 5.86550942990835e-02
1.67041463414634e-01 5.15314577015159e+00 5.82579300742243e-02
1.67582926829268e-01 5.10995073862686e+00 5.78631511213356e-02
1.68124390243902e-01 5.06711777919793e+00 5.74707473604653e-02
1.68665853658537e-01 5.02464385703325e+00 5.70807086654794e-02
1.69207317073171e-01 4.98252596258575e+00 5.66930249353336e-02
1.69748780487805e-01 4.94076111138884e+00 5.63076859954317e-02
1.70290243902439e-01 4.89934634428761e+00 5.59246816632603e-02
1.70831707317073e-01 4.85827872663964e+00 5.55440017382728e-02
