Energy (eV)          EEDF (eV^-(3/2))     First Anisotropy
1.43500000000000e-01 4.63502717098709e-02 5.42542603038467e-05
4.30500000000000e-01 4.47751597904279e-02 8.83640210653488e-05
7.17500000000000e-01 4.32535745811200e-02 1.13449198271765e-04
1.00450000000000e+00 4.17836970945753e-02 1.30661895326058e-04
1.29150000000000e+00 4.03637701576985e-02 1.43563095904534e-04
1.57850000000000e+00 3.89920963110518e-02 1.53558879094462e-04
1.86550000000000e+00 3.76670357796187e-02 1.61406257711416e-04
2.15250000000000e+00 3.63870045125255e-02 1.67579303952742e-04
2.43950000000000e+00 3.51504722893794e-02 1.72403094114229e-04
2.72650000000000e+00 3.39559608909579e-02 1.76114465955887e-04
3.01350000000000e+00 3.28020423320639e-02 1.78893598408646e-04
3.30050000000000e+00 3.16873371544326e-02 1.80882062987668e-04
3.58750000000000e+00 3.06105127776508e-02 1.82193897551443e-04
3.87450000000000e+00 2.95702819061163e-02 1.82922782265792e-04
4.16150000000000e+00 2.85654009901330e-02 1.83146898378216e-04
4.44850000000000e+00 2.75946687393032e-02 1.82932338693000e-04
4.73550000000000e+00 2.66569246864381e-02 1.82335574673598e-04
5.02250000000000e+00 2.57510478002706e-02 1.81405287383935e-04
5.30950000000000e+00 2.48759551453131e-02 1.80183756556845e-04
5.59650000000000e+00 2.40306005872556e-02 1.78707934794161e-04
5.88350000000000e+00 2.32139735423590e-02 1.77010292332105e-04
6.17050000000000e+00 2.24250977693474e-02 1.75119491300148e-04
6.45750000000000e+00 2.16630302023548e-02 1.73060931029027e-04
6.74450000000000e+00 2.09268598235322e-02 1.70857194295941e-04
7.03150000000000e+00 2.02157065739659e-02 1.68528416386467e-04
7.31850000000000e+00 1.95287203016066e-02 1.66092593247467e-04
7.60550000000000e+00 1.88650797449502e-02 1.63565841012345e-04
7.89250000000000e+00 1.82239915512565e-02 1.60962616289766e-04
8.17950000000000e+00 1.76046893281312e-02 1.58295904484090e-04
8.46650000000000e+00 1.70064327273378e-02 1.55577381835565e-04
8.75350000000000e+00 1.64285065597444e-02 1.52817555677496e-04
9.04050000000000e+00 1.58702199403470e-02 1.50025886499991e-04
9.32750000000000e+00 1.53309054623469e-02 1.47210894710705e-04
9.61450000000000e+00 1.48099183992959e-02 1.44380254439230e-04
9.90150000000000e+00 1.43066359343545e-02 1.41540876304884e-04
1.01885000000000e+01 1.38204564157419e-02 1.38698980729737e-04
1.04755000000000e+01 1.33507986374883e-02 1.35860163108980e-04
1.07625000000000e+01 1.28971011446289e-02 1.33029451933958e-04
1.10495000000000e+01 1.24588215620097e-02 1.30211360787577e-04
1.13365000000000e+01 1.20354359459018e-02 1.27409934988731e-04
1.16235000000000e+01 1.16264381576503e-02 1.24628793544966e-04
1.19105000000000e+01 1.12313392586077e-02 1.21871166975772e-04
1.21975000000000e+01 1.08496669256302e-02 1.19139931488519e-04
1.24845000000000e+01 1.04809648864357e-02 1.16437639922035e-04
1.27715000000000e+01 1.01247923741509e-02 1.13766549816565e-04
1.30585000000000e+01 9.78072360039418e-03 1.11128648921553e-04
1.33455000000000e+01 9.44834724626441e-03 1.08525678412575e-04
1.36325000000000e+01 9.12726597062761e-03 1.05959154054669e-04
1.39195000000000e+01 8.81709593511329e-03 1.03430385520280e-04
1.42065000000000e+01 8.51746634525274e-03 1.00940494045055e-04
1.44935000000000e+01 8.22801900721079e-03 9.84904285832971e-05
1.47805000000000e+01 7.94840789958098e-03 9.60809806064064e-05
1.50675000000000e+01 7.67829875973240e-03 9.37127976715401e-05
1.53545000000000e+01 7.41736868421363e-03 9.13863958738316e-05
1.56415000000000e+01 7.16530574273597e-03 8.91021712832985e-05
1.59285000000000e+01 6.92180860527471e-03 8.68604104569695e-05
1.62155000000000e+01 6.68658618184249e-03 8.46613001074051e-05
1.65025000000000e+01 6.45935727450419e-03 8.25049360005702e-05
1.67895000000000e+01 6.23985024121732e-03 8.03913311487915e-05
1.70765000000000e+01 6.02780267109601e-03 7.83204233580995e-05
1.73635000000000e+01 5.82296107071053e-03 7.62920821835867e-05
1.76505000000000e+01 5.62508056104717e-03 7.43061153413599e-05
1.79375000000000e+01 5.43392458476624e-03 7.23622746211627e-05
1.82245000000000e+01 5.24926462340836e-03 7.04602613397193e-05
1.85115000000000e+01 5.07087992421078e-03 6.85997313712653e-05
1.87985000000000e+01 4.89855723620728e-03 6.67802997885080e-05
1.90855000000000e+01 4.73209055529616e-03 6.50015451443487e-05
1.93725000000000e+01 4.57128087797146e-03 6.32630134221087e-05
1.96595000000000e+01 4.41593596342320e-03 6.15642216796406e-05
1.99465000000000e+01 4.26587010372197e-03 5.99046614105883e-05
2.02335000000000e+01 4.12090390181343e-03 5.82838016441322e-05
2.05205000000000e+01 3.98086405705707e-03 5.67010918028241e-05
2.08075000000000e+01 3.84558315805307e-03 5.51559643365300e-05
2.10945000000000e+01 3.71489948250936e-03 5.36478371490621e-05
2.13815000000000e+01 3.58865680390986e-03 5.21761158327776e-05
2.16685000000000e+01 3.46670420475262e-03 5.07401957252281e-05
2.19555000000000e+01 3.34889589613466e-03 4.93394638008571e-05
2.22425000000000e+01 3.23509104346787e-03 4.79733004097481e-05
2.25295000000000e+01 3.12515359811746e-03 4.66410808745142e-05
2.28165000000000e+01 3.01895213476192e-03 4.53421769555913e-05
2.31035000000000e+01 2.91635969427989e-03 4.40759581944275e-05
2.33905000000000e+01 2.81725363197620e-03 4.28417931433660e-05
2.36775000000000e+01 2.72151547096555e-03 4.16390504903675e-05
2.39645000000000e+01 2.62903076053871e-03 4.04671000861314e-05
2.42515000000000e+01 2.53968893934179e-03 3.93253138806222e-05
2.45385000000000e+01 2.45338320320503e-03 3.82130667755063e-05
2.48255000000000e+01 2.37001037746321e-03 3.71297373985493e-05
2.51125000000000e+01 2.28947079361491e-03 3.60747088055759e-05
2.53995000000000e+01 2.21166817017325e-03 3.50473691152163e-05
2.56865000000000e+01 2.13650949756568e-03 3.40471120812893e-05
2.59735000000000e+01 2.06390492694517e-03 3.30733376073314e-05
2.62605000000000e+01 1.99376766277987e-03 3.21254522074707e-05
2.65475000000000e+01 1.92601385909300e-03 3.12028694175541e-05
2.68345000000000e+01 1.86056251922864e-03 3.03050101601628e-05
2.71215000000000e+01 1.79733539902387e-03 2.94313030669027e-05
2.74085000000000e+01 1.73625691327135e-03 2.85811847611263e-05
2.76955000000000e+01 1.67725404536058e-03 2.77541001040243e-05
2.79825000000000e+01 1.62025625998978e-03 2.69495024068244e-05
2.82695000000000e+01 1.56519541884407e-03 2.61668536116484e-05
2.85565000000000e+01 1.51200569913917e-03 2.54056244434080e-05
2.88435000000000e+01 1.46062351493318e-03 2.46652945349540e-05
2.91305000000000e+01 1.41098744111241e-03 2.39453525275457e-05
2.94175000000000e+01 1.36303813996040e-03 2.32452961485679e-05
2.97045000000000e+01 1.31671829022233e-03 2.25646322682899e-05
2.99915000000000e+01 1.27197251857999e-03 2.19028769373409e-05
3.02785000000000e+01 1.22874733345546e-03 2.12595554064639e-05
3.05655000000000e+01 1.18699106106431e-03 2.06342021299995e-05
3.08525000000000e+01 1.14665378364188e-03 2.00263607544600e-05
3.11395000000000e+01 1.10768727976882e-03 1.94355840934541e-05
3.14265000000000e+01 1.07004496672456e-03 1.88614340901422e-05
3.17135000000000e+01 1.03368184479966e-03 1.83034817683174e-05
3.20005000000000e+01 9.98554443500764e-04 1.77613071731366e-05
3.22875000000000e+01 9.64620769583479e-04 1.72344993024532e-05
3.25745000000000e+01 9.31840256851364e-04 1.67226560296375e-05
3.28615000000000e+01 9.00173717660836e-04 1.62253840187094e-05
3.31485000000000e+01 8.69583296074084e-04 1.57422986325545e-05
3.34355000000000e+01 8.40032422603985e-04 1.52730238349331e-05
3.37225000000000e+01 8.11485770496909e-04 1.48171920869519e-05
3.40095000000000e+01 7.83909213501158e-04 1.43744442386115e-05
3.42965000000000e+01 7.57269785070550e-04 1.39444294160063e-05
3.45835000000000e+01 7.31535638954382e-04 1.35268049047079e-05
3.48705000000000e+01 7.06676011126655e-04 1.31212360298288e-05
3.51575000000000e+01 6.82661183009052e-04 1.27273960332217e-05
3.54445000000000e+01 6.59462445943695e-04 1.23449659482427e-05
3.57315000000000e+01 6.37052066873230e-04 1.19736344724708e-05
3.60185000000000e+01 6.15403255187187e-04 1.16130978387477e-05
3.63055000000000e+01 5.94490130695000e-04 1.12630596848779e-05
3.65925000000000e+01 5.74287692687388e-04 1.09232309222962e-05
3.68795000000000e+01 5.54771790049126e-04 1.05933296039934e-05
3.71665000000000e+01 5.35919092387457e-04 1.02730807919649e-05
3.74535000000000e+01 5.17707062141647e-04 9.96221642442465e-06
3.77405000000000e+01 5.00113927640336e-04 9.66047518301046e-06
3.80275000000000e+01 4.83118657074472e-04 9.36760236018650e-06
3.83145000000000e+01 4.66700933354724e-04 9.08334972703217e-06
3.86015000000000e+01 4.50841129823300e-04 8.80747540159012e-06
3.88885000000000e+01 4.35520286791157e-04 8.53974371793190e-06
3.91755000000000e+01 4.20720088872532e-04 8.27992509608519e-06
3.94625000000000e+01 4.06422843089717e-04 8.02779591295365e-06
3.97495000000000e+01 3.92611457721893e-04 7.78313837434960e-06
4.00365000000000e+01 3.79269421872733e-04 7.54574038824571e-06
4.03235000000000e+01 3.66380785732367e-04 7.31539543934326e-06
4.06105000000000e+01 3.53930141510091e-04 7.09190246504512e-06
4.08975000000000e+01 3.41902605015038e-04 6.87506573291036e-06
4.11845000000000e+01 3.30283797862795e-04 6.66469471966052e-06
4.14715000000000e+01 3.19059830286679e-04 6.46060399179921e-06
4.17585000000000e+01 3.08217284533144e-04 6.26261308789890e-06
4.20455000000000e+01 2.97743198821451e-04 6.07054640260248e-06
4.23325000000000e+01 2.87625051848437e-04 5.88423307237981e-06
4.26195000000000e+01 2.77850747819855e-04 5.70350686307491e-06
4.29065000000000e+01 2.68408601990392e-04 5.52820605927292e-06
4.31935000000000e+01 2.59287326695070e-04 5.35817335551040e-06
4.34805000000000e+01 2.50476017855355e-04 5.19325574934941e-06
4.37675000000000e+01 2.41964141943806e-04 5.03330443633014e-06
4.40545000000000e+01 2.33741523391720e-04 4.87817470681288e-06
4.43415000000000e+01 2.25798332424689e-04 4.72772584471692e-06
4.46285000000000e+01 2.18125073311541e-04 4.58182102816033e-06
4.49155000000000e+01 2.10712573012620e-04 4.44032723200076e-06
4.52025000000000e+01 2.03551970213824e-04 4.30311513227544e-06
4.54895000000000e+01 1.96634704733294e-04 4.17005901253536e-06
4.57765000000000e+01 1.89952507288106e-04 4.04103667206593e-06
4.60635000000000e+01 1.83497389608706e-04 3.91592933598473e-06
4.63505000000000e+01 1.77261634889288e-04 3.79462156720413e-06
4.66375000000000e+01 1.71237788562702e-04 3.67700118024561e-06
4.69245000000000e+01 1.65418649388845e-04 3.56295915689005e-06
4.72115000000000e+01 1.59797260845903e-04 3.45238956364719e-06
4.74985000000000e+01 1.54366902814137e-04 3.34518947102595e-06
4.77855000000000e+01 1.49121083542278e-04 3.24125887458583e-06
4.80725000000000e+01 1.44053531886931e-04 3.14050061774876e-06
4.83595000000000e+01 1.39158189815699e-04 3.04282031634980e-06
4.86465000000000e+01 1.34429205165077e-04 2.94812628490372e-06
4.89335000000000e+01 1.29860924644448e-04 2.85632946456417e-06
4.92205000000000e+01 1.25447887077830e-04 2.76734335275122e-06
4.95075000000000e+01 1.21184816875281e-04 2.68108393442265e-06
4.97945000000000e+01 1.17066617726163e-04 2.59746961496354e-06
5.00815000000000e+01 1.13088366506738e-04 2.51642115466848e-06
5.03685000000000e+01 1.09245307394784e-04 2.43786160479034e-06
5.06555000000000e+01 1.05532846184224e-04 2.36171624512918e-06
5.09425000000000e+01 1.01946544792961e-04 2.28791252313458e-06
5.12295000000000e+01 9.84821159573432e-05 2.21637999449470e-06
5.15165000000000e+01 9.51354181069336e-05 2.14705026518515e-06
5.18035000000000e+01 9.19024504134469e-05 2.07985693495051e-06
5.20905000000000e+01 8.87793480079372e-05 2.01473554219155e-06
5.23775000000000e+01 8.57623773605191e-05 1.95162351023108e-06
5.26645000000000e+01 8.28479318170988e-05 1.89046009493147e-06
5.29515000000000e+01 8.00325272877803e-05 1.83118633363693e-06
5.32385000000000e+01 7.73127980817904e-05 1.77374499541390e-06
5.35255000000000e+01 7.46854928839457e-05 1.71808053256276e-06
5.38125000000000e+01 7.21474708678494e-05 1.66413903337443e-06
5.40995000000000e+01 6.96956979411739e-05 1.61186817610571e-06
5.43865000000000e+01 6.73272431185384e-05 1.56121718414758e-06
5.46735000000000e+01 6.50392750176456e-05 1.51213678236013e-06
5.49605000000000e+01 6.28290584744914e-05 1.46457915454923e-06
5.52475000000000e+01 6.06939512735970e-05 1.41849790205933e-06
5.55345000000000e+01 5.86314009893587e-05 1.37384800345767e-06
5.58215000000000e+01 5.66389419347363e-05 1.33058577528535e-06
5.61085000000000e+01 5.47141922136341e-05 1.28866883385083e-06
5.63955000000000e+01 5.28548508734502e-05 1.24805605804213e-06
5.66825000000000e+01 5.10586951543904e-05 1.20870755313393e-06
5.69695000000000e+01 4.93235778322572e-05 1.17058461556655e-06
5.72565000000000e+01 4.76474246515394e-05 1.13364969867388e-06
5.75435000000000e+01 4.60282318457316e-05 1.09786637933754e-06
5.78305000000000e+01 4.44640637419209e-05 1.06319932554552e-06
5.81175000000000e+01 4.29530504467759e-05 1.02961426483329e-06
5.84045000000000e+01 4.14933856111724e-05 9.97077953585977e-07
5.86915000000000e+01 4.00833242707838e-05 9.65558147180806e-07
5.89785000000000e+01 3.87211807600533e-05 9.35023570948985e-07
5.92655000000000e+01 3.74053266970566e-05 9.05443891936928e-07
5.95525000000000e+01 3.61341890368430e-05 8.76789691446871e-07
5.98395000000000e+01 3.49062481909307e-05 8.49032438337496e-07
6.01265000000000e+01 3.37200362107063e-05 8.22144463065441e-07
6.04135000000000e+01 3.25741350325576e-05 7.96098932448942e-07
6.07005000000000e+01 3.14671747826415e-05 7.70869825135331e-07
6.09875000000000e+01 3.03978321392610e-05 7.46431907754397e-07
6.12745000000000e+01 2.93648287508931e-05 7.22760711740086e-07
6.15615000000000e+01 2.83669297079763e-05 6.99832510803259e-07
6.18485000000000e+01 2.74029420666310e-05 6.77624299038680e-07
6.21355000000000e+01 2.64717134225490e-05 6.56113769649803e-07
6.24225000000000e+01 2.55721305333442e-05 6.35279294275152e-07
6.27095000000000e+01 2.47031179877222e-05 6.15099902900584e-07
6.29965000000000e+01 2.38636369198729e-05 5.95555264342026e-07
6.32835000000000e+01 2.30526837675535e-05 5.76625667283588e-07
6.35705000000000e+01 2.22692890723739e-05 5.58292001856326e-07
6.38575000000000e+01 2.15125163208528e-05 5.40535741743284e-07
6.41445000000000e+01 2.07814608248571e-05 5.23338926796743e-07
6.44315000000000e+01 2.00752486400880e-05 5.06684146153950e-07
6.47185000000000e+01 1.93930355213191e-05 4.90554521837960e-07
6.50055000000000e+01 1.87340059131390e-05 4.74933692830439e-07
6.52925000000000e+01 1.80973719749911e-05 4.59805799603661e-07
6.55795000000000e+01 1.74823726393453e-05 4.45155469099285e-07
6.58665000000000e+01 1.68882727018754e-05 4.30967800141699e-07
6.61535000000000e+01 1.63143619425557e-05 4.17228349274048e-07
6.64405000000000e+01 1.57599542766237e-05 4.03923117005392e-07
6.67275000000000e+01 1.52243869343971e-05 3.91038534457699e-07
6.70145000000000e+01 1.47070196689616e-05 3.78561450401618e-07
6.73015000000000e+01 1.42072339907846e-05 3.66479118670342e-07
6.75885000000000e+01 1.37244324283383e-05 3.54779185941050e-07
6.78755000000000e+01 1.32580378138491e-05 3.43449679873746e-07
6.81625000000000e+01 1.28074925933191e-05 3.32478997597511e-07
6.84495000000000e+01 1.23722581599956e-05 3.21855894534517e-07
6.87365000000000e+01 1.19518142104900e-05 3.11569473552320e-07
6.90235000000000e+01 1.15456581227790e-05 3.01609174435230e-07
6.93105000000000e+01 1.11533043553416e-05 2.91964763665804e-07
6.95975000000000e+01 1.07742838667165e-05 2.82626324507711e-07
6.98845000000000e+01 1.04081435547835e-05 2.73584247381480e-07
7.01715000000000e+01 1.00544457151002e-05 2.64829220524818e-07
7.04585000000000e+01 9.71276751764599e-06 2.56352220929460e-07
7.07455000000000e+01 9.38270050134717e-06 2.48144505546670e-07
7.10325000000000e+01 9.06385008578037e-06 2.40197602753759e-07
7.13195000000000e+01 8.75583509946900e-06 2.32503304074182e-07
7.16065000000000e+01 8.45828732420971e-06 2.25053656143945e-07
7.18935000000000e+01 8.17085105488402e-06 2.17840952917288e-07
7.21805000000000e+01 7.89318267422857e-06 2.10857728104780e-07
7.24675000000000e+01 7.62495024205608e-06 2.04096747837138e-07
7.27545000000000e+01 7.36583309843559e-06 1.97551003548291e-07
7.30415000000000e+01 7.11552148035777e-06 1.91213705071332e-07
7.33285000000000e+01 6.87371615142707e-06 1.85078273941252e-07
7.36155000000000e+01 6.64012804413793e-06 1.79138336898448e-07
7.39025000000000e+01 6.41447791430739e-06 1.73387719587177e-07
7.41895000000000e+01 6.19649600725118e-06 1.67820440443321e-07
7.44765000000000e+01 5.98592173530396e-06 1.62430704765955e-07
7.47635000000000e+01 5.78250336629838e-06 1.57212898967353e-07
7.50505000000000e+01 5.58599772263045e-06 1.52161584996228e-07
7.53375000000000e+01 5.39616989055160e-06 1.47271494929172e-07
7.56245000000000e+01 5.21279293933971e-06 1.42537525725340e-07
7.59115000000000e+01 5.03564765001353e-06 1.37954734139632e-07
7.61985000000000e+01 4.86452225326616e-06 1.33518331789691e-07
7.64855000000000e+01 4.69921217630430e-06 1.29223680372228e-07
7.67725000000000e+01 4.53951979829053e-06 1.25066287024264e-07
7.70595000000000e+01 4.38525421409644e-06 1.21041799825025e-07
7.73465000000000e+01 4.23623100608400e-06 1.17146003434349e-07
7.76335000000000e+01 4.09227202364256e-06 1.13374814863562e-07
7.79205000000000e+01 3.95320517021764e-06 1.09724279374918e-07
7.82075000000000e+01 3.81886419757724e-06 1.06190566505792e-07
7.84945000000000e+01 3.68908850706940e-06 1.02769966213925e-07
7.87815000000000e+01 3.56372295763374e-06 9.94588851401391e-08
7.90685000000000e+01 3.44261768033716e-06 9.62538429850199e-08
7.93555000000000e+01 3.32562789921227e-06 9.31514689961878e-08
7.96425000000000e+01 3.21261375818411e-06 9.01484985628594e-08
7.99295000000000e+01 3.10344015387846e-06 8.72417699145002e-08
8.02165000000000e+01 2.99797657411177e-06 8.44282209204650e-08
8.05035000000000e+01 2.89609694186968e-06 8.17048859876072e-08
8.07905000000000e+01 2.79767946458750e-06 7.90688930529226e-08
8.10775000000000e+01 2.70260648855269e-06 7.65174606683927e-08
8.13645000000000e+01 2.61076435825505e-06 7.40478951752565e-08
8.16515000000000e+01 2.52204328051661e-06 7.16575879650255e-08
8.19385000000000e+01 2.43633719323879e-06 6.93440128246432e-08
8.22255000000000e+01 2.35354363860989e-06 6.71047233632571e-08
8.25125000000000e+01 2.27356364062130e-06 6.49373505181467e-08
8.27995000000000e+01 2.19630158674614e-06 6.28396001374233e-08
8.30865000000000e+01 2.12166511363870e-06 6.08092506371889e-08
8.33735000000000e+01 2.04956499671820e-06 5.88441507309006e-08
8.36605000000000e+01 1.97991504350474e-06 5.69422172287713e-08
8.39475000000000e+01 1.91263199058008e-06 5.51014329050799e-08
8.42345000000000e+01 1.84763540404988e-06 5.33198444313364e-08
8.45215000000000e+01 1.78484758338859e-06 5.15955603733130e-08
8.48085000000000e+01 1.72419346855192e-06 4.99267492500003e-08
8.50955000000000e+01 1.66560055024590e-06 4.83116376526136e-08
8.53825000000000e+01 1.60899878324525e-06 4.67485084218208e-08
8.56695000000000e+01 1.55432050265743e-06 4.52356988814282e-08
8.59565000000000e+01 1.50150034303226e-06 4.37715991268058e-08
8.62435000000000e+01 1.45047516022047e-06 4.23546503663825e-08
8.65305000000000e+01 1.40118395588765e-06 4.09833433145971e-08
8.68175000000000e+01 1.35356780459346e-06 3.96562166347373e-08
8.71045000000000e+01 1.30756978334888e-06 3.83718554301426e-08
8.73915000000000e+01 1.26313490356737e-06 3.71288897822960e-08
8.76785000000000e+01 1.22021004532836e-06 3.59259933343711e-08
8.79655000000000e+01 1.17874389387486e-06 3.47618819188435e-08
8.82525000000000e+01 1.13868687826887e-06 3.36353122278191e-08
8.85395000000000e+01 1.09999111213157e-06 3.25450805247729e-08
8.88265000000000e+01 1.06261033639728e-06 3.14900213964255e-08
8.91135000000000e+01 1.02649986401279e-06 3.04690065435285e-08
8.94005000000000e+01 9.91616526516007e-07 2.94809436093658e-08
8.96875000000000e+01 9.57918622429959e-07 2.85247750448113e-08
8.99745000000000e+01 9.25365867410539e-07 2.75994770088176e-08
9.02615000000000e+01 8.93919346088367e-07 2.67040583032505e-08
9.05485000000000e+01 8.63541465547202e-07 2.58375593410092e-08
