Energy (eV)          EEDF (eV^-(3/2))     First Anisotropy
1.00000000000000e-02 1.00185666664685e+00 -1.50444824455198e-04
3.00000000000000e-02 1.00229287177398e+00 5.32421170365910e-04
5.00000000000000e-02 1.00006471902517e+00 2.31654769410833e-03
7.00000000000000e-02 9.96222290583371e-01 3.97430902660174e-03
9.00000000000000e-02 9.91217148165119e-01 5.53415942356574e-03
1.10000000000000e-01 9.85303256174737e-01 6.97115715645526e-03
1.30000000000000e-01 9.78719121614751e-01 8.30124053991134e-03
1.50000000000000e-01 9.71554654597791e-01 9.58213438245937e-03
1.70000000000000e-01 9.63880442014241e-01 1.08133197411932e-02
1.90000000000000e-01 9.55755121146546e-01 1.19933882282308e-02
2.10000000000000e-01 9.47229220869844e-01 1.30614372681580e-02
2.30000000000000e-01 9.38435010945653e-01 1.40171567816821e-02
2.50000000000000e-01 9.29403702393648e-01 1.49258432222985e-02
2.70000000000000e-01 9.20162594145849e-01 1.57892408771028e-02
2.90000000000000e-01 9.10735892717774e-01 1.66088433756075e-02
3.10000000000000e-01 9.01145314046894e-01 1.73585490636090e-02
3.30000000000000e-01 8.91446825795136e-01 1.80418069983968e-02
3.50000000000000e-01 8.81654113599921e-01 1.86906389769214e-02
3.70000000000000e-01 8.71779839936832e-01 1.93060056401793e-02
3.90000000000000e-01 8.61835747131046e-01 1.98888401979987e-02
4.10000000000000e-01 8.51832753955503e-01 2.04119983158392e-02
4.30000000000000e-01 8.41816066585529e-01 2.08793693966999e-02
4.50000000000000e-01 8.31791105499829e-01 2.13235404713606e-02
4.70000000000000e-01 8.21763210727847e-01 2.17448414496588e-02
4.90000000000000e-01 8.11737585747184e-01 2.21436747564228e-02
5.10000000000000e-01 8.01719263230111e-01 2.25093356413987e-02
5.30000000000000e-01 7.91726065621342e-01 2.28417280465717e-02
5.50000000000000e-01 7.81762766418301e-01 2.31523542574583e-02
5.70000000000000e-01 7.71833813372030e-01 2.34419916950714e-02
5.90000000000000e-01 7.61943346821970e-01 2.37113949370702e-02
6.10000000000000e-01 7.52095219270341e-01 2.39656299684559e-02
6.30000000000000e-01 7.42289457776891e-01 2.42131085725064e-02
6.50000000000000e-01 7.32523314727647e-01 2.44565526605855e-02
6.70000000000000e-01 7.22795096897302e-01 2.46941615503838e-02
6.90000000000000e-01 7.13103957979599e-01 2.49244562016063e-02
7.10000000000000e-01 7.03449729759236e-01 2.51459120782036e-02
7.30000000000000e-01 6.93834032781012e-01 2.53626318392562e-02
7.50000000000000e-01 6.84253835344052e-01 2.55784143086634e-02
7.70000000000000e-01 6.74707220851028e-01 2.57910031630777e-02
7.90000000000000e-01 6.65193195585547e-01 2.59984766652503e-02
8.10000000000000e-01 6.55711526614099e-01 2.61951896025434e-02
8.30000000000000e-01 6.46265506344714e-01 2.63725476636359e-02
8.50000000000000e-01 6.36861099364491e-01 2.65273064288649e-02
8.70000000000000e-01 6.27503744997243e-01 2.66605973798185e-02
8.90000000000000e-01 6.18198404274968e-01 2.67734869274976e-02
9.10000000000000e-01 6.08949600568048e-01 2.68684103591244e-02
9.30000000000000e-01 5.99760477028827e-01 2.69489917277680e-02
9.50000000000000e-01 5.90633000784945e-01 2.70170988384844e-02
9.70000000000000e-01 5.81569035897959e-01 2.70730495820451e-02
9.90000000000000e-01 5.72570349313880e-01 2.71171512233743e-02
1.01000000000000e+00 5.63638616546628e-01 2.71694028791487e-02
1.03000000000000e+00 5.54760339250450e-01 2.72543890918968e-02
1.05000000000000e+00 5.45921546479824e-01 2.73736929888103e-02
1.07000000000000e+00 5.37110602554665e-01 2.75214692745092e-02
1.09000000000000e+00 5.28317970918963e-01 2.76923444689215e-02
1.11000000000000e+00 5.19535993079693e-01 2.78931264971870e-02
1.13000000000000e+00 5.10746838166588e-01 2.81174734136095e-02
1.15000000000000e+00 5.01947230159834e-01 2.83480260465846e-02
1.17000000000000e+00 4.93134940069494e-01 2.85818103165739e-02
1.19000000000000e+00 4.84308675203906e-01 2.88161127062350e-02
1.21000000000000e+00 4.75467973415708e-01 2.90634796084253e-02
1.23000000000000e+00 4.66596989277186e-01 2.93152583551205e-02
1.25000000000000e+00 4.57700522079292e-01 2.95489414909720e-02
1.27000000000000e+00 4.48783301382550e-01 2.97645021289327e-02
1.29000000000000e+00 4.39850016519196e-01 2.99618381783778e-02
1.31000000000000e+00 4.30905339423754e-01 3.01375502326103e-02
1.33000000000000e+00 4.21958276974710e-01 3.02961114989401e-02
1.35000000000000e+00 4.13010761683451e-01 3.04451477183011e-02
1.37000000000000e+00 4.04064824254620e-01 3.05842371654301e-02
1.39000000000000e+00 3.95122617448826e-01 3.07128906094062e-02
1.41000000000000e+00 3.86186428491678e-01 3.08306470466738e-02
1.43000000000000e+00 3.77258646999422e-01 3.09371562737739e-02
1.45000000000000e+00 3.68341730003123e-01 3.10320609162733e-02
1.47000000000000e+00 3.59438239260720e-01 3.11149230552187e-02
1.49000000000000e+00 3.50550848688993e-01 3.11852864050758e-02
1.51000000000000e+00 3.41682345238581e-01 3.12493784506713e-02
1.53000000000000e+00 3.32826836544112e-01 3.13025176112285e-02
1.55000000000000e+00 3.23989737137896e-01 3.13342119398581e-02
1.57000000000000e+00 3.15176042441318e-01 3.13457208885748e-02
1.59000000000000e+00 3.06390391539099e-01 3.13381216239315e-02
1.61000000000000e+00 2.97637120427191e-01 3.13440524488182e-02
1.63000000000000e+00 2.88892582504717e-01 3.13941327977384e-02
1.65000000000000e+00 2.80144155876124e-01 3.14835837057654e-02
1.67000000000000e+00 2.71381060277193e-01 3.16061800458623e-02
1.69000000000000e+00 2.62594282621723e-01 3.17559444293167e-02
1.71000000000000e+00 2.53776478728607e-01 3.19100043620191e-02
1.73000000000000e+00 2.44921179301388e-01 3.20086512535549e-02
1.75000000000000e+00 2.36053980249626e-01 3.20157684252179e-02
1.77000000000000e+00 2.27198569823032e-01 3.19381922814055e-02
1.79000000000000e+00 2.18376766190268e-01 3.17826476474155e-02
1.81000000000000e+00 2.09608564347357e-01 3.15909864861356e-02
1.83000000000000e+00 2.00821903084113e-01 3.13356743364183e-02
1.85000000000000e+00 1.92053791963216e-01 3.09570263714007e-02
1.87000000000000e+00 1.83337999033801e-01 3.04694200249044e-02
1.89000000000000e+00 1.74705110753955e-01 2.98865703992230e-02
1.91000000000000e+00 1.66182610247686e-01 2.92037858850350e-02
1.93000000000000e+00 1.57814560673095e-01 2.83996559275019e-02
1.95000000000000e+00 1.49641663067663e-01 2.74734055477386e-02
1.97000000000000e+00 1.41700458580412e-01 2.64417810448487e-02
1.99000000000000e+00 1.34023374486941e-01 2.53208384095649e-02
2.01000000000000e+00 1.26638829840880e-01 2.41476635718682e-02
2.03000000000000e+00 1.19566005500274e-01 2.29693829903563e-02
2.05000000000000e+00 1.12804544362921e-01 2.18072829443328e-02
2.07000000000000e+00 1.06352805548446e-01 2.06652245856948e-02
2.09000000000000e+00 1.00208020703425e-01 1.95464726048024e-02
2.11000000000000e+00 9.43664401730492e-02 1.84800621577481e-02
2.13000000000000e+00 8.88368016652942e-02 1.74784328063425e-02
2.15000000000000e+00 8.36023452740768e-02 1.65309295692420e-02
2.17000000000000e+00 7.86470903357171e-02 1.56350608890730e-02
2.19000000000000e+00 7.39558083928232e-02 1.47884136611731e-02
2.21000000000000e+00 6.95139969633458e-02 1.39860079688036e-02
2.23000000000000e+00 6.53173207766394e-02 1.32102208804640e-02
2.25000000000000e+00 6.13608630193834e-02 1.24494519756842e-02
2.27000000000000e+00 5.76392609926241e-02 1.17051421765064e-02
2.29000000000000e+00 5.41467892289902e-02 1.09784640735823e-02
2.31000000000000e+00 5.08774401632981e-02 1.02792105639989e-02
2.33000000000000e+00 4.78220023149686e-02 9.62042063375003e-03
2.35000000000000e+00 4.49660539048530e-02 9.00488918274071e-03
2.37000000000000e+00 4.22961814355727e-02 8.42967775082066e-03
2.39000000000000e+00 3.97999122099542e-02 7.89203637637307e-03
2.41000000000000e+00 3.74656508535302e-02 7.38808715047631e-03
2.43000000000000e+00 3.52851912568860e-02 6.91048779684961e-03
2.45000000000000e+00 3.32511861193159e-02 6.45434399077273e-03
2.47000000000000e+00 3.13566405143173e-02 6.01867606156907e-03
2.49000000000000e+00 2.95949074425547e-02 5.60250690404122e-03
2.51000000000000e+00 2.79596830558677e-02 5.20906103965768e-03
2.53000000000000e+00 2.64432948489764e-02 4.84374340462407e-03
2.55000000000000e+00 2.50360992467832e-02 4.50723113844336e-03
2.57000000000000e+00 2.37292620726260e-02 4.19718529256358e-03
2.59000000000000e+00 2.25146869042880e-02 3.91146810245266e-03
2.61000000000000e+00 2.13849497321769e-02 3.64869179596998e-03
2.63000000000000e+00 2.03337767258694e-02 3.40686772248012e-03
2.65000000000000e+00 1.93548648391104e-02 3.18386887532053e-03
2.67000000000000e+00 1.84423932958270e-02 2.97832871156222e-03
2.69000000000000e+00 1.75909828330140e-02 2.78899288501068e-03
2.71000000000000e+00 1.67956583998764e-02 2.61616189049939e-03
2.73000000000000e+00 1.60538905296416e-02 2.45723772030928e-03
2.75000000000000e+00 1.53617914791333e-02 2.30899751535560e-03
2.77000000000000e+00 1.47157505863305e-02 2.17074994575903e-03
2.79000000000000e+00 1.41124128737695e-02 2.04185457239131e-03
2.81000000000000e+00 1.35486593393154e-02 1.92394717791001e-03
2.83000000000000e+00 1.30223244503293e-02 1.81807445216552e-03
2.85000000000000e+00 1.25295043713398e-02 1.72335740097305e-03
2.87000000000000e+00 1.20666194267431e-02 1.63903880963074e-03
2.89000000000000e+00 1.16303862719195e-02 1.56442268519147e-03
2.91000000000000e+00 1.12177934462484e-02 1.49698177705115e-03
2.93000000000000e+00 1.08274502526987e-02 1.43223785617387e-03
2.95000000000000e+00 1.04588062994001e-02 1.36795959267454e-03
2.97000000000000e+00 1.01113182867905e-02 1.30414052750676e-03
2.99000000000000e+00 9.78445067796843e-03 1.24077145599245e-03
3.01000000000000e+00 9.47767617811116e-03 1.17848693419032e-03
3.03000000000000e+00 9.18826472038521e-03 1.11907836716843e-03
3.05000000000000e+00 8.91510531480785e-03 1.06320309224491e-03
3.07000000000000e+00 8.65715436488975e-03 1.01067045579093e-03
3.09000000000000e+00 8.41343112875929e-03 9.61302131995989e-04
3.11000000000000e+00 8.18301350686101e-03 9.15003900567745e-04
3.13000000000000e+00 7.96543775049878e-03 8.71787349736596e-04
3.15000000000000e+00 7.75974438109358e-03 8.31679721772632e-04
3.17000000000000e+00 7.56503436668652e-03 7.94518705981293e-04
3.19000000000000e+00 7.38046508846623e-03 7.60152272689811e-04
3.21000000000000e+00 7.20524666151009e-03 7.28522972542990e-04
3.23000000000000e+00 7.03824888057038e-03 6.99402614202743e-04
3.25000000000000e+00 6.87886422087635e-03 6.72427714033843e-04
3.27000000000000e+00 6.72651996506283e-03 6.47496370938827e-04
3.29000000000000e+00 6.58067612707399e-03 6.24512374286714e-04
3.31000000000000e+00 6.44082354653735e-03 6.03474364635602e-04
3.33000000000000e+00 6.30624828263627e-03 5.84208726742164e-04
3.35000000000000e+00 6.17655644859263e-03 5.66432219641314e-04
3.37000000000000e+00 6.05137471243609e-03 5.50080428460280e-04
3.39000000000000e+00 5.93034921138127e-03 5.35092072154344e-04
3.41000000000000e+00 5.81314454584566e-03 5.21182929598020e-04
3.43000000000000e+00 5.69954285249375e-03 5.07861493702137e-04
3.45000000000000e+00 5.58943329094829e-03 4.94884825515910e-04
3.47000000000000e+00 5.48270897649388e-03 4.82241490910975e-04
3.49000000000000e+00 5.37926684417785e-03 4.69920379757410e-04
3.51000000000000e+00 5.27900751445467e-03 4.58037853877406e-04
3.53000000000000e+00 5.18170705613934e-03 4.46647555723229e-04
3.55000000000000e+00 5.08725192973162e-03 4.35663834432600e-04
3.57000000000000e+00 4.99553324231484e-03 4.25071669185068e-04
3.59000000000000e+00 4.90644655706772e-03 4.14856588565741e-04
3.61000000000000e+00 4.81989170940704e-03 4.04884983317176e-04
3.63000000000000e+00 4.73582306008097e-03 3.94914150740873e-04
3.65000000000000e+00 4.65424393463470e-03 3.84832193682164e-04
3.67000000000000e+00 4.57515566313549e-03 3.74647458347557e-04
3.69000000000000e+00 4.49855769618641e-03 3.64367903119499e-04
3.71000000000000e+00 4.42444771413120e-03 3.54260486310438e-04
3.73000000000000e+00 4.35265827354347e-03 3.44629816110758e-04
3.75000000000000e+00 4.28306809204696e-03 3.35499522354219e-04
3.77000000000000e+00 4.21556088262768e-03 3.26851988257199e-04
3.79000000000000e+00 4.15002513975318e-03 3.18670291327695e-04
3.81000000000000e+00 4.08635393724403e-03 3.10939472003456e-04
3.83000000000000e+00 4.02444420920501e-03 3.03646395006150e-04
3.85000000000000e+00 3.96419662042483e-03 2.96777096489464e-04
3.87000000000000e+00 3.90551592606262e-03 2.90316854605648e-04
3.89000000000000e+00 3.84831080881460e-03 2.84251469123895e-04
3.91000000000000e+00 3.79249372502560e-03 2.78610239392948e-04
3.93000000000000e+00 3.73794143629697e-03 2.73359377329706e-04
3.95000000000000e+00 3.68458308123313e-03 2.68420853418361e-04
3.97000000000000e+00 3.63235058877514e-03 2.63784246195517e-04
3.99000000000000e+00 3.58117857816685e-03 2.59439455088039e-04
4.01000000000000e+00 3.53100426459017e-03 2.55381010334732e-04
4.03000000000000e+00 3.48174525306835e-03 2.51502875155051e-04
4.05000000000000e+00 3.43338207693391e-03 2.47696741564355e-04
4.07000000000000e+00 3.38589573503288e-03 2.43961094403308e-04
4.09000000000000e+00 3.33926767945784e-03 2.40294453088879e-04
4.11000000000000e+00 3.29347980382770e-03 2.36695645327979e-04
4.13000000000000e+00 3.24851432648539e-03 2.33163785064158e-04
4.15000000000000e+00 3.20435378904167e-03 2.29697722451183e-04
4.17000000000000e+00 3.16098115097693e-03 2.26296065030749e-04
4.19000000000000e+00 3.11837977882945e-03 2.22957451703796e-04
4.21000000000000e+00 3.07653343568533e-03 2.19707153835169e-04
4.23000000000000e+00 3.03540743759701e-03 2.16542626613763e-04
4.25000000000000e+00 2.99498725005125e-03 2.13433961349291e-04
4.27000000000000e+00 2.95525867053753e-03 2.10380030919568e-04
4.29000000000000e+00 2.91620782024476e-03 2.07379732849909e-04
4.31000000000000e+00 2.87782113598292e-03 2.04431494155332e-04
4.33000000000000e+00 2.84008554652275e-03 2.01533308813184e-04
4.35000000000000e+00 2.80298844816710e-03 1.98683722743795e-04
4.37000000000000e+00 2.76651751424100e-03 1.95881794133101e-04
4.39000000000000e+00 2.73066068837488e-03 1.93126601149638e-04
4.41000000000000e+00 2.69540617796532e-03 1.90444046190722e-04
4.43000000000000e+00 2.66072498781486e-03 1.87833364869552e-04
4.45000000000000e+00 2.62660618589494e-03 1.85266283233229e-04
4.47000000000000e+00 2.59303907706478e-03 1.82741966138192e-04
4.49000000000000e+00 2.56001319728148e-03 1.80259596354454e-04
4.51000000000000e+00 2.52751830807464e-03 1.77870670640132e-04
4.53000000000000e+00 2.49551120112084e-03 1.75573899309885e-04
4.55000000000000e+00 2.46398295208849e-03 1.73314443201173e-04
4.57000000000000e+00 2.43292482255715e-03 1.71091613268822e-04
4.59000000000000e+00 2.40232825570575e-03 1.68904734542850e-04
4.61000000000000e+00 2.37218487211381e-03 1.66742676661935e-04
4.63000000000000e+00 2.34249289058127e-03 1.64604183225058e-04
4.65000000000000e+00 2.31324436631752e-03 1.62498732830460e-04
4.67000000000000e+00 2.28443151467181e-03 1.60425736166161e-04
4.69000000000000e+00 2.25604670757970e-03 1.58384615624026e-04
4.71000000000000e+00 2.22808246998365e-03 1.56379416664166e-04
4.73000000000000e+00 2.20052858825436e-03 1.54408982804724e-04
4.75000000000000e+00 2.17337815403181e-03 1.52467465928940e-04
4.77000000000000e+00 2.14662439258366e-03 1.50554372819550e-04
4.79000000000000e+00 2.12026065984740e-03 1.48669219977427e-04
4.81000000000000e+00 2.09428043954568e-03 1.46839784069700e-04
4.83000000000000e+00 2.06866036600563e-03 1.45064962957414e-04
4.85000000000000e+00 2.04339471046578e-03 1.43314827963621e-04
4.87000000000000e+00 2.01847784896600e-03 1.41588982816294e-04
4.89000000000000e+00 1.99390426009447e-03 1.39887038701645e-04
4.91000000000000e+00 1.96966852285373e-03 1.38273569284011e-04
4.93000000000000e+00 1.94572672119766e-03 1.36746250727391e-04
4.95000000000000e+00 1.92207495446883e-03 1.35236620900950e-04
4.97000000000000e+00 1.89870938127119e-03 1.33740590143973e-04
4.99000000000000e+00 1.87562852551597e-03 1.32020049169384e-04
5.01000000000000e+00 1.85296963480214e-03 1.29982675750446e-04
5.03000000000000e+00 1.83078324544441e-03 1.28228880097576e-04
5.05000000000000e+00 1.80885552823214e-03 1.26857292145132e-04
5.07000000000000e+00 1.78718307249657e-03 1.25501665852256e-04
5.09000000000000e+00 1.76576251857661e-03 1.24161798859650e-04
5.11000000000000e+00 1.74459055696433e-03 1.22779016286300e-04
5.13000000000000e+00 1.72369793203742e-03 1.21354927177807e-04
5.15000000000000e+00 1.70308027174180e-03 1.19950626798172e-04
5.17000000000000e+00 1.68273328249579e-03 1.18565800042496e-04
5.19000000000000e+00 1.66265274760116e-03 1.17200137439900e-04
5.21000000000000e+00 1.64283452569131e-03 1.15857274128178e-04
5.23000000000000e+00 1.62327228347148e-03 1.14536808788412e-04
5.25000000000000e+00 1.60396209858904e-03 1.13234334138035e-04
5.27000000000000e+00 1.58490011771175e-03 1.11949569128077e-04
5.29000000000000e+00 1.56608255511799e-03 1.10682237767162e-04
5.31000000000000e+00 1.54750569135450e-03 1.09417014395834e-04
5.33000000000000e+00 1.52917445187976e-03 1.08153998755963e-04
5.35000000000000e+00 1.51108497856197e-03 1.06908625871210e-04
5.37000000000000e+00 1.49323348256501e-03 1.05680613221044e-04
5.39000000000000e+00 1.47561624295135e-03 1.04469683352158e-04
5.41000000000000e+00 1.45822960531629e-03 1.03282802875056e-04
5.43000000000000e+00 1.44106590640874e-03 1.02119534772242e-04
5.45000000000000e+00 1.42412174535970e-03 1.00972076301385e-04
5.47000000000000e+00 1.40739378074439e-03 9.98401810590228e-05
5.49000000000000e+00 1.39087872938881e-03 9.87236070184861e-05
5.51000000000000e+00 1.37457336522896e-03 9.76290538488703e-05
5.53000000000000e+00 1.35847065333564e-03 9.65561181179026e-05
5.55000000000000e+00 1.34256759691416e-03 9.54973421028349e-05
5.57000000000000e+00 1.32686125002874e-03 9.44525114994171e-05
5.59000000000000e+00 1.31134871662671e-03 9.34214156604137e-05
5.61000000000000e+00 1.29602714958409e-03 9.23839387346080e-05
5.63000000000000e+00 1.28090474584889e-03 9.13403313691708e-05
5.65000000000000e+00 1.26597842577381e-03 9.03111065962111e-05
5.67000000000000e+00 1.25124516408889e-03 8.92960368698830e-05
5.69000000000000e+00 1.23670198884273e-03 8.82948986363157e-05
5.71000000000000e+00 1.22234598034666e-03 8.73078533796505e-05
5.73000000000000e+00 1.20817414563295e-03 8.63354328738970e-05
5.75000000000000e+00 1.19418342327306e-03 8.53777687561523e-05
5.77000000000000e+00 1.18037080974239e-03 8.44346076521284e-05
5.79000000000000e+00 1.16673335822685e-03 8.35057008779935e-05
5.81000000000000e+00 1.15326817745658e-03 8.26031944951504e-05
5.83000000000000e+00 1.13996577262884e-03 8.17265839386891e-05
5.85000000000000e+00 1.12682355010448e-03 8.08627706623127e-05
5.87000000000000e+00 1.11383896346420e-03 8.00115427152124e-05
5.89000000000000e+00 1.10100951255963e-03 7.91726919478618e-05
5.91000000000000e+00 1.08833274259978e-03 7.83341036972671e-05
5.93000000000000e+00 1.07581258136057e-03 7.74958261130982e-05
5.95000000000000e+00 1.06344648500923e-03 7.66700166485335e-05
5.97000000000000e+00 1.05123195703079e-03 7.58564639699217e-05
5.99000000000000e+00 1.03916654727273e-03 7.50549605821221e-05
6.01000000000000e+00 1.02724785101034e-03 7.42591519168380e-05
6.03000000000000e+00 1.01547665849279e-03 7.34682130745754e-05
6.05000000000000e+00 1.00385080460209e-03 7.26875916811479e-05
6.07000000000000e+00 9.92368160711442e-04 7.19171315215160e-05
6.09000000000000e+00 9.81026633993891e-04 7.11566790477046e-05
6.11000000000000e+00 9.69824166745586e-04 7.04200924713100e-05
6.13000000000000e+00 9.58751488135115e-04 6.97069551299270e-05
6.15000000000000e+00 9.47806801796464e-04 6.90026209959659e-05
6.17000000000000e+00 9.36988340040182e-04 6.83069639816241e-05
6.19000000000000e+00 9.26294363334739e-04 6.76198600491000e-05
6.21000000000000e+00 9.15723159798667e-04 6.69411806236661e-05
6.23000000000000e+00 9.05273046759420e-04 6.62707931226030e-05
6.25000000000000e+00 8.94942370073649e-04 6.56085738421602e-05
6.27000000000000e+00 8.84729501646094e-04 6.49544073425606e-05
6.29000000000000e+00 8.74632838966370e-04 6.43081800285716e-05
6.31000000000000e+00 8.64650804654713e-04 6.36776008828199e-05
