Energy (eV)          EEDF (eV^-(3/2))     First Anisotropy
1.47692307692308e-02 8.56982792468403e-02 3.98456878144010e-05
4.43076923076923e-02 8.52446907182555e-02 6.58437841158407e-05
7.38461538461538e-02 8.47935029665249e-02 8.70464614105933e-05
1.03384615384615e-01 8.43447032861472e-02 1.03230735354313e-04
1.32923076923077e-01 8.38982790375728e-02 1.16792044392474e-04
1.62461538461538e-01 8.34542176460213e-02 1.28633994579401e-04
1.92000000000000e-01 8.30125066084117e-02 1.39223186286833e-04
2.21538461538462e-01 8.25731334820230e-02 1.48840787945528e-04
2.51076923076923e-01 8.21360858947525e-02 1.57672884097460e-04
2.80615384615385e-01 8.17013515360098e-02 1.65850720913549e-04
3.10153846153846e-01 8.12689181637971e-02 1.73471251214523e-04
3.39692307692308e-01 8.08387735979065e-02 1.80608668662956e-04
3.69230769230769e-01 8.04109057252780e-02 1.87321355966990e-04
3.98769230769231e-01 7.99853024945559e-02 1.93656305659994e-04
4.28307692307692e-01 7.95619519193453e-02 1.99652057475259e-04
4.57846153846154e-01 7.91408420777292e-02 2.05340722665964e-04
4.87384615384615e-01 7.87219611088417e-02 2.10749419608618e-04
5.16923076923077e-01 7.83052972164846e-02 2.15901319183898e-04
5.46461538461538e-01 7.78908386651479e-02 2.20816422462838e-04
5.76000000000000e-01 7.74785737830627e-02 2.25512150261438e-04
6.05538461538461e-01 7.70684909587193e-02 2.30003797711892e-04
6.35076923076923e-01 7.66605786434898e-02 2.34304889847531e-04
6.64615384615385e-01 7.62548253485333e-02 2.38427463551440e-04
6.94153846153846e-01 7.58512196470806e-02 2.42382293673366e-04
7.23692307692308e-01 7.54497501716490e-02 2.46179076411933e-04
7.53230769230769e-01 7.50504056160543e-02 2.49826579396842e-04
7.82769230769231e-01 7.46531747328791e-02 2.53332765770428e-04
8.12307692307692e-01 7.42580463347698e-02 2.56704897081995e-04
8.41846153846154e-01 7.38650092940811e-02 2.59949620371301e-04
8.71384615384615e-01 7.34740525410792e-02 2.63073040996276e-04
9.00923076923077e-01 7.30851650655624e-02 2.66080784867922e-04
9.30461538461538e-01 7.26983359147040e-02 2.68978051629428e-04
9.60000000000000e-01 7.23135541945120e-02 2.71769660340516e-04
9.89538461538461e-01 7.19308090678270e-02 2.74460088857817e-04
1.01907692307692e+00 7.15500897563807e-02 2.77053508380482e-04
1.04861538461538e+00 7.11713855374057e-02 2.79553814085943e-04
1.07815384615385e+00 7.07946857417636e-02 2.81964648881763e-04
1.10769230769231e+00 7.04199797639492e-02 2.84289428119819e-04
1.13723076923077e+00 7.00472570509375e-02 2.86531361178693e-04
1.16676923076923e+00 6.96765071055621e-02 2.88693467474758e-04
1.19630769230769e+00 6.93077194862012e-02 2.90778593140179e-04
1.22584615384615e+00 6.89408838065215e-02 2.92789425297221e-04
1.25538461538462e+00 6.85759897351648e-02 2.94728505400321e-04
1.28492307692308e+00 6.82130269926307e-02 2.96598238954792e-04
1.31446153846154e+00 6.78519853595741e-02 2.98400906977118e-04
1.34400000000000e+00 6.74928546678165e-02 3.00138676435719e-04
1.37353846153846e+00 6.71356248029933e-02 3.01813606879017e-04
1.40307692307692e+00 6.67802857042761e-02 3.03427658625513e-04
1.43261538461538e+00 6.64268273640955e-02 3.04982700186767e-04
1.46215384615385e+00 6.60752398254423e-02 3.06480512979996e-04
1.49169230769231e+00 6.57255131888996e-02 3.07922798111508e-04
1.52123076923077e+00 6.53776376049636e-02 3.09311182662312e-04
1.55076923076923e+00 6.50316032762636e-02 3.10647222880828e-04
1.58030769230769e+00 6.46874004572765e-02 3.11932409108675e-04
1.60984615384615e+00 6.43450194540722e-02 3.13168169816175e-04
1.63938461538462e+00 6.40044506240301e-02 3.14355875786801e-04
1.66892307692308e+00 6.36656843735400e-02 3.15496842127392e-04
1.69846153846154e+00 6.33287111638787e-02 3.16592332378296e-04
1.72800000000000e+00 6.29935215047270e-02 3.17643562383481e-04
1.75753846153846e+00 6.26601059559939e-02 3.18651701558068e-04
1.78707692307692e+00 6.23284551275545e-02 3.19617875877779e-04
1.81661538461538e+00 6.19985596789888e-02 3.20543170640135e-04
1.84615384615385e+00 6.16704103175378e-02 3.21428631329874e-04
1.87569230769231e+00 6.13439978032265e-02 3.22275266509130e-04
1.90523076923077e+00 6.10193129431638e-02 3.23084050570307e-04
1.93476923076923e+00 6.06963465931155e-02 3.23855924166080e-04
1.96430769230769e+00 6.03750896572413e-02 3.24591796288932e-04
1.99384615384615e+00 6.00555330878509e-02 3.25292545802875e-04
2.02338461538462e+00 5.97376678851420e-02 3.25959023272794e-04
2.05292307692308e+00 5.94214850954115e-02 3.26592051121368e-04
2.08246153846154e+00 5.91069758154546e-02 3.27192425687379e-04
2.11200000000000e+00 5.87941311876181e-02 3.27760919207780e-04
2.14153846153846e+00 5.84829424011288e-02 3.28298279723511e-04
2.17107692307692e+00 5.81734006918486e-02 3.28805232530842e-04
2.20061538461538e+00 5.78654973420293e-02 3.29282481534234e-04
2.23015384615385e+00 5.75592236786934e-02 3.29730709073649e-04
2.25969230769231e+00 5.72545710775407e-02 3.30150577542530e-04
2.28923076923077e+00 5.69515309585168e-02 3.30542730958010e-04
2.31876923076923e+00 5.66500947869806e-02 3.30907794622132e-04
2.34830769230769e+00 5.63502540734602e-02 3.31246376236526e-04
2.37784615384615e+00 5.60520003734215e-02 3.31559066602937e-04
2.40738461538462e+00 5.57553252870264e-02 3.31846440624899e-04
2.43692307692308e+00 5.54602204576889e-02 3.32109056920702e-04
2.46646153846154e+00 5.51666775754920e-02 3.32347459101590e-04
2.49600000000000e+00 5.48746883732700e-02 3.32562177021208e-04
2.52553846153846e+00 5.45842446276128e-02 3.32753726280599e-04
2.55507692307692e+00 5.42953381586361e-02 3.32922609084834e-04
2.58461538461538e+00 5.40079608297522e-02 3.33069315044743e-04
2.61415384615385e+00 5.37221045463485e-02 3.33194320689857e-04
2.64369230769231e+00 5.34377612588590e-02 3.33298090546596e-04
2.67323076923077e+00 5.31549229592105e-02 3.33381078197454e-04
2.70276923076923e+00 5.28735816817159e-02 3.33443725715591e-04
2.73230769230769e+00 5.25937295028467e-02 3.33486464369313e-04
2.76184615384615e+00 5.23153585410156e-02 3.33509714986557e-04
2.79138461538462e+00 5.20384609563513e-02 3.33513888595897e-04
2.82092307692308e+00 5.17630289495055e-02 3.33499385878421e-04
2.85046153846154e+00 5.14890547643735e-02 3.33466598076385e-04
2.88000000000000e+00 5.12165306849123e-02 3.33415907889939e-04
2.90953846153846e+00 5.09454490359177e-02 3.33347688873152e-04
2.93907692307692e+00 5.06758021828095e-02 3.33262306012096e-04
2.96861538461538e+00 5.04075825314175e-02 3.33160116266727e-04
2.99815384615385e+00 5.01407825268793e-02 3.33041467999636e-04
3.02769230769231e+00 4.98753946561091e-02 3.32906701776308e-04
3.05723076923077e+00 4.96114114448839e-02 3.32756151157670e-04
3.08676923076923e+00 4.93488254585412e-02 3.32590142085253e-04
3.11630769230769e+00 4.90876293017669e-02 3.32408993379040e-04
3.14584615384615e+00 4.88278156183915e-02 3.32213016945820e-04
3.17538461538462e+00 4.85693770911807e-02 3.32002518235843e-04
3.20492307692308e+00 4.83123064408308e-02 3.31777795664630e-04
3.23446153846154e+00 4.80565964281769e-02 3.31539141314673e-04
3.26400000000000e+00 4.78022398515579e-02 3.31286841632458e-04
3.29353846153846e+00 4.75492295474294e-02 3.31021176816785e-04
3.32307692307692e+00 4.72975583901627e-02 3.30742421245847e-04
3.35261538461538e+00 4.70472192918451e-02 3.30450843877710e-04
3.38215384615385e+00 4.67982052013453e-02 3.30146707676998e-04
3.41169230769231e+00 4.65505091063320e-02 3.29830270249794e-04
3.44123076923077e+00 4.63041240308437e-02 3.29501784475658e-04
3.47076923076923e+00 4.60590430358413e-02 3.29161497906748e-04
3.50030769230769e+00 4.58152592190122e-02 3.28809653147098e-04
3.52984615384615e+00 4.55727657145781e-02 3.28446487980679e-04
3.55938461538462e+00 4.53315556931003e-02 3.28072235721087e-04
3.58892307692308e+00 4.50916223606218e-02 3.27687124651448e-04
3.61846153846154e+00 4.48529589604866e-02 3.27291378595020e-04
3.64800000000000e+00 4.46155587711246e-02 3.26885217484361e-04
3.67753846153846e+00 4.43794151065416e-02 3.26468856778858e-04
3.70707692307692e+00 4.41445213161314e-02 3.26042507799882e-04
3.73661538461538e+00 4.39108707844893e-02 3.25606378045164e-04
3.76615384615385e+00 4.36784569306101e-02 3.25160670644053e-04
3.79569230769231e+00 4.34472732095597e-02 3.24705584882611e-04
3.82523076923077e+00 4.32173131104216e-02 3.24241316728011e-04
3.85476923076923e+00 4.29885701567405e-02 3.23768058264512e-04
3.88430769230769e+00 4.27610379063389e-02 3.23285997997505e-04
3.91384615384615e+00 4.25347099511382e-02 3.22795320936744e-04
3.94338461538462e+00 4.23095799169768e-02 3.22296208877392e-04
3.97292307692308e+00 4.20856414628698e-02 3.21788839875690e-04
4.00246153846154e+00 4.18628882825240e-02 3.21273388728458e-04
4.03200000000000e+00 4.16413141024556e-02 3.20750027452554e-04
4.06153846153846e+00 4.14209126823850e-02 3.20218924744266e-04
4.09107692307692e+00 4.12016778150614e-02 3.19680246253319e-04
4.12061538461538e+00 4.09836033260889e-02 3.19134154839899e-04
4.15015384615385e+00 4.07666830732310e-02 3.18580810069048e-04
4.17969230769231e+00 4.05509109478097e-02 3.18020368656692e-04
4.20923076923077e+00 4.03362808729514e-02 3.17452984916146e-04
4.23876923076923e+00 4.01227868039467e-02 3.16878810238009e-04
4.26830769230769e+00 3.99104227280790e-02 3.16297993342264e-04
4.29784615384615e+00 3.96991826644572e-02 3.15710680334905e-04
4.32738461538462e+00 3.94890606638460e-02 3.15117014941557e-04
4.35692307692308e+00 3.92800508080215e-02 3.14517138024054e-04
4.38646153846154e+00 3.90721472110452e-02 3.13911187992140e-04
4.41600000000000e+00 3.88653440176480e-02 3.13299301215851e-04
4.44553846153846e+00 3.86596354035517e-02 3.12681611529457e-04
4.47507692307692e+00 3.84550155753052e-02 3.12058250461982e-04
4.50461538461538e+00 3.82514787701217e-02 3.11429347453225e-04
4.53415384615385e+00 3.80490192552714e-02 3.10795029389600e-04
4.56369230769231e+00 3.78476313292622e-02 3.10155420989922e-04
4.59323076923077e+00 3.76473093203284e-02 3.09510645192110e-04
4.62276923076923e+00 3.74480475867246e-02 3.08860822677584e-04
4.65230769230769e+00 3.72498405165652e-02 3.08206072085338e-04
4.68184615384615e+00 3.70526825276686e-02 3.07546510051859e-04
4.71138461538462e+00 3.68565680673987e-02 3.06882251409794e-04
4.74092307692308e+00 3.66614916120995e-02 3.06213408745717e-04
4.77046153846154e+00 3.64674476681749e-02 3.05540092758668e-04
4.80000000000000e+00 3.62744307706907e-02 3.04862412619922e-04
4.82953846153846e+00 3.60824354836380e-02 3.04180475520479e-04
4.85907692307692e+00 3.58914563997794e-02 3.03494386868646e-04
4.88861538461538e+00 3.57014881404980e-02 3.02804250475286e-04
4.91815384615385e+00 3.55125253552625e-02 3.02110168129897e-04
4.94769230769231e+00 3.53245627226309e-02 3.01412239938495e-04
4.97723076923077e+00 3.51375949489397e-02 3.00710564662663e-04
5.00676923076923e+00 3.49516167685438e-02 3.00005239286182e-04
5.03630769230769e+00 3.47666229436679e-02 2.99296359199897e-04
5.06584615384615e+00 3.45826082642604e-02 2.98584018230815e-04
5.09538461538462e+00 3.43995675478453e-02 2.97868308813804e-04
5.12492307692308e+00 3.42174956390236e-02 2.97149321588328e-04
5.15446153846154e+00 3.40363874103942e-02 2.96427145714087e-04
5.18400000000000e+00 3.38562377613368e-02 2.95701869188033e-04
5.21353846153846e+00 3.36770416182276e-02 2.94973578432561e-04
5.24307692307692e+00 3.34987939342969e-02 2.94242358467271e-04
5.27261538461538e+00 3.33214896894871e-02 2.93508293070128e-04
5.30215384615385e+00 3.31451238899800e-02 2.92771464391208e-04
5.33169230769231e+00 3.29696915690551e-02 2.92031953251254e-04
5.36123076923077e+00 3.27951877859448e-02 2.91289839441535e-04
5.39076923076923e+00 3.26216076260324e-02 2.90545201329709e-04
5.42030769230769e+00 3.24489462007132e-02 2.89798116021399e-04
5.44984615384615e+00 3.22771986472576e-02 2.89048659381856e-04
5.47938461538461e+00 3.21063601286735e-02 2.88296906186216e-04
5.50892307692308e+00 3.19364258332640e-02 2.87542929752307e-04
5.53846153846154e+00 3.17673909754166e-02 2.86786802220635e-04
5.56800000000000e+00 3.15992507945381e-02 2.86028594835832e-04
5.59753846153846e+00 3.14320005552322e-02 2.85268377572263e-04
5.62707692307692e+00 3.12656355471666e-02 2.84506219284870e-04
5.65661538461538e+00 3.11001510849399e-02 2.83742187850756e-04
5.68615384615385e+00 3.09355425076621e-02 2.82976349817663e-04
5.71569230769231e+00 3.07718051796921e-02 2.82208770669523e-04
5.74523076923077e+00 3.06089344896331e-02 2.81439515093470e-04
5.77476923076923e+00 3.04469258504956e-02 2.80668646621456e-04
5.80430769230769e+00 3.02857746995683e-02 2.79896227772740e-04
5.83384615384615e+00 3.01254764982899e-02 2.79122320070453e-04
5.86338461538462e+00 2.99660267321212e-02 2.78346984174155e-04
5.89292307692308e+00 2.98074209101499e-02 2.77570279545668e-04
5.92246153846154e+00 2.96496545657720e-02 2.76792264698953e-04
5.95200000000000e+00 2.94927232557539e-02 2.76012997451348e-04
5.98153846153846e+00 2.93366225603790e-02 2.75232534583115e-04
6.01107692307692e+00 2.91813480833241e-02 2.74450931971084e-04
6.04061538461538e+00 2.90268954515347e-02 2.73668244713972e-04
6.07015384615385e+00 2.88732603148509e-02 2.72884526812481e-04
6.09969230769231e+00 2.87204383466438e-02 2.72099831406825e-04
6.12923076923077e+00 2.85684252429301e-02 2.71314211015529e-04
6.15876923076923e+00 2.84172167225069e-02 2.70527717209612e-04
6.18830769230769e+00 2.82668085268308e-02 2.69740400739099e-04
6.21784615384615e+00 2.81171964198986e-02 2.68952311545802e-04
6.24738461538462e+00 2.79683761881275e-02 2.68163498881237e-04
6.27692307692308e+00 2.78203436400024e-02 2.67374011002437e-04
6.30646153846154e+00 2.76730946066645e-02 2.66583895395857e-04
6.33600000000000e+00 2.75266249410833e-02 2.65793199002748e-04
6.36553846153846e+00 2.73809305181779e-02 2.65001967909435e-04
6.39507692307692e+00 2.72360072347006e-02 2.64210247466358e-04
6.42461538461538e+00 2.70918510091218e-02 2.63418082399782e-04
6.45415384615385e+00 2.69484577812941e-02 2.62625516520506e-04
6.48369230769231e+00 2.68058235130039e-02 2.61832592937154e-04
6.51323076923077e+00 2.66639441871883e-02 2.61039354270717e-04
6.54276923076923e+00 2.65228158080457e-02 2.60245842358056e-04
6.57230769230769e+00 2.63824344009237e-02 2.59452098364881e-04
6.60184615384615e+00 2.62427960122075e-02 2.58658162795880e-04
6.63138461538461e+00 2.61038967092081e-02 2.57864075599983e-04
6.66092307692308e+00 2.59657325798453e-02 2.57069875893363e-04
6.69046153846154e+00 2.58282997331599e-02 2.56275602160917e-04
6.72000000000000e+00 2.56915942985784e-02 2.55481292459015e-04
6.74953846153846e+00 2.55556124260136e-02 2.54686984133684e-04
6.77907692307692e+00 2.54203502857562e-02 2.53892713927056e-04
6.80861538461538e+00 2.52858040683673e-02 2.53098518077443e-04
6.83815384615385e+00 2.51519699843759e-02 2.52304432054029e-04
6.86769230769231e+00 2.50188442647597e-02 2.51510490748913e-04
6.89723076923077e+00 2.48864231602485e-02 2.50716728670511e-04
6.92676923076923e+00 2.47547029414164e-02 2.49923179673635e-04
6.95630769230769e+00 2.46236798985768e-02 2.49129877060777e-04
6.98584615384615e+00 2.44933503416778e-02 2.48336853590188e-04
7.01538461538462e+00 2.43637106001988e-02 2.47544141570299e-04
7.04492307692308e+00 2.42347570228646e-02 2.46751772607346e-04
7.07446153846154e+00 2.41064859780914e-02 2.45959777787160e-04
7.10400000000000e+00 2.39788938533331e-02 2.45168187858137e-04
7.13353846153846e+00 2.38519770551642e-02 2.44377032974564e-04
7.16307692307692e+00 2.37257320091787e-02 2.43586342792248e-04
7.19261538461538e+00 2.36001551598894e-02 2.42796146558459e-04
7.22215384615385e+00 2.34752429704560e-02 2.42006472870091e-04
7.25169230769231e+00 2.33509919231036e-02 2.41217349847117e-04
7.28123076923077e+00 2.32273985185030e-02 2.40428805307421e-04
7.31076923076923e+00 2.31044592758462e-02 2.39640866520762e-04
7.34030769230769e+00 2.29821707327485e-02 2.38853560299947e-04
7.36984615384615e+00 2.28605294451514e-02 2.38066913007385e-04
7.39938461538461e+00 2.27395319872250e-02 2.37280950640053e-04
7.42892307692308e+00 2.26191749511111e-02 2.36495698599378e-04
7.45846153846154e+00 2.24994549473123e-02 2.35711181855649e-04
7.48800000000000e+00 2.23803686041089e-02 2.34927425113579e-04
7.51753846153846e+00 2.22619125676269e-02 2.34144452578291e-04
7.54707692307692e+00 2.21440835017439e-02 2.33362288041559e-04
7.57661538461538e+00 2.20268780879954e-02 2.32580954962857e-04
7.60615384615385e+00 2.19102930253283e-02 2.31800476248739e-04
7.63569230769231e+00 2.17943250304683e-02 2.31020874409929e-04
7.66523076923077e+00 2.16789708373646e-02 2.30242171719623e-04
7.69476923076923e+00 2.15642271972535e-02 2.29464389989167e-04
7.72430769230769e+00 2.14500908785661e-02 2.28687550650294e-04
7.75384615384615e+00 2.13365586668381e-02 2.27911674760440e-04
7.78338461538462e+00 2.12236273646188e-02 2.27136783079518e-04
7.81292307692308e+00 2.11112937912382e-02 2.26362895859875e-04
7.84246153846154e+00 2.09995547831485e-02 2.25590032995331e-04
7.87200000000000e+00 2.08884071934015e-02 2.24818214171302e-04
7.90153846153846e+00 2.07778478917057e-02 2.24047458651262e-04
7.93107692307692e+00 2.06678737643374e-02 2.23277785354717e-04
7.96061538461538e+00 2.05584817140536e-02 2.22509212930422e-04
7.99015384615385e+00 2.04496686598692e-02 2.21741759554976e-04
8.01969230769231e+00 2.03414315373783e-02 2.20975443075391e-04
8.04923076923077e+00 2.02337672982581e-02 2.20210281152670e-04
8.07876923076923e+00 2.01266729103196e-02 2.19446291057105e-04
8.10830769230769e+00 2.00201453574229e-02 2.18683489742644e-04
8.13784615384615e+00 1.99141816393923e-02 2.17921893851283e-04
8.16738461538461e+00 1.98087787719315e-02 2.17161519782550e-04
8.19692307692308e+00 1.97039337864124e-02 2.16402383501677e-04
8.22646153846154e+00 1.95996437301751e-02 2.15644500674927e-04
8.25600000000000e+00 1.94959056660593e-02 2.14887886805898e-04
8.28553846153846e+00 1.93927166724506e-02 2.14132557040640e-04
8.31507692307692e+00 1.92900738431981e-02 2.13378526238209e-04
8.34461538461538e+00 1.91879742875331e-02 2.12625809036988e-04
8.37415384615385e+00 1.90864151298665e-02 2.11874419670720e-04
8.40369230769231e+00 1.89853935100718e-02 2.11124372098036e-04
8.43323076923077e+00 1.88849065830388e-02 2.10375680132971e-04
8.46276923076923e+00 1.87849515187161e-02 2.09628357257976e-04
8.49230769230769e+00 1.86855255020315e-02 2.08882416691341e-04
8.52184615384615e+00 1.85866257328123e-02 2.08137871390819e-04
8.55138461538461e+00 1.84882494257069e-02 2.07394734116680e-04
8.58092307692308e+00 1.83903938099928e-02 2.06653017256307e-04
8.61046153846154e+00 1.82930561298405e-02 2.05912732947319e-04
8.64000000000000e+00 1.81962336438918e-02 2.05173893201612e-04
8.66953846153846e+00 1.80999236252985e-02 2.04436509727170e-04
8.69907692307692e+00 1.80041233616451e-02 2.03700593992124e-04
8.72861538461538e+00 1.79088301548724e-02 2.02966157284987e-04
8.75815384615385e+00 1.78140413210943e-02 2.02233210546436e-04
8.78769230769231e+00 1.77197541908462e-02 2.01501764487187e-04
8.81723076923077e+00 1.76259661086840e-02 2.00771829706793e-04
8.84676923076923e+00 1.75326744332185e-02 2.00043416522702e-04
8.87630769230769e+00 1.74398765370407e-02 1.99316535031491e-04
8.90584615384615e+00 1.73475698066486e-02 1.98591195111907e-04
8.93538461538462e+00 1.72557516423726e-02 1.97867406482120e-04
8.96492307692308e+00 1.71644194582020e-02 1.97145178539323e-04
8.99446153846154e+00 1.70735706820166e-02 1.96424520471834e-04
9.02400000000000e+00 1.69832027552080e-02 1.95705441372089e-04
9.05353846153846e+00 1.68933131327101e-02 1.94987950073700e-04
9.08307692307692e+00 1.68038992829273e-02 1.94272055209700e-04
9.11261538461538e+00 1.67149586876637e-02 1.93557765267288e-04
9.14215384615385e+00 1.66264888419554e-02 1.92845088433861e-04
9.17169230769231e+00 1.65384872542903e-02 1.92134032704502e-04
9.20123076923077e+00 1.64509514462465e-02 1.91424605990252e-04
9.23076923076923e+00 1.63638789525199e-02 1.90716815961706e-04
9.26030769230769e+00 1.62772673208549e-02 1.90010670104724e-04
9.28984615384615e+00 1.61911141119754e-02 1.89306175722958e-04
9.31938461538462e+00 1.61054168995160e-02 1.88603339989941e-04
