Energy (eV)          EEDF (eV^-(3/2))     First Anisotropy
9.03333333333333e-02 5.41442787839635e-01 1.10510561611731e-03
2.71000000000000e-01 4.82493508450115e-01 1.73132444265733e-03
4.51666666666667e-01 4.29962298923856e-01 2.05049380856958e-03
6.32333333333333e-01 3.83150395277862e-01 2.17851235078740e-03
8.13000000000000e-01 3.41435111309744e-01 2.20804504859761e-03
9.93666666666667e-01 3.04261555471904e-01 2.17868322364309e-03
1.17433333333333e+00 2.71135249622346e-01 2.11248467040480e-03
1.35500000000000e+00 2.41615551623196e-01 2.02324101975153e-03
1.53566666666667e+00 2.15309794285705e-01 1.92011100280084e-03
1.71633333333333e+00 1.91868061442226e-01 1.80938236266752e-03
1.89700000000000e+00 1.70978534048476e-01 1.69544678764321e-03
2.07766666666667e+00 1.52363342275268e-01 1.58138970729725e-03
2.25833333333333e+00 1.35774869016977e-01 1.46937035533301e-03
2.43900000000000e+00 1.20992456440841e-01 1.36087829369021e-03
2.61966666666667e+00 1.07819470761896e-01 1.25691265320641e-03
2.80033333333333e+00 9.60806864798779e-02 1.15811065830666e-03
2.98100000000000e+00 8.56199557273069e-02 1.06484163490454e-03
3.16166666666667e+00 7.62981311770211e-02 9.77276815833213e-04
3.34233333333333e+00 6.79912150265410e-02 8.95441737975987e-04
3.52300000000000e+00 6.05887096962932e-02 8.19255893274102e-04
3.70366666666667e+00 5.39921479859034e-02 7.48562899908604e-04
3.88433333333333e+00 4.81137832188475e-02 6.83153516780484e-04
4.06500000000000e+00 4.28754221077895e-02 6.22783214372461e-04
4.24566666666667e+00 3.82073846262139e-02 5.67185571971092e-04
4.42633333333333e+00 3.40475770985207e-02 5.16082444497094e-04
4.60700000000000e+00 3.03406662748681e-02 4.69191627309952e-04
4.78766666666667e+00 2.70373432885083e-02 4.26232577338320e-04
4.96833333333333e+00 2.40936677336210e-02 3.86930614738942e-04
5.14900000000000e+00 2.14704831987024e-02 3.51019942808710e-04
5.32966666666667e+00 1.91328964087293e-02 3.18245749946015e-04
5.51033333333333e+00 1.70498130653852e-02 2.88365595778319e-04
5.69100000000000e+00 1.51935242492509e-02 2.61150245752768e-04
5.87166666666667e+00 1.35393378366131e-02 2.36384083597332e-04
6.05233333333333e+00 1.20652500390912e-02 2.13865200496098e-04
6.23300000000000e+00 1.07516527213732e-02 1.93405242496239e-04
6.41366666666667e+00 9.58107257458769e-03 1.74829080324951e-04
6.59433333333333e+00 8.53793868282686e-03 1.57974349896149e-04
6.77500000000000e+00 7.60837540682469e-03 1.42690903725146e-04
6.95566666666667e+00 6.78001781086675e-03 1.28840204593944e-04
7.13633333333333e+00 6.04184718224467e-03 1.16294684289250e-04
7.31700000000000e+00 5.38404446565628e-03 1.04937086549213e-04
7.49766666666667e+00 4.79785965066371e-03 9.46598087588776e-05
7.67833333333333e+00 4.27549537771231e-03 8.53642522952811e-05
7.85900000000000e+00 3.81000322120793e-03 7.69601898473677e-05
8.03966666666667e+00 3.39519126197308e-03 6.93651556693106e-05
8.22033333333333e+00 3.02554172150639e-03 6.25038621899480e-05
8.40100000000000e+00 2.69613756688101e-03 5.63076458415822e-05
8.58166666666667e+00 2.40259710468766e-03 5.07139437844450e-05
8.76233333333333e+00 2.14101569523320e-03 4.56658018273602e-05
8.94300000000000e+00 1.90791381463504e-03 4.11114137606862e-05
9.12366666666667e+00 1.70019077043117e-03 3.70036917565086e-05
9.30433333333333e+00 1.51508345584932e-03 3.32998667604390e-05
9.48500000000000e+00 1.35012959605250e-03 2.99611179201528e-05
9.66566666666667e+00 1.20313499513511e-03 2.69522298630314e-05
9.84633333333333e+00 1.07214434873110e-03 2.42412762631789e-05
1.00270000000000e+01 9.55415235297462e-04 2.17993283190457e-05
1.02076666666667e+01 8.51394938835722e-04 1.96001867833085e-05
1.03883333333333e+01 7.58699793374788e-04 1.76201357749738e-05
1.05690000000000e+01 6.76096779531397e-04 1.58377170629883e-05
1.07496666666667e+01 6.02487122854251e-04 1.42335236643123e-05
1.09303333333333e+01 5.36891675966012e-04 1.27900108104340e-05
1.11110000000000e+01 4.78437896325011e-04 1.14913232721565e-05
1.12916666666667e+01 4.26348239398875e-04 1.03231380722895e-05
1.14723333333333e+01 3.79929814452474e-04 9.27252083892715e-06
1.16530000000000e+01 3.38565169321605e-04 8.32779497889378e-06
1.18336666666667e+01 3.01704076889827e-04 7.47842280860480e-06
1.20143333333333e+01 2.68856215083527e-04 6.71489727901297e-06
1.21950000000000e+01 2.39584645694272e-04 6.02864359035205e-06
1.23756666666667e+01 2.13500002111848e-04 5.41192997994834e-06
1.25563333333333e+01 1.90255309374150e-04 4.85778663492194e-06
1.27370000000000e+01 1.69541369442858e-04 4.35993214982954e-06
1.29176666666667e+01 1.51082648175311e-04 3.91270695188360e-06
1.30983333333333e+01 1.34633609767372e-04 3.51101289675680e-06
1.32790000000000e+01 1.19975451136524e-04 3.15025857046625e-06
1.34596666666667e+01 1.06913191353160e-04 2.82630984212044e-06
1.36403333333333e+01 9.52730777324165e-05 2.53544506672733e-06
1.38210000000000e+01 8.49002749164503e-05 2.27431457326810e-06
1.40016666666667e+01 7.56568052213546e-05 2.03990408473624e-06
1.41823333333333e+01 6.74197130738569e-05 1.82950162033044e-06
1.43630000000000e+01 6.00794296883749e-05 1.64066759747072e-06
1.45436666666667e+01 5.35383155610630e-05 1.47120786270634e-06
1.47243333333333e+01 4.77093615441967e-05 1.31914931662088e-06
1.49050000000000e+01 4.25150316089323e-05 1.18271791667115e-06
1.50856666666667e+01 3.78862314464821e-05 1.06031885213985e-06
1.52663333333333e+01 3.37613892907362e-05 9.50518643013027e-07
1.54470000000000e+01 3.00856369989487e-05 8.52028998896340e-07
1.56276666666667e+01 2.68100801860318e-05 7.63692282791542e-07
1.58083333333333e+01 2.38911477736992e-05 6.84468396511465e-07
1.59890000000000e+01 2.12900124821324e-05 6.13422964315884e-07
1.61696666666667e+01 1.89720743430801e-05 5.49716698492624e-07
1.63503333333333e+01 1.69065004117476e-05 4.92595812067755e-07
1.65310000000000e+01 1.50658146777863e-05 4.41383386251612e-07
1.67116666666667e+01 1.34255325751336e-05 3.95471605942811e-07
1.68923333333333e+01 1.19638352614940e-05 3.54314764371464e-07
1.70730000000000e+01 1.06612794189704e-05 3.17422968055746e-07
1.72536666666667e+01 9.50053861621020e-06 2.84356477737961e-07
1.74343333333333e+01 8.46617281390567e-06 2.54720612898350e-07
1.76150000000000e+01 7.54442300534493e-06 2.28161168791392e-07
1.77956666666667e+01 6.72302819221571e-06 2.04360298431904e-07
1.79763333333333e+01 5.99106227629471e-06 1.83032806651535e-07
1.81570000000000e+01 5.33878873695918e-06 1.63922818488786e-07
1.83376666666667e+01 4.75753111473295e-06 1.46800786846669e-07
1.85183333333333e+01 4.23955758846539e-06 1.31460800870139e-07
1.86990000000000e+01 3.77797813798183e-06 1.17718167237306e-07
1.88796666666667e+01 3.36665289219906e-06 1.05407238589335e-07
1.90603333333333e+01 3.00011045070225e-06 9.43794610458254e-08
1.92410000000000e+01 2.67347511098508e-06 8.45016203728151e-08
1.94216666666667e+01 2.38240201129858e-06 7.56542679037991e-08
1.96023333333333e+01 2.12301933128672e-06 6.77303058288375e-08
1.97830000000000e+01 1.89187679441535e-06 6.06337168727680e-08
1.99636666666667e+01 1.68589977202359e-06 5.42784245344337e-08
2.01443333333333e+01 1.50234838186148e-06 4.85872690941547e-08
2.03250000000000e+01 1.33878104589062e-06 4.34910884319192e-08
2.05056666666667e+01 1.19302201216688e-06 3.89278935582951e-08
2.06863333333333e+01 1.06313241109979e-06 3.48421281365005e-08
2.08670000000000e+01 9.47384467173919e-07 3.11840039950583e-08
2.10476666666667e+01 8.44238515915220e-07 2.79089052696692e-08
2.12283333333333e+01 7.52322521977671e-07 2.49768534121102e-08
2.14090000000000e+01 6.70413830101167e-07 2.23520272344908e-08
2.15896666666667e+01 5.97422901242478e-07 2.00023326308165e-08
2.17703333333333e+01 5.32378818636004e-07 1.78990163618793e-08
2.19510000000000e+01 4.74416373884236e-07 1.60163196592332e-08
2.21316666666667e+01 4.22764557883410e-07 1.43311677538164e-08
2.23123333333333e+01 3.76736304247888e-07 1.28228912726894e-08
2.24930000000000e+01 3.35719350800825e-07 1.14729764192394e-08
2.26736666666667e+01 2.99168095214755e-07 1.02648411098345e-08
2.28543333333333e+01 2.66596336988044e-07 9.18363413826792e-09
2.30350000000000e+01 2.37570810592693e-07 8.21605512894005e-09
2.32156666666667e+01 2.11705422144497e-07 7.35019322900429e-09
2.33963333333333e+01 1.88656113292147e-07 6.57538242675428e-09
2.35770000000000e+01 1.68116284959552e-07 5.88207187286416e-09
2.37576666666667e+01 1.49812718943888e-07 5.26170971984259e-09
2.39383333333333e+01 1.33501943367289e-07 4.70663895669808e-09
2.41190000000000e+01 1.18966994295679e-07 4.21000406304483e-09
2.42996666666667e+01 1.06014529670594e-07 3.76566740838681e-09
2.44803333333333e+01 9.44722573354699e-08 3.36813429942855e-09
2.46610000000000e+01 8.41866434007439e-08 3.01248582466314e-09
2.48416666666667e+01 7.50208699268602e-08 2.69431871961938e-09
2.50223333333333e+01 6.68530148771394e-08 2.40969146288837e-09
2.52030000000000e+01 5.95744304463887e-08 2.15507598790544e-09
2.53836666666667e+01 5.30882978217340e-08 1.92731444951440e-09
2.55643333333333e+01 4.73083392333162e-08 1.72358047698179e-09
2.57450000000000e+01 4.21576703814772e-08 1.54134446921617e-09
2.59256666666667e+01 3.75677777178156e-08 1.37834252729873e-09
2.61063333333333e+01 3.34776070327995e-08 1.23254861562349e-09
2.62870000000000e+01 2.98327513780029e-08 1.10214963100529e-09
2.64676666666667e+01 2.65847273422573e-08 9.85523087725881e-10
2.66483333333333e+01 2.36903300941368e-08 8.81217124760156e-10
2.68290000000000e+01 2.11110587166778e-08 7.87932603919115e-10
2.70096666666667e+01 1.88126040664651e-08 7.04507088423964e-10
2.71903333333333e+01 1.67643923718728e-08 6.29900490871321e-10
2.73710000000000e+01 1.49391785722998e-08 5.63182223901513e-10
2.75516666666667e+01 1.33126839032519e-08 5.03519701953572e-10
2.77323333333333e+01 1.18632729253397e-08 4.50168042560929e-10
2.79130000000000e+01 1.05716657515971e-08 4.02460847118593e-10
2.80936666666667e+01 9.42068158569503e-09 3.59801951973842e-10
2.82743333333333e+01 8.39501017270623e-09 3.21658041062696e-10
2.84550000000000e+01 7.48100815735043e-09 2.87552033653934e-10
2.86356666666667e+01 6.66651759960902e-09 2.57057168668629e-10
2.88163333333333e+01 5.94070424269773e-09 2.29791707527198e-10
2.89970000000000e+01 5.29391340639839e-09 2.05414193330775e-10
2.91776666666667e+01 4.71754156019715e-09 1.83619209902234e-10
2.93583333333333e+01 4.20392187420457e-09 1.64133584708564e-10
2.95390000000000e+01 3.74622224237355e-09 1.46712990938969e-10
2.97196666666667e+01 3.33835440162856e-09 1.31138908145792e-10
2.99003333333333e+01 2.97489294238817e-09 1.17215901313392e-10
3.00810000000000e+01 2.65100314491204e-09 1.04769186206493e-10
3.02616666666667e+01 2.36237666773365e-09 9.36424518340000e-11
3.04423333333333e+01 2.10517423574769e-09 8.36959112624233e-11
3.06230000000000e+01 1.87597457375639e-09 7.48045576813771e-11
3.08036666666667e+01 1.67172889658756e-09 6.68566047772632e-11
3.09843333333333e+01 1.48972035252416e-09 5.97520908044563e-11
3.11650000000000e+01 1.32752788623990e-09 5.34016297663660e-11
3.13456666666667e+01 1.18299403387145e-09 4.77252946718563e-11
3.15263333333333e+01 1.05419622330531e-09 4.26516181040123e-11
3.17070000000000e+01 9.39421201864019e-10 3.81166981936205e-11
3.18876666666667e+01 8.37142246588083e-10 3.40633992090424e-11
3.20683333333333e+01 7.45998854985249e-10 3.04406361911190e-11
3.22490000000000e+01 6.64778648839730e-10 2.72027350883642e-11
3.24296666666667e+01 5.92401247138274e-10 2.43088606539117e-11
3.26103333333333e+01 5.27903894300102e-10 2.17225045364701e-11
3.27910000000000e+01 4.70428654448382e-10 1.94110274359534e-11
3.29716666666667e+01 4.19210999135826e-10 1.73452497748142e-11
3.31523333333333e+01 3.73569637211760e-10 1.54990854689785e-11
3.33330000000000e+01 3.32897452877531e-10 1.38492144031993e-11
3.35136666666667e+01 2.96653429825490e-10 1.23747896332242e-11
3.36943333333333e+01 2.64355454379732e-10 1.10571754395412e-11
3.38750000000000e+01 2.35573902831862e-10 9.87971308208356e-12
3.40556666666667e+01 2.09925926582661e-10 8.82751140556686e-12
3.42363333333333e+01 1.87070359309485e-10 7.88725952339050e-12
3.44170000000000e+01 1.66703179059322e-10 7.04705932233917e-12
3.45976666666667e+01 1.48553464146748e-10 6.29627574617420e-12
3.47783333333333e+01 1.32379789228455e-10 5.62540287563171e-12
3.49590000000000e+01 1.17967014064027e-10 5.02594418737842e-12
3.51396666666667e+01 1.05123421719472e-10 4.49030552956524e-12
3.53203333333333e+01 9.36781682617022e-11 4.01169939649280e-12
3.55010000000000e+01 8.34790103326710e-11 3.58405934398947e-12
3.56816666666667e+01 7.43902800078356e-11 3.20196349848712e-12
3.58623333333333e+01 6.62910800811415e-11 2.86056614649972e-12
3.60430000000000e+01 5.90736759882710e-11 2.55553657509891e-12
3.62236666666667e+01 5.26420627213977e-11 2.28300441394542e-12
3.64043333333333e+01 4.69106877287339e-11 2.03951075466603e-12
3.65850000000000e+01 4.18033129628687e-11 1.82196445388300e-12
3.67656666666667e+01 3.72520007623548e-11 1.62760308358895e-12
3.69463333333333e+01 3.31962101158900e-11 1.45395801136927e-12
3.71270000000000e+01 2.95819913935693e-11 1.29882318561009e-12
3.73076666666667e+01 2.63612687090709e-11 1.16022724199733e-12
3.74883333333333e+01 2.34912003940494e-11 1.03640856158890e-12
3.76690000000000e+01 2.09336091516597e-11 9.25792976490693e-13
3.78496666666667e+01 1.86544742223381e-11 8.26973848690035e-13
3.80303333333333e+01 1.66234788256523e-11 7.38694257955341e-13
3.82110000000000e+01 1.48136069098346e-11 6.59831081375775e-13
3.83916666666667e+01 1.32007837844369e-11 5.89380768280292e-13
3.85723333333333e+01 1.17635558690701e-11 5.26446621927124e-13
3.87530000000000e+01 1.04828053342011e-11 4.70227432475430e-13
3.89336666666667e+01 9.34149579594089e-12 4.20007320919895e-13
3.91143333333333e+01 8.32444569130722e-12 3.75146659310003e-13
3.92950000000000e+01 7.41812634448935e-12 3.35073956083032e-13
3.94756666666667e+01 6.61048200853524e-12 2.99278606208005e-13
3.96563333333333e+01 5.89076949510873e-12 2.67304409987712e-13
3.98370000000000e+01 5.24941527658356e-12 2.38743781049999e-13
4.00176666666667e+01 4.67788813908769e-12 2.13232571844133e-13
4.01983333333333e+01 4.16858569703221e-12 1.90445448005026e-13
4.03790000000000e+01 3.71473327176469e-12 1.70091754789458e-13
4.05596666666667e+01 3.31029377488114e-12 1.51911824362824e-13
4.07403333333333e+01 2.94988740060712e-12 1.35673674948200e-13
4.09210000000000e+01 2.62872006753033e-12 1.21170061253719e-13
4.11016666666667e+01 2.34251964779864e-12 1.08215839584936e-13
4.12823333333333e+01 2.08747913769797e-12 9.66456126830868e-14
4.14630000000000e+01 1.86020601962465e-12 8.63116252948195e-14
4.16436666666667e+01 1.65767713486995e-12 7.70818843352153e-14
4.18243333333333e+01 1.47719846846613e-12 6.88384786999792e-14
4.20050000000000e+01 1.31636931531426e-12 6.14760780159757e-14
4.21856666666667e+01 1.17305034604641e-12 5.49005916630461e-14
4.23663333333333e+01 1.04533514890363e-12 4.90279702713253e-14
4.25470000000000e+01 9.31524871987335e-13 4.37831349027335e-14
4.27276666666667e+01 8.30105625163007e-13 3.90990205873878e-14
4.29083333333333e+01 7.39728341763074e-13 3.49157215206311e-14
4.30890000000000e+01 6.59190834240816e-13 3.11797273586820e-14
4.32696666666667e+01 5.87421802695602e-13 2.78432410966201e-14
4.34503333333333e+01 5.23466584072556e-13 2.48635694746043e-14
4.36310000000000e+01 4.66474453891992e-13 2.22025783715400e-14
4.38116666666667e+01 4.15687309930466e-13 1.98262063931707e-14
4.39923333333333e+01 3.70429587688234e-13 1.77040301976290e-14
4.41730000000000e+01 3.30099274490728e-13 1.58088761754892e-14
4.43536666666667e+01 2.94159901529519e-13 1.41164736359590e-14
4.45343333333333e+01 2.62133407575561e-13 1.26051448949521e-14
4.47150000000000e+01 2.33593780131280e-13 1.12555284230050e-14
4.48956666666667e+01 2.08161388622454e-13 1.00503315931220e-14
4.50763333333333e+01 1.85497934427983e-13 8.97410974577997e-15
4.52570000000000e+01 1.65301951057615e-13 8.01306882926108e-15
4.54376666666667e+01 1.47304794052227e-13 7.15488914657103e-15
4.56183333333333e+01 1.31267067388693e-13 6.38856786863655e-15
4.57990000000000e+01 1.16975439192334e-13 5.70427835737308e-15
4.59796666666667e+01 1.04239804001908e-13 5.09324453734123e-15
4.61603333333333e+01 9.28907539265225e-14 4.54762864775589e-15
4.63410000000000e+01 8.27773252928523e-14 4.06043097905549e-15
4.65216666666667e+01 7.37649905304764e-14 3.62540033763787e-15
4.67023333333333e+01 6.57338686442019e-14 3.23695404972306e-15
4.68830000000000e+01 5.85771306348533e-14 2.89010650864850e-15
4.70636666666667e+01 5.21995784629622e-14 2.58040536947230e-15
4.72443333333333e+01 4.65163786952486e-14 2.30387454348022e-15
4.74250000000000e+01 4.14519341048211e-14 2.05696328240260e-15
4.76056666666667e+01 3.69388780790968e-14 1.83650071325641e-15
4.77863333333333e+01 3.29171784887892e-14 1.63965521994515e-15
4.79670000000000e+01 2.93333391787556e-14 1.46389816512171e-15
4.81476666666667e+01 2.61396883637778e-14 1.30697149659481e-15
4.83283333333333e+01 2.32937444843165e-14 1.16685880799976e-15
4.85090000000000e+01 2.07576511436131e-14 1.04175949255500e-15
4.86896666666667e+01 1.84976735430980e-14 9.30065664976370e-16
4.88703333333333e+01 1.64837497322388e-14 8.30341544987255e-16
4.90510000000000e+01 1.46890907432728e-14 7.41305044899546e-16
4.92316666666667e+01 1.30898242452338e-14 6.61811329617440e-16
4.94123333333333e+01 1.16646769873358e-14 5.90838130667255e-16
4.95930000000000e+01 1.03946918353762e-14 5.27472630655051e-16
4.97736666666667e+01 9.26297560457521e-15 4.70899753022975e-16
4.99543333333333e+01 8.25447434164621e-15 4.20391701530898e-16
5.01350000000000e+01 7.35577308635801e-15 3.75298618584095e-16
5.03156666666667e+01 6.55491742619835e-15 3.35040244707869e-16
5.04963333333333e+01 5.84125447544512e-15 2.99098468357131e-16
5.06770000000000e+01 5.20529117696833e-15 2.67010672772488e-16
5.08576666666667e+01 4.63856802592215e-15 2.38363795998977e-16
5.10383333333333e+01 4.13354653908870e-15 2.12789025144836e-16
5.12190000000000e+01 3.68350898252621e-15 1.89957058392728e-16
5.13996666666667e+01 3.28246901251758e-15 1.69573874985473e-16
5.15803333333333e+01 2.92509204360770e-15 1.51376956980610e-16
5.17610000000000e+01 2.60662429114170e-15 1.35131915392126e-16
5.19416666666667e+01 2.32282953659956e-15 1.20629478124035e-16
5.21223333333333e+01 2.06993277628937e-15 1.07682799671496e-16
5.23030000000000e+01 1.84457000848962e-15 9.61250588266635e-17
5.24836666666667e+01 1.64374348562734e-15 8.58073140404611e-17
5.26643333333333e+01 1.46478183745376e-15 7.65965879409826e-17
5.28450000000000e+01 1.30530453805029e-15 6.83741569524176e-17
5.30256666666667e+01 1.16319024016619e-15 6.10340243931549e-17
5.32063333333333e+01 1.03654855650950e-15 5.44815567617357e-17
5.33870000000000e+01 9.23694914919390e-16 4.86322660721483e-17
5.35676666666667e+01 8.23128150254852e-16 4.34107228361880e-17
5.37483333333333e+01 7.33510535514032e-16 3.87495852466495e-17
5.39290000000000e+01 6.53649988164727e-16 3.45887323522939e-17
5.41096666666667e+01 5.82484213111329e-16 3.26519728400388e-17
