Energy (eV)          EEDF (eV^-(3/2))     First Anisotropy
9.70588235294118e-03 4.24926349985355e-01 2.71457705257710e-04
2.91176470588235e-02 4.20631928298310e-01 4.47493124225855e-04
4.85294117647059e-02 4.16380907210584e-01 5.88729827252299e-04
6.79411764705882e-02 4.12172848102784e-01 6.94811941428481e-04
8.73529411764706e-02 4.08007316789185e-01 7.82284720215193e-04
1.06764705882353e-01 4.03883883472208e-01 8.57433954420052e-04
1.26176470588235e-01 3.99802122704091e-01 9.23527484547733e-04
1.45588235294118e-01 3.95761613315400e-01 9.82547491553117e-04
1.65000000000000e-01 3.91761938409624e-01 1.03581438169812e-03
1.84411764705882e-01 3.87802685327367e-01 1.08426545887816e-03
2.03823529411765e-01 3.83883445531366e-01 1.12859755466676e-03
2.23235294117647e-01 3.80003814637003e-01 1.16934730622563e-03
2.42647058823529e-01 3.76163392363169e-01 1.20693965152835e-03
2.62058823529412e-01 3.72361782440464e-01 1.24171875166440e-03
2.81470588235294e-01 3.68598592621216e-01 1.27396859366503e-03
3.00882352941176e-01 3.64873434621775e-01 1.30392722185626e-03
3.20294117647059e-01 3.61185924094660e-01 1.33179686294241e-03
3.39705882352941e-01 3.57535680552247e-01 1.35775131127535e-03
3.59117647058824e-01 3.53922327364372e-01 1.38194143552938e-03
3.78529411764706e-01 3.50345491717045e-01 1.40449937293724e-03
3.97941176470588e-01 3.46804804544391e-01 1.42554176360921e-03
4.17352941176471e-01 3.43299900520252e-01 1.44517228797429e-03
4.36764705882353e-01 3.39830418010581e-01 1.46348368721181e-03
4.56176470588235e-01 3.36395999043829e-01 1.48055938819693e-03
4.75588235294118e-01 3.32996289250500e-01 1.49647482167412e-03
4.95000000000000e-01 3.29630937850326e-01 1.51129850327076e-03
5.14411764705882e-01 3.26299597614748e-01 1.52509293551567e-03
5.33823529411765e-01 3.23001924811083e-01 1.53791535476844e-03
5.53235294117647e-01 3.19737579187164e-01 1.54981835928341e-03
5.72647058823529e-01 3.16506223935206e-01 1.56085044732313e-03
5.92058823529412e-01 3.13307525639836e-01 1.57105647015896e-03
6.11470588235294e-01 3.10141154261042e-01 1.58047802093755e-03
6.30882352941177e-01 3.07006783094267e-01 1.58915377262009e-03
6.50294117647059e-01 3.03904088741553e-01 1.59711977076015e-03
6.69705882352941e-01 3.00832751063549e-01 1.60440968629011e-03
6.89117647058824e-01 2.97792453161186e-01 1.61105503590771e-03
7.08529411764706e-01 2.94782881342365e-01 1.61708538084809e-03
7.27941176470588e-01 2.91803725076638e-01 1.62252849735221e-03
7.47352941176471e-01 2.88854676976181e-01 1.62741052797957e-03
7.66764705882353e-01 2.85935432759724e-01 1.63175611830484e-03
7.86176470588235e-01 2.83045691224850e-01 1.63558853868252e-03
8.05588235294118e-01 2.80185154205690e-01 1.63892979126260e-03
8.25000000000000e-01 2.77353526553477e-01 1.64180070538821e-03
8.44411764705882e-01 2.74550516105640e-01 1.64422102782882e-03
8.63823529411765e-01 2.71775833645572e-01 1.64620949998743e-03
8.83235294117647e-01 2.69029192882932e-01 1.64778392764849e-03
9.02647058823529e-01 2.66310310423717e-01 1.64896124833540e-03
9.22058823529412e-01 2.63618905731931e-01 1.64975758860374e-03
9.41470588235294e-01 2.60954701109800e-01 1.65018831658203e-03
9.60882352941177e-01 2.58317421666029e-01 1.65026809174103e-03
9.80294117647059e-01 2.55706795290123e-01 1.65001091033305e-03
9.99705882352941e-01 2.53122552616233e-01 1.64943014357993e-03
1.01911764705882e+00 2.50564427015770e-01 1.64853858217551e-03
1.03852941176471e+00 2.48032154517941e-01 1.64734846062215e-03
1.05794117647059e+00 2.45525473868186e-01 1.64587149607587e-03
1.07735294117647e+00 2.43044126405078e-01 1.64411891660103e-03
1.09676470588235e+00 2.40587856127214e-01 1.64210148758000e-03
1.11617647058824e+00 2.38156409575690e-01 1.63982953778481e-03
1.13558823529412e+00 2.35749535896680e-01 1.63731298199378e-03
1.15500000000000e+00 2.33366986729120e-01 1.63456134354851e-03
1.17441176470588e+00 2.31008516263300e-01 1.63158377383132e-03
1.19382352941176e+00 2.28673881133422e-01 1.62838907189579e-03
1.21323529411765e+00 2.26362840472505e-01 1.62498570132824e-03
1.23264705882353e+00 2.24075155809511e-01 1.62138180742448e-03
1.25205882352941e+00 2.21810591120833e-01 1.61758523185798e-03
1.27147058823529e+00 2.19568912731716e-01 1.61360352778630e-03
1.29088235294118e+00 2.17349889364566e-01 1.60944397266847e-03
1.31029411764706e+00 2.15153292044418e-01 1.60511358161455e-03
1.32970588235294e+00 2.12978894144284e-01 1.60061911577284e-03
1.34911764705882e+00 2.10826471310221e-01 1.59596710565395e-03
1.36852941176471e+00 2.08695801440612e-01 1.59116384392731e-03
1.38794117647059e+00 2.06586664709352e-01 1.58621540692456e-03
1.40735294117647e+00 2.04498843481770e-01 1.58112766155528e-03
1.42676470588235e+00 2.02432122352173e-01 1.57590627357624e-03
1.44617647058824e+00 2.00386288062976e-01 1.57055671652718e-03
1.46558823529412e+00 1.98361129540027e-01 1.56508427908058e-03
1.48500000000000e+00 1.96356437814777e-01 1.55949407308207e-03
1.50441176470588e+00 1.94372006057533e-01 1.55379104010361e-03
1.52382352941176e+00 1.92407629502502e-01 1.54797995870249e-03
1.54323529411765e+00 1.90463105479113e-01 1.54206545028171e-03
1.56264705882353e+00 1.88538233339793e-01 1.53605198566514e-03
1.58205882352941e+00 1.86632814489470e-01 1.52994389035247e-03
1.60147058823529e+00 1.84746652315954e-01 1.52374535049273e-03
1.62088235294118e+00 1.82879552217729e-01 1.51746041760885e-03
1.64029411764706e+00 1.81031321536816e-01 1.51109301404060e-03
1.65970588235294e+00 1.79201769584961e-01 1.50464693504715e-03
1.67911764705882e+00 1.77390707589514e-01 1.49812586242556e-03
1.69852941176471e+00 1.75597948675377e-01 1.49153335545997e-03
1.71794117647059e+00 1.73823307876979e-01 1.48487286373753e-03
1.73735294117647e+00 1.72066602077570e-01 1.47814772920781e-03
1.75676470588235e+00 1.70327650031103e-01 1.47136118950946e-03
1.77617647058824e+00 1.68606272303581e-01 1.46451638197096e-03
1.79558823529412e+00 1.66902291293695e-01 1.45761634663160e-03
1.81500000000000e+00 1.65215531176125e-01 1.45066402992763e-03
1.83441176470588e+00 1.63545817921014e-01 1.44366228744103e-03
1.85382352941176e+00 1.61892979239138e-01 1.43661388730271e-03
1.87323529411765e+00 1.60256844600276e-01 1.42952151269824e-03
1.89264705882353e+00 1.58637245180180e-01 1.42238776501625e-03
1.91205882352941e+00 1.57034013877898e-01 1.41521516613602e-03
1.93147058823529e+00 1.55446985264464e-01 1.40800616134629e-03
1.95088235294118e+00 1.53875995599238e-01 1.40076312143697e-03
1.97029411764706e+00 1.52320882780249e-01 1.39348834540980e-03
1.98970588235294e+00 1.50781486359602e-01 1.38618406073720e-03
2.00911764705882e+00 1.49257647502888e-01 1.37885243252962e-03
2.02852941176471e+00 1.47749208973695e-01 1.37149555537671e-03
2.04794117647059e+00 1.46256015139414e-01 1.36411546205635e-03
2.06735294117647e+00 1.44777911925846e-01 1.35671412403786e-03
2.08676470588235e+00 1.43314746830093e-01 1.34929345303534e-03
2.10617647058824e+00 1.41866368876572e-01 1.34185530312122e-03
2.12558823529412e+00 1.40432628629164e-01 1.33440147215576e-03
2.14500000000000e+00 1.39013378148577e-01 1.32693370376372e-03
2.16441176470588e+00 1.37608471003804e-01 1.31945368865122e-03
2.18382352941176e+00 1.36217762230780e-01 1.31196306645729e-03
2.20323529411765e+00 1.34841108343180e-01 1.30446342696831e-03
2.22264705882353e+00 1.33478367292328e-01 1.29695631185459e-03
2.24205882352941e+00 1.32129398477366e-01 1.28944321579136e-03
2.26147058823529e+00 1.30794062706373e-01 1.28192558808962e-03
2.28088235294118e+00 1.29472222205936e-01 1.27440483373211e-03
2.30029411764706e+00 1.28163740583433e-01 1.26688231490659e-03
2.31970588235294e+00 1.26868482836040e-01 1.25935935067246e-03
2.33911764705882e+00 1.25586315319537e-01 1.25183722358416e-03
2.35852941176471e+00 1.24317105735111e-01 1.24431717284812e-03
2.37794117647059e+00 1.23060723131648e-01 1.23680040064464e-03
2.39735294117647e+00 1.21817037870996e-01 1.22928807207482e-03
2.41676470588235e+00 1.20585921635446e-01 1.22178131595559e-03
2.43617647058824e+00 1.19367247393995e-01 1.21428122606234e-03
2.45558823529412e+00 1.18160889409383e-01 1.20678886186649e-03
2.47500000000000e+00 1.16966723205323e-01 1.19930524970922e-03
2.49441176470588e+00 1.15784625573113e-01 1.19183138348609e-03
2.51382352941177e+00 1.14614474539804e-01 1.18436822575712e-03
2.53323529411765e+00 1.13456149374403e-01 1.17691670838228e-03
2.55264705882353e+00 1.12309530556952e-01 1.16947773357229e-03
2.57205882352941e+00 1.11174499784344e-01 1.16205217447927e-03
2.59147058823529e+00 1.10050939940278e-01 1.15464087619182e-03
2.61088235294118e+00 1.08938735100709e-01 1.14724465628433e-03
2.63029411764706e+00 1.07837770504654e-01 1.13986430576041e-03
2.64970588235294e+00 1.06747932559289e-01 1.13250058854664e-03
2.66911764705882e+00 1.05669108815558e-01 1.12515424646670e-03
2.68852941176471e+00 1.04601187956974e-01 1.11782599362945e-03
2.70794117647059e+00 1.03544059799906e-01 1.11051652118875e-03
2.72735294117647e+00 1.02497615266537e-01 1.10322649709165e-03
2.74676470588235e+00 1.01461746389023e-01 1.09595656650802e-03
2.76617647058824e+00 1.00436346283197e-01 1.08870735261543e-03
2.78558823529412e+00 9.94213091524423e-02 1.08147945699923e-03
2.80500000000000e+00 9.84165302621231e-02 1.07427346039912e-03
2.82441176470588e+00 9.74219059431918e-02 1.06708992308193e-03
2.84382352941177e+00 9.64373335673119e-02 1.05992938555215e-03
2.86323529411765e+00 9.54627115502196e-02 1.05279236889942e-03
2.88264705882353e+00 9.44979393275182e-02 1.04567937547507e-03
2.90205882352941e+00 9.35429173578035e-02 1.03859088921610e-03
2.92147058823529e+00 9.25975470991104e-02 1.03152737628988e-03
2.94088235294118e+00 9.16617310118130e-02 1.02448928539618e-03
2.96029411764706e+00 9.07353725357043e-02 1.01747704838180e-03
2.97970588235294e+00 8.98183760926820e-02 1.01049107971519e-03
2.99911764705882e+00 8.89106470674225e-02 1.00353178030950e-03
3.01852941176471e+00 8.80120917979076e-02 9.96599532954317e-04
3.03794117647059e+00 8.71226175745810e-02 9.89694705979893e-04
3.05735294117647e+00 8.62421326190401e-02 9.82817652947616e-04
3.07676470588235e+00 8.53705460861221e-02 9.75968712888294e-04
3.09617647058824e+00 8.45077680431579e-02 9.69148210822658e-04
3.11558823529412e+00 8.36537094718863e-02 9.62356457983640e-04
3.13500000000000e+00 8.28082822482520e-02 9.55593752313706e-04
3.15441176470588e+00 8.19713991441567e-02 9.48860378672106e-04
3.17382352941176e+00 8.11429738077856e-02 9.42156609310425e-04
3.19323529411765e+00 8.03229207652039e-02 9.35482704065776e-04
3.21264705882353e+00 7.95111554011956e-02 9.28838910815637e-04
3.23205882352941e+00 7.87075939607135e-02 9.22225465657968e-04
3.25147058823529e+00 7.79121535302155e-02 9.15642593346339e-04
3.27088235294118e+00 7.71247520389757e-02 9.09090507457802e-04
3.29029411764706e+00 7.63453082409035e-02 9.02569410809541e-04
3.30970588235294e+00 7.55737417157229e-02 8.96079494970860e-04
3.32911764705882e+00 7.48099728535195e-02 8.89620943246321e-04
3.34852941176471e+00 7.40539228467354e-02 8.83193926964124e-04
3.36794117647059e+00 7.33055136887281e-02 8.76798608338158e-04
3.38735294117647e+00 7.25646681568148e-02 8.70435140158805e-04
3.40676470588235e+00 7.18313098130758e-02 8.64103665925105e-04
3.42617647058824e+00 7.11053629878304e-02 8.57804320201938e-04
3.44558823529412e+00 7.03867527803345e-02 8.51537228743075e-04
3.46500000000000e+00 6.96754050426771e-02 8.45302508833517e-04
3.48441176470588e+00 6.89712463803776e-02 8.39100269403821e-04
3.50382352941176e+00 6.82742041366903e-02 8.32930611358743e-04
3.52323529411765e+00 6.75842063931074e-02 8.26793627683397e-04
3.54264705882353e+00 6.69011819540597e-02 8.20689403758288e-04
3.56205882352941e+00 6.62250603473307e-02 8.14618017458169e-04
3.58147058823529e+00 6.55557718091419e-02 8.08579539454306e-04
3.60088235294118e+00 6.48932472844834e-02 8.02574033306125e-04
3.62029411764706e+00 6.42374184125730e-02 7.96601555751476e-04
3.63970588235294e+00 6.35882175271070e-02 7.90662156274492e-04
3.65911764705882e+00 6.29455776438131e-02 7.84755879457906e-04
3.67852941176471e+00 6.23094324536915e-02 7.78882761966427e-04
3.69794117647059e+00 6.16797163212987e-02 7.73042834805166e-04
3.71735294117647e+00 6.10563642711523e-02 7.67236123034009e-04
3.73676470588235e+00 6.04393119877481e-02 7.61462645838513e-04
3.75617647058824e+00 5.98284958023030e-02 7.55722416781089e-04
3.77558823529412e+00 5.92238526927087e-02 7.50015443866540e-04
3.79500000000000e+00 5.86253202706020e-02 7.44341729783284e-04
3.81441176470588e+00 5.80328367812603e-02 7.38701271963847e-04
3.83382352941176e+00 5.74463410909903e-02 7.33094062816786e-04
3.85323529411765e+00 5.68657726869680e-02 7.27520089782404e-04
3.87264705882353e+00 5.62910716649374e-02 7.21979335555742e-04
3.89205882352941e+00 5.57221787289983e-02 7.16471778137729e-04
3.91147058823529e+00 5.51590351796074e-02 7.10997391049606e-04
3.93088235294118e+00 5.46015829133160e-02 7.05556143379976e-04
3.95029411764706e+00 5.40497644110655e-02 7.00147999991000e-04
3.96970588235294e+00 5.35035227378787e-02 6.94772921144844e-04
3.98911764705882e+00 5.29628015327748e-02 6.89430864372878e-04
4.00852941176471e+00 5.24275450030684e-02 6.84121782020772e-04
4.02794117647059e+00 5.18976979225695e-02 6.78845623043963e-04
4.04735294117647e+00 5.13732056206178e-02 6.73602332753809e-04
4.06676470588235e+00 5.08540139816334e-02 6.68391852852274e-04
4.08617647058824e+00 5.03400694344162e-02 6.63214121611538e-04
4.10558823529412e+00 4.98313189516620e-02 6.58069073905532e-04
4.12500000000000e+00 4.93277100395200e-02 6.52956641382805e-04
4.14441176470588e+00 4.88291907370760e-02 6.47876752495039e-04
4.16382352941176e+00 4.83357096061626e-02 6.42829332663365e-04
4.18323529411765e+00 4.78472157308106e-02 6.37814304304131e-04
4.20264705882353e+00 4.73636587073049e-02 6.32831586989091e-04
4.22205882352941e+00 4.68849886436078e-02 6.27881097468396e-04
4.24147058823529e+00 4.64111561496529e-02 6.22962749824871e-04
4.26088235294118e+00 4.59421123367423e-02 6.18076455494492e-04
4.28029411764706e+00 4.54778088080732e-02 6.13222123414944e-04
4.29970588235294e+00 4.50181976581103e-02 6.08399659706933e-04
4.31911764705882e+00 4.45632314643757e-02 6.03608969168203e-04
4.33852941176471e+00 4.41128632826416e-02 5.98849953272710e-04
4.35794117647059e+00 4.36670466451631e-02 5.94122511606303e-04
4.37735294117647e+00 4.32257355517881e-02 5.89426541645470e-04
4.39676470588235e+00 4.27888844692490e-02 5.84761938770614e-04
4.41617647058824e+00 4.23564483224836e-02 5.80128596396052e-04
4.43558823529412e+00 4.19283824939091e-02 5.75526405981291e-04
4.45500000000000e+00 4.15046428149488e-02 5.70955257156269e-04
4.47441176470588e+00 4.10851855652901e-02 5.66415037730847e-04
4.49382352941176e+00 4.06699674646119e-02 5.61905633815510e-04
4.51323529411765e+00 4.02589456718276e-02 5.57426929829172e-04
4.53264705882353e+00 3.98520777770083e-02 5.52978808615518e-04
4.55205882352941e+00 3.94493218006120e-02 5.48561151449184e-04
4.57147058823529e+00 3.90506361855978e-02 5.44173838147964e-04
4.59088235294118e+00 3.86559797966426e-02 5.39816747077416e-04
4.61029411764706e+00 3.82653119124412e-02 5.35489755259016e-04
4.62970588235294e+00 3.78785922249121e-02 5.31192738100334e-04
4.64911764705882e+00 3.74957808324887e-02 5.26925570594686e-04
4.66852941176471e+00 3.71168382360666e-02 5.22688125687729e-04
4.68794117647059e+00 3.67417253373347e-02 5.18480275430555e-04
4.70735294117647e+00 3.63704034315380e-02 5.14301890789379e-04
4.72676470588235e+00 3.60028342066422e-02 5.10152841646065e-04
4.74617647058824e+00 3.56389797362666e-02 5.06032996893012e-04
4.76558823529412e+00 3.52788024788419e-02 5.01942224432392e-04
4.78500000000000e+00 3.49222652707080e-02 4.97880391267653e-04
4.80441176470588e+00 3.45693313252665e-02 4.93847363501800e-04
4.82382352941177e+00 3.42199642262389e-02 4.89843006425638e-04
4.84323529411765e+00 3.38741279268150e-02 4.85867184515000e-04
4.86264705882353e+00 3.35317867430680e-02 4.81919761515866e-04
4.88205882352941e+00 3.31929053530984e-02 4.78000600440674e-04
4.90147058823529e+00 3.28574487906029e-02 4.74109563650412e-04
4.92088235294118e+00 3.25253824440149e-02 4.70246512850123e-04
4.94029411764706e+00 3.21966720502224e-02 4.66411309168033e-04
4.95970588235294e+00 3.18712836937071e-02 4.62603812928137e-04
4.97911764705882e+00 3.15491838010429e-02 4.58823884617225e-04
4.99852941176471e+00 3.12303391374826e-02 4.55071383549100e-04
5.01794117647059e+00 3.09147168054188e-02 4.51346168794264e-04
5.03735294117647e+00 3.06022842384728e-02 4.47648099017461e-04
5.05676470588235e+00 3.02930092006172e-02 4.43977032470725e-04
5.07617647058824e+00 2.99868597804008e-02 4.40332827063007e-04
5.09558823529412e+00 2.96838043900717e-02 4.36715340352619e-04
5.11500000000000e+00 2.93838117599351e-02 4.33124429614405e-04
5.13441176470588e+00 2.90868509374777e-02 4.29559951831516e-04
5.15382352941177e+00 2.87928912818551e-02 4.26021763760246e-04
5.17323529411765e+00 2.85019024630175e-02 4.22509721921295e-04
5.19264705882353e+00 2.82138544563244e-02 4.19023682662325e-04
5.21205882352941e+00 2.79287175416721e-02 4.15563502148673e-04
5.23147058823529e+00 2.76464622982313e-02 4.12129036423740e-04
5.25088235294118e+00 2.73670596035781e-02 4.08720141399186e-04
5.27029411764706e+00 2.70904806285518e-02 4.05336672913236e-04
5.28970588235294e+00 2.68166968363889e-02 4.01978486539544e-04
5.30911764705882e+00 2.65456799782004e-02 3.98645438368989e-04
5.32852941176471e+00 2.62774020900958e-02 3.95337383915801e-04
5.34794117647059e+00 2.60118354917904e-02 3.92054178869248e-04
5.36735294117647e+00 2.57489527817623e-02 3.88795678955670e-04
5.38676470588235e+00 2.54887268363851e-02 3.85561739927505e-04
5.40617647058824e+00 2.52311308051962e-02 3.82352217614538e-04
5.42558823529412e+00 2.49761381100333e-02 3.79166967912600e-04
5.44500000000000e+00 2.47237224404104e-02 3.76005846833010e-04
5.46441176470588e+00 2.44738577526601e-02 3.72868710490945e-04
5.48382352941177e+00 2.42265182654138e-02 3.69755415153181e-04
5.50323529411765e+00 2.39816784587500e-02 3.66665817226189e-04
5.52264705882353e+00 2.37393130697770e-02 3.63599773302211e-04
5.54205882352941e+00 2.34993970917865e-02 3.60557140147062e-04
5.56147058823529e+00 2.32619057699365e-02 3.57537774744615e-04
5.58088235294118e+00 2.30268146004111e-02 3.54541534284371e-04
5.60029411764706e+00 2.27940993262011e-02 3.51568276204428e-04
5.61970588235294e+00 2.25637359362697e-02 3.48617858031121e-04
5.63911764705882e+00 2.23357006618262e-02 3.45690138012782e-04
5.65852941176471e+00 2.21099699739036e-02 3.42784974222553e-04
5.67794117647059e+00 2.18865205821133e-02 3.39902225167863e-04
5.69735294117647e+00 2.16653294306678e-02 3.37041749673586e-04
5.71676470588235e+00 2.14463736975553e-02 3.34203406869125e-04
5.73617647058824e+00 2.12296307906520e-02 3.31387056226173e-04
5.75558823529412e+00 2.10150783469038e-02 3.28592557545609e-04
5.77500000000000e+00 2.08026942285260e-02 3.25819770993997e-04
5.79441176470588e+00 2.05924565221924e-02 3.23068557090385e-04
5.81382352941177e+00 2.03843435353204e-02 3.20338776741442e-04
5.83323529411765e+00 2.01783337952675e-02 3.17630291228170e-04
5.85264705882353e+00 1.99744060457001e-02 3.14942962239855e-04
5.87205882352941e+00 1.97725392457972e-02 3.12276651860642e-04
5.89147058823529e+00 1.95727125667006e-02 3.09631222602315e-04
5.91088235294118e+00 1.93749053907270e-02 3.07006537390810e-04
5.93029411764706e+00 1.91790973078971e-02 3.04402459597799e-04
5.94970588235294e+00 1.89852681151554e-02 3.01818852906370e-04
5.96911764705882e+00 1.87933978132937e-02 2.99255581825955e-04
5.98852941176471e+00 1.86034666049111e-02 2.96712510955434e-04
6.00794117647059e+00 1.84154548933110e-02 2.94189505478405e-04
6.02735294117647e+00 1.82293432792279e-02 2.91686431064470e-04
6.04676470588235e+00 1.80451125600613e-02 2.89203153855644e-04
6.06617647058824e+00 1.78627437266745e-02 2.86739540494177e-04
6.08558823529412e+00 1.76822179626373e-02 2.84295458108951e-04
6.10500000000000e+00 1.75035166410964e-02 2.81870774342317e-04
6.12441176470588e+00 1.73266213240259e-02 2.79465357336482e-04
