Energy (eV)          EEDF (eV^-(3/2))     First Anisotropy
4.37179487179487e-03 1.14440570816218e+00 6.78558567926514e-04
1.31153846153846e-02 1.13431944570577e+00 1.11931823786343e-03
2.18589743589744e-02 1.12432207888595e+00 1.47451787769050e-03
3.06025641025641e-02 1.11441282425282e+00 1.74248106255787e-03
3.93461538461538e-02 1.10459090518785e+00 1.96441133041622e-03
4.80897435897436e-02 1.09485555198546e+00 2.15593195881883e-03
5.68333333333333e-02 1.08520600167096e+00 2.32515006405608e-03
6.55769230769231e-02 1.07564149803717e+00 2.47697431376609e-03
7.43205128205128e-02 1.06616129151860e+00 2.61466876310668e-03
8.30641025641026e-02 1.05676463914749e+00 2.74054637014455e-03
9.18076923076923e-02 1.04745080452750e+00 2.85632371967526e-03
1.00551282051282e-01 1.03821905773135e+00 2.96332053834691e-03
1.09294871794872e-01 1.02906867527555e+00 3.06258010678448e-03
1.18038461538462e-01 1.01999894003692e+00 3.15494600217745e-03
1.26782051282051e-01 1.01100914130372e+00 3.24111321693261e-03
1.35525641025641e-01 1.00209857447941e+00 3.32166341044601e-03
1.44269230769231e-01 9.93266541252415e-01 3.39708996457337e-03
1.53012820512821e-01 9.84512349465336e-01 3.46781627896545e-03
1.61756410256410e-01 9.75835313115781e-01 3.53420940607190e-03
1.70500000000000e-01 9.67234752136682e-01 3.59659039028398e-03
1.79243589743590e-01 9.58709992510565e-01 3.65524225074368e-03
1.87987179487179e-01 9.50260366160360e-01 3.71041625892169e-03
1.96730769230769e-01 9.41885210940089e-01 3.76233692385155e-03
2.05474358974359e-01 9.33583870452533e-01 3.81120598268295e-03
2.14217948717949e-01 9.25355694129455e-01 3.85720564037759e-03
2.22961538461538e-01 9.17200037136506e-01 3.90050124504918e-03
2.31705128205128e-01 9.09116260357598e-01 3.94124350123007e-03
2.40448717948718e-01 9.01103730238599e-01 3.97957030178270e-03
2.49192307692308e-01 8.93161818844855e-01 4.01560826616412e-03
2.57935897435897e-01 8.85289903776187e-01 4.04947405842168e-03
2.66679487179487e-01 8.77487368147167e-01 4.08127550908704e-03
2.75423076923077e-01 8.69753600450111e-01 4.11111256308999e-03
2.84166666666667e-01 8.62087994596589e-01 4.13907809520860e-03
2.92910256410256e-01 8.54489949840134e-01 4.16525863081126e-03
3.01653846153846e-01 8.46958870753809e-01 4.18973497233229e-03
3.10397435897436e-01 8.39494167108156e-01 4.21258273463768e-03
3.19141025641026e-01 8.32095253900969e-01 4.23387281398391e-03
3.27884615384615e-01 8.24761551286168e-01 4.25367181462223e-03
3.36628205128205e-01 8.17492484549582e-01 4.27204242554200e-03
3.45371794871795e-01 8.10287483998887e-01 4.28904374367145e-03
3.54115384615385e-01 8.03145984984521e-01 4.30473155814953e-03
3.62858974358974e-01 7.96067427852827e-01 4.31915863036933e-03
3.71602564102564e-01 7.89051257843880e-01 4.33237492016564e-03
3.80346153846154e-01 7.82096925106734e-01 4.34442779124342e-03
3.89089743589744e-01 7.75203884636434e-01 4.35536220763989e-03
3.97833333333333e-01 7.68371596248442e-01 4.36522091070379e-03
4.06576923076923e-01 7.61599524485036e-01 4.37404456976894e-03
4.15320512820513e-01 7.54887138624972e-01 4.38187191836997e-03
4.24064102564103e-01 7.48233912624454e-01 4.38873988868844e-03
4.32807692307692e-01 7.41639325091040e-01 4.39468373365369e-03
4.41551282051282e-01 7.35102859197354e-01 4.39973712954926e-03
4.50294871794872e-01 7.28624002686333e-01 4.40393226946468e-03
4.59038461538462e-01 7.22202247815664e-01 4.40729995877267e-03
4.67782051282051e-01 7.15837091331457e-01 4.40986970239693e-03
4.76525641025641e-01 7.09528034388277e-01 4.41166977678075e-03
4.85269230769231e-01 7.03274582550869e-01 4.41272729582447e-03
4.94012820512820e-01 6.97076245741679e-01 4.41306828087130e-03
5.02756410256410e-01 6.90932538214503e-01 4.41271772499891e-03
5.11500000000000e-01 6.84842978480058e-01 4.41169964475153e-03
5.20243589743590e-01 6.78807089304866e-01 4.41003712776347e-03
5.28987179487179e-01 6.72824397661563e-01 4.40775238548622e-03
5.37730769230769e-01 6.66894434702675e-01 4.40486680181386e-03
5.46474358974359e-01 6.61016735691087e-01 4.40140097104149e-03
5.55217948717949e-01 6.55190839996642e-01 4.39737473293942e-03
5.63961538461538e-01 6.49416291048975e-01 4.39280721344057e-03
5.72705128205128e-01 6.43692636311542e-01 4.38771686227443e-03
5.81448717948718e-01 6.38019427216457e-01 4.38212148130294e-03
5.90192307692308e-01 6.32396219159244e-01 4.37603825077974e-03
5.98935897435897e-01 6.26822571453987e-01 4.36948376141589e-03
6.07679487179487e-01 6.21298047307696e-01 4.36247404410391e-03
6.16423076923077e-01 6.15822213759080e-01 4.35502459138019e-03
6.25166666666667e-01 6.10394641671801e-01 4.34715037735547e-03
6.33910256410256e-01 6.05014905691758e-01 4.33886588346232e-03
6.42653846153846e-01 5.99682584221866e-01 4.33018512235901e-03
6.51397435897436e-01 5.94397259364381e-01 4.32112165438359e-03
6.60141025641026e-01 5.89158516912959e-01 4.31168860285474e-03
6.68884615384615e-01 5.83965946311908e-01 4.30189867509281e-03
6.77628205128205e-01 5.78819140631432e-01 4.29176418195294e-03
6.86371794871795e-01 5.73717696513202e-01 4.28129705056743e-03
6.95115384615385e-01 5.68661214161440e-01 4.27050883477932e-03
7.03858974358974e-01 5.63649297310964e-01 4.25941073827402e-03
7.12602564102564e-01 5.58681553175076e-01 4.24801362363058e-03
7.21346153846154e-01 5.53757592435977e-01 4.23632802219305e-03
7.30089743589744e-01 5.48877029207107e-01 4.22436414930016e-03
7.38833333333333e-01 5.44039481009349e-01 4.21213191844794e-03
7.47576923076923e-01 5.39244568721694e-01 4.19964094961940e-03
7.56320512820513e-01 5.34491916571015e-01 4.18690057703018e-03
7.65064102564103e-01 5.29781152096059e-01 4.17391986203013e-03
7.73807692307692e-01 5.25111906124184e-01 4.16070760509807e-03
7.82551282051282e-01 5.20483812724589e-01 4.14727235241733e-03
7.91294871794872e-01 5.15896509197592e-01 4.13362240198387e-03
8.00038461538461e-01 5.11349636040170e-01 4.11976581465419e-03
8.08782051282051e-01 5.06842836923246e-01 4.10571042441342e-03
8.17525641025641e-01 5.02375758647296e-01 4.09146384358601e-03
8.26269230769231e-01 4.97948051131250e-01 4.07703346766767e-03
8.35012820512820e-01 4.93559367379484e-01 4.06242648487950e-03
8.43756410256410e-01 4.89209363459678e-01 4.04764988504091e-03
8.52500000000000e-01 4.84897698460627e-01 4.03271046371005e-03
8.61243589743590e-01 4.80624034480859e-01 4.01761482601151e-03
8.69987179487179e-01 4.76388036597009e-01 4.00236939497102e-03
8.78730769230769e-01 4.72189372842245e-01 3.98698041924961e-03
8.87474358974359e-01 4.68027714166135e-01 3.97145397643586e-03
8.96217948717949e-01 4.63902734423069e-01 3.95579597607768e-03
9.04961538461538e-01 4.59814110341937e-01 3.94001216701069e-03
9.13705128205128e-01 4.55761521505127e-01 3.92410814415236e-03
9.22448717948718e-01 4.51744650310312e-01 3.90808935111702e-03
9.31192307692308e-01 4.47763181958749e-01 3.89196108261180e-03
9.39935897435897e-01 4.43816804426191e-01 3.87572849092665e-03
9.48679487179487e-01 4.39905208442459e-01 3.85939659194459e-03
9.57423076923077e-01 4.36028087455025e-01 3.84297026721217e-03
9.66166666666667e-01 4.32185137617245e-01 3.82645426582503e-03
9.74910256410256e-01 4.28376057760449e-01 3.80985321021171e-03
9.83653846153846e-01 4.24600549374078e-01 3.79317160148384e-03
9.92397435897436e-01 4.20858316570954e-01 3.77641382106776e-03
1.00114102564103e+00 4.17149066075503e-01 3.75958413130483e-03
1.00988461538462e+00 4.13472507200500e-01 3.74268668413077e-03
1.01862820512821e+00 4.09828351813564e-01 3.72572552149957e-03
1.02737179487179e+00 4.06216314325374e-01 3.70870457660966e-03
1.03611538461538e+00 4.02636111663649e-01 3.69162767951161e-03
1.04485897435897e+00 3.99087463250986e-01 3.67449855902386e-03
1.05360256410256e+00 3.95570090982862e-01 3.65732084546555e-03
1.06234615384615e+00 3.92083719205835e-01 3.64009807329255e-03
1.07108974358974e+00 3.88628074695948e-01 3.62283368365052e-03
1.07983333333333e+00 3.85202886637308e-01 3.60553102684651e-03
1.08857692307692e+00 3.81807886600872e-01 3.58819336474196e-03
1.09732051282051e+00 3.78442808523402e-01 3.57082387306995e-03
1.10606410256410e+00 3.75107388686619e-01 3.55342564368065e-03
1.11480769230769e+00 3.71801365696534e-01 3.53600168671703e-03
1.12355128205128e+00 3.68524480462962e-01 3.51855493272288e-03
1.13229487179487e+00 3.65276476179221e-01 3.50108823468705e-03
1.14103846153846e+00 3.62057098302000e-01 3.48360437002575e-03
1.14978205128205e+00 3.58866094531418e-01 3.46610604250502e-03
1.15852564102564e+00 3.55703214791245e-01 3.44859588410605e-03
1.16726923076923e+00 3.52568211209307e-01 3.43107645683459e-03
1.17601282051282e+00 3.49460838098062e-01 3.41355025447785e-03
1.18475641025641e+00 3.46380851935342e-01 3.39601970430984e-03
1.19350000000000e+00 3.43328011345270e-01 3.37848716217207e-03
1.20224358974359e+00 3.40302077103840e-01 3.36095493394583e-03
1.21098717948718e+00 3.37302812046079e-01 3.34342526380483e-03
1.21973076923077e+00 3.34329981122165e-01 3.32590032221893e-03
1.22847435897436e+00 3.31383351353892e-01 3.30838222780315e-03
1.23721794871795e+00 3.28462691816420e-01 3.29087304191110e-03
1.24596153846154e+00 3.25567773620169e-01 3.27337477002860e-03
1.25470512820513e+00 3.22698369892889e-01 3.25588936312835e-03
1.26344871794872e+00 3.19854255761875e-01 3.23841871898794e-03
1.27219230769231e+00 3.17035208336343e-01 3.22096468347146e-03
1.28093589743590e+00 3.14241006689969e-01 3.20352905177571e-03
1.28967948717949e+00 3.11471431843568e-01 3.18611356964398e-03
1.29842307692308e+00 3.08726266747936e-01 3.16871993454665e-03
1.30716666666667e+00 3.06005296266842e-01 3.15134979682979e-03
1.31591025641026e+00 3.03308307160162e-01 3.13400476083398e-03
1.32465384615385e+00 3.00635088067174e-01 3.11668638598355e-03
1.33339743589744e+00 2.97985429489992e-01 3.09939618784683e-03
1.34214102564103e+00 2.95359123777143e-01 3.08213563916892e-03
1.35088461538462e+00 2.92755965107303e-01 3.06490617087816e-03
1.35962820512821e+00 2.90175749473156e-01 3.04770917306570e-03
1.36837179487179e+00 2.87618274665416e-01 3.03054599594192e-03
1.37711538461538e+00 2.85083340256969e-01 3.01341795076449e-03
1.38585897435897e+00 2.82570747587179e-01 2.99632631074519e-03
1.39460256410256e+00 2.80080299746310e-01 2.97927231193644e-03
1.40334615384615e+00 2.77611801560098e-01 2.96225715409183e-03
1.41208974358974e+00 2.75165059574456e-01 2.94528200150683e-03
1.42083333333333e+00 2.72739882040309e-01 2.92834798383720e-03
1.42957692307692e+00 2.70336078898571e-01 2.91145619689848e-03
1.43832051282051e+00 2.67953461765248e-01 2.89460770344530e-03
1.44706410256410e+00 2.65591843916674e-01 2.87780353393147e-03
1.45580769230769e+00 2.63251040274881e-01 2.86104468725167e-03
1.46455128205128e+00 2.60930867393090e-01 2.84433213146491e-03
1.47329487179487e+00 2.58631143441338e-01 2.82766680450060e-03
1.48203846153846e+00 2.56351688192227e-01 2.81104961484779e-03
1.49078205128205e+00 2.54092323006799e-01 2.79448144222749e-03
1.49952564102564e+00 2.51852870820536e-01 2.77796313824904e-03
1.50826923076923e+00 2.49633156129488e-01 2.76149552705103e-03
1.51701282051282e+00 2.47433004976511e-01 2.74507940592690e-03
1.52575641025641e+00 2.45252244937641e-01 2.72871554593593e-03
1.53450000000000e+00 2.43090705108579e-01 2.71240468839255e-03
1.54324358974359e+00 2.40948216104795e-01 2.69614755785364e-03
1.55198717948718e+00 2.38824610007448e-01 2.67994485438119e-03
1.56073076923077e+00 2.36719720391345e-01 2.66379724565469e-03
1.56947435897436e+00 2.34633382298092e-01 2.64770538023548e-03
1.57821794871795e+00 2.32565432223161e-01 2.63166988382779e-03
1.58696153846154e+00 2.30515708103074e-01 2.61569135979646e-03
1.59570512820513e+00 2.28484049302710e-01 2.59977038967322e-03
1.60444871794872e+00 2.26470296602706e-01 2.58390753365160e-03
1.61319230769231e+00 2.24474292186989e-01 2.56810333107040e-03
1.62193589743590e+00 2.22495879630402e-01 2.55235830088611e-03
1.63067948717949e+00 2.20534903886447e-01 2.53667294213459e-03
1.63942307692308e+00 2.18591211275132e-01 2.52104773438265e-03
1.64816666666667e+00 2.16664649470932e-01 2.50548313816951e-03
1.65691025641026e+00 2.14755067490848e-01 2.48997959543810e-03
1.66565384615385e+00 2.12862315682572e-01 2.47453752995673e-03
1.67439743589744e+00 2.10986245712767e-01 2.45915734773163e-03
1.68314102564103e+00 2.09126710555432e-01 2.44383943741016e-03
1.69188461538462e+00 2.07283564480389e-01 2.42858417067526e-03
1.70062820512821e+00 2.05456663041857e-01 2.41339190263105e-03
1.70937179487179e+00 2.03645863067132e-01 2.39826297218053e-03
1.71811538461538e+00 2.01851022645367e-01 2.38319770239344e-03
1.72685897435897e+00 2.00072001116452e-01 2.36819640086685e-03
1.73560256410256e+00 1.98308659059993e-01 2.35325936007948e-03
1.74434615384615e+00 1.96560858284379e-01 2.33838685773651e-03
1.75308974358974e+00 1.94828461815958e-01 2.32357915710718e-03
1.76183333333333e+00 1.93111333888300e-01 2.30883650735535e-03
1.77057692307692e+00 1.91409339931557e-01 2.29415914386285e-03
1.77932051282051e+00 1.89722346561917e-01 2.27954728854566e-03
1.78806410256410e+00 1.88050221571151e-01 2.26500115016366e-03
1.79680769230769e+00 1.86392833916253e-01 2.25052092462366e-03
1.80555128205128e+00 1.84750053709169e-01 2.23610679527562e-03
1.81429487179487e+00 1.83121752206617e-01 2.22175893320286e-03
1.82303846153846e+00 1.81507801799999e-01 2.20747749750590e-03
1.83178205128205e+00 1.79908076005401e-01 2.19326263558036e-03
1.84052564102564e+00 1.78322449453679e-01 2.17911448338913e-03
1.84926923076923e+00 1.76750797880634e-01 2.16503316572838e-03
1.85801282051282e+00 1.75192998117275e-01 2.15101879648825e-03
1.86675641025641e+00 1.73648928080164e-01 2.13707147890807e-03
1.87550000000000e+00 1.72118466761851e-01 2.12319130319494e-03
1.88424358974359e+00 1.70601494229214e-01 2.10937835471335e-03
1.89298717948718e+00 1.69097891590414e-01 2.09563270890625e-03
1.90173076923077e+00 1.67607541009397e-01 2.08195442612035e-03
1.91047435897436e+00 1.66130325688662e-01 2.06834355998250e-03
1.91921794871795e+00 1.64666129860110e-01 2.05480015489066e-03
1.92796153846154e+00 1.63214838775963e-01 2.04132424623358e-03
1.93670512820513e+00 1.61776338699782e-01 2.02791586060598e-03
1.94544871794872e+00 1.60350516897545e-01 2.01457501601961e-03
1.95419230769231e+00 1.58937261628816e-01 2.00130172210980e-03
1.96293589743590e+00 1.57536462137988e-01 1.98809598033751e-03
1.97167948717949e+00 1.56148008645602e-01 1.97495778418737e-03
1.98042307692308e+00 1.54771792339745e-01 1.96188711936144e-03
1.98916666666667e+00 1.53407705367521e-01 1.94888396396935e-03
1.99791025641026e+00 1.52055640826599e-01 1.93594828871420e-03
2.00665384615385e+00 1.50715492756837e-01 1.92308005707461e-03
2.01539743589744e+00 1.49387156131976e-01 1.91027922548294e-03
2.02414102564103e+00 1.48070526851409e-01 1.89754574350019e-03
2.03288461538462e+00 1.46765501732024e-01 1.88487955398719e-03
2.04162820512820e+00 1.45471978500118e-01 1.87228059327203e-03
2.05037179487179e+00 1.44189855783379e-01 1.85974879131440e-03
2.05911538461538e+00 1.42919033102945e-01 1.84728407186588e-03
2.06785897435897e+00 1.41659410865528e-01 1.83488635262745e-03
2.07660256410256e+00 1.40410890355607e-01 1.82255554540414e-03
2.08534615384615e+00 1.39173373727698e-01 1.81029155625613e-03
2.09408974358974e+00 1.37946763998679e-01 1.79809428564654e-03
2.10283333333333e+00 1.36730965040193e-01 1.78596362858629e-03
2.11157692307692e+00 1.35525881571113e-01 1.77389947477626e-03
2.12032051282051e+00 1.34331419150077e-01 1.76190170874638e-03
2.12906410256410e+00 1.33147484168084e-01 1.74997020999184e-03
2.13780769230769e+00 1.31973983841161e-01 1.73810485310640e-03
2.14655128205128e+00 1.30810826203089e-01 1.72630550791328e-03
2.15529487179487e+00 1.29657920098196e-01 1.71457203959334e-03
2.16403846153846e+00 1.28515175174215e-01 1.70290430881033e-03
2.17278205128205e+00 1.27382501875201e-01 1.69130217183381e-03
2.18152564102564e+00 1.26259811434515e-01 1.67976548065957e-03
2.19026923076923e+00 1.25147015867865e-01 1.66829408312763e-03
2.19901282051282e+00 1.24044027966412e-01 1.65688782303768e-03
2.20775641025641e+00 1.22950761289934e-01 1.64554654026216e-03
2.21650000000000e+00 1.21867130160056e-01 1.63427006914358e-03
2.22524358974359e+00 1.20793049658219e-01 1.62305824377765e-03
2.23398717948718e+00 1.19728435604861e-01 1.61191089465677e-03
2.24273076923077e+00 1.18673204567087e-01 1.60082784525065e-03
2.25147435897436e+00 1.17627273847344e-01 1.58980891741413e-03
2.26021794871795e+00 1.16590561476934e-01 1.57885392970711e-03
2.26896153846154e+00 1.15562986209593e-01 1.56796269749232e-03
2.27770512820513e+00 1.14544467515127e-01 1.55713503303129e-03
2.28644871794872e+00 1.13534925573093e-01 1.54637074557824e-03
2.29519230769231e+00 1.12534281266553e-01 1.53566964147217e-03
2.30393589743590e+00 1.11542456175867e-01 1.52503152422722e-03
2.31267948717949e+00 1.10559372572549e-01 1.51445619462078e-03
2.32142307692308e+00 1.09584953413177e-01 1.50394345078008e-03
2.33016666666667e+00 1.08619122333353e-01 1.49349308826690e-03
2.33891025641026e+00 1.07661803641719e-01 1.48310490016059e-03
2.34765384615385e+00 1.06712922314028e-01 1.47277867713927e-03
2.35639743589744e+00 1.05772403987259e-01 1.46251420755955e-03
2.36514102564103e+00 1.04840174953794e-01 1.45231127753454e-03
2.37388461538462e+00 1.03916162155639e-01 1.44216967101019e-03
2.38262820512821e+00 1.03000293178701e-01 1.43208916984000e-03
2.39137179487179e+00 1.02092496247108e-01 1.42206955385846e-03
2.40011538461538e+00 1.01192700217589e-01 1.41211060095255e-03
2.40885897435897e+00 1.00300834573899e-01 1.40221208713187e-03
2.41760256410256e+00 9.94168294212857e-02 1.39237378659793e-03
2.42634615384615e+00 9.85406154810214e-02 1.38259547181130e-03
2.43508974358974e+00 9.76721240849667e-02 1.37287691355739e-03
2.44383333333333e+00 9.68112871701919e-02 1.36321788101122e-03
2.45257692307692e+00 9.59580372736424e-02 1.35361814180078e-03
2.46132051282051e+00 9.51123075268517e-02 1.34407746206881e-03
2.47006410256410e+00 9.42740316507010e-02 1.33459560653340e-03
2.47880769230769e+00 9.34431439502250e-02 1.32517233854756e-03
2.48755128205128e+00 9.26195793094632e-02 1.31580742015712e-03
2.49629487179487e+00 9.18032731863573e-02 1.30650061215766e-03
2.50503846153846e+00 9.09941616076926e-02 1.29725167415048e-03
2.51378205128205e+00 9.01921811640847e-02 1.28806036459687e-03
2.52252564102564e+00 8.93972690050101e-02 1.27892644087147e-03
2.53126923076923e+00 8.86093628338809e-02 1.26984965931471e-03
2.54001282051282e+00 8.78284009031623e-02 1.26082977528394e-03
2.54875641025641e+00 8.70543220095338e-02 1.25186654320334e-03
2.55750000000000e+00 8.62870654890924e-02 1.24295971548327e-03
2.56624358974359e+00 8.55265712154770e-02 1.23410904597924e-03
2.57498717948718e+00 8.47727795864614e-02 1.22531428775650e-03
2.58373076923077e+00 8.40256315280389e-02 1.21657519081321e-03
2.59247435897436e+00 8.32850684868539e-02 1.20789150562244e-03
2.60121794871795e+00 8.25510324256127e-02 1.19926298200284e-03
2.60996153846154e+00 8.18234658185359e-02 1.19068936916172e-03
2.61870512820513e+00 8.11023116468492e-02 1.18217041573703e-03
2.62744871794872e+00 8.03875133943157e-02 1.17370586983854e-03
2.63619230769231e+00 7.96790150428061e-02 1.16529547908826e-03
2.64493589743590e+00 7.89767610679093e-02 1.15693899065971e-03
2.65367948717949e+00 7.82806964345805e-02 1.14863615131644e-03
2.66242307692308e+00 7.75907665928280e-02 1.14038670744976e-03
2.67116666666667e+00 7.69069174734390e-02 1.13219040511560e-03
2.67991025641026e+00 7.62290954837413e-02 1.12404699007055e-03
2.68865384615385e+00 7.55572475034037e-02 1.11595620780708e-03
2.69739743589744e+00 7.48913208802733e-02 1.10791780358797e-03
2.70614102564103e+00 7.42312634262485e-02 1.09993152248014e-03
2.71488461538462e+00 7.35770234131897e-02 1.09199710938742e-03
2.72362820512820e+00 7.29285495688651e-02 1.08411430908282e-03
2.73237179487179e+00 7.22857910729326e-02 1.07628286624022e-03
2.74111538461538e+00 7.16486975529568e-02 1.06850252546471e-03
2.74985897435897e+00 7.10172190804618e-02 1.06077303132268e-03
2.75860256410256e+00 7.03913061670183e-02 1.05309412837161e-03
