Energy (eV)          EEDF (eV^-(3/2))     First Anisotropy
9.09090909090909e-03 4.90805001962734e-01 3.18128570313151e-04
2.72727272727273e-02 4.85690767519089e-01 5.24346495621365e-04
4.54545454545455e-02 4.80629823881089e-01 6.89620777900973e-04
6.36363636363636e-02 4.75621615764890e-01 8.13624220084324e-04
8.18181818181818e-02 4.70665593648118e-01 9.15764360704324e-04
1.00000000000000e-01 4.65761213748361e-01 1.00341794540733e-03
1.18181818181818e-01 4.60907937953072e-01 1.08042172037346e-03
1.36363636363636e-01 4.56105233755142e-01 1.14910397806337e-03
1.54545454545455e-01 4.51352574192360e-01 1.21101635976051e-03
1.72727272727273e-01 4.46649437766207e-01 1.26726077564591e-03
1.90909090909091e-01 4.41995308471676e-01 1.31865677410208e-03
2.09090909090909e-01 4.37389675648514e-01 1.36583576435042e-03
2.27272727272727e-01 4.32832033957485e-01 1.40929792413460e-03
2.45454545454545e-01 4.28321883325885e-01 1.44944851053010e-03
2.63636363636364e-01 4.23858728874781e-01 1.48662205066845e-03
2.81818181818182e-01 4.19442080917921e-01 1.52109905473705e-03
3.00000000000000e-01 4.15071454852701e-01 1.55311790958180e-03
3.18181818181818e-01 4.10746371126114e-01 1.58288355301422e-03
3.36363636363636e-01 4.06466355182256e-01 1.61057394945593e-03
3.54545454545455e-01 4.02230937410315e-01 1.63634501318289e-03
3.72727272727273e-01 3.98039653081710e-01 1.66033441020488e-03
3.90909090909091e-01 3.93892042333581e-01 1.68266454595098e-03
4.09090909090909e-01 3.89787650082844e-01 1.70344494089867e-03
4.27272727272727e-01 3.85726025988347e-01 1.72277413646302e-03
4.45454545454545e-01 3.81706724401697e-01 1.74074124960172e-03
4.63636363636364e-01 3.77729304309660e-01 1.75742724475898e-03
4.81818181818182e-01 3.73793329312038e-01 1.77290599170623e-03
5.00000000000000e-01 3.69898367546874e-01 1.78724514928245e-03
5.18181818181818e-01 3.66043991652235e-01 1.80050690445785e-03
5.36363636363636e-01 3.62229778719365e-01 1.81274860192194e-03
5.54545454545455e-01 3.58455310246305e-01 1.82402328083488e-03
5.72727272727273e-01 3.54720172085485e-01 1.83438013218802e-03
5.90909090909091e-01 3.51023954418029e-01 1.84386489686516e-03
6.09090909090909e-01 3.47366251688620e-01 1.85252021093561e-03
6.27272727272727e-01 3.43746662567831e-01 1.86038590260293e-03
6.45454545454545e-01 3.40164789908186e-01 1.86749925569177e-03
6.63636363636364e-01 3.36620240695231e-01 1.87389523780607e-03
6.81818181818182e-01 3.33112626020598e-01 1.87960670484849e-03
7.00000000000000e-01 3.29641561022836e-01 1.88466458231442e-03
7.18181818181818e-01 3.26206664850777e-01 1.88909802302266e-03
7.36363636363636e-01 3.22807560621769e-01 1.89293455041704e-03
7.54545454545455e-01 3.19443875380330e-01 1.89620018672044e-03
7.72727272727273e-01 3.16115240052967e-01 1.89891956560816e-03
7.90909090909091e-01 3.12821289420638e-01 1.90111603643621e-03
8.09090909090909e-01 3.09561662065496e-01 1.90281175842659e-03
8.27272727272727e-01 3.06336000335680e-01 1.90402778291655e-03
8.45454545454545e-01 3.03143950306126e-01 1.90478413081320e-03
8.63636363636364e-01 2.99985161736086e-01 1.90509986035522e-03
8.81818181818182e-01 2.96859288041725e-01 1.90499313141674e-03
9.00000000000000e-01 2.93765986246891e-01 1.90448126433836e-03
9.18181818181818e-01 2.90704916949269e-01 1.90358079109232e-03
9.36363636363636e-01 2.87675744283150e-01 1.90230750429527e-03
9.54545454545454e-01 2.84678135882592e-01 1.90067650219648e-03
9.72727272727273e-01 2.81711762841932e-01 1.89870222823128e-03
9.90909090909091e-01 2.78776299688850e-01 1.89639850976459e-03
1.00909090909091e+00 2.75871424339369e-01 1.89377859485702e-03
1.02727272727273e+00 2.72996818060048e-01 1.89085518123804e-03
1.04545454545455e+00 2.70152165444608e-01 1.88764044247351e-03
1.06363636363636e+00 2.67337154399507e-01 1.88414607054720e-03
1.08181818181818e+00 2.64551476030248e-01 1.88038329202430e-03
1.10000000000000e+00 2.61794824687838e-01 1.87636288325347e-03
1.11818181818182e+00 2.59066897908105e-01 1.87209520605961e-03
1.13636363636364e+00 2.56367396378578e-01 1.86759022413713e-03
1.15454545454545e+00 2.53696023905692e-01 1.86285751875773e-03
1.17272727272727e+00 2.51052487404574e-01 1.85790631862099e-03
1.19090909090909e+00 2.48436496799151e-01 1.85274550917806e-03
1.20909090909091e+00 2.45847765058795e-01 1.84738364077823e-03
1.22727272727273e+00 2.43286008143670e-01 1.84182895562114e-03
1.24545454545455e+00 2.40750944973742e-01 1.83608939440350e-03
1.26363636363636e+00 2.38242297417466e-01 1.83017262022048e-03
1.28181818181818e+00 2.35759790201801e-01 1.82408602400016e-03
1.30000000000000e+00 2.33303150942105e-01 1.81783672911400e-03
1.31818181818182e+00 2.30872110091967e-01 1.81143161339086e-03
1.33636363636364e+00 2.28466400913669e-01 1.80487731597466e-03
1.35454545454545e+00 2.26085759448956e-01 1.79818024413511e-03
1.37272727272727e+00 2.23729924507012e-01 1.79134659221334e-03
1.39090909090909e+00 2.21398637584353e-01 1.78438234413742e-03
1.40909090909091e+00 2.19091642888443e-01 1.77729327537102e-03
1.42727272727273e+00 2.16808687292068e-01 1.77008497070983e-03
1.44545454545455e+00 2.14549520305675e-01 1.76276282569360e-03
1.46363636363636e+00 2.12313894064909e-01 1.75533206258278e-03
1.48181818181818e+00 2.10101563257731e-01 1.74779773134892e-03
1.50000000000000e+00 2.07912285143650e-01 1.74016471023681e-03
1.51818181818182e+00 2.05745819511521e-01 1.73243772096511e-03
1.53636363636364e+00 2.03601928653222e-01 1.72462133160685e-03
1.55454545454545e+00 2.01480377337592e-01 1.71671995961286e-03
1.57272727272727e+00 1.99380932797783e-01 1.70873788511525e-03
1.59090909090909e+00 1.97303364665770e-01 1.70067925073813e-03
1.60909090909091e+00 1.95247444987422e-01 1.69254806108836e-03
1.62727272727273e+00 1.93212948183870e-01 1.68434819557630e-03
1.64545454545455e+00 1.91199651026834e-01 1.67608340772984e-03
1.66363636363636e+00 1.89207332625901e-01 1.66775733678420e-03
1.68181818181818e+00 1.87235774368516e-01 1.65937350687257e-03
1.70000000000000e+00 1.85284759932113e-01 1.65093532596073e-03
1.71818181818182e+00 1.83354075248211e-01 1.64244609710921e-03
1.73636363636364e+00 1.81443508478939e-01 1.63390901953610e-03
1.75454545454545e+00 1.79552849993810e-01 1.62532718987152e-03
1.77272727272727e+00 1.77681892357123e-01 1.61670361211430e-03
1.79090909090909e+00 1.75830430273649e-01 1.60804119634665e-03
1.80909090909091e+00 1.73998260597960e-01 1.59934275724574e-03
1.82727272727273e+00 1.72185182301395e-01 1.59061102384147e-03
1.84545454545455e+00 1.70390996450053e-01 1.58184863799662e-03
1.86363636363636e+00 1.68615506192332e-01 1.57305816326394e-03
1.88181818181818e+00 1.66858516708896e-01 1.56424208336349e-03
1.90000000000000e+00 1.65119835220000e-01 1.55540280049023e-03
1.91818181818182e+00 1.63399270954667e-01 1.54654264404145e-03
1.93636363636364e+00 1.61696635129771e-01 1.53766387080430e-03
1.95454545454545e+00 1.60011740929332e-01 1.52876866533608e-03
1.97272727272727e+00 1.58344403492346e-01 1.51985914772915e-03
1.99090909090909e+00 1.56694439867261e-01 1.51093737192080e-03
2.00909090909091e+00 1.55061669017375e-01 1.50200532386214e-03
2.02727272727273e+00 1.53445911792384e-01 1.49306492921425e-03
2.04545454545455e+00 1.51846990908768e-01 1.48411805154606e-03
2.06363636363636e+00 1.50264730937867e-01 1.47516649933781e-03
2.08181818181818e+00 1.48698958263770e-01 1.46621202422532e-03
2.10000000000000e+00 1.47149501087341e-01 1.45725631912255e-03
2.11818181818182e+00 1.45616189399598e-01 1.44830102518849e-03
2.13636363636364e+00 1.44098854963064e-01 1.43934773158599e-03
2.15454545454545e+00 1.42597331293324e-01 1.43039797541891e-03
2.17272727272727e+00 1.41111453647484e-01 1.42145324795623e-03
2.19090909090909e+00 1.39641058985689e-01 1.41251499284993e-03
2.20909090909091e+00 1.38185985973831e-01 1.40358460424860e-03
2.22727272727273e+00 1.36746074958900e-01 1.39466343301452e-03
2.24545454545455e+00 1.35321167951501e-01 1.38575278489055e-03
2.26363636363636e+00 1.33911108614635e-01 1.37685392616695e-03
2.28181818181818e+00 1.32515742227981e-01 1.36796808191258e-03
2.30000000000000e+00 1.31134915689652e-01 1.35909643411419e-03
2.31818181818182e+00 1.29768477493090e-01 1.35024012735122e-03
2.33636363636364e+00 1.28416277710449e-01 1.34140026835125e-03
2.35454545454545e+00 1.27078167976148e-01 1.33257792570433e-03
2.37272727272727e+00 1.25754001476092e-01 1.32377413494730e-03
2.39090909090909e+00 1.24443632914910e-01 1.31498989683337e-03
2.40909090909091e+00 1.23146918516814e-01 1.30622617552142e-03
2.42727272727273e+00 1.21863716004160e-01 1.29748390368266e-03
2.44545454545455e+00 1.20593884581860e-01 1.28876398075057e-03
2.46363636363636e+00 1.19337284926944e-01 1.28006727758083e-03
2.48181818181818e+00 1.18093779158079e-01 1.27139463476994e-03
2.50000000000000e+00 1.16863230835771e-01 1.26274686090175e-03
2.51818181818182e+00 1.15645504942230e-01 1.25412473723617e-03
2.53636363636364e+00 1.14440467866563e-01 1.24552901717912e-03
2.55454545454545e+00 1.13247987390122e-01 1.23696042589158e-03
2.57272727272727e+00 1.12067932676503e-01 1.22841966449905e-03
2.59090909090909e+00 1.10900174243525e-01 1.21990740847693e-03
2.60909090909091e+00 1.09744583962813e-01 1.21142430597182e-03
2.62727272727273e+00 1.08601035041092e-01 1.20297098204663e-03
2.64545454545455e+00 1.07469402006290e-01 1.19454803706264e-03
2.66363636363636e+00 1.06349560697904e-01 1.18615605055652e-03
2.68181818181818e+00 1.05241388240859e-01 1.17779557968872e-03
2.70000000000000e+00 1.04144763044647e-01 1.16946715763392e-03
2.71818181818182e+00 1.03059564785744e-01 1.16117129749601e-03
2.73636363636364e+00 1.01985674394403e-01 1.15290849175527e-03
2.75454545454545e+00 1.00922974041603e-01 1.14467921183642e-03
2.77272727272727e+00 9.98713471298430e-02 1.13648391162860e-03
2.79090909090909e+00 9.88306782690541e-02 1.12832302601094e-03
2.80909090909091e+00 9.78008532753342e-02 1.12019696932591e-03
2.82727272727273e+00 9.67817591545808e-02 1.11210613893984e-03
2.84545454545455e+00 9.57732840901067e-02 1.10405091377365e-03
2.86363636363636e+00 9.47753174337923e-02 1.09603165755656e-03
2.88181818181818e+00 9.37877496835744e-02 1.08804871741843e-03
2.90000000000000e+00 9.28104724818909e-02 1.08010242243443e-03
2.91818181818182e+00 9.18433786002725e-02 1.07219308691960e-03
2.93636363636364e+00 9.08863619275800e-02 1.06432100988685e-03
2.95454545454545e+00 8.99393174583648e-02 1.05648647460994e-03
2.97272727272727e+00 8.90021412844474e-02 1.04868975158884e-03
2.99090909090909e+00 8.80747305741287e-02 1.04093109722026e-03
3.00909090909091e+00 8.71569835703750e-02 1.03321075242504e-03
3.02727272727273e+00 8.62487995764650e-02 1.02552894565492e-03
3.04545454545455e+00 8.53500789449514e-02 1.01788589157245e-03
3.06363636363636e+00 8.44607230695766e-02 1.01028179380001e-03
3.08181818181818e+00 8.35806343658182e-02 1.00271684365546e-03
3.10000000000000e+00 8.27097162688904e-02 9.95191218848238e-04
3.11818181818182e+00 8.18478732202188e-02 9.87705086268888e-04
3.13636363636364e+00 8.09950106569581e-02 9.80258601475164e-04
3.15454545454545e+00 8.01510350016186e-02 9.72851908269150e-04
3.17272727272727e+00 7.93158536543866e-02 9.65485141210400e-04
3.19090909090909e+00 7.84893749751286e-02 9.58158424426344e-04
3.20909090909091e+00 7.76715082812384e-02 9.50871870386648e-04
3.22727272727273e+00 7.68621638350264e-02 9.43625582456304e-04
3.24545454545455e+00 7.60612528338822e-02 9.36419653717187e-04
3.26363636363636e+00 7.52686874029138e-02 9.29254169302975e-04
3.28181818181818e+00 7.44843805780841e-02 9.22129205270780e-04
3.30000000000000e+00 7.37082463039515e-02 9.15044827439352e-04
3.31818181818182e+00 7.29401994217785e-02 9.08001093762527e-04
3.33636363636364e+00 7.21801556601890e-02 9.00998053852015e-04
3.35454545454545e+00 7.14280316259243e-02 8.94035748578666e-04
3.37272727272727e+00 7.06837447968617e-02 8.87114212212164e-04
3.39090909090909e+00 6.99472135063937e-02 8.80233471362087e-04
3.40909090909091e+00 6.92183569410886e-02 8.73393543888359e-04
3.42727272727273e+00 6.84970951295951e-02 8.66594441078186e-04
3.44545454545455e+00 6.77833489338736e-02 8.59836166598813e-04
3.46363636363636e+00 6.70770400425145e-02 8.53118718488999e-04
3.48181818181818e+00 6.63780909560828e-02 8.46442088156134e-04
3.50000000000000e+00 6.56864249847281e-02 8.39806259344990e-04
3.51818181818182e+00 6.50019662377137e-02 8.33211210164878e-04
3.53636363636364e+00 6.43246396150913e-02 8.26656912652196e-04
3.55454545454545e+00 6.36543707994624e-02 8.20143332400794e-04
3.57272727272727e+00 6.29910862496484e-02 8.13670430390562e-04
3.59090909090909e+00 6.23347131870988e-02 8.07238162047771e-04
3.60909090909091e+00 6.16851795934744e-02 8.00846476279364e-04
3.62727272727273e+00 6.10424142008710e-02 7.94495317335752e-04
3.64545454545455e+00 6.04063464840052e-02 7.88184623882569e-04
3.66363636363636e+00 5.97769066541617e-02 7.81914330705228e-04
3.68181818181818e+00 5.91540256464294e-02 7.75684367819878e-04
3.70000000000000e+00 5.85376351172726e-02 7.69494659560126e-04
3.71818181818182e+00 5.79276674352999e-02 7.63345126314210e-04
3.73636363636364e+00 5.73240556738457e-02 7.57235684127320e-04
3.75454545454545e+00 5.67267336036270e-02 7.51166244362677e-04
3.77272727272727e+00 5.61356356870170e-02 7.45136715269262e-04
3.79090909090909e+00 5.55506970661939e-02 7.39147001149702e-04
3.80909090909091e+00 5.49718535607230e-02 7.33197001505813e-04
3.82727272727273e+00 5.43990416589333e-02 7.27286612637382e-04
3.84545454545455e+00 5.38321985109536e-02 7.21415726820893e-04
3.86363636363636e+00 5.32712619232403e-02 7.15584233772648e-04
3.88181818181818e+00 5.27161703474396e-02 7.09792019861932e-04
3.90000000000000e+00 5.21668628779835e-02 7.04038967303578e-04
3.91818181818182e+00 5.16232792439449e-02 6.98324955650684e-04
3.93636363636364e+00 5.10853598024252e-02 6.92649861435236e-04
3.95454545454545e+00 5.05530455320112e-02 6.87013557859664e-04
3.97272727272727e+00 5.00262780276018e-02 6.81415916144443e-04
3.99090909090909e+00 4.95049994900572e-02 6.75856804792267e-04
4.00909090909091e+00 4.89891527238319e-02 6.70336088832943e-04
4.02727272727273e+00 4.84786811293613e-02 6.64853631198976e-04
4.04545454545454e+00 4.79735286968554e-02 6.59409291999732e-04
4.06363636363636e+00 4.74736400013598e-02 6.54002929780403e-04
4.08181818181818e+00 4.69789601930194e-02 6.48634400826554e-04
4.10000000000000e+00 4.64894349947451e-02 6.43303558450842e-04
4.11818181818182e+00 4.60050106950191e-02 6.38010254278475e-04
4.13636363636364e+00 4.55256341420030e-02 6.32754337923951e-04
4.15454545454545e+00 4.50512527377057e-02 6.27535656712034e-04
4.17272727272727e+00 4.45818144333181e-02 6.22354056838605e-04
4.19090909090909e+00 4.41172677201575e-02 6.17209382720460e-04
4.20909090909091e+00 4.36575616273878e-02 6.12101476328638e-04
4.22727272727273e+00 4.32026457152921e-02 6.07030178374408e-04
4.24545454545455e+00 4.27524700697415e-02 6.01995327668238e-04
4.26363636363636e+00 4.23069852977432e-02 5.96996762205420e-04
4.28181818181818e+00 4.18661425189172e-02 5.92034318551722e-04
4.30000000000000e+00 4.14298933632622e-02 5.87107831213665e-04
4.31818181818182e+00 4.09981899647959e-02 5.82217133747860e-04
4.33636363636364e+00 4.05709849563041e-02 5.77362058470992e-04
4.35454545454545e+00 4.01482314641440e-02 5.72542436208289e-04
4.37272727272727e+00 3.97298831040406e-02 5.67758097295585e-04
4.39090909090909e+00 3.93158939731542e-02 5.63008871005090e-04
4.40909090909091e+00 3.89062186479098e-02 5.58294584956936e-04
4.42727272727273e+00 3.85008121780495e-02 5.53615066143684e-04
4.44545454545455e+00 3.80996300817022e-02 5.48970140364414e-04
4.46363636363636e+00 3.77026283413753e-02 5.44359633162502e-04
4.48181818181818e+00 3.73097633964840e-02 5.39783369283198e-04
4.50000000000000e+00 3.69209921412340e-02 5.35241172117878e-04
4.51818181818182e+00 3.65362719189969e-02 5.30732864662989e-04
4.53636363636364e+00 3.61555605176305e-02 5.26258269260511e-04
4.55454545454545e+00 3.57788161648472e-02 5.21817207371836e-04
4.57272727272727e+00 3.54059975244320e-02 5.17409500444193e-04
4.59090909090909e+00 3.50370636892838e-02 5.13034969403699e-04
4.60909090909091e+00 3.46719741793692e-02 5.08693434136043e-04
4.62727272727273e+00 3.43106889364597e-02 5.04384714372924e-04
4.64545454545455e+00 3.39531683197383e-02 5.00108629192540e-04
4.66363636363636e+00 3.35993731021937e-02 4.95864997831007e-04
4.68181818181818e+00 3.32492644640639e-02 4.91653639203547e-04
4.70000000000000e+00 3.29028039908474e-02 4.87474371414010e-04
4.71818181818182e+00 3.25599536683249e-02 4.83327012585150e-04
4.73636363636364e+00 3.22206758783888e-02 4.79211380626699e-04
4.75454545454545e+00 3.18849333949161e-02 4.75127293032571e-04
4.77272727272727e+00 3.15526893803674e-02 4.71074567631082e-04
4.79090909090909e+00 3.12239073796768e-02 4.67053022137448e-04
4.80909090909091e+00 3.08985513183368e-02 4.63062473695605e-04
4.82727272727273e+00 3.05765854977387e-02 4.59102739646172e-04
4.84545454545454e+00 3.02579745912576e-02 4.55173637085660e-04
4.86363636363636e+00 2.99426836410116e-02 4.51274983569495e-04
4.88181818181818e+00 2.96306780521018e-02 4.47406596689354e-04
4.90000000000000e+00 2.93219235907563e-02 4.43568293640404e-04
4.91818181818182e+00 2.90163863799219e-02 4.39759891941051e-04
4.93636363636364e+00 2.87140328955475e-02 4.35981209225988e-04
4.95454545454545e+00 2.84148299629062e-02 4.32232063064588e-04
4.97272727272727e+00 2.81187447535395e-02 4.28512271611386e-04
4.99090909090909e+00 2.78257447798869e-02 4.24821653211093e-04
5.00909090909091e+00 2.75357978935043e-02 4.21160025994242e-04
5.02727272727273e+00 2.72488722809364e-02 4.17527208543416e-04
5.04545454545454e+00 2.69649364602280e-02 4.13923019504255e-04
5.06363636363636e+00 2.66839592780133e-02 4.10347278195326e-04
5.08181818181818e+00 2.64059099044509e-02 4.06799804234987e-04
5.10000000000000e+00 2.61307578315011e-02 4.03280417159529e-04
5.11818181818182e+00 2.58584728690205e-02 3.99788937047916e-04
5.13636363636364e+00 2.55890251414498e-02 3.96325184337203e-04
5.15454545454545e+00 2.53223850845363e-02 3.92888979660179e-04
5.17272727272727e+00 2.50585234425904e-02 3.89480144410021e-04
5.19090909090909e+00 2.47974112637608e-02 3.86098500391553e-04
5.20909090909091e+00 2.45390198983849e-02 3.82743869464461e-04
5.22727272727273e+00 2.42833209953317e-02 3.79416074121891e-04
5.24545454545455e+00 2.40302864988923e-02 3.76114937147108e-04
5.26363636363636e+00 2.37798886461678e-02 3.72840282143157e-04
5.28181818181818e+00 2.35320999626110e-02 3.69591933203444e-04
5.30000000000000e+00 2.32868932604353e-02 3.66369714574704e-04
5.31818181818182e+00 2.30442416351532e-02 3.63173451199855e-04
5.33636363636364e+00 2.28041184626245e-02 3.60002968553568e-04
5.35454545454545e+00 2.25664973961349e-02 3.56858092497188e-04
5.37272727272727e+00 2.23313523639357e-02 3.53738649769390e-04
5.39090909090909e+00 2.20986575650824e-02 3.50644467678277e-04
5.40909090909091e+00 2.18683874679145e-02 3.47575373786486e-04
5.42727272727273e+00 2.16405168068135e-02 3.44531196414194e-04
5.44545454545455e+00 2.14150205794311e-02 3.41511764336026e-04
5.46363636363636e+00 2.11918740443469e-02 3.38516907241554e-04
5.48181818181818e+00 2.09710527171413e-02 3.35546455444385e-04
5.50000000000000e+00 2.07525323689308e-02 3.32600239584681e-04
5.51818181818182e+00 2.05362890232989e-02 3.29678091101317e-04
5.53636363636364e+00 2.03222989536657e-02 3.26779842085430e-04
5.55454545454545e+00 2.01105386806844e-02 3.23905325150877e-04
5.57272727272727e+00 1.99009849700347e-02 3.21054373861050e-04
5.59090909090909e+00 1.96936148287567e-02 3.18226822456975e-04
5.60909090909091e+00 1.94884055038532e-02 3.15422505579315e-04
5.62727272727273e+00 1.92853344794152e-02 3.12641258706078e-04
5.64545454545455e+00 1.90843794741519e-02 3.09882917885003e-04
5.66363636363636e+00 1.88855184392902e-02 3.07147320134279e-04
5.68181818181818e+00 1.86887295551135e-02 3.04434303185606e-04
5.70000000000000e+00 1.84939912296178e-02 3.01743705221547e-04
5.71818181818182e+00 1.83012820957897e-02 2.99075365286591e-04
5.73636363636364e+00 1.81105810092621e-02 2.96429123156779e-04
