Energy (eV)          EEDF (eV^-(3/2))     First Anisotropy
1.26582278481013e-03 6.15109194249082e-01 3.21357508461434e-08
3.79746835443038e-03 6.15109170596289e-01 9.77949484971615e-08
6.32911392405063e-03 6.15109111042995e-01 2.41351784576288e-07
8.86075949367089e-03 6.15109011382949e-01 4.23851793745380e-07
1.13924050632911e-02 6.15108874524408e-01 6.33895427260533e-07
1.39240506329114e-02 6.15108699154667e-01 8.72127255491494e-07
1.64556962025316e-02 6.15108485610077e-01 1.12164838953381e-06
1.89873417721519e-02 6.15108238636517e-01 1.37057322250934e-06
2.15189873417722e-02 6.15107961283630e-01 1.62040164619917e-06
2.40506329113924e-02 6.15107655826347e-01 1.87622593686556e-06
2.65822784810127e-02 6.15107322399393e-01 2.14225591522253e-06
2.91139240506329e-02 6.15106961332998e-01 2.41557009283455e-06
3.16455696202532e-02 6.15106573437497e-01 2.68861447489042e-06
3.41772151898734e-02 6.15106161040246e-01 2.96467935947796e-06
3.67088607594937e-02 6.15105723548543e-01 3.25266020871942e-06
3.92405063291139e-02 6.15105260532909e-01 3.55242719870565e-06
4.17721518987342e-02 6.15104771454970e-01 3.86745065240099e-06
4.43037974683544e-02 6.15104254985820e-01 4.19901355425403e-06
4.68354430379747e-02 6.15103710350848e-01 4.54496923901486e-06
4.93670886075949e-02 6.15103136859142e-01 4.90155297690302e-06
5.18987341772152e-02 6.15102534698435e-01 5.25792693052598e-06
5.44303797468354e-02 6.15101905740990e-01 5.61700308515802e-06
5.69620253164557e-02 6.15101249310405e-01 5.98920431269461e-06
5.94936708860759e-02 6.15100564776914e-01 6.37438476716527e-06
6.20253164556962e-02 6.15099851533804e-01 6.77279626461030e-06
6.45569620253165e-02 6.15099108928816e-01 7.18508280959009e-06
6.70886075949367e-02 6.15098336249865e-01 7.61156426575298e-06
6.96202531645570e-02 6.15097532812497e-01 8.04513585194823e-06
7.21518987341772e-02 6.15096699421087e-01 8.47180773931150e-06
7.46835443037975e-02 6.15095838225305e-01 8.89758562065822e-06
7.72151898734177e-02 6.15094948650634e-01 9.33556620710303e-06
7.97468354430380e-02 6.15094030142239e-01 9.78573486562912e-06
8.22784810126582e-02 6.15093082154084e-01 1.02482720949335e-05
8.48101265822785e-02 6.15092104120769e-01 1.07234631629331e-05
8.73417721518987e-02 6.15091095465748e-01 1.12113420769552e-05
8.98734177215190e-02 6.15090055639862e-01 1.17117724350025e-05
9.24050632911392e-02 6.15088984112388e-01 1.22247920755164e-05
9.49367088607595e-02 6.15087880346049e-01 1.27505744270786e-05
9.74683544303798e-02 6.15086743796671e-01 1.32892093455163e-05
1.00000000000000e-01 6.15085573928102e-01 1.38279448560973e-05
1.02531645569620e-01 6.15084372477742e-01 1.43523955892291e-05
1.05063291139241e-01 6.15083141377494e-01 1.48730290178650e-05
1.07594936708861e-01 6.15081880405103e-01 1.54019607384777e-05
1.10126582278481e-01 6.15080589335658e-01 1.59392223082515e-05
1.12658227848101e-01 6.15079267941254e-01 1.64848479239021e-05
1.15189873417722e-01 6.15077915991182e-01 1.70388712315135e-05
1.17721518987342e-01 6.15076533252109e-01 1.76013254126105e-05
1.20253164556962e-01 6.15075119488220e-01 1.81722432515359e-05
1.22784810126582e-01 6.15073674461361e-01 1.87516572097258e-05
1.25316455696203e-01 6.15072197931150e-01 1.93395994724333e-05
1.27848101265823e-01 6.15070689655086e-01 1.99361019994325e-05
1.30379746835443e-01 6.15069149388644e-01 2.05411965708258e-05
1.32911392405063e-01 6.15067576885353e-01 2.11549148245713e-05
1.35443037974684e-01 6.15065971896875e-01 2.17772883002476e-05
1.37974683544304e-01 6.15064334173068e-01 2.24083484581817e-05
1.40506329113924e-01 6.15062663462044e-01 2.30481267010025e-05
1.43037974683544e-01 6.15060959510222e-01 2.36966544061157e-05
1.45569620253165e-01 6.15059222062375e-01 2.43539629473943e-05
1.48101265822785e-01 6.15057450861671e-01 2.50200837071170e-05
1.50632911392405e-01 6.15055645649710e-01 2.56950480919147e-05
1.53164556962025e-01 6.15053806166557e-01 2.63788875500949e-05
1.55696202531646e-01 6.15051932150771e-01 2.70716335764674e-05
1.58227848101266e-01 6.15050023339432e-01 2.77733177260382e-05
1.60759493670886e-01 6.15048079468165e-01 2.84839716278375e-05
1.63291139240506e-01 6.15046100271157e-01 2.92036269904590e-05
1.65822784810127e-01 6.15044085481182e-01 2.99323156027099e-05
1.68354430379747e-01 6.15042034829611e-01 3.06700693310262e-05
1.70886075949367e-01 6.15039948046432e-01 3.14169196231601e-05
1.73417721518987e-01 6.15037824860332e-01 3.21728962357582e-05
1.75949367088608e-01 6.15035664998872e-01 3.29380217820453e-05
1.78481012658228e-01 6.15033468189288e-01 3.37123043903982e-05
1.81012658227848e-01 6.15031234159606e-01 3.44957245281182e-05
1.83544303797468e-01 6.15028962641106e-01 3.52882191523907e-05
1.86075949367089e-01 6.15026653371399e-01 3.60896442321119e-05
1.88607594936709e-01 6.15024306101566e-01 3.68997675262436e-05
1.91139240506329e-01 6.15021920599849e-01 3.77183259706324e-05
1.93670886075949e-01 6.15019496651130e-01 3.85450695234350e-05
1.96202531645570e-01 6.15017034054962e-01 3.93798023823324e-05
1.98734177215190e-01 6.15014532619899e-01 4.02224081557739e-05
2.01265822784810e-01 6.15011992158625e-01 4.10184302981356e-05
2.03797468354430e-01 6.15009419714270e-01 4.17661110649446e-05
2.06329113924051e-01 6.15006815229861e-01 4.25183261957438e-05
2.08860759493671e-01 6.15004178677544e-01 4.32748125508375e-05
2.11392405063291e-01 6.15001510029293e-01 4.40355427358435e-05
2.13924050632911e-01 6.14998809256888e-01 4.48004902792089e-05
2.16455696202532e-01 6.14996076331886e-01 4.55696296077098e-05
2.18987341772152e-01 6.14993311225606e-01 4.63429360114806e-05
2.21518987341772e-01 6.14990513909101e-01 4.71203856084312e-05
2.24050632911392e-01 6.14987684353148e-01 4.79019553164677e-05
2.26582278481013e-01 6.14984822528226e-01 4.86876228385127e-05
2.29113924050633e-01 6.14981928404499e-01 4.94773666268033e-05
2.31645569620253e-01 6.14979001951803e-01 5.02711658523023e-05
2.34177215189873e-01 6.14976043139634e-01 5.10690003994318e-05
2.36708860759494e-01 6.14973051937130e-01 5.18708508582634e-05
2.39240506329114e-01 6.14970028313062e-01 5.26766984717308e-05
2.41772151898734e-01 6.14966972235820e-01 5.34865251262545e-05
2.44303797468354e-01 6.14963883673405e-01 5.43003133357746e-05
2.46835443037975e-01 6.14960762593416e-01 5.51180462209113e-05
2.49367088607595e-01 6.14957608963045e-01 5.59397075085656e-05
2.51898734177215e-01 6.14954422749061e-01 5.67652814915883e-05
2.54430379746835e-01 6.14951203917810e-01 5.75947530134798e-05
2.56962025316456e-01 6.14947952435202e-01 5.84281074729537e-05
2.59493670886076e-01 6.14944668266704e-01 5.92653307951273e-05
2.62025316455696e-01 6.14941351377336e-01 6.01064094093578e-05
2.64556962025316e-01 6.14938001731663e-01 6.09513302590644e-05
2.67088607594937e-01 6.14934619293790e-01 6.18000807687654e-05
2.69620253164557e-01 6.14931204027354e-01 6.26526487376483e-05
2.72151898734177e-01 6.14927755895533e-01 6.35090220681946e-05
2.74683544303797e-01 6.14924274861068e-01 6.43691876767848e-05
2.77215189873418e-01 6.14920760886388e-01 6.52331294233519e-05
2.79746835443038e-01 6.14917213933853e-01 6.61008246134122e-05
2.82278481012658e-01 6.14913633966251e-01 6.69722394869230e-05
2.84810126582278e-01 6.14910020947517e-01 6.78473202525378e-05
2.87341772151899e-01 6.14906374844167e-01 6.87259855520852e-05
2.89873417721519e-01 6.14902695626778e-01 6.96081344589262e-05
2.92405063291139e-01 6.14898983270513e-01 7.04936649613158e-05
2.94936708860760e-01 6.14895237754585e-01 7.13824884001836e-05
2.97468354430380e-01 6.14891459061241e-01 7.22745390489261e-05
3.00000000000000e-01 6.14887647174261e-01 7.31623537775235e-05
3.02531645569620e-01 6.14883803051647e-01 7.40641154050493e-05
3.05063291139241e-01 6.14879924977398e-01 7.50379784213356e-05
3.07594936708861e-01 6.14876007690725e-01 7.61145343708212e-05
3.10126582278481e-01 6.14872046186935e-01 7.72899554628017e-05
3.12658227848101e-01 6.14868035706968e-01 7.85605318461170e-05
3.15189873417722e-01 6.14863971727445e-01 7.99226670705484e-05
3.17721518987342e-01 6.14859849951148e-01 8.13728741761957e-05
3.20253164556962e-01 6.14855666297917e-01 8.29077719521658e-05
3.22784810126582e-01 6.14851416895940e-01 8.45240813409498e-05
3.25316455696203e-01 6.14847098073422e-01 8.62186219732762e-05
3.27848101265823e-01 6.14842706350605e-01 8.79883088479257e-05
3.30379746835443e-01 6.14838238432132e-01 8.98301491463321e-05
3.32911392405063e-01 6.14833691199738e-01 9.17412391619705e-05
3.35443037974684e-01 6.14829061705240e-01 9.37187613389655e-05
3.37974683544304e-01 6.14824347163831e-01 9.57599814370992e-05
3.40506329113924e-01 6.14819544947650e-01 9.78622457965947e-05
3.43037974683544e-01 6.14814652579620e-01 1.00022978693963e-04
3.45569620253165e-01 6.14809667727541e-01 1.02239679800945e-04
3.48101265822785e-01 6.14804588198430e-01 1.04509921744873e-04
3.50632911392405e-01 6.14799411933086e-01 1.06831347741078e-04
3.53164556962025e-01 6.14794137000890e-01 1.09201669322629e-04
3.55696202531646e-01 6.14788761594803e-01 1.11618664157558e-04
3.58227848101266e-01 6.14783284026578e-01 1.14080173927130e-04
3.60759493670886e-01 6.14777702722158e-01 1.16584102279063e-04
3.63291139240506e-01 6.14772016217266e-01 1.19128412859327e-04
3.65822784810127e-01 6.14766223153169e-01 1.21711127421324e-04
3.68354430379747e-01 6.14760322272609e-01 1.24330323990286e-04
3.70886075949367e-01 6.14754312415901e-01 1.26984135004948e-04
3.73417721518987e-01 6.14748192517193e-01 1.29670745400198e-04
3.75949367088608e-01 6.14741961600884e-01 1.32388390092730e-04
3.78481012658228e-01 6.14735618778259e-01 1.35135351166732e-04
3.81012658227848e-01 6.14729163244299e-01 1.37909954149111e-04
3.83544303797468e-01 6.14722594274790e-01 1.40710563889730e-04
3.86075949367089e-01 6.14715911223637e-01 1.43535577352117e-04
3.88607594936709e-01 6.14709113520746e-01 1.46383421363726e-04
3.91139240506329e-01 6.14702200669636e-01 1.49252560581950e-04
3.93670886075949e-01 6.14695172244647e-01 1.52141503870932e-04
3.96202531645570e-01 6.14688027888028e-01 1.55048810394469e-04
3.98734177215190e-01 6.14680767306668e-01 1.57973092234167e-04
4.01265822784810e-01 6.14673390269048e-01 1.60853383284448e-04
4.03797468354430e-01 6.14665903061684e-01 1.63746797932304e-04
4.06329113924051e-01 6.14658300192397e-01 1.66768819668732e-04
4.08860759493671e-01 6.14650576397531e-01 1.69915012777736e-04
4.11392405063291e-01 6.14642726672799e-01 1.73180646725870e-04
4.13924050632911e-01 6.14634746263488e-01 1.76561135722611e-04
4.16455696202532e-01 6.14626630655022e-01 1.80052034565513e-04
4.18987341772152e-01 6.14618375563857e-01 1.83649034608551e-04
4.21518987341772e-01 6.14609976928713e-01 1.87347959888772e-04
4.24050632911392e-01 6.14601430902117e-01 1.91144763340899e-04
4.26582278481013e-01 6.14592733842249e-01 1.95035523173371e-04
4.29113924050633e-01 6.14583882305079e-01 1.99016439348170e-04
4.31645569620253e-01 6.14574873036782e-01 2.03083830147439e-04
4.34177215189873e-01 6.14565702966426e-01 2.07234128869013e-04
4.36708860759494e-01 6.14556369198914e-01 2.11463880610056e-04
4.39240506329114e-01 6.14546869008178e-01 2.15769739155650e-04
4.41772151898734e-01 6.14537199830613e-01 2.20148463958023e-04
4.44303797468354e-01 6.14527359258739e-01 2.24596917212889e-04
4.46835443037975e-01 6.14517345035092e-01 2.29112061012934e-04
4.49367088607595e-01 6.14507155046317e-01 2.33690954608308e-04
4.51898734177215e-01 6.14496787317478e-01 2.38330751729800e-04
4.54430379746835e-01 6.14486240006562e-01 2.43028697990174e-04
4.56962025316456e-01 6.14475511399172e-01 2.47782128384385e-04
4.59493670886076e-01 6.14464599903407e-01 2.52588464831895e-04
4.62025316455696e-01 6.14453504044920e-01 2.57445213823150e-04
4.64556962025316e-01 6.14442222462145e-01 2.62349964127062e-04
4.67088607594937e-01 6.14430753901685e-01 2.67300384553849e-04
4.69620253164557e-01 6.14419097213867e-01 2.72294221764573e-04
4.72151898734177e-01 6.14407251348447e-01 2.77329298086584e-04
4.74683544303797e-01 6.14395215350465e-01 2.82403509171310e-04
4.77215189873418e-01 6.14382988356272e-01 2.87514821444883e-04
4.79746835443038e-01 6.14370569589713e-01 2.92661269058338e-04
4.82278481012658e-01 6.14357958358517e-01 2.97840950714366e-04
4.84810126582279e-01 6.14345154050859e-01 3.03052025142273e-04
4.87341772151899e-01 6.14332156132227e-01 3.08292707432752e-04
4.89873417721519e-01 6.14318964142380e-01 3.13561270181200e-04
4.92405063291139e-01 6.14305577692195e-01 3.18856047734020e-04
4.94936708860760e-01 6.14291996460323e-01 3.24175439092307e-04
4.97468354430380e-01 6.14278220189861e-01 3.29517908991401e-04
5.00000000000000e-01 6.14264248685001e-01 3.34843922570360e-04
5.02531645569620e-01 6.14250085371233e-01 3.40118550974341e-04
5.05063291139241e-01 6.14235733343440e-01 3.45388028023468e-04
5.07594936708861e-01 6.14221191772690e-01 3.50693490247171e-04
5.10126582278481e-01 6.14206459936170e-01 3.56032481806399e-04
5.12658227848101e-01 6.14191537213258e-01 3.61402618646322e-04
5.15189873417721e-01 6.14176423081683e-01 3.66801587109072e-04
5.17721518987342e-01 6.14161117113808e-01 3.72227142266863e-04
5.20253164556962e-01 6.14145618973024e-01 3.77677106272373e-04
5.22784810126582e-01 6.14129928410254e-01 3.83149366741406e-04
5.25316455696203e-01 6.14114045260573e-01 3.88641875227623e-04
5.27848101265823e-01 6.14097969439919e-01 3.94152645680944e-04
5.30379746835443e-01 6.14081700941918e-01 3.99679752985426e-04
5.32911392405063e-01 6.14065239834796e-01 4.05221331532685e-04
5.35443037974684e-01 6.14048586258390e-01 4.10775573782043e-04
5.37974683544304e-01 6.14031740421253e-01 4.16340728910536e-04
5.40506329113924e-01 6.14014702597841e-01 4.21915101486689e-04
5.43037974683544e-01 6.13997473125791e-01 4.27497050148775e-04
5.45569620253165e-01 6.13980052403284e-01 4.33084986332415e-04
5.48101265822785e-01 6.13962440886480e-01 4.38677373032596e-04
5.50632911392405e-01 6.13944639087044e-01 4.44272723579319e-04
5.53164556962025e-01 6.13926647569735e-01 4.49869600488646e-04
5.55696202531646e-01 6.13908466950078e-01 4.55466614278850e-04
5.58227848101266e-01 6.13890097892100e-01 4.61062422337865e-04
5.60759493670886e-01 6.13871541106146e-01 4.66655727843439e-04
5.63291139240506e-01 6.13852797346746e-01 4.72245278684491e-04
5.65822784810127e-01 6.13833867410563e-01 4.77829866406632e-04
5.68354430379747e-01 6.13814752134395e-01 4.83408325181662e-04
5.70886075949367e-01 6.13795452393237e-01 4.88979530786403e-04
5.73417721518987e-01 6.13775969098414e-01 4.94542399529006e-04
5.75949367088608e-01 6.13756303195768e-01 5.00095886945104e-04
5.78481012658228e-01 6.13736455663927e-01 5.05638986346475e-04
5.81012658227848e-01 6.13716427512646e-01 5.11170727025281e-04
5.83544303797468e-01 6.13696219781261e-01 5.16690172186584e-04
5.86075949367089e-01 6.13675833537221e-01 5.22196416356461e-04
5.88607594936709e-01 6.13655269874775e-01 5.27688584620802e-04
5.91139240506329e-01 6.13634529913595e-01 5.33165834798819e-04
5.93670886075949e-01 6.13613614797306e-01 5.38627360191800e-04
5.96202531645570e-01 6.13592525691904e-01 5.44072393410579e-04
5.98734177215190e-01 6.13571263783994e-01 5.49500204674679e-04
6.01265822784810e-01 6.13549830279399e-01 5.54993743878733e-04
6.03797468354430e-01 6.13528219914743e-01 5.60794965836492e-04
6.06329113924051e-01 6.13506415182655e-01 5.67132247568989e-04
6.08860759493671e-01 6.13484393290231e-01 5.74064608007354e-04
6.11392405063291e-01 6.13462132390118e-01 5.81570919492039e-04
6.13924050632911e-01 6.13439611550672e-01 5.89630630541765e-04
6.16455696202532e-01 6.13416810727028e-01 5.98223750472751e-04
6.18987341772152e-01 6.13393710733061e-01 6.07330834422648e-04
6.21518987341772e-01 6.13370293214203e-01 6.16932968832156e-04
6.24050632911392e-01 6.13346540621090e-01 6.27011757330101e-04
6.26582278481013e-01 6.13322436184012e-01 6.37549306989934e-04
6.29113924050633e-01 6.13297963888148e-01 6.48528214967246e-04
6.31645569620253e-01 6.13273108449546e-01 6.59931555458953e-04
6.34177215189873e-01 6.13247855291848e-01 6.71742867039456e-04
6.36708860759494e-01 6.13222190523714e-01 6.83946140360613e-04
6.39240506329114e-01 6.13196100916936e-01 6.96525806119599e-04
6.41772151898734e-01 6.13169573885223e-01 7.09466723348822e-04
6.44303797468354e-01 6.13142597463628e-01 7.22754168042746e-04
6.46835443037975e-01 6.13115160288605e-01 7.36373822074415e-04
6.49367088607595e-01 6.13087251578668e-01 7.50311762386147e-04
6.51898734177215e-01 6.13058861115644e-01 7.64554450469601e-04
6.54430379746835e-01 6.13029979226503e-01 7.79088722125155e-04
6.56962025316456e-01 6.13000596765724e-01 7.93901777479829e-04
6.59493670886076e-01 6.12970705098222e-01 8.08981171287179e-04
6.62025316455696e-01 6.12940296082773e-01 8.24314803444722e-04
6.64556962025316e-01 6.12909362055964e-01 8.39890909762043e-04
6.67088607594937e-01 6.12877895816620e-01 8.55698053011512e-04
6.69620253164557e-01 6.12845890610713e-01 8.71725114154201e-04
6.72151898734177e-01 6.12813340116730e-01 8.87961283773374e-04
6.74683544303798e-01 6.12780238431493e-01 9.04396053607069e-04
6.77215189873418e-01 6.12746580056422e-01 9.21019208170091e-04
6.79746835443038e-01 6.12712359884231e-01 9.37820816305614e-04
6.82278481012658e-01 6.12677573186066e-01 9.54791222883499e-04
6.84810126582278e-01 6.12642215599054e-01 9.71921039941707e-04
6.87341772151899e-01 6.12606283114327e-01 9.89201138026149e-04
6.89873417721519e-01 6.12569772065429e-01 1.00662264149049e-03
6.92405063291139e-01 6.12532679116878e-01 1.02417692622786e-03
6.94936708860760e-01 6.12495001252916e-01 1.04185561260672e-03
6.97468354430380e-01 6.12456735766806e-01 1.05965055938018e-03
7.00000000000000e-01 6.12417880250222e-01 1.07768254304799e-03
7.02531645569620e-01 6.12378423577463e-01 1.09634292368771e-03
7.05063291139240e-01 6.12338335366485e-01 1.11602953398707e-03
7.07594936708861e-01 6.12297575533556e-01 1.13685384878925e-03
7.10126582278481e-01 6.12256105603626e-01 1.15877675064388e-03
7.12658227848101e-01 6.12213888667438e-01 1.18176000638054e-03
7.15189873417722e-01 6.12170889339681e-01 1.20576624863949e-03
7.17721518987342e-01 6.12127073718203e-01 1.23075895733602e-03
7.20253164556962e-01 6.12082409344244e-01 1.25670244150518e-03
7.22784810126582e-01 6.12036865163673e-01 1.28356182155327e-03
7.25316455696203e-01 6.11990411489197e-01 1.31130301186935e-03
7.27848101265823e-01 6.11943019963526e-01 1.33989270383797e-03
7.30379746835443e-01 6.11894663523453e-01 1.36929834917613e-03
7.32911392405063e-01 6.11845316364849e-01 1.39948814358515e-03
7.35443037974684e-01 6.11794953908536e-01 1.43043101073252e-03
7.37974683544304e-01 6.11743552767018e-01 1.46209658653368e-03
7.40506329113924e-01 6.11691090712053e-01 1.49445520382347e-03
7.43037974683544e-01 6.11637546643048e-01 1.52747787725245e-03
7.45569620253165e-01 6.11582900556248e-01 1.56113628849390e-03
7.48101265822785e-01 6.11527133514706e-01 1.59540277176942e-03
7.50632911392405e-01 6.11470227619016e-01 1.63025029963352e-03
7.53164556962025e-01 6.11412165978790e-01 1.66565246905413e-03
7.55696202531646e-01 6.11352932684855e-01 1.70158348775398e-03
7.58227848101266e-01 6.11292512782164e-01 1.73801816082269e-03
7.60759493670886e-01 6.11230892243392e-01 1.77493187760825e-03
7.63291139240506e-01 6.11168057943208e-01 1.81230059885317e-03
7.65822784810127e-01 6.11103997633206e-01 1.85010084407391e-03
7.68354430379747e-01 6.11038699917477e-01 1.88830967917585e-03
7.70886075949367e-01 6.10972154228807e-01 1.92690470430867e-03
7.73417721518987e-01 6.10904350805493e-01 1.96586404191981e-03
7.75949367088608e-01 6.10835280668751e-01 2.00516632482643e-03
7.78481012658228e-01 6.10764935600735e-01 2.04479068436534e-03
7.81012658227848e-01 6.10693308123128e-01 2.08471673836602e-03
7.83544303797468e-01 6.10620391476345e-01 2.12492457894857e-03
7.86075949367089e-01 6.10546179599320e-01 2.16539476089621e-03
7.88607594936709e-01 6.10470667109828e-01 2.20610829167355e-03
7.91139240506329e-01 6.10393849285278e-01 2.24704662287913e-03
7.93670886075949e-01 6.10315722043917e-01 2.28819164460122e-03
7.96202531645570e-01 6.10236281926267e-01 2.32952568181344e-03
7.98734177215190e-01 6.10155526076812e-01 2.37103148164731e-03
