Energy (eV)          EEDF (eV^-(3/2))     First Anisotropy
1.86428571428571e-01 5.28694576400423e-02 7.33432961339468e-05
5.59285714285714e-01 5.03268949696472e-02 1.18597142873582e-04
9.32142857142857e-01 4.79066075262249e-02 1.50041227495925e-04
1.30500000000000e+00 4.56027149287331e-02 1.70281925317901e-04
1.67785714285714e+00 4.34096196018793e-02 1.84362604327891e-04
2.05071428571429e+00 4.13219931540328e-02 1.94319047922189e-04
2.42357142857143e+00 3.93347634370246e-02 2.01266377653667e-04
2.79642857142857e+00 3.74431022480070e-02 2.05912003957247e-04
3.16928571428571e+00 3.56424135678274e-02 2.08745326076432e-04
3.54214285714286e+00 3.39283224019160e-02 2.10124723923688e-04
3.91500000000000e+00 3.22966641659434e-02 2.10323280283648e-04
4.28785714285714e+00 3.07434745499469e-02 2.09555213613622e-04
4.66071428571429e+00 2.92649798930823e-02 2.07992279952318e-04
5.03357142857143e+00 2.78575880122731e-02 2.05774525423663e-04
5.40642857142857e+00 2.65178794832812e-02 2.03017651536275e-04
5.77928571428571e+00 2.52425993232737e-02 1.99818244581906e-04
6.15214285714286e+00 2.40286490840350e-02 1.96257600234023e-04
6.52500000000000e+00 2.28730793300694e-02 1.92404593514133e-04
6.89785714285714e+00 2.17730824659041e-02 1.88317878618921e-04
7.27071428571429e+00 2.07259859171056e-02 1.84047606307327e-04
7.64357142857143e+00 1.97292456356630e-02 1.79636786756217e-04
8.01642857142857e+00 1.87804399229420e-02 1.75122386434533e-04
8.38928571428571e+00 1.78772635415677e-02 1.70536221741759e-04
8.76214285714286e+00 1.70175221151686e-02 1.65905694445674e-04
9.13500000000000e+00 1.61991267999098e-02 1.61254403592499e-04
9.50785714285714e+00 1.54200892061541e-02 1.56602658541033e-04
9.88071428571429e+00 1.46785165685818e-02 1.51967912303025e-04
1.02535714285714e+01 1.39726071440123e-02 1.47365129462591e-04
1.06264285714286e+01 1.33006458473330e-02 1.42807102151779e-04
1.09992857142857e+01 1.26610000672333e-02 1.38304721906532e-04
1.13721428571429e+01 1.20521157018755e-02 1.33867212249057e-04
1.17450000000000e+01 1.14725133991499e-02 1.29502333352669e-04
1.21178571428571e+01 1.09207849408318e-02 1.25216559124990e-04
1.24907142857143e+01 1.03955898411729e-02 1.21015231881173e-04
1.28635714285714e+01 9.89565207144155e-03 1.16902698405820e-04
1.32364285714286e+01 9.41975697692706e-03 1.12882428962264e-04
1.36092857142857e+01 8.96674831303741e-03 1.08957123508669e-04
1.39821428571429e+01 8.53552543762705e-03 1.05128803306092e-04
1.43550000000000e+01 8.12504064615181e-03 1.01398893958475e-04
1.47278571428571e+01 7.73429661373700e-03 9.77682981946722e-05
1.51007142857143e+01 7.36234398362648e-03 9.42374603808710e-05
1.54735714285714e+01 7.00827904981786e-03 9.08064241216533e-05
1.58464285714286e+01 6.67124157146692e-03 8.74748830990813e-05
1.62192857142857e+01 6.35041267538723e-03 8.42422271877076e-05
1.65921428571429e+01 6.04501286735587e-03 8.11075821081405e-05
1.69650000000000e+01 5.75430014378839e-03 7.80698460513112e-05
1.73378571428571e+01 5.47756818155556e-03 7.51277217988114e-05
1.77107142857143e+01 5.21414462880561e-03 7.22797453077411e-05
1.80835714285714e+01 4.96338946493217e-03 6.95243113736080e-05
1.84564285714286e+01 4.72469345162518e-03 6.68596962481201e-05
1.88292857142857e+01 4.49747664817178e-03 6.42840783522925e-05
1.92021428571429e+01 4.28118700291205e-03 6.17955557888342e-05
1.95750000000000e+01 4.07529901535980e-03 5.93921627662183e-05
1.99478571428571e+01 3.87931245491342e-03 5.70718838532113e-05
2.03207142857143e+01 3.69275114972631e-03 5.48326666008810e-05
2.06935714285714e+01 3.51516182581397e-03 5.26724328497981e-05
2.10664285714286e+01 3.34611300950026e-03 5.05890885696115e-05
2.14392857142857e+01 3.18519397633971e-03 4.85805329200316e-05
2.18121428571429e+01 3.03201375350442e-03 4.66446656210894e-05
2.21850000000000e+01 2.88620017198638e-03 4.47793939830715e-05
2.25578571428571e+01 2.74739895955016e-03 4.29826388385498e-05
2.29307142857143e+01 2.61527288263317e-03 4.12523396960253e-05
2.33035714285714e+01 2.48950092450972e-03 3.95864592935340e-05
2.36764285714286e+01 2.36977750767875e-03 3.79829874230686e-05
2.40492857142857e+01 2.25581174969676e-03 3.64399444594365e-05
2.44221428571429e+01 2.14732675662089e-03 3.49553839631863e-05
2.47950000000000e+01 2.04405895160138e-03 3.35273952391061e-05
2.51678571428571e+01 1.94575743270833e-03 3.21541053272367e-05
2.55407142857143e+01 1.85218336501132e-03 3.08336806243693e-05
2.59135714285714e+01 1.76310939872487e-03 2.95643282411693e-05
2.62864285714286e+01 1.67831911831808e-03 2.83442969964204e-05
2.66592857142857e+01 1.59760651560865e-03 2.71718783278381e-05
2.70321428571429e+01 1.52077548935073e-03 2.60454066863389e-05
2.74050000000000e+01 1.44763936964043e-03 2.49632599967197e-05
2.77778571428571e+01 1.37802046323939e-03 2.39238598253014e-05
2.81507142857143e+01 1.31174962292093e-03 2.29256713802797e-05
2.85235714285714e+01 1.24866583549591e-03 2.19672034087227e-05
2.88964285714286e+01 1.18861583156385e-03 2.10470079180647e-05
2.92692857142857e+01 1.13145371242135e-03 2.01636799049267e-05
2.96421428571429e+01 1.07704059565243e-03 1.93158567940622e-05
3.00150000000000e+01 1.02524427825056e-03 1.85022179763829e-05
3.03878571428571e+01 9.75938914679859e-04 1.77214841992704e-05
3.07607142857143e+01 9.29004711811800e-04 1.69724168903441e-05
3.11335714285714e+01 8.84327637219726e-04 1.62538174543735e-05
3.15064285714286e+01 8.41799142739711e-04 1.55645264914733e-05
3.18792857142857e+01 8.01315900283141e-04 1.49034230574406e-05
3.22521428571429e+01 7.62779550832412e-04 1.42694237621823e-05
3.26250000000000e+01 7.26096465826180e-04 1.36614819674416e-05
3.29978571428571e+01 6.91177519198763e-04 1.30785869142598e-05
3.33707142857143e+01 6.57937871289347e-04 1.25197628331607e-05
3.37435714285714e+01 6.26296762287776e-04 1.19840680620348e-05
3.41164285714286e+01 5.96177316420917e-04 1.14705941348034e-05
3.44892857142857e+01 5.67506354875863e-04 1.09784649213492e-05
3.48621428571429e+01 5.40214218031265e-04 1.05068356784444e-05
3.52350000000000e+01 5.14234596446977e-04 1.00548921879681e-05
3.56078571428571e+01 4.89504369443693e-04 9.62184986575992e-06
3.59807142857143e+01 4.65963452039754e-04 9.20695287598492e-06
3.63535714285714e+01 4.43554648688000e-04 8.80947326687358e-06
3.67264285714286e+01 4.22223514576192e-04 8.42871010169158e-06
3.70992857142857e+01 4.01918223151268e-04 8.06398863884181e-06
3.74721428571429e+01 3.82589440218663e-04 7.71465946452501e-06
3.78450000000000e+01 3.64190204234489e-04 7.38009769741593e-06
3.82178571428571e+01 3.46675812000229e-04 7.05970218498336e-06
3.85907142857143e+01 3.30003710246107e-04 6.75289471454054e-06
3.89635714285714e+01 3.14133392058488e-04 6.45911924917461e-06
3.93364285714286e+01 2.99026298637605e-04 6.17784117008852e-06
3.97092857142857e+01 2.84645725485270e-04 5.90854656161213e-06
4.00821428571429e+01 2.70956733238726e-04 5.65074147228987e-06
4.04550000000000e+01 2.57926062884244e-04 5.40395123325373e-06
4.08278571428571e+01 2.45522054813589e-04 5.16771977842035e-06
4.12007142857143e+01 2.33714572032461e-04 4.94160898186797e-06
4.15735714285714e+01 2.22474926816905e-04 4.72519801891411e-06
4.19464285714286e+01 2.11775811128493e-04 4.51808273787048e-06
4.23192857142857e+01 2.01591230180595e-04 4.31987506694947e-06
4.26921428571429e+01 1.91896439288692e-04 4.13020241033273e-06
4.30650000000000e+01 1.82667883818656e-04 3.94870708875920e-06
4.34378571428571e+01 1.73883141867013e-04 3.77504578630446e-06
4.38107142857143e+01 1.65520869870213e-04 3.60888901360171e-06
4.41835714285714e+01 1.57560750666605e-04 3.44992059170820e-06
4.45564285714286e+01 1.49983444210302e-04 3.29783714743814e-06
4.49292857142857e+01 1.42770540525261e-04 3.15234763673125e-06
4.53021428571429e+01 1.35904514981145e-04 3.01317286425014e-06
4.56750000000000e+01 1.29368685760827e-04 2.88004503702991e-06
4.60478571428571e+01 1.23147173269238e-04 2.75270732565472e-06
4.64207142857143e+01 1.17224861609375e-04 2.63091343982371e-06
4.67935714285714e+01 1.11587361802138e-04 2.51442722102126e-06
4.71664285714286e+01 1.06220976877924e-04 2.40302224582426e-06
4.75392857142857e+01 1.01112668560134e-04 2.29648145109121e-06
4.79121428571429e+01 9.62500255905011e-05 2.19459675900507e-06
4.82850000000000e+01 9.16212336050501e-05 2.09716872786572e-06
4.86578571428571e+01 8.72150463890521e-05 2.00400621025022e-06
4.90307142857143e+01 8.30207585914400e-05 1.91492602314646e-06
4.94035714285714e+01 7.90281796785039e-05 1.82975263181503e-06
4.97764285714286e+01 7.52276092091817e-05 1.74831784282285e-06
5.01492857142857e+01 7.16098132411607e-05 1.67046051389524e-06
5.05221428571429e+01 6.81660018981593e-05 1.59602626531244e-06
5.08950000000000e+01 6.48878080344180e-05 1.52486721061073e-06
5.12678571428571e+01 6.17672668784304e-05 1.45684169383455e-06
5.16407142857143e+01 5.87967967073995e-05 1.39181403643644e-06
5.20135714285714e+01 5.59691804020936e-05 1.32965429495931e-06
5.23864285714286e+01 5.32775479351214e-05 1.27023802629014e-06
5.27592857142857e+01 5.07153596622274e-05 1.21344606569441e-06
5.31321428571429e+01 4.82763904349431e-05 1.15916430702821e-06
5.35050000000000e+01 4.59547144896816e-05 1.10728349732721e-06
5.38778571428571e+01 4.37446910320111e-05 1.05769903691431e-06
5.42507142857143e+01 4.16409505490628e-05 1.01031078711121e-06
5.46235714285714e+01 3.96383817471886e-05 9.65022886287069e-07
5.49964285714286e+01 3.77321191490503e-05 9.21743571980947e-07
5.53692857142857e+01 3.59175312608004e-05 8.80385012652404e-07
5.57421428571429e+01 3.41902093203180e-05 8.40863141691696e-07
5.61150000000000e+01 3.25459565949341e-05 8.03097502081121e-07
5.64878571428571e+01 3.09807781725650e-05 7.67011095547859e-07
5.68607142857143e+01 2.94908712673377e-05 7.32530237614771e-07
5.72335714285714e+01 2.80726159691454e-05 6.99584419022060e-07
5.76064285714286e+01 2.67225664591732e-05 6.68106171924005e-07
5.79792857142857e+01 2.54374426300594e-05 6.38030943289328e-07
5.83521428571429e+01 2.42141221171565e-05 6.09296970379388e-07
5.87250000000000e+01 2.30496327186922e-05 5.81845164083556e-07
5.90978571428571e+01 2.19411451660587e-05 5.55618995824752e-07
5.94707142857143e+01 2.08859662577121e-05 5.30564388984617e-07
5.98435714285714e+01 1.98815323081897e-05 5.06629615152791e-07
6.02164285714286e+01 1.89254029264581e-05 4.83765194074757e-07
6.05892857142857e+01 1.80152550814043e-05 4.61923798959512e-07
6.09621428571429e+01 1.71488774582077e-05 4.41060163578234e-07
6.13350000000000e+01 1.63241650899695e-05 4.21130995138734e-07
6.17078571428571e+01 1.55391142377568e-05 4.02094889949275e-07
6.20807142857143e+01 1.47918175276655e-05 3.83912252513317e-07
6.24535714285714e+01 1.40804593115235e-05 3.66545218250682e-07
6.28264285714286e+01 1.34033112603907e-05 3.49957579050967e-07
6.31992857142857e+01 1.27587281617915e-05 3.34114712796827e-07
6.35721428571429e+01 1.21451439227801e-05 3.18983514370250e-07
6.39450000000000e+01 1.15610677678397e-05 3.04532330892040e-07
6.43178571428571e+01 1.10050806130026e-05 2.90730899112445e-07
6.46907142857143e+01 1.04758316216748e-05 2.77550285386789e-07
6.50635714285714e+01 9.97203491914937e-06 2.64962828361041e-07
6.54364285714286e+01 9.49246647170507e-06 2.52942083806859e-07
6.58092857142857e+01 9.03596111023351e-06 2.41462772385861e-07
6.61821428571428e+01 8.60140969952830e-06 2.30500728608844e-07
6.65550000000000e+01 8.18775644548744e-06 2.20032852889853e-07
6.69278571428571e+01 7.79399632730775e-06 2.10037065242418e-07
6.73007142857143e+01 7.41917265815620e-06 2.00492260911512e-07
6.76735714285714e+01 7.06237475842487e-06 1.91378268020729e-07
6.80464285714286e+01 6.72273574536207e-06 1.82675806838975e-07
6.84192857142857e+01 6.39943042521833e-06 1.74366451201596e-07
6.87921428571428e+01 6.09167328847981e-06 1.66432590875650e-07
6.91650000000000e+01 5.79871660272732e-06 1.58857396182897e-07
6.95378571428571e+01 5.51984859414081e-06 1.51624783866262e-07
6.99107142857143e+01 5.25439171985620e-06 1.44719384398480e-07
7.02835714285714e+01 5.00170102018554e-06 1.38126510783176e-07
7.06564285714286e+01 4.76116255313456e-06 1.31832128568932e-07
7.10292857142857e+01 4.53219190162652e-06 1.25822827443588e-07
7.14021428571428e+01 4.31423275368625e-06 1.20085793563577e-07
7.17750000000000e+01 4.10675555173365e-06 1.14608783527205e-07
7.21478571428571e+01 3.90925620473881e-06 1.09380099283277e-07
7.25207142857143e+01 3.72125486463020e-06 1.04388564109599e-07
7.28935714285714e+01 3.54229475934864e-06 9.96234996929207e-08
7.32664285714286e+01 3.37194108410541e-06 9.50747041128666e-08
7.36392857142857e+01 3.20977994420019e-06 9.07324309821895e-08
7.40121428571428e+01 3.05541734947914e-06 8.65873691527216e-08
7.43850000000000e+01 2.90847825771728e-06 8.26306236163972e-08
7.47578571428571e+01 2.76860566257400e-06 7.88536971059597e-08
7.51307142857143e+01 2.63545972699457e-06 7.52484724865015e-08
7.55035714285714e+01 2.50871695678507e-06 7.18071959574087e-08
7.58764285714286e+01 2.38806941535576e-06 6.85224609252149e-08
7.62492857142857e+01 2.27322397502473e-06 6.53871927208081e-08
7.66221428571428e+01 2.16390160487325e-06 6.23946337480520e-08
7.69950000000000e+01 2.05983669323677e-06 5.95383294999015e-08
7.73678571428571e+01 1.96077640179872e-06 5.68121150955009e-08
7.77407142857143e+01 1.86648005183082e-06 5.42101024000029e-08
7.81135714285714e+01 1.77671853892197e-06 5.17266677391256e-08
7.84864285714286e+01 1.69127377682831e-06 4.93564401098349e-08
7.88592857142857e+01 1.60993816724565e-06 4.70942900064554e-08
7.92321428571428e+01 1.53251409545456e-06 4.49353185733418e-08
7.96050000000000e+01 1.45881345048629e-06 4.28748473864428e-08
7.99778571428571e+01 1.38865716769374e-06 4.09084086212498e-08
8.03507142857143e+01 1.32187479406311e-06 3.90317356489637e-08
8.07235714285714e+01 1.25830407372633e-06 3.72407540681192e-08
8.10964285714286e+01 1.19779055407440e-06 3.55315731019523e-08
8.14692857142857e+01 1.14018721024893e-06 3.39004774436125e-08
8.18421428571428e+01 1.08535408794826e-06 3.23439193470346e-08
8.22150000000000e+01 1.03315796359360e-06 3.08585111732049e-08
8.25878571428571e+01 9.83472020378386e-07 2.94410182220139e-08
8.29607142857143e+01 9.36175540405861e-07 2.80883518780320e-08
8.33335714285714e+01 8.91153611149330e-07 2.67975630744834e-08
8.37064285714286e+01 8.48296846487125e-07 2.55658360261145e-08
8.40792857142857e+01 8.07501120766284e-07 2.43904822874841e-08
8.44521428571428e+01 7.68667315830859e-07 2.32689349950976e-08
8.48250000000000e+01 7.31701080341083e-07 2.21987434389532e-08
8.51978571428571e+01 6.96512600351533e-07 2.11775678445490e-08
8.55707142857143e+01 6.63016381271878e-07 2.02031743845415e-08
8.59435714285714e+01 6.31131039981991e-07 1.92734304224991e-08
8.63164285714286e+01 6.00779107258926e-07 1.83862999538786e-08
8.66892857142857e+01 5.71886839439699e-07 1.75398392831576e-08
8.70621428571428e+01 5.44384039261846e-07 1.67321928379405e-08
8.74350000000000e+01 5.18203885405982e-07 1.59615892211229e-08
8.78078571428571e+01 4.93282770019031e-07 1.52263374177489e-08
8.81807142857143e+01 4.69560144291202e-07 1.45248231695571e-08
8.85535714285714e+01 4.46978371231664e-07 1.38555055185462e-08
8.89264285714286e+01 4.25482585740468e-07 1.32169134948899e-08
8.92992857142857e+01 4.05020561227180e-07 1.26076429760284e-08
8.96721428571428e+01 3.85542582726723e-07 1.20263536474226e-08
9.00450000000000e+01 3.67001326176380e-07 1.14717661351997e-08
9.04178571428571e+01 3.49351743349428e-07 1.09426592522395e-08
9.07907142857143e+01 3.32550952487503e-07 1.04378673665002e-08
9.11635714285714e+01 3.16558134036015e-07 9.95627789225399e-09
9.15364285714286e+01 3.01334431542354e-07 9.49682888677400e-09
9.19092857142857e+01 2.86842857194444e-07 9.05850677096487e-09
9.22821428571428e+01 2.73048201958942e-07 8.64034412519885e-09
9.26550000000000e+01 2.59916950081732e-07 8.24141760916934e-09
9.30278571428571e+01 2.47417197597591e-07 7.86084596476394e-09
9.34007142857143e+01 2.35518574872412e-07 7.49778810791169e-09
9.37735714285714e+01 2.24192172762706e-07 7.15144130969247e-09
9.41464285714286e+01 2.13410472428452e-07 6.82103945435282e-09
9.45192857142857e+01 2.03147278434893e-07 6.50585138697834e-09
9.48921428571428e+01 1.93377655110689e-07 6.20517931663778e-09
9.52650000000000e+01 1.84077865994754e-07 5.91835730893949e-09
9.56378571428571e+01 1.75225316124494e-07 5.64474983923325e-09
9.60107142857143e+01 1.66798497177717e-07 5.38375041048535e-09
9.63835714285714e+01 1.58776935178499e-07 5.13478023590322e-09
9.67564285714286e+01 1.51141140788399e-07 4.89728697756324e-09
9.71292857142857e+01 1.43872561928673e-07 4.67074354983514e-09
9.75021428571429e+01 1.36953538707910e-07 4.45464696361784e-09
9.78750000000000e+01 1.30367260536601e-07 4.24851723499534e-09
9.82478571428571e+01 1.24097725255410e-07 4.05189633812113e-09
9.86207142857143e+01 1.18129700282949e-07 3.86434720505407e-09
9.89935714285714e+01 1.12448685580831e-07 3.68545277251197e-09
9.93664285714286e+01 1.07040878448347e-07 3.51481506935059e-09
9.97392857142857e+01 1.01893139969159e-07 3.35205435083437e-09
1.00112142857143e+02 9.69929630901937e-08 3.19680826000921e-09
1.00485000000000e+02 9.23284422670576e-08 3.04873105260102e-09
1.00857857142857e+02 8.78882444282210e-08 2.90749281634044e-09
1.01230714285714e+02 8.36615816269959e-08 2.77277875341384e-09
1.01603571428571e+02 7.96381846782278e-08 2.64428851586625e-09
1.01976428571429e+02 7.58082782556098e-08 2.52173552044871e-09
1.02349285714286e+02 7.21625571413219e-08 2.40484632831408e-09
1.02722142857143e+02 6.86921636179415e-08 2.29336004494068e-09
1.03095000000000e+02 6.53886659475199e-08 2.18702775206072e-09
1.03467857142857e+02 6.22440378560566e-08 2.08561194610358e-09
1.03840714285714e+02 5.92506391245484e-08 1.98888602619684e-09
1.04213571428571e+02 5.64011969311067e-08 1.89663380691420e-09
1.04586428571429e+02 5.36887882135729e-08 1.80864902583867e-09
1.04959285714286e+02 5.11068228490863e-08 1.72473489537720e-09
1.05332142857143e+02 4.86490276426256e-08 1.64470366942166e-09
1.05705000000000e+02 4.63094310855049e-08 1.56837623305697e-09
1.06077857142857e+02 4.40823488264253e-08 1.49558169745605e-09
1.06450714285714e+02 4.19623699241030e-08 1.42615703003586e-09
1.06823571428571e+02 3.99443436350823e-08 1.35994670249257e-09
1.07196428571429e+02 3.80233669220472e-08 1.29680233575272e-09
1.07569285714286e+02 3.61947725412893e-08 1.23658237639075e-09
1.07942142857143e+02 3.44541177031032e-08 1.17915178392118e-09
1.08315000000000e+02 3.27971732774796e-08 1.12438173467818e-09
1.08687857142857e+02 3.12199135047907e-08 1.07214932976428e-09
1.09060714285714e+02 2.97185062585725e-08 1.02233732808752e-09
1.09433571428571e+02 2.82893036895369e-08 9.74833892306163e-10
1.09806428571429e+02 2.69288333783450e-08 9.29532332994703e-10
1.10179285714286e+02 2.56337898989376e-08 8.86330875185148e-10
1.10552142857143e+02 2.44010267876227e-08 8.45132432859682e-10
1.10925000000000e+02 2.32275488983527e-08 8.05844395375083e-10
1.11297857142857e+02 2.21105051158822e-08 7.68378417042649e-10
1.11670714285714e+02 2.10471814589655e-08 7.32650224558474e-10
1.12043571428571e+02 2.00349944550330e-08 6.98579433745565e-10
1.12416428571429e+02 1.90714848741646e-08 6.66089365315964e-10
1.12789285714286e+02 1.81543117540886e-08 6.35106876543897e-10
1.13162142857143e+02 1.72812467125445e-08 6.05562198743328e-10
1.13535000000000e+02 1.64501685331530e-08 5.77388783324182e-10
1.13907857142857e+02 1.56590580049017e-08 5.50523150272629e-10
1.14280714285714e+02 1.49059930372123e-08 5.24904749331722e-10
1.14653571428571e+02 1.41891439682783e-08 5.00475827895417e-10
1.15026428571429e+02 1.35067691271750e-08 4.77181298401741e-10
1.15399285714286e+02 1.28572106022568e-08 4.54968617040329e-10
1.15772142857143e+02 1.22388902130692e-08 4.33787666690885e-10
1.16145000000000e+02 1.16503056759650e-08 4.13590646026639e-10
1.16517857142857e+02 1.10900269494421e-08 3.94331960465631e-10
1.16890714285714e+02 1.05566927742137e-08 3.75968122158054e-10
1.17263571428571e+02 1.00490073508326e-08 3.58457654810646e-10
1.17636428571429e+02 9.56573719657945e-09 3.41760998289905e-10
