Energy (eV)          EEDF (eV^-(3/2))     First Anisotropy
2.04761904761905e-03 1.73836958978027e+00 8.08300610411021e-04
6.14285714285714e-03 1.72888194465065e+00 1.33558166825440e-03
1.02380952380952e-02 1.71944608105946e+00 1.76536605938464e-03
1.43333333333333e-02 1.71006171635715e+00 2.09324786997259e-03
1.84285714285714e-02 1.70072856948883e+00 2.36784288671526e-03
2.25238095238095e-02 1.69144636091777e+00 2.60749427239750e-03
2.66190476190476e-02 1.68221481263340e+00 2.82167610776882e-03
3.07142857142857e-02 1.67303364814264e+00 3.01609861722303e-03
3.48095238095238e-02 1.66390259246153e+00 3.19454179056676e-03
3.89047619047619e-02 1.65482137210698e+00 3.35967224035621e-03
4.30000000000000e-02 1.64578971508850e+00 3.51346024012500e-03
4.70952380952381e-02 1.63680735091944e+00 3.65741387771974e-03
5.11904761904762e-02 1.62787401054911e+00 3.79272011681238e-03
5.52857142857143e-02 1.61898942641643e+00 3.92033454851953e-03
5.93809523809524e-02 1.61015333242058e+00 4.04104105301306e-03
6.34761904761905e-02 1.60136546391303e+00 4.15549289095469e-03
6.75714285714286e-02 1.59262555768961e+00 4.26424186857994e-03
7.16666666666667e-02 1.58393335198266e+00 4.36775956844185e-03
7.57619047619048e-02 1.57528858645315e+00 4.46645314509511e-03
7.98571428571429e-02 1.56669100218293e+00 4.56067730215915e-03
8.39523809523810e-02 1.55814034166695e+00 4.65074352649216e-03
8.80476190476191e-02 1.54963634880557e+00 4.73692731346081e-03
9.21428571428572e-02 1.54117876889684e+00 4.81947389523445e-03
9.62380952380952e-02 1.53276734862896e+00 4.89860283626962e-03
1.00333333333333e-01 1.52440183607262e+00 4.97451175515950e-03
1.04428571428571e-01 1.51608198070398e+00 5.04737938773341e-03
1.08523809523810e-01 1.50780753331154e+00 5.11736811095462e-03
1.12619047619048e-01 1.49957824599646e+00 5.18462599985450e-03
1.16714285714286e-01 1.49139387235909e+00 5.24928862150739e-03
1.20809523809524e-01 1.48325416726965e+00 5.31148054039307e-03
1.24904761904762e-01 1.47515888693630e+00 5.37131654929975e-03
1.29000000000000e-01 1.46710778889781e+00 5.42890276156384e-03
1.33095238095238e-01 1.45910063201617e+00 5.48433754050350e-03
1.37190476190476e-01 1.45113717646954e+00 5.53771230264655e-03
1.41285714285714e-01 1.44321718374512e+00 5.58911221532068e-03
1.45380952380952e-01 1.43534041663191e+00 5.63861680512951e-03
1.49476190476190e-01 1.42750663921357e+00 5.68630049961901e-03
1.53571428571429e-01 1.41971561681191e+00 5.73223306968805e-03
1.57666666666667e-01 1.41196711613026e+00 5.77648006119425e-03
1.61761904761905e-01 1.40426090509395e+00 5.81910317916179e-03
1.65857142857143e-01 1.39659675289493e+00 5.86016058675109e-03
1.69952380952381e-01 1.38897442998487e+00 5.89970720483375e-03
1.74047619047619e-01 1.38139370806832e+00 5.93779497185894e-03
1.78142857142857e-01 1.37385436009565e+00 5.97447307685603e-03
1.82238095238095e-01 1.36635616025664e+00 6.00978816903965e-03
1.86333333333333e-01 1.35889888397346e+00 6.04378454686279e-03
1.90428571428571e-01 1.35148230789402e+00 6.07650432882950e-03
1.94523809523810e-01 1.34410620988524e+00 6.10798761546435e-03
1.98619047619048e-01 1.33677036899054e+00 6.13827260817538e-03
2.02714285714286e-01 1.32947456553203e+00 6.16739575182307e-03
2.06809523809524e-01 1.32221858099386e+00 6.19539186595565e-03
2.10904761904762e-01 1.31500219805280e+00 6.22229422929970e-03
2.15000000000000e-01 1.30782520057174e+00 6.24813468480114e-03
2.19095238095238e-01 1.30068737359315e+00 6.27294372912954e-03
2.23190476190476e-01 1.29358850333271e+00 6.29675059490488e-03
2.27285714285714e-01 1.28652837717296e+00 6.31958332641160e-03
2.31380952380952e-01 1.27950678365685e+00 6.34146884938440e-03
2.35476190476190e-01 1.27252351248142e+00 6.36243304161075e-03
2.39571428571429e-01 1.26557835446339e+00 6.38250077379473e-03
2.43666666666667e-01 1.25867110161811e+00 6.40169597731932e-03
2.47761904761905e-01 1.25180154706722e+00 6.42004170797445e-03
2.51857142857143e-01 1.24496948506146e+00 6.43756017440991e-03
2.55952380952381e-01 1.23817471097452e+00 6.45427278870373e-03
2.60047619047619e-01 1.23141702129689e+00 6.47020020749555e-03
2.64142857142857e-01 1.22469621362974e+00 6.48536237029002e-03
2.68238095238095e-01 1.21801208667893e+00 6.49977853522813e-03
2.72333333333333e-01 1.21136444024896e+00 6.51346731253430e-03
2.76428571428571e-01 1.20475307523695e+00 6.52644669576383e-03
2.80523809523810e-01 1.19817779362669e+00 6.53873409641410e-03
2.84619047619048e-01 1.19163839846045e+00 6.55034635523667e-03
2.88714285714286e-01 1.18513469390045e+00 6.56129977882470e-03
2.92809523809524e-01 1.17866648515498e+00 6.57161017464065e-03
2.96904761904762e-01 1.17223357849548e+00 6.58129285733925e-03
3.01000000000000e-01 1.16583578125073e+00 6.59036267567359e-03
3.05095238095238e-01 1.15947290180105e+00 6.59883403263854e-03
3.09190476190476e-01 1.15314474957256e+00 6.60672090445730e-03
3.13285714285714e-01 1.14685113503154e+00 6.61403685851244e-03
3.17380952380952e-01 1.14059186967871e+00 6.62079507027460e-03
3.21476190476190e-01 1.13436676604355e+00 6.62700834401972e-03
3.25571428571429e-01 1.12817563766033e+00 6.63268911368037e-03
3.29666666666667e-01 1.12201829911820e+00 6.63784946675447e-03
3.33761904761905e-01 1.11589456599944e+00 6.64250116747820e-03
3.37857142857143e-01 1.10980425489287e+00 6.64665565515882e-03
3.41952380952381e-01 1.10374718338831e+00 6.65032406124720e-03
3.46047619047619e-01 1.09772317007115e+00 6.65351722092210e-03
3.50142857142857e-01 1.09173203451686e+00 6.65624568407512e-03
3.54238095238095e-01 1.08577359728568e+00 6.65851972576795e-03
3.58333333333333e-01 1.07984767991719e+00 6.66034935619242e-03
3.62428571428571e-01 1.07395410492495e+00 6.66174433012909e-03
3.66523809523810e-01 1.06809269579124e+00 6.66271416013001e-03
3.70619047619048e-01 1.06226327694650e+00 6.66326811253048e-03
3.74714285714286e-01 1.05646567381009e+00 6.66341522408616e-03
3.78809523809524e-01 1.05069971273871e+00 6.66316431825976e-03
3.82904761904762e-01 1.04496522103677e+00 6.66252399988624e-03
3.87000000000000e-01 1.03926202695121e+00 6.66150266659555e-03
3.91095238095238e-01 1.03358995966636e+00 6.66010851561892e-03
3.95190476190476e-01 1.02794884929882e+00 6.65834955029476e-03
3.99285714285714e-01 1.02233852689240e+00 6.65623358630630e-03
4.03380952380952e-01 1.01675882441302e+00 6.65376825764688e-03
4.07476190476190e-01 1.01120957474371e+00 6.65096102607185e-03
4.11571428571429e-01 1.00569061166661e+00 6.64781917526680e-03
4.15666666666667e-01 1.00020176989722e+00 6.64434982367472e-03
4.19761904761905e-01 9.94742885039900e-01 6.64055993714132e-03
4.23857142857143e-01 9.89313793596278e-01 6.63645632224401e-03
4.27952380952381e-01 9.83914332960310e-01 6.63204563477748e-03
4.32047619047619e-01 9.78544341413422e-01 6.62733438420556e-03
4.36142857142857e-01 9.73203658119651e-01 6.62232893792574e-03
4.40238095238095e-01 9.67892123120860e-01 6.61703552537502e-03
4.44333333333333e-01 9.62609577331931e-01 6.61146024198811e-03
4.48428571428571e-01 9.57355862535995e-01 6.60560905299047e-03
4.52523809523810e-01 9.52130821379702e-01 6.59948780039819e-03
4.56619047619048e-01 9.46934297357504e-01 6.59310219644302e-03
4.60714285714286e-01 9.41766134840193e-01 6.58645783372892e-03
4.64809523809524e-01 9.36626179036782e-01 6.57956019529920e-03
4.68904761904762e-01 9.31514276001097e-01 6.57241464751692e-03
4.73000000000000e-01 9.26430272627174e-01 6.56502644654154e-03
4.77095238095238e-01 9.21374016644660e-01 6.55740074125152e-03
4.81190476190476e-01 9.16345356614262e-01 6.54954257606221e-03
4.85285714285714e-01 9.11344141923219e-01 6.54145689365376e-03
4.89380952380952e-01 9.06370222780780e-01 6.53314853760184e-03
4.93476190476191e-01 9.01423450213723e-01 6.52462225794999e-03
4.97571428571429e-01 8.96503676052331e-01 6.51588270450578e-03
5.01666666666667e-01 8.91610752954822e-01 6.50693443535068e-03
5.05761904761905e-01 8.86744534373874e-01 6.49778192530404e-03
5.09857142857143e-01 8.81904874561988e-01 6.48842955882768e-03
5.13952380952381e-01 8.77091628567124e-01 6.47888163529005e-03
5.18047619047619e-01 8.72304652228360e-01 6.46914237104362e-03
5.22142857142857e-01 8.67543802171564e-01 6.45921590142595e-03
5.26238095238095e-01 8.62808935805120e-01 6.44910628270232e-03
5.30333333333333e-01 8.58099911315647e-01 6.43881749395419e-03
5.34428571428571e-01 8.53416587663749e-01 6.42835343889890e-03
5.38523809523810e-01 8.48758824579797e-01 6.41771795039007e-03
5.42619047619048e-01 8.44126482551476e-01 6.40691478388135e-03
5.46714285714286e-01 8.39519422844506e-01 6.39594762461337e-03
5.50809523809524e-01 8.34937507473426e-01 6.38482009478483e-03
5.54904761904762e-01 8.30380599205871e-01 6.37353574672687e-03
5.59000000000000e-01 8.25848561558460e-01 6.36209806723009e-03
5.63095238095238e-01 8.21341258792705e-01 6.35051047901130e-03
5.67190476190476e-01 8.16858555910952e-01 6.33877634213824e-03
5.71285714285714e-01 8.12400318652339e-01 6.32689895541828e-03
5.75380952380952e-01 8.07966413488770e-01 6.31488155774340e-03
5.79476190476190e-01 8.03556707620917e-01 6.30272733189421e-03
5.83571428571429e-01 7.99171068966984e-01 6.29043939827594e-03
5.87666666666667e-01 7.94809366180666e-01 6.27802082119899e-03
5.91761904761905e-01 7.90471468625158e-01 6.26547461515861e-03
5.95857142857143e-01 7.86157246376643e-01 6.25280373834203e-03
5.99952380952381e-01 7.81866570220402e-01 6.24001109633010e-03
6.04047619047619e-01 7.77599311646940e-01 6.22709954320090e-03
6.08142857142857e-01 7.73355342848136e-01 6.21407188259764e-03
6.12238095238095e-01 7.69134536713422e-01 6.20093086877482e-03
6.16333333333333e-01 7.64936766825973e-01 6.18767920761664e-03
6.20428571428571e-01 7.60761907458924e-01 6.17431955762545e-03
6.24523809523810e-01 7.56609833571595e-01 6.16085453314979e-03
6.28619047619048e-01 7.52480420799412e-01 6.14728669849158e-03
6.32714285714286e-01 7.48373545469322e-01 6.13361857339477e-03
6.36809523809524e-01 7.44289084576827e-01 6.11985263854215e-03
6.40904761904762e-01 7.40226915788761e-01 6.10599132947972e-03
6.45000000000000e-01 7.36186917439628e-01 6.09203703978923e-03
6.49095238095238e-01 7.32168968527952e-01 6.07799212191066e-03
6.53190476190476e-01 7.28172948712659e-01 6.06385888794395e-03
6.57285714285714e-01 7.24198738309471e-01 6.04963961043455e-03
6.61380952380952e-01 7.20246218287324e-01 6.03533652313700e-03
6.65476190476190e-01 7.16315270264798e-01 6.02095182383899e-03
6.69571428571429e-01 7.12405776500937e-01 6.00648766882017e-03
6.73666666666667e-01 7.08517619908735e-01 5.99194617775883e-03
6.77761904761905e-01 7.04650684034513e-01 5.97732943865175e-03
6.81857142857143e-01 7.00804853060170e-01 5.96263950211877e-03
6.85952380952381e-01 6.96980011799718e-01 5.94787838419776e-03
6.90047619047619e-01 6.93176045695827e-01 5.93304806698975e-03
6.94142857142857e-01 6.89392840816394e-01 5.91815049928475e-03
6.98238095238095e-01 6.85630283851136e-01 5.90318759717598e-03
7.02333333333333e-01 6.81888262108193e-01 5.88816124466293e-03
7.06428571428571e-01 6.78166663510756e-01 5.87307329423600e-03
7.10523809523810e-01 6.74465376593704e-01 5.85792556934347e-03
7.14619047619048e-01 6.70784290495298e-01 5.84271985924234e-03
7.18714285714286e-01 6.67123294968862e-01 5.82745792336654e-03
7.22809523809524e-01 6.63482280364390e-01 5.81214149571404e-03
7.26904761904762e-01 6.59861137630322e-01 5.79677227956801e-03
7.31000000000000e-01 6.56259758310278e-01 5.78135194995216e-03
7.35095238095238e-01 6.52678034539810e-01 5.76588215412966e-03
7.39190476190476e-01 6.49115859043168e-01 5.75036451209147e-03
7.43285714285714e-01 6.45573125130094e-01 5.73480061703553e-03
7.47380952380952e-01 6.42049726692622e-01 5.71919203583625e-03
7.51476190476191e-01 6.38545558201899e-01 5.70354031124492e-03
7.55571428571429e-01 6.35060514700577e-01 5.68784695708021e-03
7.59666666666667e-01 6.31594491813095e-01 5.67211346218762e-03
7.63761904761905e-01 6.28147385729050e-01 5.65634129441525e-03
7.67857142857143e-01 6.24719093204612e-01 5.64053189569045e-03
7.71952380952381e-01 6.21309511559434e-01 5.62468668422167e-03
7.76047619047619e-01 6.17918538673576e-01 5.60880705490229e-03
7.80142857142857e-01 6.14546072984446e-01 5.59289437970247e-03
7.84238095238095e-01 6.11192013483758e-01 5.57695000805596e-03
7.88333333333333e-01 6.07856259714510e-01 5.56097526724160e-03
7.92428571428571e-01 6.04538711767974e-01 5.54497146275155e-03
7.96523809523810e-01 6.01239270280699e-01 5.52893988024944e-03
8.00619047619048e-01 5.97957836427586e-01 5.51288178112064e-03
8.04714285714286e-01 5.94694311930856e-01 5.49679840603669e-03
8.08809523809524e-01 5.91448599045107e-01 5.48069097854155e-03
8.12904761904762e-01 5.88220600558415e-01 5.46456070050170e-03
8.17000000000000e-01 5.85010219789412e-01 5.44840875407111e-03
8.21095238095238e-01 5.81817360584399e-01 5.43223630201285e-03
8.25190476190476e-01 5.78641927314461e-01 5.41604448801324e-03
8.29285714285714e-01 5.75483824872609e-01 5.39983443699268e-03
8.33380952380952e-01 5.72342958670925e-01 5.38360725540946e-03
8.37476190476190e-01 5.69219234637732e-01 5.36736403303005e-03
8.41571428571429e-01 5.66112559211215e-01 5.35110583878167e-03
8.45666666666667e-01 5.63022839347361e-01 5.33483372400914e-03
8.49761904761905e-01 5.59949982506372e-01 5.31854872575202e-03
8.53857142857143e-01 5.56893896653509e-01 5.30225186250884e-03
8.57952380952381e-01 5.53854490256341e-01 5.28594413601826e-03
8.62047619047619e-01 5.50831672282001e-01 5.26962653152614e-03
8.66142857142857e-01 5.47825352194458e-01 5.25330001804329e-03
8.70238095238095e-01 5.44835439951809e-01 5.23696554860119e-03
8.74333333333333e-01 5.41861846003579e-01 5.22062406050514e-03
8.78428571428571e-01 5.38904481288043e-01 5.20427647557895e-03
8.82523809523810e-01 5.35963257229553e-01 5.18792370175775e-03
8.86619047619048e-01 5.33038085732708e-01 5.17156662925435e-03
8.90714285714286e-01 5.30128879189309e-01 5.15520613351582e-03
8.94809523809524e-01 5.27235550466089e-01 5.13884307820043e-03
8.98904761904762e-01 5.24358012905335e-01 5.12247831126584e-03
9.03000000000000e-01 5.21496180322292e-01 5.10611266657456e-03
9.07095238095238e-01 5.18649967002583e-01 5.08974696411090e-03
9.11190476190476e-01 5.15819287699642e-01 5.07338201019289e-03
9.15285714285714e-01 5.13004057632160e-01 5.05701859768262e-03
9.19380952380952e-01 5.10204192481547e-01 5.04065750619127e-03
9.23476190476190e-01 5.07419608389406e-01 5.02429950353169e-03
9.27571428571429e-01 5.04650221952141e-01 5.00794534214803e-03
9.31666666666667e-01 5.01895950227144e-01 4.99159576183141e-03
9.35761904761905e-01 4.99156710721582e-01 4.97525149245651e-03
9.39857142857143e-01 4.96432421392847e-01 4.95891325033829e-03
9.43952380952381e-01 4.93723000646103e-01 4.94258173970061e-03
9.48047619047619e-01 4.91028367331842e-01 4.92625765285952e-03
9.52142857142857e-01 4.88348440743450e-01 4.90994167039819e-03
9.56238095238095e-01 4.85683140614794e-01 4.89363446134421e-03
9.60333333333333e-01 4.83032387117816e-01 4.87733668334402e-03
9.64428571428571e-01 4.80396100860143e-01 4.86104898283060e-03
9.68523809523810e-01 4.77774202882709e-01 4.84477199634025e-03
9.72619047619048e-01 4.75166614654802e-01 4.82850634721338e-03
9.76714285714286e-01 4.72573258079514e-01 4.81225264807266e-03
9.80809523809524e-01 4.69994055483559e-01 4.79601150332041e-03
9.84904761904762e-01 4.67428929617575e-01 4.77978350577433e-03
9.89000000000000e-01 4.64877803653811e-01 4.76356923800033e-03
9.93095238095238e-01 4.62340601183825e-01 4.74736927246313e-03
9.97190476190476e-01 4.59817246216195e-01 4.73118417167391e-03
1.00128571428571e+00 4.57307663174244e-01 4.71501448509994e-03
1.00538095238095e+00 4.54811776900941e-01 4.69886076120542e-03
1.00947619047619e+00 4.52329512630321e-01 4.68272353674444e-03
1.01357142857143e+00 4.49860796016519e-01 4.66660333033547e-03
1.01766666666667e+00 4.47405553119421e-01 4.65050065686942e-03
1.02176190476190e+00 4.44963710402479e-01 4.63441601168576e-03
1.02585714285714e+00 4.42535194753349e-01 4.61834990214783e-03
1.02995238095238e+00 4.40119933412813e-01 4.60230282676632e-03
1.03404761904762e+00 4.37717854041804e-01 4.58627525410799e-03
1.03814285714286e+00 4.35328884696041e-01 4.57026765481542e-03
1.04223809523810e+00 4.32952953823921e-01 4.55428048100149e-03
1.04633333333333e+00 4.30589990286151e-01 4.53831419666296e-03
1.05042857142857e+00 4.28239923287927e-01 4.52236925756545e-03
1.05452380952381e+00 4.25902682442804e-01 4.50644609092268e-03
1.05861904761905e+00 4.23578197748472e-01 4.49054512623887e-03
1.06271428571429e+00 4.21266399584689e-01 4.47466677544991e-03
1.06680952380952e+00 4.18967218731984e-01 4.45881146221180e-03
1.07090476190476e+00 4.16680586306913e-01 4.44297960252718e-03
1.07500000000000e+00 4.14406433822945e-01 4.42717158515912e-03
1.07909523809524e+00 4.12144693167324e-01 4.41138780134674e-03
1.08319047619048e+00 4.09895296599037e-01 4.39562863499092e-03
1.08728571428571e+00 4.07658176746794e-01 4.37989445349959e-03
1.09138095238095e+00 4.05433266626691e-01 4.36418563581501e-03
1.09547619047619e+00 4.03220499580875e-01 4.34850255385968e-03
1.09957142857143e+00 4.01019809335136e-01 4.33284555377779e-03
1.10366666666667e+00 3.98831129976966e-01 4.31721498437163e-03
1.10776190476190e+00 3.96654395953606e-01 4.30161117878275e-03
1.11185714285714e+00 3.94489542088862e-01 4.28603448150524e-03
1.11595238095238e+00 3.92336503524518e-01 4.27048523049604e-03
1.12004761904762e+00 3.90195215775286e-01 4.25496373910047e-03
1.12414285714286e+00 3.88065614707805e-01 4.23947032344917e-03
1.12823809523810e+00 3.85947636538756e-01 4.22400528479381e-03
1.13233333333333e+00 3.83841217850889e-01 4.20856893554756e-03
1.13642857142857e+00 3.81746295537022e-01 4.19316158203731e-03
1.14052380952381e+00 3.79662806852496e-01 4.17778350707552e-03
1.14461904761905e+00 3.77590689395083e-01 4.16243499637145e-03
1.14871428571429e+00 3.75529881103141e-01 4.14711632149570e-03
1.15280952380952e+00 3.73480320270902e-01 4.13182776497682e-03
1.15690476190476e+00 3.71441945494935e-01 4.11656960367704e-03
1.16100000000000e+00 3.69414695724224e-01 4.10134209198350e-03
1.16509523809524e+00 3.67398510240946e-01 4.08614548727355e-03
1.16919047619048e+00 3.65393328658664e-01 4.07098004148692e-03
1.17328571428571e+00 3.63399090920524e-01 4.05584599325627e-03
1.17738095238095e+00 3.61415737313708e-01 4.04074359194443e-03
1.18147619047619e+00 3.59443208418647e-01 4.02567308171054e-03
1.18557142857143e+00 3.57481445156457e-01 4.01063468539885e-03
1.18966666666667e+00 3.55530388770686e-01 3.99562862893100e-03
1.19376190476190e+00 3.53589980825572e-01 3.98065512556780e-03
1.19785714285714e+00 3.51660163219831e-01 3.96571439909252e-03
1.20195238095238e+00 3.49740878138063e-01 3.95080666843918e-03
1.20604761904762e+00 3.47832068096083e-01 3.93593213215831e-03
1.21014285714286e+00 3.45933675923428e-01 3.92109099193382e-03
1.21423809523810e+00 3.44045644761672e-01 3.90628343739827e-03
1.21833333333333e+00 3.42167918077579e-01 3.89150966849720e-03
1.22242857142857e+00 3.40300439616602e-01 3.87676988065859e-03
1.22652380952381e+00 3.38443153446207e-01 3.86206424980571e-03
1.23061904761905e+00 3.36596003939116e-01 3.84739295504258e-03
1.23471428571429e+00 3.34758935771658e-01 3.83275616400090e-03
1.23880952380952e+00 3.32931893936337e-01 3.81815405440913e-03
1.24290476190476e+00 3.31114823697311e-01 3.80358679978886e-03
1.24700000000000e+00 3.29307670631813e-01 3.78905455499124e-03
1.25109523809524e+00 3.27510380614094e-01 3.77455747808477e-03
1.25519047619048e+00 3.25722899813816e-01 3.76009572309999e-03
1.25928571428571e+00 3.23945174694435e-01 3.74566943324813e-03
1.26338095238095e+00 3.22177152025110e-01 3.73127876159486e-03
1.26747619047619e+00 3.20418778838398e-01 3.71692385734235e-03
1.27157142857143e+00 3.18670002469553e-01 3.70260485195776e-03
1.27566666666667e+00 3.16930770541254e-01 3.68832188015235e-03
1.27976190476190e+00 3.15201030962054e-01 3.67407506632755e-03
1.28385714285714e+00 3.13480731937736e-01 3.65986454452680e-03
1.28795238095238e+00 3.11769821930807e-01 3.64569044519351e-03
1.29204761904762e+00 3.10068249698085e-01 3.63155288178827e-03
