Energy (eV)          EEDF (eV^-(3/2))     First Anisotropy
3.63333333333333e-02 3.85759728626682e-02 2.15638623175018e-05
1.09000000000000e-01 3.82810655027997e-02 3.55916086848047e-05
1.81666666666667e-01 3.79884126648677e-02 4.69413794855589e-05
2.54333333333333e-01 3.76979971122232e-02 5.55374123400086e-05
3.27000000000000e-01 3.74098017412535e-02 6.26847317951466e-05
3.99666666666667e-01 3.71238095800537e-02 6.88773071901120e-05
4.72333333333333e-01 3.68400037845653e-02 7.43710416950580e-05
5.45000000000000e-01 3.65583676403817e-02 7.93206287727871e-05
6.17666666666667e-01 3.62788845614106e-02 8.38287695263200e-05
6.90333333333333e-01 3.60015380873038e-02 8.79681250701374e-05
7.63000000000000e-01 3.57263118840570e-02 9.17925373834317e-05
8.35666666666667e-01 3.54531897429040e-02 9.53433368468841e-05
9.08333333333333e-01 3.51821555782673e-02 9.86531464338972e-05
9.81000000000000e-01 3.49131934278943e-02 1.01748304833073e-04
1.05366666666667e+00 3.46462874525811e-02 1.04650479349914e-04
1.12633333333333e+00 3.43814219314367e-02 1.07377777514334e-04
1.19900000000000e+00 3.41185812655430e-02 1.09945536728342e-04
1.27166666666667e+00 3.38577499774354e-02 1.12366901181902e-04
1.34433333333333e+00 3.35989127036053e-02 1.14653250113754e-04
1.41700000000000e+00 3.33420542001498e-02 1.16814522688334e-04
1.48966666666667e+00 3.30871593415175e-02 1.18859470590575e-04
1.56233333333333e+00 3.28342131141855e-02 1.20795854249768e-04
1.63500000000000e+00 3.25832006211897e-02 1.22630598470594e-04
1.70766666666667e+00 3.23341070809843e-02 1.24369919103530e-04
1.78033333333333e+00 3.20869178219770e-02 1.26019424353026e-04
1.85300000000000e+00 3.18416182862489e-02 1.27584197728096e-04
1.92566666666667e+00 3.15981940284938e-02 1.29068868179029e-04
1.99833333333333e+00 3.13566307112105e-02 1.30477667155298e-04
2.07100000000000e+00 3.11169141078102e-02 1.31814476456646e-04
2.14366666666667e+00 3.08790301016164e-02 1.33082870125981e-04
2.21633333333333e+00 3.06429646815765e-02 1.34286148783209e-04
2.28900000000000e+00 3.04087039448915e-02 1.35427368959850e-04
2.36166666666667e+00 3.01762340960651e-02 1.36509369677853e-04
2.43433333333333e+00 2.99455414430359e-02 1.37534794209048e-04
2.50700000000000e+00 2.97166123994261e-02 1.38506108943733e-04
2.57966666666667e+00 2.94894334836309e-02 1.39425621109089e-04
2.65233333333333e+00 2.92639913153004e-02 1.40295493144452e-04
2.72500000000000e+00 2.90402726172764e-02 1.41117755317288e-04
2.79766666666667e+00 2.88182642147181e-02 1.41894318036611e-04
2.87033333333333e+00 2.85979530318771e-02 1.42626981676733e-04
2.94300000000000e+00 2.83793260937778e-02 1.43317445284170e-04
3.01566666666667e+00 2.81623705253736e-02 1.43967315445341e-04
3.08833333333333e+00 2.79470735485736e-02 1.44578113189710e-04
3.16100000000000e+00 2.77334224837073e-02 1.45151280158334e-04
3.23366666666667e+00 2.75214047487088e-02 1.45688185191126e-04
3.30633333333333e+00 2.73110078563610e-02 1.46190129291339e-04
3.37900000000000e+00 2.71022194155776e-02 1.46658350092122e-04
3.45166666666667e+00 2.68950271306128e-02 1.47094026885085e-04
3.52433333333333e+00 2.66894187984961e-02 1.47498284260215e-04
3.59700000000000e+00 2.64853823101573e-02 1.47872195399412e-04
3.66966666666667e+00 2.62829056496606e-02 1.48216786009257e-04
3.74233333333333e+00 2.60819768918064e-02 1.48533037033120e-04
3.81500000000000e+00 2.58825842031225e-02 1.48821887116890e-04
3.88766666666667e+00 2.56847158411194e-02 1.49084235751868e-04
3.96033333333333e+00 2.54883601520420e-02 1.49320945322818e-04
4.03300000000000e+00 2.52935055717434e-02 1.49532842977321e-04
4.10566666666667e+00 2.51001406249613e-02 1.49720723186499e-04
4.17833333333333e+00 2.49082539232029e-02 1.49885349308739e-04
4.25100000000000e+00 2.47178341655170e-02 1.50027455021543e-04
4.32366666666667e+00 2.45288701377898e-02 1.50147746444495e-04
4.39633333333333e+00 2.43413507107504e-02 1.50246903343774e-04
4.46900000000000e+00 2.41552648406530e-02 1.50325580237932e-04
4.54166666666667e+00 2.39706015685916e-02 1.50384408185658e-04
4.61433333333333e+00 2.37873500186148e-02 1.50423995719972e-04
4.68700000000000e+00 2.36054993983281e-02 1.50444929707521e-04
4.75966666666667e+00 2.34250389982274e-02 1.50447776875310e-04
4.83233333333333e+00 2.32459581899127e-02 1.50433084538833e-04
4.90500000000000e+00 2.30682464266205e-02 1.50401381272711e-04
4.97766666666667e+00 2.28918932425743e-02 1.50353178231060e-04
5.05033333333333e+00 2.27168882512894e-02 1.50288969716712e-04
5.12300000000000e+00 2.25432211460427e-02 1.50209233705845e-04
5.19566666666667e+00 2.23708816992399e-02 1.50114433002850e-04
5.26833333333333e+00 2.21998597608041e-02 1.50005015685774e-04
5.34100000000000e+00 2.20301452585893e-02 1.49881415516823e-04
5.41366666666667e+00 2.18617281977642e-02 1.49744052962791e-04
5.48633333333333e+00 2.16945986592773e-02 1.49593335543153e-04
5.55900000000000e+00 2.15287468002212e-02 1.49429658150638e-04
5.63166666666667e+00 2.13641628532310e-02 1.49253403961071e-04
5.70433333333333e+00 2.12008371250214e-02 1.49064944704325e-04
5.77700000000000e+00 2.10387599967061e-02 1.48864640913440e-04
5.84966666666667e+00 2.08779219232110e-02 1.48652842742482e-04
5.92233333333333e+00 2.07183134318773e-02 1.48429890175944e-04
5.99500000000000e+00 2.05599251227411e-02 1.48196113220722e-04
6.06766666666667e+00 2.04027476679609e-02 1.47951832646642e-04
6.14033333333333e+00 2.02467718104823e-02 1.47697360146397e-04
6.21300000000000e+00 2.00919883642810e-02 1.47432998481580e-04
6.28566666666667e+00 1.99383882138049e-02 1.47159042157550e-04
6.35833333333333e+00 1.97859623126958e-02 1.46875777543476e-04
6.43100000000000e+00 1.96347016840001e-02 1.46583482981167e-04
6.50366666666667e+00 1.94845974196243e-02 1.46282429403699e-04
6.57633333333333e+00 1.93356406791101e-02 1.45972880423090e-04
6.64900000000000e+00 1.91878226898163e-02 1.45655092408937e-04
6.72166666666667e+00 1.90411347463869e-02 1.45329315058435e-04
6.79433333333333e+00 1.88955682095769e-02 1.44995791457690e-04
6.86700000000000e+00 1.87511145064071e-02 1.44654758135761e-04
6.93966666666667e+00 1.86077651296455e-02 1.44306445592315e-04
7.01233333333333e+00 1.84655116366801e-02 1.43951078337426e-04
7.08500000000000e+00 1.83243456496498e-02 1.43588874925514e-04
7.15766666666667e+00 1.81842588549379e-02 1.43220048445824e-04
7.23033333333333e+00 1.80452430020895e-02 1.42844806544612e-04
7.30300000000000e+00 1.79072899039205e-02 1.42463351442612e-04
7.37566666666667e+00 1.77703914360236e-02 1.42075880392654e-04
7.44833333333333e+00 1.76345395357269e-02 1.41682585687429e-04
7.52100000000000e+00 1.74997262021840e-02 1.41283654663444e-04
7.59366666666667e+00 1.73659434958906e-02 1.40879270129409e-04
7.66633333333333e+00 1.72331835376840e-02 1.40469610362169e-04
7.73900000000000e+00 1.71014385088141e-02 1.40054849099581e-04
7.81166666666667e+00 1.69707006504720e-02 1.39635155942749e-04
7.88433333333333e+00 1.68409622628268e-02 1.39210696342229e-04
7.95700000000000e+00 1.67122157050805e-02 1.38781631581828e-04
8.02966666666667e+00 1.65844533950075e-02 1.38348119157308e-04
8.10233333333333e+00 1.64576678080267e-02 1.37910312754646e-04
8.17500000000000e+00 1.63318514772421e-02 1.37468362226392e-04
8.24766666666667e+00 1.62069969929925e-02 1.37022413949064e-04
8.32033333333333e+00 1.60830970019581e-02 1.36572610794924e-04
8.39300000000000e+00 1.59601442071866e-02 1.36119092102269e-04
8.46566666666667e+00 1.58381313676543e-02 1.35661994013471e-04
8.53833333333333e+00 1.57170512974043e-02 1.35201449441457e-04
8.61100000000000e+00 1.55968968655602e-02 1.34737588035076e-04
8.68366666666667e+00 1.54776609958980e-02 1.34270536499464e-04
8.75633333333333e+00 1.53593366660142e-02 1.33800418558238e-04
8.82900000000000e+00 1.52419169073286e-02 1.33327354914888e-04
8.90166666666667e+00 1.51253948046664e-02 1.32851463556926e-04
8.97433333333333e+00 1.50097634954547e-02 1.32372859714661e-04
9.04700000000000e+00 1.48950161697159e-02 1.31891655819388e-04
9.11966666666667e+00 1.47811460696589e-02 1.31407961792626e-04
9.19233333333333e+00 1.46681464889037e-02 1.30921885002171e-04
9.26500000000000e+00 1.45560107724654e-02 1.30433530217748e-04
9.33766666666667e+00 1.44447323163550e-02 1.29942999886487e-04
9.41033333333333e+00 1.43343045668302e-02 1.29450394086824e-04
9.48300000000000e+00 1.42247210203714e-02 1.28955810482200e-04
9.55566666666667e+00 1.41159752232911e-02 1.28459344583770e-04
9.62833333333333e+00 1.40080607710107e-02 1.27961089702663e-04
9.70100000000000e+00 1.39009713080284e-02 1.27461136902185e-04
9.77366666666667e+00 1.37947005275380e-02 1.26959575248677e-04
9.84633333333333e+00 1.36892421707293e-02 1.26456491762539e-04
9.91900000000000e+00 1.35845900267494e-02 1.25951971369353e-04
9.99166666666667e+00 1.34807379323305e-02 1.25446097139666e-04
1.00643333333333e+01 1.33776797711131e-02 1.24938950330676e-04
1.01370000000000e+01 1.32754094732978e-02 1.24430609880313e-04
1.02096666666667e+01 1.31739210167931e-02 1.23921153453713e-04
1.02823333333333e+01 1.30732084235487e-02 1.23410657037308e-04
1.03550000000000e+01 1.29732657622158e-02 1.22899193975842e-04
1.04276666666667e+01 1.28740871477430e-02 1.22386836813334e-04
1.05003333333333e+01 1.27756667381587e-02 1.21873656439181e-04
1.05730000000000e+01 1.26779987371094e-02 1.21359721246778e-04
1.06456666666667e+01 1.25810773934661e-02 1.20845098911885e-04
1.07183333333333e+01 1.24848969982376e-02 1.20329855565044e-04
1.07910000000000e+01 1.23894518869932e-02 1.19814054976194e-04
1.08636666666667e+01 1.22947364394792e-02 1.19297760273074e-04
1.09363333333333e+01 1.22007450766573e-02 1.18781033139106e-04
1.10090000000000e+01 1.21074722630170e-02 1.18263933023145e-04
1.10816666666667e+01 1.20149125062027e-02 1.17746518800435e-04
1.11543333333333e+01 1.19230603541698e-02 1.17228847995110e-04
1.12270000000000e+01 1.18319103973940e-02 1.16710976014256e-04
1.12996666666667e+01 1.17414572685077e-02 1.16192957753736e-04
1.13723333333333e+01 1.16516956395688e-02 1.15674846844560e-04
1.14450000000000e+01 1.15626202241718e-02 1.15156694910429e-04
1.15176666666667e+01 1.14742257770934e-02 1.14638553120654e-04
1.15903333333333e+01 1.13865070916686e-02 1.14120471459592e-04
1.16630000000000e+01 1.12994590018086e-02 1.13602498006935e-04
1.17356666666667e+01 1.12130763816552e-02 1.13084680439811e-04
1.18083333333333e+01 1.11273541430593e-02 1.12567065324509e-04
1.18810000000000e+01 1.10422872375105e-02 1.12049697418764e-04
1.19536666666667e+01 1.09578706557999e-02 1.11532621125048e-04
1.20263333333333e+01 1.08740994255962e-02 1.11015879803857e-04
1.20990000000000e+01 1.07909686132911e-02 1.10499515097249e-04
1.21716666666667e+01 1.07084733236712e-02 1.09983568335201e-04
1.22443333333333e+01 1.06266086975860e-02 1.09468079869761e-04
1.23170000000000e+01 1.05453699137143e-02 1.08953088419155e-04
1.23896666666667e+01 1.04647521882442e-02 1.08438632428988e-04
1.24623333333333e+01 1.03847507726296e-02 1.07924749426577e-04
1.25350000000000e+01 1.03053609552807e-02 1.07411475384936e-04
1.26076666666667e+01 1.02265780612524e-02 1.06898846040558e-04
1.26803333333333e+01 1.01483974500849e-02 1.06386896267228e-04
1.27530000000000e+01 1.00708145174225e-02 1.05875659459256e-04
1.28256666666667e+01 9.99382469470949e-03 1.05365168807449e-04
1.28983333333333e+01 9.91742344711198e-03 1.04855456691792e-04
1.29710000000000e+01 9.84160627506759e-03 1.04346554083265e-04
1.30436666666667e+01 9.76636871398947e-03 1.03838491779565e-04
1.31163333333333e+01 9.69170633226478e-03 1.03331299816036e-04
1.31890000000000e+01 9.61761473273955e-03 1.02825006885460e-04
1.32616666666667e+01 9.54408955242995e-03 1.02319641534999e-04
1.33343333333333e+01 9.47112646059445e-03 1.01815231594783e-04
1.34070000000000e+01 9.39872116015670e-03 1.01311803615090e-04
1.34796666666667e+01 9.32686938742394e-03 1.00809384025904e-04
1.35523333333333e+01 9.25556691022966e-03 1.00307998582591e-04
1.36250000000000e+01 9.18480952929739e-03 9.98076718199131e-05
1.36976666666667e+01 9.11459307796610e-03 9.93084281755280e-05
1.37703333333333e+01 9.04491342040028e-03 9.88102914521940e-05
1.38430000000000e+01 8.97576645289746e-03 9.83132842880722e-05
1.39156666666667e+01 8.90714810362039e-03 9.78174292454780e-05
1.39883333333333e+01 8.83905433087165e-03 9.73227482890682e-05
1.40610000000000e+01 8.77148112434752e-03 9.68292622718776e-05
1.41336666666667e+01 8.70442450487683e-03 9.63369919905613e-05
1.42063333333333e+01 8.63788052275725e-03 9.58459576790540e-05
1.42790000000000e+01 8.57184525895815e-03 9.53561785098397e-05
1.43516666666667e+01 8.50631482486572e-03 9.48676736168623e-05
1.44243333333333e+01 8.44128536067860e-03 9.43804616041325e-05
1.44970000000000e+01 8.37675303656185e-03 9.38945600617526e-05
1.45696666666667e+01 8.31271405239841e-03 9.34099865576145e-05
1.46423333333333e+01 8.24916463624137e-03 9.29267581604856e-05
1.47150000000000e+01 8.18610104542145e-03 9.24448909703188e-05
1.47876666666667e+01 8.12351956630447e-03 9.19644010797874e-05
1.48603333333333e+01 8.06141651279813e-03 9.14853041114089e-05
1.49330000000000e+01 7.99978822741493e-03 9.10076147616689e-05
1.50056666666667e+01 7.93863108103564e-03 9.05313477334451e-05
1.50783333333333e+01 7.87794147146818e-03 9.00565172867193e-05
1.51510000000000e+01 7.81771582446813e-03 8.95831367960497e-05
1.52236666666667e+01 7.75795059350798e-03 8.91112196548941e-05
1.52963333333333e+01 7.69864225838602e-03 8.86407788394620e-05
1.53690000000000e+01 7.63978732620635e-03 8.81718264791315e-05
1.54416666666667e+01 7.58138233115369e-03 8.77043747336130e-05
1.55143333333333e+01 7.52342383315036e-03 8.72384353695131e-05
1.55870000000000e+01 7.46590841879750e-03 8.67740193432988e-05
1.56596666666667e+01 7.40883270115537e-03 8.63111376522067e-05
1.57323333333333e+01 7.35219331844643e-03 8.58498009231258e-05
1.58050000000000e+01 7.29598693495957e-03 8.53900190076991e-05
1.58776666666667e+01 7.24021024083565e-03 8.49318018078716e-05
1.59503333333333e+01 7.18485995081494e-03 8.44751588766982e-05
1.60230000000000e+01 7.12993280510592e-03 8.40200990251922e-05
1.60956666666667e+01 7.07542556917596e-03 8.35666311233363e-05
1.61683333333333e+01 7.02133503254141e-03 8.31147637124554e-05
1.62410000000000e+01 6.96765800960240e-03 8.26645046234671e-05
1.63136666666667e+01 6.91439133943868e-03 8.22158617541626e-05
1.63863333333333e+01 6.86153188464053e-03 8.17688426927670e-05
1.64590000000000e+01 6.80907653211119e-03 8.13234543472059e-05
1.65316666666667e+01 6.75702219286759e-03 8.08797036994570e-05
1.66043333333333e+01 6.70536580091061e-03 8.04375974399679e-05
1.66770000000000e+01 6.65410431399645e-03 7.99971416076049e-05
1.67496666666667e+01 6.60323471344217e-03 7.95583423217900e-05
1.68223333333333e+01 6.55275400303374e-03 7.91212054274288e-05
1.68950000000000e+01 6.50265920976774e-03 7.86857361452196e-05
1.69676666666667e+01 6.45294738366154e-03 7.82519397823177e-05
1.70403333333333e+01 6.40361559669774e-03 7.78198213874481e-05
1.71130000000000e+01 6.35466094353742e-03 7.73893854112298e-05
1.71856666666667e+01 6.30608054133485e-03 7.69606363960760e-05
1.72583333333333e+01 6.25787152871693e-03 7.65335786411698e-05
1.73310000000000e+01 6.21003106646923e-03 7.61082158724935e-05
1.74036666666667e+01 6.16255633735505e-03 7.56845519126272e-05
1.74763333333333e+01 6.11544454512867e-03 7.52625903552905e-05
1.75490000000000e+01 6.06869291519514e-03 7.48423342447937e-05
1.76216666666667e+01 6.02229869443377e-03 7.44237867263572e-05
1.76943333333333e+01 5.97625915024371e-03 7.40069507299193e-05
1.77670000000000e+01 5.93057157117881e-03 7.35918286587299e-05
1.78396666666667e+01 5.88523326677527e-03 7.31784230208144e-05
1.79123333333333e+01 5.84024156662845e-03 7.27667361217619e-05
1.79850000000000e+01 5.79559382100375e-03 7.23567697621769e-05
1.80576666666667e+01 5.75128740066835e-03 7.19485258508882e-05
1.81303333333333e+01 5.70731969599811e-03 7.15420061064456e-05
1.82030000000000e+01 5.66368811756544e-03 7.11372117631502e-05
1.82756666666667e+01 5.62039009597505e-03 7.07341441665843e-05
1.83483333333333e+01 5.57742308099982e-03 7.03328044835620e-05
1.84210000000000e+01 5.53478454214660e-03 6.99331934164780e-05
1.84936666666667e+01 5.49247196849589e-03 6.95353117817024e-05
1.85663333333333e+01 5.45048286786560e-03 6.91391602277301e-05
1.86390000000000e+01 5.40881476735570e-03 6.87447389575939e-05
1.87116666666667e+01 5.36746521319170e-03 6.83520482906742e-05
1.87843333333333e+01 5.32643176991534e-03 6.79610883887881e-05
1.88570000000000e+01 5.28571202090891e-03 6.75718589864249e-05
1.89296666666667e+01 5.24530356824245e-03 6.71843599364821e-05
1.90023333333333e+01 5.20520403189039e-03 6.67985909440549e-05
1.90750000000000e+01 5.16541105023638e-03 6.64145513042639e-05
1.91476666666667e+01 5.12592227992412e-03 6.60322404324204e-05
1.92203333333333e+01 5.08673539509897e-03 6.56516576052836e-05
1.92930000000000e+01 5.04784808789414e-03 6.52728017062369e-05
1.93656666666667e+01 5.00925806828499e-03 6.48956717403611e-05
1.94383333333333e+01 4.97096306335482e-03 6.45202665829562e-05
1.95110000000000e+01 4.93296081776307e-03 6.41465847318518e-05
1.95836666666667e+01 4.89524909360307e-03 6.37746248078345e-05
1.96563333333333e+01 4.85782566969110e-03 6.34043853102067e-05
1.97290000000000e+01 4.82068834201733e-03 6.30358643760231e-05
1.98016666666667e+01 4.78383492360699e-03 6.26690602663431e-05
1.98743333333333e+01 4.74726324383180e-03 6.23039711286037e-05
1.99470000000000e+01 4.71097114884442e-03 6.19405947625772e-05
2.00196666666667e+01 4.67495650144286e-03 6.15789290928708e-05
2.00923333333333e+01 4.63921718040358e-03 6.12189719379174e-05
2.01650000000000e+01 4.60375108090003e-03 6.08607207824598e-05
2.02376666666667e+01 4.56855611437030e-03 6.05041732367140e-05
2.03103333333333e+01 4.53363020787105e-03 6.01493268117815e-05
2.03830000000000e+01 4.49897130448085e-03 5.97961786984612e-05
2.04556666666667e+01 4.46457736317088e-03 5.94447262134847e-05
2.05283333333333e+01 4.43044635817911e-03 5.90949665811570e-05
2.06010000000000e+01 4.39657627939890e-03 5.87468967183106e-05
2.06736666666667e+01 4.36296513225279e-03 5.84005136680079e-05
2.07463333333333e+01 4.32961093708613e-03 5.80558143872248e-05
2.08190000000000e+01 4.29651172954160e-03 5.77127955377610e-05
2.08916666666667e+01 4.26366556043595e-03 5.73714539077874e-05
2.09643333333333e+01 4.23107049517245e-03 5.70317862054005e-05
2.10370000000000e+01 4.19872461410186e-03 5.66937888553133e-05
2.11096666666667e+01 4.16662601240206e-03 5.63574584086082e-05
2.11823333333333e+01 4.13477279950865e-03 5.60227913419906e-05
2.12550000000000e+01 4.10316309946294e-03 5.56897838600884e-05
2.13276666666667e+01 4.07179505079436e-03 5.53584322937624e-05
2.14003333333333e+01 4.04066680596865e-03 5.50287329049010e-05
2.14730000000000e+01 4.00977653172323e-03 5.47006816941641e-05
2.15456666666667e+01 3.97912240895252e-03 5.43742747881915e-05
2.16183333333333e+01 3.94870263217294e-03 5.40495082497636e-05
2.16910000000000e+01 3.91851540984634e-03 5.37263778908388e-05
2.17636666666667e+01 3.88855896426792e-03 5.34048796489913e-05
2.18363333333333e+01 3.85883153104769e-03 5.30850094027839e-05
2.19090000000000e+01 3.82933135942227e-03 5.27667627899425e-05
2.19816666666667e+01 3.80005671214546e-03 5.24501355733421e-05
2.20543333333333e+01 3.77100586498551e-03 5.21351234614430e-05
2.21270000000000e+01 3.74217710702580e-03 5.18217219314477e-05
2.21996666666667e+01 3.71356874055796e-03 5.15099265851473e-05
2.22723333333333e+01 3.68517908059444e-03 5.11997329742721e-05
2.23450000000000e+01 3.65700645515848e-03 5.08911364284919e-05
2.24176666666667e+01 3.62904920517971e-03 5.05841324014156e-05
2.24903333333333e+01 3.60130568402155e-03 5.02787163007165e-05
2.25630000000000e+01 3.57377425776085e-03 4.99748833208360e-05
2.26356666666667e+01 3.54645330508591e-03 4.96726287794255e-05
2.27083333333333e+01 3.51934121683822e-03 4.93719479521109e-05
2.27810000000000e+01 3.49243639628211e-03 4.90728359097602e-05
2.28536666666667e+01 3.46573725900528e-03 4.87752878456503e-05
2.29263333333333e+01 3.43924223247420e-03 4.84792989147367e-05
