Energy (eV)          EEDF (eV^-(3/2))     First Anisotropy
4.27192982456140e-03 6.71248114164488e-01 3.30966256724432e-04
1.28157894736842e-02 6.67195571785849e-01 5.46707526760427e-04
2.13596491228070e-02 6.63167495918689e-01 7.22214544073094e-04
2.99035087719298e-02 6.59163738857284e-01 8.55852589716014e-04
3.84473684210526e-02 6.55184153768323e-01 9.67560315337615e-04
4.69912280701754e-02 6.51228594728191e-01 1.06486703316530e-03
5.55350877192982e-02 6.47296916675698e-01 1.15166464243143e-03
6.40789473684211e-02 6.43388975440625e-01 1.23030068038270e-03
7.26228070175439e-02 6.39504627710158e-01 1.30233032822917e-03
8.11666666666667e-02 6.35643731047976e-01 1.36885152866844e-03
8.97105263157895e-02 6.31806143867708e-01 1.43067613119164e-03
9.82543859649123e-02 6.27991725446707e-01 1.48842601154336e-03
1.06798245614035e-01 6.24200335896113e-01 1.54259099307143e-03
1.15342105263158e-01 6.20431836214713e-01 1.59356572219820e-03
1.23885964912281e-01 6.16686088175821e-01 1.64167417524646e-03
1.32429824561404e-01 6.12962954421189e-01 1.68718653693233e-03
1.40973684210526e-01 6.09262298449136e-01 1.73033120957563e-03
1.49517543859649e-01 6.05583984527418e-01 1.77130353456267e-03
1.58061403508772e-01 6.01927877770274e-01 1.81027228087606e-03
1.66605263157895e-01 5.98293844129051e-01 1.84738459080946e-03
1.75149122807018e-01 5.94681750319097e-01 1.88276977234393e-03
1.83692982456140e-01 5.91091463882839e-01 1.91654226567751e-03
1.92236842105263e-01 5.87522853181729e-01 1.94880401827550e-03
2.00780701754386e-01 5.83975787333478e-01 1.97964637037808e-03
2.09324561403509e-01 5.80450136265118e-01 2.00915158301861e-03
2.17868421052632e-01 5.76945770705590e-01 2.03739411024128e-03
2.26412280701754e-01 5.73462562131011e-01 2.06444163109130e-03
2.34956140350877e-01 5.70000382810087e-01 2.09035590824665e-03
2.43500000000000e-01 5.66559105797179e-01 2.11519352791987e-03
2.52043859649123e-01 5.63138604883878e-01 2.13900650497168e-03
2.60587719298246e-01 5.59738754651412e-01 2.16184280646024e-03
2.69131578947368e-01 5.56359430411992e-01 2.18374680064429e-03
2.77675438596491e-01 5.53000508243744e-01 2.20475963279499e-03
2.86219298245614e-01 5.49661864984639e-01 2.22491956892502e-03
2.94763157894737e-01 5.46343378192747e-01 2.24426227837179e-03
3.03307017543860e-01 5.43044926177083e-01 2.26282107976708e-03
3.11850877192982e-01 5.39766387991939e-01 2.28062717260333e-03
3.20394736842105e-01 5.36507643400612e-01 2.29770982577579e-03
3.28938596491228e-01 5.33268572902860e-01 2.31409654352570e-03
3.37482456140351e-01 5.30049057729550e-01 2.32981322770395e-03
3.46026315789474e-01 5.26848979809342e-01 2.34488430761167e-03
3.54570175438596e-01 5.23668221793334e-01 2.35933285532959e-03
3.63114035087719e-01 5.20506667049892e-01 2.37318070334817e-03
3.71657894736842e-01 5.17364199633937e-01 2.38644853633763e-03
3.80201754385965e-01 5.14240704309184e-01 2.39915597330535e-03
3.88745614035088e-01 5.11136066543116e-01 2.41132165544357e-03
3.97289473684211e-01 5.08050172478544e-01 2.42296331240618e-03
4.05833333333333e-01 5.04982908953764e-01 2.43409782204856e-03
4.14377192982456e-01 5.01934163497669e-01 2.44474127778529e-03
4.22921052631579e-01 4.98903824303296e-01 2.45490903594652e-03
4.31464912280702e-01 4.95891780253087e-01 2.46461576547964e-03
4.40008771929825e-01 4.92897920886436e-01 2.47387549393435e-03
4.48552631578947e-01 4.89922136416588e-01 2.48270164246935e-03
4.57096491228070e-01 4.86964317726041e-01 2.49110707126563e-03
4.65640350877193e-01 4.84024356343168e-01 2.49910410974518e-03
4.74184210526316e-01 4.81102144457672e-01 2.50670458414367e-03
4.82728070175439e-01 4.78197574916146e-01 2.51391985438838e-03
4.91271929824561e-01 4.75310541200089e-01 2.52076083710948e-03
4.99815789473684e-01 4.72440937440082e-01 2.52723802668756e-03
5.08359649122807e-01 4.69588658411494e-01 2.53336152574292e-03
5.16903508771930e-01 4.66753599513741e-01 2.53914106280234e-03
5.25447368421053e-01 4.63935656783359e-01 2.54458600849562e-03
5.33991228070175e-01 4.61134726889792e-01 2.54970540117522e-03
5.42535087719298e-01 4.58350707115817e-01 2.55450796055736e-03
5.51078947368421e-01 4.55583495369612e-01 2.55900210026230e-03
5.59622807017544e-01 4.52832990180623e-01 2.56319594965728e-03
5.68166666666667e-01 4.50099090681057e-01 2.56709736336063e-03
5.76710526315789e-01 4.47381696621685e-01 2.57071393527892e-03
5.85254385964912e-01 4.44680708349174e-01 2.57405301211420e-03
5.93798245614035e-01 4.41996026816519e-01 2.57712170050832e-03
6.02342105263158e-01 4.39327553579071e-01 2.57992688420307e-03
6.10885964912281e-01 4.36675190777732e-01 2.58247523102321e-03
6.19429824561403e-01 4.34038841148616e-01 2.58477319931275e-03
6.27973684210526e-01 4.31418408019187e-01 2.58682705304590e-03
6.36517543859649e-01 4.28813795292260e-01 2.58864286725112e-03
6.45061403508772e-01 4.26224907454969e-01 2.59022653299866e-03
6.53605263157895e-01 4.23651649575003e-01 2.59158377084180e-03
6.62149122807018e-01 4.21093927285356e-01 2.59272013500904e-03
6.70692982456140e-01 4.18551646792660e-01 2.59364101724492e-03
6.79236842105263e-01 4.16024714873513e-01 2.59435165887459e-03
6.87780701754386e-01 4.13513038859922e-01 2.59485715401191e-03
6.96324561403509e-01 4.11016526647068e-01 2.59516245248997e-03
7.04868421052632e-01 4.08535086689703e-01 2.59527237077747e-03
7.13412280701754e-01 4.06068627988247e-01 2.59519159439525e-03
7.21956140350877e-01 4.03617060096033e-01 2.59492468011869e-03
7.30500000000000e-01 4.01180293115765e-01 2.59447606592647e-03
7.39043859649123e-01 3.98758237686231e-01 2.59385007194608e-03
7.47587719298246e-01 3.96350804992234e-01 2.59305090540585e-03
7.56131578947368e-01 3.93957906748410e-01 2.59208266559036e-03
7.64675438596491e-01 3.91579455205602e-01 2.59094934426694e-03
7.73219298245614e-01 3.89215363147437e-01 2.58965483428574e-03
7.81763157894737e-01 3.86865543878043e-01 2.58820293058103e-03
7.90307017543860e-01 3.84529911227991e-01 2.58659733105370e-03
7.98850877192982e-01 3.82208379550958e-01 2.58484164453383e-03
8.07394736842105e-01 3.79900863711939e-01 2.58293939141910e-03
8.15938596491228e-01 3.77607279092795e-01 2.58089400421206e-03
8.24482456140351e-01 3.75327541588997e-01 2.57870883492838e-03
8.33026315789474e-01 3.73061567598294e-01 2.57638715543756e-03
8.41570175438596e-01 3.70809274025914e-01 2.57393215771915e-03
8.50114035087719e-01 3.68570578281371e-01 2.57134696078599e-03
8.58657894736842e-01 3.66345398267568e-01 2.56863461077774e-03
8.67201754385965e-01 3.64133652385677e-01 2.56579808098932e-03
8.75745614035088e-01 3.61935259531999e-01 2.56284027836546e-03
8.84289473684211e-01 3.59750139087492e-01 2.55976404339000e-03
8.92833333333333e-01 3.57578210922340e-01 2.55657214992913e-03
9.01377192982456e-01 3.55419395392870e-01 2.55326731134425e-03
9.09921052631579e-01 3.53273613331480e-01 2.54985217954807e-03
9.18464912280702e-01 3.51140786053204e-01 2.54632934736204e-03
9.27008771929825e-01 3.49020835343534e-01 2.54270135095580e-03
9.35552631578947e-01 3.46913683462470e-01 2.53897066876209e-03
9.44096491228070e-01 3.44819253141539e-01 2.53513972701217e-03
9.52640350877193e-01 3.42737467574379e-01 2.53121089926355e-03
9.61184210526316e-01 3.40668250420527e-01 2.52718650590077e-03
9.69728070175439e-01 3.38611525802508e-01 2.52306881938534e-03
9.78271929824561e-01 3.36567218296748e-01 2.51886006368746e-03
9.86815789473684e-01 3.34535252937127e-01 2.51456241369391e-03
9.95359649122807e-01 3.32515555212132e-01 2.51017800019927e-03
1.00390350877193e+00 3.30508051056074e-01 2.50570890985434e-03
1.01244736842105e+00 3.28512666850492e-01 2.50115718328923e-03
1.02099122807018e+00 3.26529329425313e-01 2.49652481930069e-03
1.02953508771930e+00 3.24557966050239e-01 2.49181377653666e-03
1.03807894736842e+00 3.22598504434067e-01 2.48702597271271e-03
1.04662280701754e+00 3.20650872722041e-01 2.48216328624107e-03
1.05516666666667e+00 3.18714999493213e-01 2.47722755721257e-03
1.06371052631579e+00 3.16790813757825e-01 2.47222058834642e-03
1.07225438596491e+00 3.14878244954709e-01 2.46714414590891e-03
1.08079824561404e+00 3.12977222948695e-01 2.46199996060303e-03
1.08934210526316e+00 3.11087678028044e-01 2.45678972842977e-03
1.09788596491228e+00 3.09209540901887e-01 2.45151510621830e-03
1.10642982456140e+00 3.07342742714269e-01 2.44617772842807e-03
1.11497368421053e+00 3.05487214991554e-01 2.44077919722296e-03
1.12351754385965e+00 3.03642889690311e-01 2.43532107242564e-03
1.13206140350877e+00 3.01809699177909e-01 2.42980488853051e-03
1.14060526315789e+00 2.99987576230035e-01 2.42423214996293e-03
1.14914912280702e+00 2.98176454028233e-01 2.41860433177099e-03
1.15769298245614e+00 2.96376266157449e-01 2.41292288029743e-03
1.16623684210526e+00 2.94586946603599e-01 2.40718921383100e-03
1.17478070175439e+00 2.92808429751147e-01 2.40140472323943e-03
1.18332456140351e+00 2.91040650380698e-01 2.39557077258371e-03
1.19186842105263e+00 2.89283543666609e-01 2.38968869971434e-03
1.20041228070175e+00 2.87537045174607e-01 2.38375981685131e-03
1.20895614035088e+00 2.85801090859433e-01 2.37778541114715e-03
1.21750000000000e+00 2.84075617062487e-01 2.37176674523502e-03
1.22604385964912e+00 2.82360560509495e-01 2.36570505775993e-03
1.23458771929825e+00 2.80655858308189e-01 2.35960156389449e-03
1.24313157894737e+00 2.78961447946005e-01 2.35345745584373e-03
1.25167543859649e+00 2.77277267287788e-01 2.34727390333510e-03
1.26021929824561e+00 2.75603254573511e-01 2.34105205409406e-03
1.26876315789474e+00 2.73939348416014e-01 2.33479303430731e-03
1.27730701754386e+00 2.72285487798749e-01 2.32849794907365e-03
1.28585087719298e+00 2.70641612073546e-01 2.32216788284317e-03
1.29439473684211e+00 2.69007660958386e-01 2.31580389984458e-03
1.30293859649123e+00 2.67383574535194e-01 2.30940704450186e-03
1.31148245614035e+00 2.65769293247636e-01 2.30297834183933e-03
1.32002631578947e+00 2.64164757898942e-01 2.29651879787703e-03
1.32857017543860e+00 2.62569909649730e-01 2.29002940001583e-03
1.33711403508772e+00 2.60984690015851e-01 2.28351111335576e-03
1.34565789473684e+00 2.59409040877742e-01 2.27696489329308e-03
1.35420175438596e+00 2.57842904443590e-01 2.27039167769101e-03
1.36274561403509e+00 2.56286223282132e-01 2.26379237896289e-03
1.37128947368421e+00 2.54738940308831e-01 2.25716789685684e-03
1.37983333333333e+00 2.53200998783792e-01 2.25051911461694e-03
1.38837719298246e+00 2.51672342309673e-01 2.24384689930577e-03
1.39692105263158e+00 2.50152914829624e-01 2.23715210212008e-03
1.40546491228070e+00 2.48642660625226e-01 2.23043555869757e-03
1.41400877192982e+00 2.47141524314452e-01 2.22369808941681e-03
1.42255263157895e+00 2.45649450849632e-01 2.21694049969075e-03
1.43109649122807e+00 2.44166385515438e-01 2.21016358025210e-03
1.43964035087719e+00 2.42692273926873e-01 2.20336810743265e-03
1.44818421052632e+00 2.41227062027284e-01 2.19655484343614e-03
1.45672807017544e+00 2.39770696086373e-01 2.18972453660478e-03
1.46527192982456e+00 2.38323122698229e-01 2.18287792168049e-03
1.47381578947368e+00 2.36884288779366e-01 2.17601572005709e-03
1.48235964912281e+00 2.35454141566784e-01 2.16913864002872e-03
1.49090350877193e+00 2.34032628616032e-01 2.16224737703484e-03
1.49944736842105e+00 2.32619697799279e-01 2.15534261389719e-03
1.50799122807018e+00 2.31215297303409e-01 2.14842502105139e-03
1.51653508771930e+00 2.29819375628119e-01 2.14149525677401e-03
1.52507894736842e+00 2.28431881584028e-01 2.13455396740446e-03
1.53362280701754e+00 2.27052764290803e-01 2.12760178756218e-03
1.54216666666667e+00 2.25681973175291e-01 2.12063934035917e-03
1.55071052631579e+00 2.24319457969666e-01 2.11366723760742e-03
1.55925438596491e+00 2.22965168709585e-01 2.10668608002213e-03
1.56779824561404e+00 2.21619055732355e-01 2.09969645742064e-03
1.57634210526316e+00 2.20281069675113e-01 2.09269894891728e-03
1.58488596491228e+00 2.18951161473017e-01 2.08569411998633e-03
1.59342982456140e+00 2.17629282365586e-01 2.07868253207570e-03
1.60197368421053e+00 2.16315383870347e-01 2.07166473648245e-03
1.61051754385965e+00 2.15009417805765e-01 2.06464126816020e-03
1.61906140350877e+00 2.13711336281191e-01 2.05761265548534e-03
1.62760526315789e+00 2.12421091695111e-01 2.05057941721555e-03
1.63614912280702e+00 2.11138636733394e-01 2.04354206265732e-03
1.64469298245614e+00 2.09863924367558e-01 2.03650109183069e-03
1.65323684210526e+00 2.08596907853051e-01 2.02945699563052e-03
1.66178070175439e+00 2.07337540727530e-01 2.02241025598375e-03
1.67032456140351e+00 2.06085776809161e-01 2.01536134600419e-03
1.67886842105263e+00 2.04841570194925e-01 2.00831073014404e-03
1.68741228070175e+00 2.03604875258934e-01 2.00125886434221e-03
1.69595614035088e+00 2.02375646650757e-01 1.99420619616997e-03
1.70450000000000e+00 2.01153839293760e-01 1.98715316497387e-03
1.71304385964912e+00 1.99939408383449e-01 1.98010020201515e-03
1.72158771929825e+00 1.98732309385830e-01 1.97304773060596e-03
1.73013157894737e+00 1.97532498035775e-01 1.96599616624481e-03
1.73867543859649e+00 1.96339930335400e-01 1.95894591674833e-03
1.74721929824561e+00 1.95154562552449e-01 1.95189738238021e-03
1.75576315789474e+00 1.93976351218693e-01 1.94485095597797e-03
1.76430701754386e+00 1.92805253128333e-01 1.93780702307719e-03
1.77285087719298e+00 1.91641225336420e-01 1.93076596203362e-03
1.78139473684211e+00 1.90484225157275e-01 1.92372814414265e-03
1.78993859649123e+00 1.89334210162928e-01 1.91669393375665e-03
1.79848245614035e+00 1.88191138181557e-01 1.90966368839991e-03
1.80702631578947e+00 1.87054967295950e-01 1.90263775888210e-03
1.81557017543860e+00 1.85925655841959e-01 1.89561648940881e-03
1.82411403508772e+00 1.84803162406977e-01 1.88860021522987e-03
1.83265789473684e+00 1.83687445834390e-01 1.88158927016230e-03
1.84120175438596e+00 1.82578465204053e-01 1.87458398173474e-03
1.84974561403509e+00 1.81476179848906e-01 1.86758466627763e-03
1.85828947368421e+00 1.80380549347406e-01 1.86059163656836e-03
1.86683333333333e+00 1.79291533522052e-01 1.85360519940369e-03
1.87537719298246e+00 1.78209092437903e-01 1.84662565569709e-03
1.88392105263158e+00 1.77133186401121e-01 1.83965330057432e-03
1.89246491228070e+00 1.76063775957512e-01 1.83268842346727e-03
1.90100877192982e+00 1.75000821891080e-01 1.82573130820615e-03
1.90955263157895e+00 1.73944285222586e-01 1.81878223311005e-03
1.91809649122807e+00 1.72894127208126e-01 1.81184147107581e-03
1.92664035087719e+00 1.71850309337700e-01 1.80490928966563e-03
1.93518421052632e+00 1.70812793333810e-01 1.79798595119256e-03
1.94372807017544e+00 1.69781541150049e-01 1.79107171280471e-03
1.95227192982456e+00 1.68756514969709e-01 1.78416682656895e-03
1.96081578947368e+00 1.67737677204392e-01 1.77727153955111e-03
1.96935964912281e+00 1.66724990492635e-01 1.77038609389556e-03
1.97790350877193e+00 1.65718417698538e-01 1.76351072690524e-03
1.98644736842105e+00 1.64717921910403e-01 1.75664567111833e-03
1.99499122807018e+00 1.63723466439379e-01 1.74979115438383e-03
2.00353508771930e+00 1.62735014818118e-01 1.74294739993621e-03
2.01207894736842e+00 1.61752530799437e-01 1.73611462646886e-03
2.02062280701754e+00 1.60775978354988e-01 1.72929304820586e-03
2.02916666666667e+00 1.59805321673939e-01 1.72248287497301e-03
2.03771052631579e+00 1.58840525161660e-01 1.71568431226733e-03
2.04625438596491e+00 1.57881553438415e-01 1.70889756132543e-03
2.05479824561404e+00 1.56928371338069e-01 1.70212281919102e-03
2.06334210526316e+00 1.55980943906795e-01 1.69536027878074e-03
2.07188596491228e+00 1.55039236401794e-01 1.68861012701218e-03
2.08042982456140e+00 1.54103214294434e-01 1.68187255070660e-03
2.08897368421053e+00 1.53172843255674e-01 1.67514773274676e-03
2.09751754385965e+00 1.52248089168184e-01 1.66843584819205e-03
2.10606140350877e+00 1.51328918120612e-01 1.66173707027871e-03
2.11460526315789e+00 1.50415296406340e-01 1.65505156849028e-03
2.12314912280702e+00 1.49507190522249e-01 1.64837950861655e-03
2.13169298245614e+00 1.48604567167488e-01 1.64172105281140e-03
2.14023684210526e+00 1.47707393242252e-01 1.63507635964972e-03
2.14878070175439e+00 1.46815635846574e-01 1.62844558418356e-03
2.15732456140351e+00 1.45929262279113e-01 1.62182887799696e-03
2.16586842105263e+00 1.45048240035954e-01 1.61522638926018e-03
2.17441228070175e+00 1.44172536809423e-01 1.60863826278308e-03
2.18295614035088e+00 1.43302120486896e-01 1.60206464006754e-03
2.19150000000000e+00 1.42436959149622e-01 1.59550565935946e-03
2.20004385964912e+00 1.41577021071554e-01 1.58896145569906e-03
2.20858771929825e+00 1.40722274718188e-01 1.58243216097056e-03
2.21713157894737e+00 1.39872688745400e-01 1.57591790395173e-03
2.22567543859649e+00 1.39028231998305e-01 1.56941881036249e-03
2.23421929824561e+00 1.38188873510106e-01 1.56293500291231e-03
2.24276315789474e+00 1.37354582500966e-01 1.55646660134726e-03
2.25130701754386e+00 1.36525328376874e-01 1.55001372249596e-03
2.25985087719298e+00 1.35701080728524e-01 1.54357648031483e-03
2.26839473684211e+00 1.34881809330203e-01 1.53715498593313e-03
2.27693859649123e+00 1.34067484138680e-01 1.53074934769656e-03
2.28548245614035e+00 1.33258075292103e-01 1.52435967121086e-03
2.29402631578947e+00 1.32453553108907e-01 1.51798605938435e-03
2.30257017543860e+00 1.31653888086724e-01 1.51162861246979e-03
2.31111403508772e+00 1.30859050901301e-01 1.50528742655775e-03
2.31965789473684e+00 1.30069012408766e-01 1.49896259828273e-03
2.32820175438596e+00 1.29283743634484e-01 1.49265422174348e-03
2.33674561403509e+00 1.28503215782123e-01 1.48636238538830e-03
2.34528947368421e+00 1.27727400229205e-01 1.48008717679951e-03
2.35383333333333e+00 1.26956268526052e-01 1.47382868114224e-03
2.36237719298246e+00 1.26189792394749e-01 1.46758698120236e-03
2.37092105263158e+00 1.25427943728101e-01 1.46136215742327e-03
2.37946491228070e+00 1.24670694588607e-01 1.45515428794250e-03
2.38800877192982e+00 1.23918017207433e-01 1.44896344862767e-03
2.39655263157895e+00 1.23169883983396e-01 1.44278971311183e-03
2.40509649122807e+00 1.22426267481948e-01 1.43663315282830e-03
2.41364035087719e+00 1.21687140434173e-01 1.43049383704502e-03
2.42218421052632e+00 1.20952475735787e-01 1.42437183289841e-03
2.43072807017544e+00 1.20222246446143e-01 1.41826720542650e-03
2.43927192982456e+00 1.19496425787243e-01 1.41218001760196e-03
2.44781578947368e+00 1.18774987142755e-01 1.40611033036399e-03
2.45635964912281e+00 1.18057904057041e-01 1.40005820265024e-03
2.46490350877193e+00 1.17345150234183e-01 1.39402369142865e-03
2.47344736842105e+00 1.16636699537021e-01 1.38800685172776e-03
2.48199122807018e+00 1.15932525986190e-01 1.38200773666727e-03
2.49053508771930e+00 1.15232603759177e-01 1.37602639748816e-03
2.49907894736842e+00 1.14536907189361e-01 1.37006288358187e-03
2.50762280701754e+00 1.13845410765084e-01 1.36411724251969e-03
2.51616666666667e+00 1.13158089128707e-01 1.35818952008137e-03
2.52471052631579e+00 1.12474917075686e-01 1.35227976028311e-03
2.53325438596491e+00 1.11795869553641e-01 1.34638800540545e-03
2.54179824561403e+00 1.11120921661445e-01 1.34051429602074e-03
2.55034210526316e+00 1.10450048648306e-01 1.33465867101996e-03
2.55888596491228e+00 1.09783225912859e-01 1.32882116640496e-03
2.56742982456140e+00 1.09120429004799e-01 1.32300181903496e-03
2.57597368421053e+00 1.08461633616348e-01 1.31720066416489e-03
2.58451754385965e+00 1.07806815589038e-01 1.31141773295561e-03
2.59306140350877e+00 1.07155950910252e-01 1.30565305628286e-03
2.60160526315789e+00 1.06509015712346e-01 1.29990666349487e-03
2.61014912280702e+00 1.05865986271772e-01 1.29417858243680e-03
2.61869298245614e+00 1.05226839008210e-01 1.28846883947450e-03
2.62723684210526e+00 1.04591550483699e-01 1.28277745951839e-03
2.63578070175439e+00 1.03960097401784e-01 1.27710446604657e-03
2.64432456140351e+00 1.03332456606657e-01 1.27144988112784e-03
2.65286842105263e+00 1.02708605082307e-01 1.26581372544431e-03
2.66141228070175e+00 1.02088519951683e-01 1.26019601831354e-03
2.66995614035088e+00 1.01472178475844e-01 1.25459677771085e-03
2.67850000000000e+00 1.00859558053137e-01 1.24901602029090e-03
2.68704385964912e+00 1.00250636218358e-01 1.24345376140870e-03
2.69558771929825e+00 9.96453906419345e-02 1.23791001514067e-03
