Energy (eV)          EEDF (eV^-(3/2))     First Anisotropy
3.04464285714286e-03 1.14596607998985e+00 5.67804396529313e-04
9.13392857142857e-03 1.13892271868235e+00 9.37878039232870e-04
1.52232142857143e-02 1.13192264744401e+00 1.23882499824722e-03
2.13125000000000e-02 1.12496560019520e+00 1.46789542338692e-03
2.74017857142857e-02 1.11805131247230e+00 1.65930648870285e-03
3.34910714285714e-02 1.11117952150028e+00 1.82598145555710e-03
3.95803571428571e-02 1.10434996608184e+00 1.97460135455458e-03
4.56696428571429e-02 1.09756238662646e+00 2.10919667311997e-03
5.17589285714286e-02 1.09081652513934e+00 2.23243788691532e-03
5.78482142857143e-02 1.08411212521222e+00 2.34621059599988e-03
6.39375000000000e-02 1.07744893201290e+00 2.45190926582449e-03
7.00267857142857e-02 1.07082669226593e+00 2.55060220493479e-03
7.61160714285714e-02 1.06424515427273e+00 2.64313099695781e-03
8.22053571428571e-02 1.05770406787101e+00 2.73017378881745e-03
8.82946428571429e-02 1.05120318443610e+00 2.81228736597698e-03
9.43839285714286e-02 1.04474225687136e+00 2.88993614857958e-03
1.00473214285714e-01 1.03832103959907e+00 2.96351277664073e-03
1.06562500000000e-01 1.03193928855658e+00 3.03335310472901e-03
1.12651785714286e-01 1.02559676115271e+00 3.09974735357557e-03
1.18741071428571e-01 1.01929321631162e+00 3.16294856521509e-03
1.24830357142857e-01 1.01302841449044e+00 3.22317915505103e-03
1.30919642857143e-01 1.00680211751486e+00 3.28063600540619e-03
1.37008928571429e-01 1.00061408872608e+00 3.33549449858850e-03
1.43098214285714e-01 9.94464092963571e-01 3.38791180494174e-03
1.49187500000000e-01 9.88351896424893e-01 3.43802950279370e-03
1.55276785714286e-01 9.82277266788389e-01 3.48597572702106e-03
1.61366071428571e-01 9.76239973160255e-01 3.53186696627485e-03
1.67455357142857e-01 9.70239786101937e-01 3.57580955976826e-03
1.73544642857143e-01 9.64276477512202e-01 3.61790093494461e-03
1.79633928571429e-01 9.58349820728107e-01 3.65823064662805e-03
1.85723214285714e-01 9.52459590511741e-01 3.69688130392083e-03
1.91812500000000e-01 9.46605562945816e-01 3.73392932267166e-03
1.97901785714286e-01 9.40787515521275e-01 3.76944557557480e-03
2.03991071428571e-01 9.35005227096629e-01 3.80349597279651e-03
2.10080357142857e-01 9.29258477916944e-01 3.83614196597060e-03
2.16169642857143e-01 9.23547049522829e-01 3.86744097191900e-03
2.22258928571429e-01 9.17870724825114e-01 3.89744673851752e-03
2.28348214285714e-01 9.12229288093587e-01 3.92620970389307e-03
2.34437500000000e-01 9.06622524874621e-01 3.95377727826754e-03
2.40526785714286e-01 9.01050222057431e-01 3.98019409652579e-03
2.46616071428571e-01 8.95512167841046e-01 4.00550225896459e-03
2.52705357142857e-01 8.90008151747951e-01 4.02974154563382e-03
2.58794642857143e-01 8.84537964550650e-01 4.05294959392145e-03
2.64883928571429e-01 8.79101398329402e-01 4.07516205330881e-03
2.70973214285714e-01 8.73698246462217e-01 4.09641275740689e-03
2.77062500000000e-01 8.68328303557385e-01 4.11673384778725e-03
2.83151785714286e-01 8.62991365505486e-01 4.13615588860189e-03
2.89241071428571e-01 8.57687229451596e-01 4.15470798476441e-03
2.95330357142857e-01 8.52415693805283e-01 4.17241788890925e-03
3.01419642857143e-01 8.47176558179534e-01 4.18931208610650e-03
3.07508928571429e-01 8.41969623436757e-01 4.20541586718896e-03
3.13598214285714e-01 8.36794691679660e-01 4.22075342498479e-03
3.19687500000000e-01 8.31651566194544e-01 4.23534791436729e-03
3.25776785714286e-01 8.26540051493181e-01 4.24922150982624e-03
3.31866071428571e-01 8.21459953288852e-01 4.26239547115285e-03
3.37955357142857e-01 8.16411078503744e-01 4.27489020352874e-03
3.44044642857143e-01 8.11393235217038e-01 4.28672530153694e-03
3.50133928571429e-01 8.06406232702359e-01 4.29791958633856e-03
3.56223214285714e-01 8.01449881419336e-01 4.30849116630534e-03
3.62312500000000e-01 7.96523992965019e-01 4.31845746783090e-03
3.68401785714286e-01 7.91628380108246e-01 4.32783526622014e-03
3.74491071428571e-01 7.86762856768611e-01 4.33664072589162e-03
3.80580357142857e-01 7.81927238021944e-01 4.34488943740661e-03
3.86669642857143e-01 7.77121340055456e-01 4.35259644161756e-03
3.92758928571429e-01 7.72344980198719e-01 4.35977624910012e-03
3.98848214285714e-01 7.67597976915783e-01 4.36644288205032e-03
4.04937500000000e-01 7.62880149762948e-01 4.37260989040509e-03
4.11026785714286e-01 7.58191319417359e-01 4.37829036907604e-03
4.17116071428571e-01 7.53531307658314e-01 4.38349698453391e-03
4.23205357142857e-01 7.48899937371283e-01 4.38824199938795e-03
4.29294642857143e-01 7.44297032508651e-01 4.39253728603821e-03
4.35383928571429e-01 7.39722418115674e-01 4.39639433673423e-03
4.41473214285714e-01 7.35175920323063e-01 4.39982429466191e-03
4.47562500000000e-01 7.30657366309856e-01 4.40283796217293e-03
4.53651785714286e-01 7.26166584327477e-01 4.40544581053666e-03
4.59741071428571e-01 7.21703403682957e-01 4.40765799866119e-03
4.65830357142857e-01 7.17267654741811e-01 4.40948439043591e-03
4.71919642857143e-01 7.12859168893343e-01 4.41093456248824e-03
4.78008928571429e-01 7.08477778572597e-01 4.41201780901887e-03
4.84098214285714e-01 7.04123317253358e-01 4.41274316615615e-03
4.90187500000000e-01 6.99795619415193e-01 4.41311941572920e-03
4.96276785714286e-01 6.95494520563890e-01 4.41315509070741e-03
5.02366071428571e-01 6.91219857216253e-01 4.41285848908170e-03
5.08455357142857e-01 6.86971466902101e-01 4.41223768672994e-03
5.14544642857143e-01 6.82749188133336e-01 4.41130054170886e-03
5.20633928571429e-01 6.78552860422659e-01 4.41005469606136e-03
5.26723214285714e-01 6.74382324276944e-01 4.40850759569765e-03
5.32812500000000e-01 6.70237421167757e-01 4.40666649156718e-03
5.38901785714286e-01 6.66117993548836e-01 4.40453844251056e-03
5.44991071428572e-01 6.62023884842234e-01 4.40213032599703e-03
5.51080357142857e-01 6.57954939439616e-01 4.39944884807114e-03
5.57169642857143e-01 6.53911002674487e-01 4.39650054553591e-03
5.63258928571429e-01 6.49891920838260e-01 4.39329178596180e-03
5.69348214285714e-01 6.45897541173962e-01 4.38982878442631e-03
5.75437500000000e-01 6.41927711849698e-01 4.38611760313450e-03
5.81526785714286e-01 6.37982281973692e-01 4.38216415267397e-03
5.87616071428571e-01 6.34061101581580e-01 4.37797420061228e-03
5.93705357142857e-01 6.30164021637150e-01 4.37355337945436e-03
5.99794642857143e-01 6.26290894007271e-01 4.36890718750723e-03
6.05883928571429e-01 6.22441571475743e-01 4.36404098780815e-03
6.11973214285714e-01 6.18615907737324e-01 4.35896002255488e-03
6.18062500000000e-01 6.14813757373710e-01 4.35366941179139e-03
6.24151785714286e-01 6.11034975866534e-01 4.34817415365855e-03
6.30241071428571e-01 6.07279419585671e-01 4.34247913147558e-03
6.36330357142857e-01 6.03546945789529e-01 4.33658912028439e-03
6.42419642857143e-01 5.99837412602290e-01 4.33050878687912e-03
6.48508928571429e-01 5.96150679025918e-01 4.32424268808712e-03
6.54598214285714e-01 5.92486604934471e-01 4.31779528342931e-03
6.60687500000000e-01 5.88845051052256e-01 4.31117093324970e-03
6.66776785714286e-01 5.85225878965116e-01 4.30437389832818e-03
6.72866071428571e-01 5.81628951109620e-01 4.29740834584760e-03
6.78955357142857e-01 5.78054130772988e-01 4.29027835490076e-03
6.85044642857143e-01 5.74501282072349e-01 4.28298791598601e-03
6.91133928571429e-01 5.70970269965186e-01 4.27554092890919e-03
6.97223214285714e-01 5.67460960243918e-01 4.26794121404462e-03
7.03312500000000e-01 5.63973219515946e-01 4.26019251014408e-03
7.09401785714286e-01 5.60506915213494e-01 4.25229847354301e-03
7.15491071428571e-01 5.57061915583575e-01 4.24426268328320e-03
7.21580357142857e-01 5.53638089687632e-01 4.23608864583457e-03
7.27669642857143e-01 5.50235307382555e-01 4.22777979425162e-03
7.33758928571429e-01 5.46853439329795e-01 4.21933948586550e-03
7.39848214285714e-01 5.43492356990197e-01 4.21077101240711e-03
7.45937500000000e-01 5.40151932605720e-01 4.20207759764478e-03
7.52026785714286e-01 5.36832039208025e-01 4.19326239633633e-03
7.58116071428572e-01 5.33532550609148e-01 4.18432849869472e-03
7.64205357142857e-01 5.30253341400905e-01 4.17527893449743e-03
7.70294642857143e-01 5.26994286937465e-01 4.16611667202961e-03
7.76383928571429e-01 5.23755263343321e-01 4.15684461567965e-03
7.82473214285714e-01 5.20536147508362e-01 4.14746561511274e-03
7.88562500000000e-01 5.17336817071067e-01 4.13798246283439e-03
7.94651785714286e-01 5.14157150426024e-01 4.12839789298960e-03
8.00741071428571e-01 5.10997026715237e-01 4.11871458530232e-03
8.06830357142857e-01 5.07856325827337e-01 4.10893516869787e-03
8.12919642857143e-01 5.04734928381540e-01 4.09906222011934e-03
8.19008928571429e-01 5.01632715734633e-01 4.08909826209530e-03
8.25098214285714e-01 4.98549569976266e-01 4.07904577110841e-03
8.31187500000000e-01 4.95485373913466e-01 4.06890717514863e-03
8.37276785714286e-01 4.92440011077230e-01 4.05868485242458e-03
8.43366071428571e-01 4.89413365714398e-01 4.04838113487634e-03
8.49455357142857e-01 4.86405322786719e-01 4.03799831140063e-03
8.55544642857143e-01 4.83415767956039e-01 4.02753862659733e-03
8.61633928571429e-01 4.80444587590434e-01 4.01700427835673e-03
8.67723214285714e-01 4.77491668759717e-01 4.00639742553356e-03
8.73812500000000e-01 4.74556899221124e-01 3.99572018553063e-03
8.79901785714286e-01 4.71640167425105e-01 3.98497463296925e-03
8.85991071428571e-01 4.68741362507720e-01 3.97416280284658e-03
8.92080357142857e-01 4.65860374289579e-01 3.96328669343225e-03
8.98169642857143e-01 4.62997093262142e-01 3.95234826498435e-03
9.04258928571429e-01 4.60151410593107e-01 3.94134943738531e-03
9.10348214285714e-01 4.57323218122117e-01 3.93029209720991e-03
9.16437500000000e-01 4.54512408347504e-01 3.91917809536584e-03
9.22526785714286e-01 4.51718874431386e-01 3.90800924575328e-03
9.28616071428571e-01 4.48942510192527e-01 3.89678732812376e-03
9.34705357142857e-01 4.46183210105191e-01 3.88551409069955e-03
9.40794642857143e-01 4.43440869286435e-01 3.87419124888449e-03
9.46883928571429e-01 4.40715383500851e-01 3.86282048296955e-03
9.52973214285714e-01 4.38006649156463e-01 3.85140344466591e-03
9.59062500000000e-01 4.35314563292426e-01 3.83994175481806e-03
9.65151785714286e-01 4.32639023583509e-01 3.82843700207405e-03
9.71241071428572e-01 4.29979928333394e-01 3.81689074548814e-03
9.77330357142857e-01 4.27337176473452e-01 3.80530451690428e-03
9.83419642857143e-01 4.24710667550943e-01 3.79367981968159e-03
9.89508928571429e-01 4.22100301733188e-01 3.78201812647917e-03
9.95598214285714e-01 4.19505979803647e-01 3.77032088531245e-03
1.00168750000000e+00 4.16927603150484e-01 3.75858951473135e-03
1.00777678571429e+00 4.14365073777911e-01 3.74682541387924e-03
1.01386607142857e+00 4.11818294267795e-01 3.73502994484200e-03
1.01995535714286e+00 4.09287167842364e-01 3.72320445282349e-03
1.02604464285714e+00 4.06771598270165e-01 3.71135026449747e-03
1.03213392857143e+00 4.04271489935488e-01 3.69946865621422e-03
1.03822321428571e+00 4.01786747833765e-01 3.68756090612446e-03
1.04431250000000e+00 3.99317277497335e-01 3.67562826071518e-03
1.05040178571429e+00 3.96862985085549e-01 3.66367194289436e-03
1.05649107142857e+00 3.94423777288744e-01 3.65169315354130e-03
1.06258035714286e+00 3.91999561415936e-01 3.63969307082166e-03
1.06866964285714e+00 3.89590245301258e-01 3.62767285961671e-03
1.07475892857143e+00 3.87195737367640e-01 3.61563363910447e-03
1.08084821428571e+00 3.84815946622443e-01 3.60357653163306e-03
1.08693750000000e+00 3.82450782589054e-01 3.59150263127383e-03
1.09302678571429e+00 3.80100155389627e-01 3.57941301137942e-03
1.09911607142857e+00 3.77763975656601e-01 3.56730872599228e-03
1.10520535714286e+00 3.75442154613269e-01 3.55519080917686e-03
1.11129464285714e+00 3.73134603987519e-01 3.54306028383252e-03
1.11738392857143e+00 3.70841236070335e-01 3.53091813121774e-03
1.12347321428571e+00 3.68561963711656e-01 3.51876533681838e-03
1.12956250000000e+00 3.66296700257240e-01 3.50660286077829e-03
1.13565178571429e+00 3.64045359624759e-01 3.49443164497486e-03
1.14174107142857e+00 3.61807856222149e-01 3.48225261430440e-03
1.14783035714286e+00 3.59584105021743e-01 3.47006667603417e-03
1.15391964285714e+00 3.57374021480625e-01 3.45787472805017e-03
1.16000892857143e+00 3.55177521594455e-01 3.44567763019167e-03
1.16609821428571e+00 3.52994521893534e-01 3.43347624733464e-03
1.17218750000000e+00 3.50824939384450e-01 3.42127142157116e-03
1.17827678571429e+00 3.48668691620169e-01 3.40906397884194e-03
1.18436607142857e+00 3.46525696624563e-01 3.39685473011265e-03
1.19045535714286e+00 3.44395872960737e-01 3.38464447074860e-03
1.19654464285714e+00 3.42279139657375e-01 3.37243398824305e-03
1.20263392857143e+00 3.40175416258332e-01 3.36022403523887e-03
1.20872321428571e+00 3.38084622818899e-01 3.34801537002686e-03
1.21481250000000e+00 3.36006679851791e-01 3.33580873035624e-03
1.22090178571429e+00 3.33941508391790e-01 3.32360483965788e-03
1.22699107142857e+00 3.31889029925904e-01 3.31140440812514e-03
1.23308035714286e+00 3.29849166456410e-01 3.29920813211257e-03
1.23916964285714e+00 3.27821840432662e-01 3.28701670138379e-03
1.24525892857143e+00 3.25806974796844e-01 3.27483077370827e-03
1.25134821428571e+00 3.23804492980416e-01 3.26265101295645e-03
1.25743750000000e+00 3.21814318854057e-01 3.25047806443205e-03
1.26352678571429e+00 3.19836376787367e-01 3.23831256071724e-03
1.26961607142857e+00 3.17870591584146e-01 3.22615512266777e-03
1.27570535714286e+00 3.15916888540641e-01 3.21400635883691e-03
1.28179464285714e+00 3.13975193382334e-01 3.20186687228017e-03
1.28788392857143e+00 3.12045432306197e-01 3.18973723662133e-03
1.29397321428571e+00 3.10127531977314e-01 3.17761803191015e-03
1.30006250000000e+00 3.08221419482436e-01 3.16550982137746e-03
1.30615178571429e+00 3.06327022385179e-01 3.15341315692955e-03
1.31224107142857e+00 3.04444268665985e-01 3.14132858006646e-03
1.31833035714286e+00 3.02573086775994e-01 3.12925662133129e-03
1.32441964285714e+00 3.00713405578383e-01 3.11719780670370e-03
1.33050892857143e+00 2.98865154387435e-01 3.10515263504000e-03
1.33659821428571e+00 2.97028262965328e-01 3.09312161184583e-03
1.34268750000000e+00 2.95202661478992e-01 3.08110522735931e-03
1.34877678571429e+00 2.93388280551201e-01 3.06910396172120e-03
1.35486607142857e+00 2.91585051204811e-01 3.05711828582425e-03
1.36095535714286e+00 2.89792904912647e-01 3.04514866078660e-03
1.36704464285714e+00 2.88011773543002e-01 3.03319554396525e-03
1.37313392857143e+00 2.86241589395801e-01 3.02125936767976e-03
1.37922321428571e+00 2.84482285199545e-01 3.00934057103852e-03
1.38531250000000e+00 2.82733794071199e-01 2.99743957926741e-03
1.39140178571429e+00 2.80996049563520e-01 2.98555680857557e-03
1.39749107142857e+00 2.79268985613234e-01 2.97369266694345e-03
1.40358035714286e+00 2.77552536587259e-01 2.96184755362067e-03
1.40966964285714e+00 2.75846637232031e-01 2.95002186478393e-03
1.41575892857143e+00 2.74151222707010e-01 2.93821597346467e-03
1.42184821428571e+00 2.72466228581769e-01 2.92643025955668e-03
1.42793750000000e+00 2.70791590798660e-01 2.91466509030890e-03
1.43402678571429e+00 2.69127245716709e-01 2.90292082490960e-03
1.44011607142857e+00 2.67473130063392e-01 2.89119781521818e-03
1.44620535714286e+00 2.65829180977518e-01 2.87949640528685e-03
1.45229464285714e+00 2.64195335962061e-01 2.86781693668804e-03
1.45838392857143e+00 2.62571532915236e-01 2.85615972956914e-03
1.46447321428571e+00 2.60957710127719e-01 2.84452511095930e-03
1.47056250000000e+00 2.59353806247876e-01 2.83291339635332e-03
1.47665178571429e+00 2.57759760322502e-01 2.82132489403353e-03
1.48274107142857e+00 2.56175511751914e-01 2.80975990574983e-03
1.48883035714286e+00 2.54601000329767e-01 2.79821872626487e-03
1.49491964285714e+00 2.53036166199107e-01 2.78670164837341e-03
1.50100892857143e+00 2.51480949881222e-01 2.77520894501293e-03
1.50709821428571e+00 2.49935292272990e-01 2.76374089597806e-03
1.51318750000000e+00 2.48399134614461e-01 2.75229777052917e-03
1.51927678571429e+00 2.46872418526705e-01 2.74087983146841e-03
1.52536607142857e+00 2.45355085969952e-01 2.72948733577237e-03
1.53145535714286e+00 2.43847079280594e-01 2.71812053415938e-03
1.53754464285714e+00 2.42348341130210e-01 2.70677967582188e-03
1.54363392857143e+00 2.40858814552367e-01 2.69546499152793e-03
1.54972321428571e+00 2.39378442940092e-01 2.68417671884394e-03
1.55581250000000e+00 2.37907170015623e-01 2.67291508570395e-03
1.56190178571429e+00 2.36444939865598e-01 2.66168031425543e-03
1.56799107142857e+00 2.34991696902007e-01 2.65047262144964e-03
1.57408035714286e+00 2.33547385896604e-01 2.63929221863002e-03
1.58016964285714e+00 2.32111951942676e-01 2.62813931599562e-03
1.58625892857143e+00 2.30685340479952e-01 2.61701410663354e-03
1.59234821428571e+00 2.29267497292203e-01 2.60591679034245e-03
1.59843750000000e+00 2.27858368478982e-01 2.59484755810394e-03
1.60452678571429e+00 2.26457900488382e-01 2.58380659571321e-03
1.61061607142857e+00 2.25066040080570e-01 2.57279408433033e-03
1.61670535714286e+00 2.23682734359820e-01 2.56181020008910e-03
1.62279464285714e+00 2.22307930738812e-01 2.55085511830871e-03
1.62888392857143e+00 2.20941576961809e-01 2.53992899840015e-03
1.63497321428571e+00 2.19583621102363e-01 2.52903200637710e-03
1.64106250000000e+00 2.18234011536912e-01 2.51816430017517e-03
1.64715178571429e+00 2.16892696975277e-01 2.50732603308092e-03
1.65324107142857e+00 2.15559626426598e-01 2.49651735424697e-03
1.65933035714286e+00 2.14234749229169e-01 2.48573840832001e-03
1.66541964285714e+00 2.12918015017076e-01 2.47498933941734e-03
1.67150892857143e+00 2.11609373741776e-01 2.46427027685489e-03
1.67759821428571e+00 2.10308775669906e-01 2.45358135642494e-03
1.68368750000000e+00 2.09016171358596e-01 2.44292270651256e-03
1.68977678571429e+00 2.07731511683883e-01 2.43229445133544e-03
1.69586607142857e+00 2.06454747808869e-01 2.42169671142549e-03
1.70195535714286e+00 2.05185831211524e-01 2.41112960327614e-03
1.70804464285714e+00 2.03924713653495e-01 2.40059324309772e-03
1.71413392857143e+00 2.02671347200203e-01 2.39008773331762e-03
1.72022321428571e+00 2.01425684218755e-01 2.37961318270019e-03
1.72631250000000e+00 2.00187677354849e-01 2.36916969321258e-03
1.73240178571429e+00 1.98957279559257e-01 2.35875736308748e-03
1.73849107142857e+00 1.97734444058046e-01 2.34837628727374e-03
1.74458035714286e+00 1.96519124378504e-01 2.33802655710081e-03
1.75066964285714e+00 1.95311274319956e-01 2.32770826382780e-03
1.75675892857143e+00 1.94110847972496e-01 2.31742148587053e-03
1.76284821428571e+00 1.92917799715001e-01 2.30716630783177e-03
1.76893750000000e+00 1.91732084193497e-01 2.29694280807295e-03
1.77502678571429e+00 1.90553656345879e-01 2.28675106161011e-03
1.78111607142857e+00 1.89382471374025e-01 2.27659114053613e-03
1.78720535714286e+00 1.88218484767996e-01 2.26646311370217e-03
1.79329464285714e+00 1.87061652278711e-01 2.25636705007210e-03
1.79938392857143e+00 1.85911929935421e-01 2.24630300663359e-03
1.80547321428571e+00 1.84769274043812e-01 2.23627104640413e-03
1.81156250000000e+00 1.83633641165735e-01 2.22627122666714e-03
1.81765178571429e+00 1.82504988142287e-01 2.21630360171076e-03
1.82374107142857e+00 1.81383272067688e-01 2.20636822322430e-03
1.82983035714286e+00 1.80268450311883e-01 2.19646513999534e-03
1.83591964285714e+00 1.79160480494939e-01 2.18659440108155e-03
1.84200892857143e+00 1.78059320503357e-01 2.17675604436648e-03
1.84809821428571e+00 1.76964928488259e-01 2.16695011360074e-03
1.85418750000000e+00 1.75877262846390e-01 2.15717664726418e-03
1.86027678571429e+00 1.74796282241670e-01 2.14743568115736e-03
1.86636607142857e+00 1.73721945580722e-01 2.13772724877342e-03
1.87245535714286e+00 1.72654212033981e-01 2.12805138101055e-03
1.87854464285714e+00 1.71593041011704e-01 2.11840810917191e-03
1.88463392857143e+00 1.70538392179192e-01 2.10879745412877e-03
1.89072321428571e+00 1.69490225455069e-01 2.09921944245356e-03
1.89681250000000e+00 1.68448500993456e-01 2.08967409587170e-03
1.90290178571429e+00 1.67413179204116e-01 2.08016143371446e-03
1.90899107142857e+00 1.66384220729513e-01 2.07068147326781e-03
1.91508035714286e+00 1.65361586464532e-01 2.06123422949991e-03
1.92116964285714e+00 1.64345237533992e-01 2.05181971789934e-03
