Energy (eV)          EEDF (eV^-(3/2))     First Anisotropy
6.55769230769231e-03 1.14183526362445e+00 8.27371465687150e-04
1.96730769230769e-02 1.12677303987811e+00 1.36179242897414e-03
3.27884615384615e-02 1.11190950555184e+00 1.78601462868960e-03
4.59038461538462e-02 1.09724203968477e+00 2.10126424269049e-03
5.90192307692308e-02 1.08276805586369e+00 2.35842824664182e-03
7.21346153846154e-02 1.06848500185345e+00 2.57693178016433e-03
8.52500000000000e-02 1.05439035905022e+00 2.76691929690775e-03
9.83653846153846e-02 1.04048164207476e+00 2.93457113891272e-03
1.11480769230769e-01 1.02675639832042e+00 3.08402188908747e-03
1.24596153846154e-01 1.01321220751439e+00 3.21821875688219e-03
1.37711538461538e-01 9.99846681458876e-01 3.33936173966347e-03
1.50826923076923e-01 9.86657463238084e-01 3.44915177497552e-03
1.63942307692308e-01 9.73642227219852e-01 3.54894088115501e-03
1.77057692307692e-01 9.60798678283218e-01 3.63982809586768e-03
1.90173076923077e-01 9.48124551664396e-01 3.72272347992919e-03
2.03288461538462e-01 9.35617612540631e-01 3.79839243678118e-03
2.16403846153846e-01 9.23275655438067e-01 3.86748725992851e-03
2.29519230769231e-01 9.11096504094416e-01 3.93057021155725e-03
2.42634615384615e-01 8.99078010847454e-01 3.98813077118787e-03
2.55750000000000e-01 8.87218056418901e-01 4.04059874929534e-03
2.68865384615385e-01 8.75514549530994e-01 4.08835447894421e-03
2.81980769230769e-01 8.63965426402978e-01 4.13173679541404e-03
2.95096153846154e-01 8.52568650522538e-01 4.17104938891109e-03
3.08211538461538e-01 8.41322212279128e-01 4.20656595456061e-03
3.21326923076923e-01 8.30224128495661e-01 4.23853435639165e-03
3.34442307692308e-01 8.19272442226447e-01 4.26718006569182e-03
3.47557692307692e-01 8.08465222274384e-01 4.29270901700922e-03
3.60673076923077e-01 7.97800562950053e-01 4.31530998136674e-03
3.73788461538462e-01 7.87276583731192e-01 4.33515659541647e-03
3.86903846153846e-01 7.76891428844511e-01 4.35240905734812e-03
4.00019230769231e-01 7.66643267050757e-01 4.36721558719206e-03
4.13134615384615e-01 7.56530291216014e-01 4.37971368369479e-03
4.26250000000000e-01 7.46550718070248e-01 4.39003119666599e-03
4.39365384615385e-01 7.36702787889409e-01 4.39828728297717e-03
4.52480769230769e-01 7.26984764117313e-01 4.40459322025036e-03
4.65596153846154e-01 7.17394933127666e-01 4.40905311959331e-03
4.78711538461538e-01 7.07931603918954e-01 4.41176457372249e-03
4.91826923076923e-01 6.98593107755978e-01 4.41281920845499e-03
5.04942307692308e-01 6.89377797954428e-01 4.41230318172980e-03
5.18057692307692e-01 6.80284049515486e-01 4.41029762940373e-03
5.31173076923077e-01 6.71310258894223e-01 4.40687905254693e-03
5.44288461538462e-01 6.62454843714781e-01 4.40211968464994e-03
5.57403846153846e-01 6.53716242442106e-01 4.39608780296074e-03
5.70519230769231e-01 6.45092914170971e-01 4.38884801773431e-03
5.83634615384615e-01 6.36583338292726e-01 4.38046153492051e-03
5.96750000000000e-01 6.28186014272425e-01 4.37098638466752e-03
6.09865384615385e-01 6.19899461382511e-01 4.36047764660883e-03
6.22980769230769e-01 6.11722218400988e-01 4.34898764002283e-03
6.36096153846154e-01 6.03652843394765e-01 4.33656609716415e-03
6.49211538461538e-01 5.95689913463861e-01 4.32326033669876e-03
6.62326923076923e-01 5.87832024453507e-01 4.30911540702212e-03
6.75442307692308e-01 5.80077790755141e-01 4.29417422510564e-03
6.88557692307692e-01 5.72425845015377e-01 4.27847770517066e-03
7.01673076923077e-01 5.64874837929289e-01 4.26206486933307e-03
7.14788461538462e-01 5.57423438001321e-01 4.24497296452635e-03
7.27903846153846e-01 5.50070331279207e-01 4.22723755670096e-03
7.41019230769231e-01 5.42814221163359e-01 4.20889262453088e-03
7.54134615384615e-01 5.35653828138660e-01 4.18997064713584e-03
7.67250000000000e-01 5.28587889578071e-01 4.17050267851647e-03
7.80365384615385e-01 5.21615159518977e-01 4.15051842997185e-03
7.93480769230769e-01 5.14734408416848e-01 4.13004633559479e-03
8.06596153846154e-01 5.07944422955255e-01 4.10911361326289e-03
8.19711538461538e-01 5.01244005831016e-01 4.08774633273544e-03
8.32826923076923e-01 4.94631975518571e-01 4.06596946753026e-03
8.45942307692308e-01 4.88107166093899e-01 4.04380694898790e-03
8.59057692307692e-01 4.81668426997755e-01 4.02128171756936e-03
8.72173076923077e-01 4.75314622855816e-01 3.99841576501125e-03
8.85288461538462e-01 4.69044633277763e-01 3.97523018507785e-03
8.98403846153846e-01 4.62857352638554e-01 3.95174521066544e-03
9.11519230769231e-01 4.56751689911317e-01 3.92798025366470e-03
9.24634615384615e-01 4.50726568448010e-01 3.90395394305538e-03
9.37750000000000e-01 4.44780925809531e-01 3.87968415546153e-03
9.50865384615385e-01 4.38913713577731e-01 3.85518805402388e-03
9.63980769230769e-01 4.33123897152202e-01 3.83048211644751e-03
9.77096153846154e-01 4.27410455586323e-01 3.80558216146182e-03
9.90211538461538e-01 4.21772381406640e-01 3.78050338235898e-03
1.00332692307692e+00 4.16208680418222e-01 3.75526037400203e-03
1.01644230769231e+00 4.10718371525250e-01 3.72986714114316e-03
1.02955769230769e+00 4.05300486642701e-01 3.70433714089436e-03
1.04267307692308e+00 3.99954070406331e-01 3.67868331934107e-03
1.05578846153846e+00 3.94678180006608e-01 3.65291808862881e-03
1.06890384615385e+00 3.89471885168691e-01 3.62705337999997e-03
1.08201923076923e+00 3.84334267793689e-01 3.60110065632672e-03
1.09513461538462e+00 3.79264421986817e-01 3.57507092854617e-03
1.10825000000000e+00 3.74261453712128e-01 3.54897477527823e-03
1.12136538461538e+00 3.69324480815998e-01 3.52282235764978e-03
1.13448076923077e+00 3.64452632694705e-01 3.49662343724898e-03
1.14759615384615e+00 3.59645050313630e-01 3.47038738952413e-03
1.16071153846154e+00 3.54900885887096e-01 3.44412322025220e-03
1.17382692307692e+00 3.50219302893632e-01 3.41783957767313e-03
1.18694230769231e+00 3.45599475767526e-01 3.39154476762886e-03
1.20005769230769e+00 3.41040589910474e-01 3.36524675811936e-03
1.21317307692308e+00 3.36541841430419e-01 3.33895321915112e-03
1.22628846153846e+00 3.32102437004993e-01 3.31267149414125e-03
1.23940384615385e+00 3.27721593847580e-01 3.28640863727444e-03
1.25251923076923e+00 3.23398539428231e-01 3.26017141886770e-03
1.26563461538462e+00 3.19132511475330e-01 3.23396633409618e-03
1.27875000000000e+00 3.14922757706368e-01 3.20779961440631e-03
1.29186538461538e+00 3.10768535827100e-01 3.18167723547566e-03
1.30498076923077e+00 3.06669113271769e-01 3.15560492779021e-03
1.31809615384615e+00 3.02623767199962e-01 3.12958818391499e-03
1.33121153846154e+00 2.98631784245889e-01 3.10363226831216e-03
1.34432692307692e+00 2.94692460513149e-01 3.07774222398992e-03
1.35744230769231e+00 2.90805101332690e-01 3.05192288162909e-03
1.37055769230769e+00 2.86969021255658e-01 3.02617886058935e-03
1.38367307692308e+00 2.83183543846302e-01 3.00051459780354e-03
1.39678846153846e+00 2.79448001566268e-01 2.97493432295652e-03
1.40990384615385e+00 2.75761735735168e-01 2.94944208570424e-03
1.42301923076923e+00 2.72124096310230e-01 2.92404175781479e-03
1.43613461538462e+00 2.68534441873656e-01 2.89873703809470e-03
1.44925000000000e+00 2.64992139419701e-01 2.87353145950762e-03
1.46236538461538e+00 2.61496564340752e-01 2.84842839370016e-03
1.47548076923077e+00 2.58047100221555e-01 2.82343105765578e-03
1.48859615384615e+00 2.54643138824138e-01 2.79854251785570e-03
1.50171153846154e+00 2.51284079888904e-01 2.77376569650525e-03
1.51482692307692e+00 2.47969331118517e-01 2.74910337536203e-03
1.52794230769231e+00 2.44698307985603e-01 2.72455820156793e-03
1.54105769230769e+00 2.41470433715704e-01 2.70013268714023e-03
1.55417307692308e+00 2.38285139121253e-01 2.67582923062945e-03
1.56728846153846e+00 2.35141862503733e-01 2.65165009623612e-03
1.58040384615385e+00 2.32040049613334e-01 2.62759743427109e-03
1.59351923076923e+00 2.28979153473080e-01 2.60367328176408e-03
1.60663461538462e+00 2.25958634358922e-01 2.57987956535092e-03
1.61975000000000e+00 2.22977959629585e-01 2.55621810593061e-03
1.63286538461538e+00 2.20036603706097e-01 2.53269062132829e-03
1.64598076923077e+00 2.17134047907150e-01 2.50929873067398e-03
1.65909615384615e+00 2.14269780428143e-01 2.48604395685916e-03
1.67221153846154e+00 2.11443296181853e-01 2.46292773065766e-03
1.68532692307692e+00 2.08654096777060e-01 2.43995139299221e-03
1.69844230769231e+00 2.05901690364331e-01 2.41711619881477e-03
1.71155769230769e+00 2.03185591614294e-01 2.39442331597850e-03
1.72467307692308e+00 2.00505321583453e-01 2.37187384182201e-03
1.73778846153846e+00 1.97860407631555e-01 2.34946878583185e-03
1.75090384615385e+00 1.95250383382803e-01 2.32720908533717e-03
1.76401923076923e+00 1.92674788584317e-01 2.30509560537746e-03
1.77713461538462e+00 1.90133169083105e-01 2.28312914042662e-03
1.79025000000000e+00 1.87625076688996e-01 2.26131041754244e-03
1.80336538461538e+00 1.85150069151471e-01 2.23964009795815e-03
1.81648076923077e+00 1.82707710026914e-01 2.21811878005627e-03
1.82959615384615e+00 1.80297568655344e-01 2.19674700083824e-03
1.84271153846154e+00 1.77919220031830e-01 2.17552523873380e-03
1.85582692307692e+00 1.75572244783170e-01 2.15445391495735e-03
1.86894230769231e+00 1.73256229043317e-01 2.13353339616343e-03
1.88205769230769e+00 1.70970764430045e-01 2.11276399311421e-03
1.89517307692308e+00 1.68715447935812e-01 2.09214597356506e-03
1.90828846153846e+00 1.66489881858040e-01 2.07167954795570e-03
1.92140384615385e+00 1.64293673763129e-01 2.05136488161816e-03
1.93451923076923e+00 1.62126436371810e-01 2.03120209429707e-03
1.94763461538462e+00 1.59987787535435e-01 2.01119126118029e-03
1.96075000000000e+00 1.57877350124862e-01 1.99133241507884e-03
1.97386538461538e+00 1.55794752006846e-01 1.97162554737702e-03
1.98698076923077e+00 1.53739625936349e-01 1.95207061009664e-03
2.00009615384615e+00 1.51711609533046e-01 1.93266751677253e-03
2.01321153846154e+00 1.49710345176948e-01 1.91341614440791e-03
2.02632692307692e+00 1.47735479985049e-01 1.89431633428022e-03
2.03944230769231e+00 1.45786665710144e-01 1.87536789379447e-03
2.05255769230769e+00 1.43863558717644e-01 1.85657059514189e-03
2.06567307692308e+00 1.41965819896393e-01 1.83792418541656e-03
2.07878846153846e+00 1.40093114599873e-01 1.81942837483547e-03
2.09190384615385e+00 1.38245112613564e-01 1.80108284633005e-03
2.10501923076923e+00 1.36421488061616e-01 1.78288725492150e-03
2.11813461538462e+00 1.34621919383832e-01 1.76484122832595e-03
2.13125000000000e+00 1.32846089245163e-01 1.74694436848754e-03
2.14436538461538e+00 1.31093684512921e-01 1.72919625213337e-03
2.15748076923077e+00 1.29364396169012e-01 1.71159643222837e-03
2.17059615384615e+00 1.27657919287391e-01 1.69414443848336e-03
2.18371153846154e+00 1.25973952948938e-01 1.67683977873577e-03
2.19682692307692e+00 1.24312200219174e-01 1.65968193941422e-03
2.20994230769231e+00 1.22672368065686e-01 1.64267038684938e-03
2.22305769230769e+00 1.21054167336116e-01 1.62580456601398e-03
2.23617307692308e+00 1.19457312684991e-01 1.60908390852713e-03
2.24928846153846e+00 1.17881522524160e-01 1.59250782296404e-03
2.26240384615385e+00 1.16326518993650e-01 1.57607570244890e-03
2.27551923076923e+00 1.14792027885375e-01 1.55978692399129e-03
2.28863461538462e+00 1.13277778621579e-01 1.54364084882483e-03
2.30175000000000e+00 1.11783504180814e-01 1.52763682349728e-03
2.31486538461538e+00 1.10308941076691e-01 1.51177418017773e-03
2.32798076923077e+00 1.08853829286050e-01 1.49605223769224e-03
2.34109615384615e+00 1.07417912228013e-01 1.48047030180137e-03
2.35421153846154e+00 1.06000936694290e-01 1.46502766618450e-03
2.36732692307692e+00 1.04602652828538e-01 1.44972361268954e-03
2.38044230769231e+00 1.03222814058725e-01 1.43455741226838e-03
2.39355769230769e+00 1.01861177076804e-01 1.41952832383543e-03
2.40667307692308e+00 1.00517501778493e-01 1.40463560063864e-03
2.41978846153846e+00 9.91915512215120e-02 1.38987848228783e-03
2.43290384615385e+00 9.78830915998413e-02 1.37525620080001e-03
2.44601923076923e+00 9.65918921811456e-02 1.36076797995192e-03
2.45913461538462e+00 9.53177252870540e-02 1.34641303545071e-03
2.47225000000000e+00 9.40603662324210e-02 1.33219057571412e-03
2.48536538461538e+00 9.28195933059306e-02 1.31809980202104e-03
2.49848076923077e+00 9.15951877111374e-02 1.30413990925352e-03
2.51159615384615e+00 9.03869335473948e-02 1.29031008602855e-03
2.52471153846154e+00 8.91946177526216e-02 1.27660951540342e-03
2.53782692307692e+00 8.80180300845541e-02 1.26303737499007e-03
2.55094230769231e+00 8.68569630651845e-02 1.24959283762610e-03
2.56405769230769e+00 8.57112119623361e-02 1.23627507036226e-03
2.57717307692308e+00 8.45805747399788e-02 1.22308323955750e-03
2.59028846153846e+00 8.34648520230426e-02 1.21001650431752e-03
2.60340384615385e+00 8.23638470748703e-02 1.19707402133061e-03
2.61651923076923e+00 8.12773657457444e-02 1.18425494426338e-03
2.62963461538462e+00 8.02052164551384e-02 1.17155842382530e-03
2.64275000000000e+00 7.91472101417374e-02 1.15898360832907e-03
2.65586538461538e+00 7.81031602460129e-02 1.14652964374253e-03
2.66898076923077e+00 7.70728826616920e-02 1.13419567422164e-03
2.68209615384615e+00 7.60561957186528e-02 1.12198084215057e-03
2.69521153846154e+00 7.50529201357989e-02 1.10988428864852e-03
2.70832692307692e+00 7.40628790042725e-02 1.09790515359895e-03
2.72144230769231e+00 7.30858977416917e-02 1.08604257613145e-03
2.73455769230769e+00 7.21218040756793e-02 1.07429569373615e-03
2.74767307692308e+00 7.11704280027788e-02 1.06266364635372e-03
2.76078846153846e+00 7.02316017588161e-02 1.05114557097079e-03
2.77390384615385e+00 6.93051597992718e-02 1.03974060550265e-03
2.78701923076923e+00 6.83909387568417e-02 1.02844788824416e-03
2.80013461538462e+00 6.74887774256483e-02 1.01726655786827e-03
2.81325000000000e+00 6.65985167200210e-02 1.00619575382850e-03
2.82636538461538e+00 6.57199996590161e-02 9.95234616349715e-04
2.83948076923077e+00 6.48530713263803e-02 9.84382286810710e-04
2.85259615384615e+00 6.39975788553757e-02 9.73637907727583e-04
2.86571153846154e+00 6.31533713898913e-02 9.63000623117713e-04
2.87882692307692e+00 6.23203000695691e-02 9.52469578476447e-04
2.89194230769231e+00 6.14982179920293e-02 9.42043921122965e-04
2.90505769230769e+00 6.06869801982936e-02 9.31722799432124e-04
2.91817307692308e+00 5.98864436387517e-02 9.21505366128308e-04
2.93128846153846e+00 5.90964671481991e-02 9.11390773829982e-04
2.94440384615385e+00 5.83169114288354e-02 9.01378178176644e-04
2.95751923076923e+00 5.75476390152009e-02 8.91466737338567e-04
2.97063461538462e+00 5.67885142602574e-02 8.81655611975268e-04
2.98375000000000e+00 5.60394033013244e-02 8.71943965523734e-04
2.99686538461538e+00 5.53001740464459e-02 8.62330964152319e-04
3.00998076923077e+00 5.45706961412964e-02 8.52815777034559e-04
3.02309615384615e+00 5.38508409558298e-02 8.43397576298776e-04
3.03621153846154e+00 5.31404815521263e-02 8.34075537288294e-04
3.04932692307692e+00 5.24394926713187e-02 8.24848838507032e-04
3.06244230769231e+00 5.17477507023535e-02 8.15716661866681e-04
3.07555769230769e+00 5.10651336691899e-02 8.06678192024728e-04
3.08867307692308e+00 5.03915212025626e-02 7.97732619043969e-04
3.10178846153846e+00 4.97267945189616e-02 7.88879134716254e-04
3.11490384615385e+00 4.90708364059605e-02 7.80116935087516e-04
3.12801923076923e+00 4.84235311931991e-02 7.71445220025030e-04
3.14113461538462e+00 4.77847647401944e-02 7.62863193152935e-04
3.15425000000000e+00 4.71544244081441e-02 7.54370062057362e-04
3.16736538461538e+00 4.65323990479984e-02 7.45965038219474e-04
3.18048076923077e+00 4.59185789730601e-02 7.37647337210189e-04
3.19359615384615e+00 4.53128559473120e-02 7.29416178620814e-04
3.20671153846154e+00 4.47151231587913e-02 7.21270786247777e-04
3.21982692307692e+00 4.41252752081680e-02 7.13210388021263e-04
3.23294230769231e+00 4.35432080828704e-02 7.05234216180431e-04
3.24605769230769e+00 4.29688191459113e-02 6.97341506705332e-04
3.25917307692308e+00 4.24020071124281e-02 6.89531501469183e-04
3.27228846153846e+00 4.18426720319844e-02 6.81803445202480e-04
3.28540384615385e+00 4.12907152759491e-02 6.74156587536363e-04
3.29851923076923e+00 4.07460395134455e-02 6.66590182623776e-04
3.31163461538462e+00 4.02085487007368e-02 6.59103489063336e-04
3.32475000000000e+00 3.96781480578508e-02 6.51695770043900e-04
3.33786538461538e+00 3.91547440581994e-02 6.44366293267125e-04
3.35098076923077e+00 3.86382444058593e-02 6.37114331084432e-04
3.36409615384615e+00 3.81285580254208e-02 6.29939160418629e-04
3.37721153846154e+00 3.76255950399060e-02 6.22840062893575e-04
3.39032692307692e+00 3.71292667608422e-02 6.15816324754839e-04
3.40344230769231e+00 3.66394856667998e-02 6.08867236992492e-04
3.41655769230769e+00 3.61561653936855e-02 6.01992094855224e-04
3.42967307692308e+00 3.56792207152305e-02 5.95190199595493e-04
3.44278846153846e+00 3.52085675280882e-02 5.88460855960189e-04
3.45590384615385e+00 3.47441228410070e-02 5.81803373847478e-04
3.46901923076923e+00 3.42858047548695e-02 5.75217067977251e-04
3.48213461538462e+00 3.38335324534892e-02 5.68701257810448e-04
3.49525000000000e+00 3.33872261842079e-02 5.62255267649415e-04
3.50836538461538e+00 3.29468072488995e-02 5.55878426556933e-04
3.52148076923077e+00 3.25121979851092e-02 5.49570068451027e-04
3.53459615384615e+00 3.20833217572604e-02 5.43329532023769e-04
3.54771153846154e+00 3.16601029383204e-02 5.37156160830836e-04
3.56082692307692e+00 3.12424669012064e-02 5.31049303210170e-04
3.57394230769231e+00 3.08303400009621e-02 5.25008312366469e-04
3.58705769230769e+00 3.04236495663588e-02 5.19032545956603e-04
3.60017307692308e+00 3.00223238836501e-02 5.13121367507031e-04
3.61328846153846e+00 2.96262921840261e-02 5.07274144338032e-04
3.62640384615385e+00 2.92354846343436e-02 5.01490248909390e-04
3.63951923076923e+00 2.88498323205420e-02 4.95769058534966e-04
3.65263461538462e+00 2.84692672396914e-02 4.90109955302218e-04
3.66575000000000e+00 2.80937222838697e-02 4.84512326140317e-04
3.67886538461538e+00 2.77231312323936e-02 4.78975562739919e-04
3.69198076923077e+00 2.73574287361433e-02 4.73499061617322e-04
3.70509615384615e+00 2.69965503099723e-02 4.68082224034498e-04
3.71821153846154e+00 2.66404323174674e-02 4.62724456059365e-04
3.73132692307692e+00 2.62890119635332e-02 4.57425168486258e-04
3.74444230769231e+00 2.59422272795754e-02 4.52183776892529e-04
3.75755769230769e+00 2.56000171162566e-02 4.46999701285404e-04
3.77067307692308e+00 2.52623211299581e-02 4.41872367255001e-04
3.78378846153846e+00 2.49290797722197e-02 4.36801204255820e-04
3.79690384615385e+00 2.46002342818170e-02 4.31785646701296e-04
3.81001923076923e+00 2.42757266709692e-02 4.26825133717493e-04
3.82313461538462e+00 2.39554997184887e-02 4.21919109065675e-04
3.83625000000000e+00 2.36394969563707e-02 4.17067021187049e-04
3.84936538461538e+00 2.33276626631025e-02 4.12268323125946e-04
3.86248076923077e+00 2.30199418506243e-02 4.07522472571675e-04
3.87559615384615e+00 2.27162802577944e-02 4.02828931782291e-04
3.88871153846154e+00 2.24166243377105e-02 3.98187167623678e-04
3.90182692307692e+00 2.21209212513281e-02 3.93596651493995e-04
3.91494230769231e+00 2.18291188551317e-02 3.89056859360127e-04
3.92805769230769e+00 2.15411656949031e-02 3.84567271457282e-04
3.94117307692308e+00 2.12570109944318e-02 3.80127373228134e-04
3.95428846153846e+00 2.09766046466246e-02 3.75736653899084e-04
3.96740384615385e+00 2.06998972067464e-02 3.71394607371677e-04
3.98051923076923e+00 2.04268398809384e-02 3.67100732010657e-04
3.99363461538462e+00 2.01573845203325e-02 3.62854530571280e-04
4.00675000000000e+00 1.98914836098863e-02 3.58655510227195e-04
4.01986538461538e+00 1.96290902626360e-02 3.54503182498562e-04
4.03298076923077e+00 1.93701582088395e-02 3.50397063277836e-04
4.04609615384615e+00 1.91146417903652e-02 3.46336672758665e-04
4.05921153846154e+00 1.88624959501338e-02 3.42321535459722e-04
4.07232692307692e+00 1.86136762266399e-02 3.38351180154426e-04
4.08544230769231e+00 1.83681387436849e-02 3.34425139892865e-04
4.09855769230769e+00 1.81258402050283e-02 3.30542951746582e-04
4.11167307692308e+00 1.78867378849662e-02 3.26704157574389e-04
4.12478846153846e+00 1.76507896208484e-02 3.22908302841990e-04
4.13790384615385e+00 1.74179538073180e-02 3.19154937348828e-04
