Energy (eV)          EEDF (eV^-(3/2))     First Anisotropy
2.05405405405405e-02 1.21546043713352e-01 7.47349531051022e-05
6.16216216216216e-02 1.20417329433875e-01 1.23249986266884e-04
1.02702702702703e-01 1.19299096745509e-01 1.62284164510098e-04
1.43783783783784e-01 1.18191248315481e-01 1.91684488483406e-04
1.84864864864865e-01 1.17093687709824e-01 2.15995217861648e-04
2.25945945945946e-01 1.16006319392576e-01 2.36940640518102e-04
2.67027027027027e-01 1.14929048714964e-01 2.55416116638537e-04
3.08108108108108e-01 1.13861781903496e-01 2.71964122626735e-04
3.49189189189189e-01 1.12804426063367e-01 2.86945615714478e-04
3.90270270270270e-01 1.11756889158083e-01 3.00616539945618e-04
4.31351351351351e-01 1.10719080005877e-01 3.13166966540864e-04
4.72432432432432e-01 1.09690908271748e-01 3.24743115051817e-04
5.13513513513513e-01 1.08672284459594e-01 3.35460647002858e-04
5.54594594594595e-01 1.07663119904401e-01 3.45413141187753e-04
5.95675675675676e-01 1.06663326764543e-01 3.54677738037087e-04
6.36756756756757e-01 1.05672818014133e-01 3.63319035469473e-04
6.77837837837838e-01 1.04691507435433e-01 3.71391859415858e-04
7.18918918918919e-01 1.03719309611354e-01 3.78943284677679e-04
7.60000000000000e-01 1.02756139918019e-01 3.86014141605287e-04
8.01081081081081e-01 1.01801914516188e-01 3.92640160395194e-04
8.42162162162162e-01 1.00856550347672e-01 3.98852855675103e-04
8.83243243243243e-01 9.99199651242949e-02 4.04680220125030e-04
9.24324324324324e-01 9.89920773220351e-02 4.10147274953951e-04
9.65405405405405e-01 9.80728061739305e-02 4.15276512881227e-04
1.00648648648649e+00 9.71620716630471e-02 4.20088258293237e-04
1.04756756756757e+00 9.62597945128258e-02 4.24600961453385e-04
1.08864864864865e+00 9.53658961892558e-02 4.28831443756633e-04
1.12972972972973e+00 9.44802988838560e-02 4.32795102329447e-04
1.17081081081081e+00 9.36029255106991e-02 4.36506080339284e-04
1.21189189189189e+00 9.27336996996931e-02 4.39977412609137e-04
1.25297297297297e+00 9.18725457899850e-02 4.43221149318199e-04
1.29405405405405e+00 9.10193888233380e-02 4.46248462024541e-04
1.33513513513514e+00 9.01741545376062e-02 4.49069735832335e-04
1.37621621621622e+00 8.93367693541730e-02 4.51694646081830e-04
1.41729729729730e+00 8.85071603901553e-02 4.54132228900096e-04
1.45837837837838e+00 8.76852554331105e-02 4.56390943092758e-04
1.49945945945946e+00 8.68709829411882e-02 4.58478720500428e-04
1.54054054054054e+00 8.60642720369021e-02 4.60403013482666e-04
1.58162162162162e+00 8.52650525009385e-02 4.62170836170931e-04
1.62270270270270e+00 8.44732547660899e-02 4.63788801110057e-04
1.66378378378378e+00 8.36888099111740e-02 4.65263151914263e-04
1.70486486486486e+00 8.29116496550350e-02 4.66599793108422e-04
1.74594594594595e+00 8.21417063461882e-02 4.67804314297067e-04
1.78702702702703e+00 8.13789129703641e-02 4.68882015046905e-04
1.82810810810811e+00 8.06232031310323e-02 4.69837927458956e-04
1.86918918918919e+00 7.98745110482439e-02 4.70676833289018e-04
1.91027027027027e+00 7.91327715529049e-02 4.71403282028138e-04
1.95135135135135e+00 7.83979200810940e-02 4.72021606692020e-04
1.99243243243243e+00 7.76698926684601e-02 4.72535938199245e-04
2.03351351351351e+00 7.69486259446498e-02 4.72950218495427e-04
2.07459459459459e+00 7.62340571277877e-02 4.73268213100674e-04
2.11567567567568e+00 7.55261240156691e-02 4.73493520433298e-04
2.15675675675676e+00 7.48247649905101e-02 4.73629583026553e-04
2.19783783783784e+00 7.41299190032769e-02 4.73679697940934e-04
2.23891891891892e+00 7.34415255718577e-02 4.73647023596531e-04
2.28000000000000e+00 7.27595247757974e-02 4.73534588243599e-04
2.32108108108108e+00 7.20838572510778e-02 4.73345297256001e-04
2.36216216216216e+00 7.14144641849550e-02 4.73081939883229e-04
2.40324324324324e+00 7.07512873108439e-02 4.72747195514056e-04
2.44432432432432e+00 7.00942689032417e-02 4.72343639492376e-04
2.48540540540541e+00 6.94433517727034e-02 4.71873748981481e-04
2.52648648648649e+00 6.87984792583228e-02 4.71339906613652e-04
2.56756756756757e+00 6.81595952305176e-02 4.70744406119139e-04
2.60864864864865e+00 6.75266440783286e-02 4.70089457650449e-04
2.64972972972973e+00 6.68995707072178e-02 4.69377190454118e-04
2.69081081081081e+00 6.62783205342716e-02 4.68609657186009e-04
2.73189189189189e+00 6.56628394834485e-02 4.67788837502820e-04
2.77297297297297e+00 6.50530739808788e-02 4.66916641433019e-04
2.81405405405405e+00 6.44489709501968e-02 4.65994912543042e-04
2.85513513513513e+00 6.38504778079213e-02 4.65025431304385e-04
2.89621621621622e+00 6.32575424568402e-02 4.64009916702878e-04
2.93729729729730e+00 6.26701132876601e-02 4.62950029676214e-04
2.97837837837838e+00 6.20881391682563e-02 4.61847376407914e-04
3.01945945945946e+00 6.15115694413336e-02 4.60703509449024e-04
3.06054054054054e+00 6.09403539200166e-02 4.59519930346464e-04
3.10162162162162e+00 6.03744428834775e-02 4.58298091735844e-04
3.14270270270270e+00 5.98137870726159e-02 4.57039399323141e-04
3.18378378378378e+00 5.92583376857671e-02 4.55745213762856e-04
3.22486486486486e+00 5.87080463744543e-02 4.54416852775761e-04
3.26594594594595e+00 5.81628652375189e-02 4.53055591805229e-04
3.30702702702703e+00 5.76227468219890e-02 4.51662666310862e-04
3.34810810810811e+00 5.70876441138544e-02 4.50239273989022e-04
3.38918918918919e+00 5.65575105356922e-02 4.48786575158779e-04
3.43027027027027e+00 5.60322999426118e-02 4.47305694493403e-04
3.47135135135135e+00 5.55119666182369e-02 4.45797722328137e-04
3.51243243243243e+00 5.49964652707294e-02 4.44263715906205e-04
3.55351351351351e+00 5.44857510288463e-02 4.42704700567570e-04
3.59459459459459e+00 5.39797794380331e-02 4.41121671178268e-04
3.63567567567568e+00 5.34785064551825e-02 4.39515592313434e-04
3.67675675675676e+00 5.29818884489597e-02 4.37887399892874e-04
3.71783783783784e+00 5.24898821918008e-02 4.36238002777332e-04
3.75891891891892e+00 5.20024448575669e-02 4.34568282788353e-04
3.80000000000000e+00 5.15195340178161e-02 4.32879095920459e-04
3.84108108108108e+00 5.10411076381093e-02 4.31171273203711e-04
3.88216216216216e+00 5.05671240743525e-02 4.29445621529375e-04
3.92324324324324e+00 5.00975420691732e-02 4.27702924441775e-04
3.96432432432432e+00 4.96323207483277e-02 4.25943942897086e-04
4.00540540540540e+00 4.91714196171433e-02 4.24169416246147e-04
4.04648648648649e+00 4.87147985558730e-02 4.22380062158490e-04
4.08756756756757e+00 4.82624178195993e-02 4.20576577811880e-04
4.12864864864865e+00 4.78142380313435e-02 4.18759641061447e-04
4.16972972972973e+00 4.73702201797943e-02 4.16929910262522e-04
4.21081081081081e+00 4.69303256159108e-02 4.15088025131843e-04
4.25189189189189e+00 4.64945160495589e-02 4.13234607317871e-04
4.29297297297297e+00 4.60627535461797e-02 4.11370260950209e-04
4.33405405405405e+00 4.56350005234868e-02 4.09495573168577e-04
4.37513513513513e+00 4.52112197481944e-02 4.07611114856401e-04
4.41621621621622e+00 4.47913743318328e-02 4.05717440449610e-04
4.45729729729730e+00 4.43754277303971e-02 4.03815088866026e-04
4.49837837837838e+00 4.39633437382783e-02 4.01904584423374e-04
4.53945945945946e+00 4.35550864860840e-02 3.99986436577990e-04
4.58054054054054e+00 4.31506204375159e-02 3.98061140583379e-04
4.62162162162162e+00 4.27499103862762e-02 3.96129177897630e-04
4.66270270270270e+00 4.23529214530047e-02 3.94191016577180e-04
4.70378378378378e+00 4.19596190822421e-02 3.92247111657686e-04
4.74486486486486e+00 4.15699690394219e-02 3.90297905719718e-04
4.78594594594595e+00 4.11839374070891e-02 3.88343828641858e-04
4.82702702702703e+00 4.08014905843749e-02 3.86385298347234e-04
4.86810810810811e+00 4.04225952816215e-02 3.84422721543970e-04
4.90918918918919e+00 4.00472185183094e-02 3.82456493427450e-04
4.95027027027027e+00 3.96753276201866e-02 3.80486998198015e-04
4.99135135135135e+00 3.93068902164236e-02 3.78514609360335e-04
5.03243243243243e+00 3.89418742367972e-02 3.76539690013296e-04
5.07351351351351e+00 3.85802479088984e-02 3.74562593131137e-04
5.11459459459459e+00 3.82219797553670e-02 3.72583662011418e-04
5.15567567567567e+00 3.78670385904672e-02 3.70603230005199e-04
5.19675675675676e+00 3.75153935194444e-02 3.68621621129738e-04
5.23783783783784e+00 3.71670139337453e-02 3.66639150678089e-04
5.27891891891892e+00 3.68218695090575e-02 3.64656124911087e-04
5.32000000000000e+00 3.64799302026693e-02 3.62672841473592e-04
5.36108108108108e+00 3.61411662508550e-02 3.60689589619424e-04
5.40216216216216e+00 3.58055481662839e-02 3.58706650429486e-04
5.44324324324324e+00 3.54730467354544e-02 3.56724297023736e-04
5.48432432432432e+00 3.51436330161505e-02 3.54742794766773e-04
5.52540540540541e+00 3.48172783349230e-02 3.52762401621451e-04
5.56648648648649e+00 3.44939542840165e-02 3.50783367875760e-04
5.60756756756757e+00 3.41736327206421e-02 3.48805936643873e-04
5.64864864864865e+00 3.38562857627668e-02 3.46830344366103e-04
5.68972972972973e+00 3.35418857872787e-02 3.44856820506887e-04
5.73081081081081e+00 3.32304054275828e-02 3.42885587888040e-04
5.77189189189189e+00 3.29218175712186e-02 3.40916862855807e-04
5.81297297297297e+00 3.26160953575006e-02 3.38950855443522e-04
5.85405405405405e+00 3.23132121751802e-02 3.36987769529862e-04
5.89513513513513e+00 3.20131416601291e-02 3.35027803129790e-04
5.93621621621622e+00 3.17158576925476e-02 3.33071148128331e-04
5.97729729729730e+00 3.14213343961952e-02 3.31117990704583e-04
6.01837837837838e+00 3.11295461346202e-02 3.29168511755749e-04
6.05945945945946e+00 3.08404675094394e-02 3.27222886607834e-04
6.10054054054054e+00 3.05540733581267e-02 3.25281285292856e-04
6.14162162162162e+00 3.02703387518226e-02 3.23343872678703e-04
6.18270270270270e+00 2.99892389931653e-02 3.21410808595770e-04
6.22378378378378e+00 2.97107496141405e-02 3.19482247960509e-04
6.26486486486486e+00 2.94348463739513e-02 3.17558341017972e-04
6.30594594594595e+00 2.91615052564785e-02 3.15639233087850e-04
6.34702702702703e+00 2.88907024694913e-02 3.13725064926925e-04
6.38810810810811e+00 2.86224144412639e-02 3.11815973092186e-04
6.42918918918919e+00 2.83566178189645e-02 3.09912089668071e-04
6.47027027027027e+00 2.80932894666231e-02 3.08013542499613e-04
6.51135135135135e+00 2.78324064631173e-02 3.06120455294717e-04
6.55243243243243e+00 2.75739461001776e-02 3.04232947723955e-04
6.59351351351351e+00 2.73178858804106e-02 3.02351135518087e-04
6.63459459459459e+00 2.70642035153407e-02 3.00475130672448e-04
6.67567567567568e+00 2.68128769230966e-02 2.98605041207991e-04
6.71675675675676e+00 2.65638842276193e-02 2.96740971483656e-04
6.75783783783784e+00 2.63172037556180e-02 2.94883022509685e-04
6.79891891891892e+00 2.60728140350666e-02 2.93031291693097e-04
6.84000000000000e+00 2.58306937933352e-02 2.91185873035617e-04
6.88108108108108e+00 2.55908219553379e-02 2.89346857215066e-04
6.92216216216216e+00 2.53531776416987e-02 2.87514331664809e-04
6.96324324324324e+00 2.51177401669339e-02 2.85688380651385e-04
7.00432432432432e+00 2.48844890376519e-02 2.83869085350202e-04
7.04540540540540e+00 2.46534039507691e-02 2.82056524016202e-04
7.08648648648649e+00 2.44244647914223e-02 2.80250771763158e-04
7.12756756756757e+00 2.41976516321869e-02 2.78451900830198e-04
7.16864864864865e+00 2.39729447303651e-02 2.76659980849671e-04
7.20972972972973e+00 2.37503245265960e-02 2.74875078613583e-04
7.25081081081081e+00 2.35297716431528e-02 2.73097258239935e-04
7.29189189189189e+00 2.33112668822563e-02 2.71326581236427e-04
7.33297297297297e+00 2.30947912244040e-02 2.69563106562800e-04
7.37405405405405e+00 2.28803258267145e-02 2.67806890691765e-04
7.41513513513513e+00 2.26678520212872e-02 2.66057987755197e-04
7.45621621621622e+00 2.24573513132976e-02 2.64316449339738e-04
7.49729729729730e+00 2.22488053802340e-02 2.62582324719336e-04
7.53837837837838e+00 2.20421960694490e-02 2.60855661089183e-04
7.57945945945946e+00 2.18375053968662e-02 2.59136503350370e-04
7.62054054054054e+00 2.16347155454151e-02 2.57424894253236e-04
7.66162162162162e+00 2.14338088634798e-02 2.55720874448812e-04
7.70270270270270e+00 2.12347678633629e-02 2.54024482539200e-04
7.74378378378378e+00 2.10375752197634e-02 2.52335755126936e-04
7.78486486486486e+00 2.08422137682683e-02 2.50654726940987e-04
7.82594594594595e+00 2.06486665036133e-02 2.48981430648179e-04
7.86702702702703e+00 2.04569165789450e-02 2.47315897057018e-04
7.90810810810811e+00 2.02669473036056e-02 2.45658155322908e-04
7.94918918918919e+00 2.00787421419322e-02 2.44008232750229e-04
7.99027027027027e+00 1.98922847118171e-02 2.42366154916434e-04
8.03135135135135e+00 1.97075587832819e-02 2.40731945713882e-04
8.07243243243243e+00 1.95245482770648e-02 2.39105627390820e-04
8.11351351351351e+00 1.93432372632211e-02 2.37487220591461e-04
8.15459459459459e+00 1.91636099597368e-02 2.35876744465179e-04
8.19567567567568e+00 1.89856507309388e-02 2.34274216493133e-04
8.23675675675676e+00 1.88093440867859e-02 2.32679652667474e-04
8.27783783783784e+00 1.86346746808638e-02 2.31093067672023e-04
8.31891891891892e+00 1.84616273092695e-02 2.29514474700788e-04
8.36000000000000e+00 1.82901869092881e-02 2.27943885565925e-04
8.40108108108108e+00 1.81203385580820e-02 2.26381310731884e-04
8.44216216216216e+00 1.79520674713916e-02 2.24826759348805e-04
8.48324324324324e+00 1.77853590022484e-02 2.23280239285287e-04
8.52432432432432e+00 1.76201986397005e-02 2.21741757160388e-04
8.56540540540541e+00 1.74565720075491e-02 2.20211318437107e-04
8.60648648648649e+00 1.72944648629104e-02 2.18688927264943e-04
8.64756756756757e+00 1.71338630955410e-02 2.17174586635796e-04
8.68864864864865e+00 1.69747527260397e-02 2.15668298541247e-04
8.72972972972973e+00 1.68171199048226e-02 2.14170063808182e-04
8.77081081081081e+00 1.66609509109173e-02 2.12679882191604e-04
8.81189189189189e+00 1.65062321507685e-02 2.11197752401974e-04
8.85297297297297e+00 1.63529501570549e-02 2.09723672131999e-04
8.89405405405405e+00 1.62010915875171e-02 2.08257638082903e-04
8.93513513513513e+00 1.60506432237960e-02 2.06799646046053e-04
8.97621621621622e+00 1.59015919701177e-02 2.05349690758743e-04
9.01729729729730e+00 1.57539248526514e-02 2.03907766042170e-04
9.05837837837838e+00 1.56076290178781e-02 2.02473864940679e-04
9.09945945945946e+00 1.54626917316408e-02 2.01047979571479e-04
9.14054054054054e+00 1.53191003780357e-02 1.99630101206007e-04
9.18162162162162e+00 1.51768424583142e-02 1.98220220292345e-04
9.22270270270270e+00 1.50359055897950e-02 1.96818326477179e-04
9.26378378378378e+00 1.48962775047862e-02 1.95424408627398e-04
9.30486486486486e+00 1.47579460495177e-02 1.94038454901621e-04
9.34594594594595e+00 1.46208991829374e-02 1.92660452618230e-04
9.38702702702703e+00 1.44851249761034e-02 1.91290388377708e-04
9.42810810810811e+00 1.43506116107017e-02 1.89928248186253e-04
9.46918918918919e+00 1.42173473781673e-02 1.88574017318491e-04
9.51027027027027e+00 1.40853206786642e-02 1.87227680388932e-04
9.55135135135135e+00 1.39545200200762e-02 1.85889221370433e-04
9.59243243243243e+00 1.38249340170066e-02 1.84558623612227e-04
9.63351351351351e+00 1.36965513897868e-02 1.83235869857664e-04
9.67459459459459e+00 1.35693609634950e-02 1.81920942307070e-04
9.71567567567567e+00 1.34433516668544e-02 1.80613822497072e-04
9.75675675675676e+00 1.33185125316586e-02 1.79314491409347e-04
9.79783783783784e+00 1.31948326914249e-02 1.78022929580509e-04
9.83891891891892e+00 1.30723013805803e-02 1.76739116976768e-04
9.88000000000000e+00 1.29509079335239e-02 1.75463033056869e-04
9.92108108108108e+00 1.28306417836994e-02 1.74194656787271e-04
9.96216216216216e+00 1.27114924626742e-02 1.72933966657000e-04
1.00032432432432e+01 1.25934495992293e-02 1.71680940775503e-04
1.00443243243243e+01 1.24765029182246e-02 1.70435556717710e-04
1.00854054054054e+01 1.23606422401755e-02 1.69197791132502e-04
1.01264864864865e+01 1.22458574812514e-02 1.67967621156072e-04
1.01675675675676e+01 1.21321386490012e-02 1.66745023516619e-04
1.02086486486486e+01 1.20194758449047e-02 1.65529973711466e-04
1.02497297297297e+01 1.19078592623615e-02 1.64322447278267e-04
1.02908108108108e+01 1.17972791858387e-02 1.63122419384753e-04
1.03318918918919e+01 1.16877259900250e-02 1.61929864461480e-04
1.03729729729730e+01 1.15791901400313e-02 1.60744757361357e-04
1.04140540540541e+01 1.14716621874225e-02 1.59567072603547e-04
1.04551351351351e+01 1.13651327725556e-02 1.58396783603192e-04
1.04962162162162e+01 1.12595926227035e-02 1.57233863858946e-04
1.05372972972973e+01 1.11550325512494e-02 1.56078286210272e-04
1.05783783783784e+01 1.10514434578576e-02 1.54930023932712e-04
1.06194594594595e+01 1.09488163247458e-02 1.53789050022744e-04
1.06605405405405e+01 1.08471422188574e-02 1.52655336469838e-04
1.07016216216216e+01 1.07464122900894e-02 1.51528855377638e-04
1.07427027027027e+01 1.06466177705247e-02 1.50409578261417e-04
1.07837837837838e+01 1.05477499745770e-02 1.49297477082884e-04
1.08248648648649e+01 1.04498002954876e-02 1.48192523573815e-04
1.08659459459459e+01 1.03527602073429e-02 1.47094688547524e-04
1.09070270270270e+01 1.02566212634027e-02 1.46003942958148e-04
1.09481081081081e+01 1.01613750953665e-02 1.44920257236029e-04
1.09891891891892e+01 1.00670134134957e-02 1.43843602265068e-04
1.10302702702703e+01 9.97352800332007e-03 1.42773948743294e-04
1.10713513513513e+01 9.88091072751280e-03 1.41711266531434e-04
1.11124324324324e+01 9.78915352431253e-03 1.40655525653931e-04
1.11535135135135e+01 9.69824840682168e-03 1.39606695973233e-04
1.11945945945946e+01 9.60818746231189e-03 1.38564746897700e-04
1.12356756756757e+01 9.51896285232266e-03 1.37529648295400e-04
1.12767567567568e+01 9.43056680959867e-03 1.36501369895132e-04
1.13178378378378e+01 9.34299163981088e-03 1.35479880676463e-04
1.13589189189189e+01 9.25622972008158e-03 1.34465149805537e-04
1.14000000000000e+01 9.17027349832205e-03 1.33457146046492e-04
1.14410810810811e+01 9.08511549331278e-03 1.32455838625361e-04
1.14821621621622e+01 9.00074829182191e-03 1.31461196663224e-04
1.15232432432432e+01 8.91716455020615e-03 1.30473188599151e-04
1.15643243243243e+01 8.83435699301689e-03 1.29491783074711e-04
1.16054054054054e+01 8.75231841236803e-03 1.28516948376894e-04
1.16464864864865e+01 8.67104166800010e-03 1.27548653254726e-04
1.16875675675676e+01 8.59051968456822e-03 1.26586866382959e-04
1.17286486486486e+01 8.51074545313147e-03 1.25631555815910e-04
1.17697297297297e+01 8.43171202983569e-03 1.24682689823782e-04
1.18108108108108e+01 8.35341253530956e-03 1.23740236619121e-04
1.18518918918919e+01 8.27584015406592e-03 1.22804164111200e-04
1.18929729729730e+01 8.19898813454943e-03 1.21874440669882e-04
1.19340540540541e+01 8.12284978661195e-03 1.20951034623154e-04
1.19751351351351e+01 8.04741848288061e-03 1.20033913745292e-04
1.20162162162162e+01 7.97268765752611e-03 1.19123046039405e-04
1.20572972972973e+01 7.89865080569182e-03 1.18218399243588e-04
1.20983783783784e+01 7.82530148352850e-03 1.17319941553439e-04
1.21394594594595e+01 7.75263330581678e-03 1.16427641146323e-04
1.21805405405405e+01 7.68063994724079e-03 1.15541465697068e-04
1.22216216216216e+01 7.60931514122288e-03 1.14661383117834e-04
1.22627027027027e+01 7.53865267937932e-03 1.13787361090498e-04
1.23037837837838e+01 7.46864641154343e-03 1.12919367750159e-04
1.23448648648649e+01 7.39929024352597e-03 1.12057371234703e-04
1.23859459459459e+01 7.33057813830097e-03 1.11201339226257e-04
1.24270270270270e+01 7.26250411490376e-03 1.10351239651115e-04
1.24681081081081e+01 7.19506224791092e-03 1.09507040236903e-04
1.25091891891892e+01 7.12824666745389e-03 1.08668709158988e-04
1.25502702702703e+01 7.06205155710847e-03 1.07836214614187e-04
1.25913513513514e+01 6.99647115499918e-03 1.07009524386475e-04
1.26324324324324e+01 6.93149975275685e-03 1.06188606509240e-04
1.26735135135135e+01 6.86713169502188e-03 1.05373429047249e-04
1.27145945945946e+01 6.80336137895235e-03 1.04563959900634e-04
1.27556756756757e+01 6.74018325422723e-03 1.03760167410147e-04
1.27967567567568e+01 6.67759182107931e-03 1.02962019957370e-04
1.28378378378378e+01 6.61558163131078e-03 1.02169485557626e-04
1.28789189189189e+01 6.55414728731715e-03 1.01382532479965e-04
1.29200000000000e+01 6.49328344161811e-03 1.00601128854146e-04
1.29610810810811e+01 6.43298479685292e-03 9.98252432434733e-05
