Energy (eV)          EEDF (eV^-(3/2))     First Anisotropy
3.07142857142857e-03 1.73596061441354e+00 9.87243127069769e-04
9.21428571428571e-03 1.72176823301028e+00 1.62903154906346e-03
1.53571428571429e-02 1.70769188167405e+00 2.14736276825838e-03
2.15000000000000e-02 1.69373061187643e+00 2.53923505137443e-03
2.76428571428571e-02 1.67988348268825e+00 2.86448616589312e-03
3.37857142857143e-02 1.66614956101137e+00 3.14578335602948e-03
3.99285714285714e-02 1.65252792126831e+00 3.39487828503342e-03
4.60714285714286e-02 1.63901764553616e+00 3.61888002269878e-03
5.22142857142857e-02 1.62561782334905e+00 3.82251168599714e-03
5.83571428571429e-02 1.61232755166763e+00 4.00911726345481e-03
6.45000000000000e-02 1.59914593488251e+00 4.18117641509660e-03
7.06428571428571e-02 1.58607208466309e+00 4.34059391968660e-03
7.67857142857143e-02 1.57310511998079e+00 4.48887430521404e-03
8.29285714285714e-02 1.56024416697344e+00 4.62723311845846e-03
8.90714285714286e-02 1.54748835895679e+00 4.75667098219679e-03
9.52142857142857e-02 1.53483683631417e+00 4.87802468702295e-03
1.01357142857143e-01 1.52228874644577e+00 4.99200348773460e-03
1.07500000000000e-01 1.50984324379095e+00 5.09921559785146e-03
1.13642857142857e-01 1.49749948950191e+00 5.20018787246500e-03
1.19785714285714e-01 1.48525665184587e+00 5.29538079232351e-03
1.25928571428571e-01 1.47311390577474e+00 5.38520005921882e-03
1.32071428571429e-01 1.46107043298593e+00 5.47000561805672e-03
1.38214285714286e-01 1.44912542186633e+00 5.55011886075814e-03
1.44357142857143e-01 1.43727806743939e+00 5.62582840493094e-03
1.50500000000000e-01 1.42552757130979e+00 5.69739479515433e-03
1.56642857142857e-01 1.41387314153691e+00 5.76505432451097e-03
1.62785714285714e-01 1.40231399280417e+00 5.82902223536442e-03
1.68928571428571e-01 1.39084934613840e+00 5.88949539137949e-03
1.75071428571429e-01 1.37947842893510e+00 5.94665448112869e-03
1.81214285714286e-01 1.36820047490584e+00 6.00066591401819e-03
1.87357142857143e-01 1.35701472402761e+00 6.05168342687233e-03
1.93500000000000e-01 1.34592042249104e+00 6.09984946716898e-03
1.99642857142857e-01 1.33491682259596e+00 6.14529635623726e-03
2.05785714285714e-01 1.32400318286478e+00 6.18814732973465e-03
2.11928571428571e-01 1.31317876782571e+00 6.22851744442005e-03
2.18071428571429e-01 1.30244284801990e+00 6.26651433536201e-03
2.24214285714286e-01 1.29179469995196e+00 6.30223890736053e-03
2.30357142857143e-01 1.28123360604181e+00 6.33578593746447e-03
2.36500000000000e-01 1.27075885457599e+00 6.36724461393363e-03
2.42642857142857e-01 1.26036973961811e+00 6.39669899042693e-03
2.48785714285714e-01 1.25006556108799e+00 6.42422841951047e-03
2.54928571428571e-01 1.23984562458571e+00 6.44990794115972e-03
2.61071428571429e-01 1.22970924138848e+00 6.47380860059137e-03
2.67214285714286e-01 1.21965572840400e+00 6.49599775731264e-03
2.73357142857143e-01 1.20968440812485e+00 6.51653935782261e-03
2.79500000000000e-01 1.19979460858260e+00 6.53549418731609e-03
2.85642857142857e-01 1.18998566326921e+00 6.55292007661201e-03
2.91785714285714e-01 1.18025691119347e+00 6.56887211552582e-03
2.97928571428571e-01 1.17060769673365e+00 6.58340284796180e-03
3.04071428571429e-01 1.16103736962805e+00 6.59656242334233e-03
3.10214285714286e-01 1.15154528493112e+00 6.60839875559698e-03
3.16357142857143e-01 1.14213080297023e+00 6.61895766364865e-03
3.22500000000000e-01 1.13279328930241e+00 6.62828300498862e-03
3.28642857142857e-01 1.12353211464431e+00 6.63641677989928e-03
3.34785714285714e-01 1.11434665491273e+00 6.64339925001260e-03
3.40928571428571e-01 1.10523629109853e+00 6.64926904839355e-03
3.47071428571429e-01 1.09620040925331e+00 6.65406325784806e-03
3.53214285714286e-01 1.08723840044792e+00 6.65781750166388e-03
3.59357142857143e-01 1.07834966073164e+00 6.66056602317483e-03
3.65500000000000e-01 1.06953359109138e+00 6.66234176376612e-03
3.71642857142857e-01 1.06078959738851e+00 6.66317641888577e-03
3.77785714285714e-01 1.05211709038801e+00 6.66310051033139e-03
3.83928571428571e-01 1.04351548564871e+00 6.66214345420794e-03
3.90071428571429e-01 1.03498420350757e+00 6.66033360351081e-03
3.96214285714286e-01 1.02652266904054e+00 6.65769830424248e-03
4.02357142857143e-01 1.01813031202395e+00 6.65426394385429e-03
4.08500000000000e-01 1.00980656689602e+00 6.65005600032924e-03
4.14642857142857e-01 1.00155087269946e+00 6.64509907345273e-03
4.20785714285714e-01 9.93362673102146e-01 6.63941693224809e-03
4.26928571428571e-01 9.85241416300463e-01 6.63303256002905e-03
4.33071428571429e-01 9.77186555002100e-01 6.62596817811388e-03
4.39214285714286e-01 9.69197546389094e-01 6.61824528282202e-03
4.45357142857143e-01 9.61273852081365e-01 6.60988467669689e-03
4.51500000000000e-01 9.53414938100372e-01 6.60090650129774e-03
4.57642857142857e-01 9.45620274816670e-01 6.59133025489559e-03
4.63785714285714e-01 9.37889336964140e-01 6.58117482550128e-03
4.69928571428571e-01 9.30221603554117e-01 6.57045852250615e-03
4.76071428571429e-01 9.22616557857291e-01 6.55919908983050e-03
4.82214285714286e-01 9.15073687368847e-01 6.54741373161644e-03
4.88357142857143e-01 9.07592483774012e-01 6.53511913329988e-03
4.94500000000000e-01 9.00172442913756e-01 6.52233148461903e-03
5.00642857142857e-01 8.92813064736610e-01 6.50906648948078e-03
5.06785714285714e-01 8.85513853308020e-01 6.49533939009363e-03
5.12928571428571e-01 8.78274316733420e-01 6.48116499025575e-03
5.19071428571429e-01 8.71093967139745e-01 6.46655766232631e-03
5.25214285714286e-01 8.63972320642512e-01 6.45153136585235e-03
5.31357142857143e-01 8.56908897313287e-01 6.43609966233554e-03
5.37500000000000e-01 8.49903221147301e-01 6.42027573204480e-03
5.43642857142857e-01 8.42954820019031e-01 6.40407237919582e-03
5.49785714285714e-01 8.36063225687786e-01 6.38750205029376e-03
5.55928571428571e-01 8.29227973728367e-01 6.37057685194518e-03
5.62071428571429e-01 8.22448603512498e-01 6.35330855410242e-03
5.68214285714286e-01 8.15724658177751e-01 6.33570860405768e-03
5.74357142857143e-01 8.09055684596821e-01 6.31778813712333e-03
5.80500000000000e-01 8.02441233346952e-01 6.29955798933983e-03
5.86642857142857e-01 7.95880858668863e-01 6.28102869977349e-03
5.92785714285714e-01 7.89374118469404e-01 6.26221052491740e-03
5.98928571428571e-01 7.82920574258742e-01 6.24311345274946e-03
6.05071428571429e-01 7.76519791131928e-01 6.22374720368161e-03
6.11214285714286e-01 7.70171337739570e-01 6.20412124139226e-03
6.17357142857143e-01 7.63874786258804e-01 6.18424478075919e-03
6.23500000000000e-01 7.57629712364444e-01 6.16412679774165e-03
6.29642857142857e-01 7.51435695190888e-01 6.14377602987497e-03
6.35785714285714e-01 7.45292317332513e-01 6.12320098788267e-03
6.41928571428571e-01 7.39199164786514e-01 6.10240996706194e-03
6.48071428571429e-01 7.33155826934777e-01 6.08141104680406e-03
6.54214285714286e-01 7.27161896516190e-01 6.06021209919318e-03
6.60357142857143e-01 7.21216969599231e-01 6.03882079503234e-03
6.66500000000000e-01 7.15320645554731e-01 6.01724461171459e-03
6.72642857142857e-01 7.09472527020483e-01 5.99549083258342e-03
6.78785714285714e-01 7.03672219899866e-01 5.97356655650151e-03
6.84928571428571e-01 6.97919333309649e-01 5.95147870726957e-03
6.91071428571429e-01 6.92213479562280e-01 5.92923403226011e-03
6.97214285714286e-01 6.86554274139737e-01 5.90683910938857e-03
7.03357142857143e-01 6.80941335667652e-01 5.88430035177934e-03
7.09500000000000e-01 6.75374285889590e-01 5.86162401416373e-03
7.15642857142857e-01 6.69852749634120e-01 5.83881619153025e-03
7.21785714285714e-01 6.64376354812054e-01 5.81588282715233e-03
7.27928571428571e-01 6.58944732368649e-01 5.79282972051830e-03
7.34071428571429e-01 6.53557516266374e-01 5.76966252542267e-03
7.40214285714286e-01 6.48214343460233e-01 5.74638675571900e-03
7.46357142857143e-01 6.42914853873330e-01 5.72300778899519e-03
7.52500000000000e-01 6.37658690372583e-01 5.69953087186307e-03
7.58642857142857e-01 6.32445498738030e-01 5.67596111817241e-03
7.64785714285714e-01 6.27274927659023e-01 5.65230351584828e-03
7.70928571428571e-01 6.22146628690308e-01 5.62856293366239e-03
7.77071428571429e-01 6.17060256235354e-01 5.60474411900758e-03
7.83214285714286e-01 6.12015467523053e-01 5.58085170271900e-03
7.89357142857143e-01 6.07011922584640e-01 5.55689020200874e-03
7.95500000000000e-01 6.02049284230774e-01 5.53286402490457e-03
8.01642857142857e-01 5.97127218022890e-01 5.50877746820917e-03
8.07785714285714e-01 5.92245392268580e-01 5.48463472339401e-03
8.13928571428571e-01 5.87403477981167e-01 5.46043988245193e-03
8.20071428571429e-01 5.82601148863614e-01 5.43619693550379e-03
8.26214285714286e-01 5.77838081286521e-01 5.41190977488904e-03
8.32357142857143e-01 5.73113954266339e-01 5.38758219753947e-03
8.38500000000000e-01 5.68428449443728e-01 5.36321790875036e-03
8.44642857142857e-01 5.63781251056794e-01 5.33882052000488e-03
8.50785714285714e-01 5.59172045935863e-01 5.31439355410786e-03
8.56928571428571e-01 5.54600523466191e-01 5.28994045029413e-03
8.63071428571428e-01 5.50066375572470e-01 5.26546456176488e-03
8.69214285714286e-01 5.45569296698063e-01 5.24096915919790e-03
8.75357142857143e-01 5.41108983784424e-01 5.21645743268805e-03
8.81500000000000e-01 5.36685136250670e-01 5.19193249498433e-03
8.87642857142857e-01 5.32297455968558e-01 5.16739737926139e-03
8.93785714285714e-01 5.27945647256809e-01 5.14285504362964e-03
8.99928571428571e-01 5.23629416846646e-01 5.11830837563147e-03
9.06071428571429e-01 5.19348473866920e-01 5.09376018977220e-03
9.12214285714286e-01 5.15102529824496e-01 5.06921323055988e-03
9.18357142857143e-01 5.10891298584829e-01 5.04467017410750e-03
9.24500000000000e-01 5.06714496352675e-01 5.02013363093701e-03
9.30642857142857e-01 5.02571841648669e-01 4.99560614375215e-03
9.36785714285714e-01 4.98463055303343e-01 4.97109019142847e-03
9.42928571428571e-01 4.94387860425221e-01 4.94658819299895e-03
9.49071428571429e-01 4.90345982386559e-01 4.92210250522305e-03
9.55214285714286e-01 4.86337148804835e-01 4.89763542524021e-03
9.61357142857143e-01 4.82361089524398e-01 4.87318919190440e-03
9.67500000000000e-01 4.78417536598265e-01 4.84876598823146e-03
9.73642857142857e-01 4.74506224266184e-01 4.82436793920820e-03
9.79785714285714e-01 4.70626888948440e-01 4.79999711534581e-03
9.85928571428571e-01 4.66779269216281e-01 4.77565553623298e-03
9.92071428571428e-01 4.62963105778277e-01 4.75134516817133e-03
9.98214285714286e-01 4.59178141462832e-01 4.72706792220043e-03
1.00435714285714e+00 4.55424121215222e-01 4.70282567141828e-03
1.01050000000000e+00 4.51700792026404e-01 4.67862023689116e-03
1.01664285714286e+00 4.48007902981247e-01 4.65445337990794e-03
1.02278571428571e+00 4.44345205215974e-01 4.63032681254888e-03
1.02892857142857e+00 4.40712451935555e-01 4.60624222217420e-03
1.03507142857143e+00 4.37109398294006e-01 4.58220125155145e-03
1.04121428571429e+00 4.33535801481508e-01 4.55820546847974e-03
1.04735714285714e+00 4.29991420706077e-01 4.53425642892137e-03
1.05350000000000e+00 4.26476017078636e-01 4.51035564707807e-03
1.05964285714286e+00 4.22989353696136e-01 4.48650457571144e-03
1.06578571428571e+00 4.19531195592335e-01 4.46270462830936e-03
1.07192857142857e+00 4.16101309752905e-01 4.43895719853137e-03
1.07807142857143e+00 4.12699465006349e-01 4.41526364174996e-03
1.08421428571429e+00 4.09325432102308e-01 4.39162524688105e-03
1.09035714285714e+00 4.05978983694345e-01 4.36804329471334e-03
1.09650000000000e+00 4.02659894235134e-01 4.34451903015273e-03
1.10264285714286e+00 3.99367940051225e-01 4.32105364394706e-03
1.10878571428571e+00 3.96102899297816e-01 4.29764829312671e-03
1.11492857142857e+00 3.92864551971881e-01 4.27430411894328e-03
1.12107142857143e+00 3.89652679812605e-01 4.25102222972206e-03
1.12721428571429e+00 3.86467066371875e-01 4.22780367472382e-03
1.13335714285714e+00 3.83307496998106e-01 4.20464949808828e-03
1.13950000000000e+00 3.80173758740509e-01 4.18156071307894e-03
1.14564285714286e+00 3.77065640416443e-01 4.15853828510561e-03
1.15178571428571e+00 3.73982932569792e-01 4.13558315059630e-03
1.15792857142857e+00 3.70925427482376e-01 4.11269623356544e-03
1.16407142857143e+00 3.67892919082933e-01 4.08987842967731e-03
1.17021428571429e+00 3.64885203010667e-01 4.06713058198339e-03
1.17635714285714e+00 3.61902076600053e-01 4.04445353085363e-03
1.18250000000000e+00 3.58943338793261e-01 4.02184809006397e-03
1.18864285714286e+00 3.56008790200924e-01 3.99931503102024e-03
1.19478571428571e+00 3.53098233063778e-01 3.97685510020032e-03
1.20092857142857e+00 3.50211471262583e-01 3.95446903447114e-03
1.20707142857143e+00 3.47348310234790e-01 3.93215754627483e-03
1.21321428571429e+00 3.44508557031918e-01 3.90992130109551e-03
1.21935714285714e+00 3.41692020305266e-01 3.88776096371216e-03
1.22550000000000e+00 3.38898510225703e-01 3.86567717598873e-03
1.23164285714286e+00 3.36127838538547e-01 3.84367054220782e-03
1.23778571428571e+00 3.33379818528197e-01 3.82174164520707e-03
1.24392857142857e+00 3.30654265026719e-01 3.79989106055369e-03
1.25007142857143e+00 3.27950994337484e-01 3.77811934276767e-03
1.25621428571429e+00 3.25269824287017e-01 3.75642700438587e-03
1.26235714285714e+00 3.22610574211564e-01 3.73481455883938e-03
1.26850000000000e+00 3.19973064883536e-01 3.71328249981479e-03
1.27464285714286e+00 3.17357118561137e-01 3.69183128761562e-03
1.28078571428571e+00 3.14762558955701e-01 3.67046136410242e-03
1.28692857142857e+00 3.12189211239134e-01 3.64917316582147e-03
1.29307142857143e+00 3.09636901973835e-01 3.62796711118861e-03
1.29921428571429e+00 3.07105459159619e-01 3.60684358102767e-03
1.30535714285714e+00 3.04594712221073e-01 3.58580295834647e-03
1.31150000000000e+00 3.02104491940033e-01 3.56484560914948e-03
1.31764285714286e+00 2.99634630500507e-01 3.54397186974943e-03
1.32378571428571e+00 2.97184961458486e-01 3.52318206061179e-03
1.32992857142857e+00 2.94755319748376e-01 3.50247649852332e-03
1.33607142857143e+00 2.92345541618619e-01 3.48185548466568e-03
1.34221428571429e+00 2.89955464674203e-01 3.46131928651752e-03
1.34835714285714e+00 2.87584927864761e-01 3.44086817477455e-03
1.35450000000000e+00 2.85233771422510e-01 3.42050240550512e-03
1.36064285714286e+00 2.82901836902969e-01 3.40022220834200e-03
1.36678571428571e+00 2.80588967157019e-01 3.38002779932002e-03
1.37292857142857e+00 2.78295006336459e-01 3.35991939216256e-03
1.37907142857143e+00 2.76019799834799e-01 3.33989718717929e-03
1.38521428571429e+00 2.73763194325810e-01 3.31996135443010e-03
1.39135714285714e+00 2.71525037752316e-01 3.30011206801425e-03
1.39750000000000e+00 2.69305179269107e-01 3.28034948946681e-03
1.40364285714286e+00 2.67103469279867e-01 3.26067375676624e-03
1.40978571428571e+00 2.64919759411309e-01 3.24108499624652e-03
1.41592857142857e+00 2.62753902517946e-01 3.22158333307279e-03
1.42207142857143e+00 2.60605752627601e-01 3.20216888090241e-03
1.42821428571429e+00 2.58475164976388e-01 3.18284172621540e-03
1.43435714285714e+00 2.56361995998167e-01 3.16360196017801e-03
1.44050000000000e+00 2.54266103271969e-01 3.14444966318867e-03
1.44664285714286e+00 2.52187345555531e-01 3.12538489464052e-03
1.45278571428571e+00 2.50125582761316e-01 3.10640770398154e-03
1.45892857142857e+00 2.48080675960612e-01 3.08751814044307e-03
1.46507142857143e+00 2.46052487333328e-01 3.06871624340882e-03
1.47121428571429e+00 2.44040880199766e-01 3.05000202782642e-03
1.47735714285714e+00 2.42045719010697e-01 3.03137551383058e-03
1.48350000000000e+00 2.40066869298904e-01 3.01283671235357e-03
1.48964285714286e+00 2.38104197709648e-01 2.99438561558828e-03
1.49578571428571e+00 2.36157571978439e-01 2.97602220726311e-03
1.50192857142857e+00 2.34226860934526e-01 2.95774647168144e-03
1.50807142857143e+00 2.32311934454612e-01 2.93955838474679e-03
1.51421428571429e+00 2.30412663491737e-01 2.92145790037613e-03
1.52035714285714e+00 2.28528920065929e-01 2.90344497805376e-03
1.52650000000000e+00 2.26660577219506e-01 2.88551956942748e-03
1.53264285714286e+00 2.24807509044791e-01 2.86768160942180e-03
1.53878571428571e+00 2.22969590663465e-01 2.84993102578787e-03
1.54492857142857e+00 2.21146698229544e-01 2.83226774750692e-03
1.55107142857143e+00 2.19338708886666e-01 2.81469169642513e-03
1.55721428571429e+00 2.17545500794366e-01 2.79720277459472e-03
1.56335714285714e+00 2.15766953119269e-01 2.77980088991467e-03
1.56950000000000e+00 2.14002945993832e-01 2.76248594364103e-03
1.57564285714286e+00 2.12253360541561e-01 2.74525782210234e-03
1.58178571428571e+00 2.10518078857837e-01 2.72811640558074e-03
1.58792857142857e+00 2.08796984012436e-01 2.71106157612872e-03
1.59407142857143e+00 2.07089960010080e-01 2.69409320976863e-03
1.60021428571429e+00 2.05396891814359e-01 2.67721116469469e-03
1.60635714285714e+00 2.03717665339436e-01 2.66041530514318e-03
1.61250000000000e+00 2.02052167411930e-01 2.64370548975070e-03
1.61864285714286e+00 2.00400285793880e-01 2.62708156382948e-03
1.62478571428571e+00 1.98761909164932e-01 2.61054336762942e-03
1.63092857142857e+00 1.97136927124448e-01 2.59409074361198e-03
1.63707142857143e+00 1.95525230155050e-01 2.57772352917497e-03
1.64321428571429e+00 1.93926709644421e-01 2.56144154565295e-03
1.64935714285714e+00 1.92341257877479e-01 2.54524462054793e-03
1.65550000000000e+00 1.90768768001148e-01 2.52913257667479e-03
1.66164285714286e+00 1.89209134045282e-01 2.51310522495606e-03
1.66778571428571e+00 1.87662250906095e-01 2.49716237211190e-03
1.67392857142857e+00 1.86128014347924e-01 2.48130382743115e-03
1.68007142857143e+00 1.84606320969519e-01 2.46552939598432e-03
1.68621428571429e+00 1.83097068223902e-01 2.44983886836556e-03
1.69235714285714e+00 1.81600154411008e-01 2.43423204140369e-03
1.69850000000000e+00 1.80115478645087e-01 2.41870870803838e-03
1.70464285714286e+00 1.78642940873787e-01 2.40326865059777e-03
1.71078571428571e+00 1.77182441862735e-01 2.38791164795873e-03
1.71692857142857e+00 1.75733883196992e-01 2.37263748185287e-03
1.72307142857143e+00 1.74297167249857e-01 2.35744593053268e-03
1.72921428571429e+00 1.72872197200983e-01 2.34233675920227e-03
1.73535714285714e+00 1.71458877029441e-01 2.32730973931936e-03
1.74150000000000e+00 1.70057111483545e-01 2.31236463915052e-03
1.74764285714286e+00 1.68666806098264e-01 2.29750121749778e-03
1.75378571428571e+00 1.67287867180867e-01 2.28271923036761e-03
1.75992857142857e+00 1.65920201812107e-01 2.26801843684599e-03
1.76607142857143e+00 1.64563717817338e-01 2.25339859318644e-03
1.77221428571429e+00 1.63218323783046e-01 2.23885944388041e-03
1.77835714285714e+00 1.61883929050313e-01 2.22440073965234e-03
1.78450000000000e+00 1.60560443686867e-01 2.21002222864553e-03
1.79064285714286e+00 1.59247778502981e-01 2.19572365056609e-03
1.79678571428571e+00 1.57945845038098e-01 2.18150474289754e-03
1.80292857142857e+00 1.56654555561781e-01 2.16736524637539e-03
1.80907142857143e+00 1.55373823046955e-01 2.15330489946755e-03
1.81521428571429e+00 1.54103561185001e-01 2.13932343003996e-03
1.82135714285714e+00 1.52843684379593e-01 2.12542057213781e-03
1.82750000000000e+00 1.51594107720799e-01 2.11159605775844e-03
1.83364285714286e+00 1.50354746999600e-01 2.09784961138309e-03
1.83978571428571e+00 1.49125518695429e-01 2.08418095576972e-03
1.84592857142857e+00 1.47906339976913e-01 2.07058981705680e-03
1.85207142857143e+00 1.46697128677069e-01 2.05707591960828e-03
1.85821428571429e+00 1.45497803307095e-01 2.04363897823290e-03
1.86435714285714e+00 1.44308283050558e-01 2.03027871383824e-03
1.87050000000000e+00 1.43128487739384e-01 2.01699484574921e-03
1.87664285714286e+00 1.41958337867118e-01 2.00378708660132e-03
1.88278571428571e+00 1.40797754577315e-01 1.99065514774154e-03
1.88892857142857e+00 1.39646659664097e-01 1.97759874398787e-03
1.89507142857143e+00 1.38504975549153e-01 1.96461758881410e-03
1.90121428571429e+00 1.37372625294338e-01 1.95171138708376e-03
1.90735714285714e+00 1.36249532596199e-01 1.93887984965714e-03
1.91350000000000e+00 1.35135621763700e-01 1.92612268621749e-03
1.91964285714286e+00 1.34030817730343e-01 1.91343960050034e-03
1.92578571428571e+00 1.32935046043340e-01 1.90083029533084e-03
1.93192857142857e+00 1.31848232864016e-01 1.88829447706365e-03
1.93807142857143e+00 1.30770304946467e-01 1.87583185108405e-03
