Energy (eV)          EEDF (eV^-(3/2))     First Anisotropy
6.55645161290323e-04 9.85707158203277e+00 4.44058436658979e-03
1.96693548387097e-03 9.80229678046318e+00 7.33695890498526e-03
3.27822580645161e-03 9.74782635696371e+00 9.69699394350867e-03
4.58951612903226e-03 9.69365862048405e+00 1.14968727236728e-02
5.90080645161290e-03 9.63979188895732e+00 1.30037515116055e-02
7.21209677419355e-03 9.58622448970630e+00 1.43184450465131e-02
8.52338709677419e-03 9.53295475930597e+00 1.54930302547273e-02
9.83467741935484e-03 9.47998104370899e+00 1.65588991041510e-02
1.11459677419355e-02 9.42730169788564e+00 1.75368347800468e-02
1.24572580645161e-02 9.37491508624274e+00 1.84415007795779e-02
1.37685483870968e-02 9.32281958205056e+00 1.92837329111201e-02
1.50798387096774e-02 9.27101356763979e+00 2.00718261884947e-02
1.63911290322581e-02 9.21949543404924e+00 2.08123101241029e-02
1.77024193548387e-02 9.16826358185912e+00 2.15104421389992e-02
1.90137096774194e-02 9.11731642021543e+00 2.21705355359296e-02
2.03250000000000e-02 9.06665236711068e+00 2.27961853424438e-02
2.16362903225806e-02 9.01626984912041e+00 2.33904286089419e-02
2.29475806451613e-02 8.96616730200483e+00 2.39558611761031e-02
2.42588709677419e-02 8.91634316998499e+00 2.44947245622278e-02
2.55701612903226e-02 8.86679590592734e+00 2.50089717688785e-02
2.68814516129032e-02 8.81752397113231e+00 2.55003180218801e-02
2.81927419354839e-02 8.76852583579631e+00 2.59702805422483e-02
2.95040322580645e-02 8.71979997843772e+00 2.64202100842532e-02
3.08153225806452e-02 8.67134488602840e+00 2.68513161493089e-02
3.21266129032258e-02 8.62315905395028e+00 2.72646875152311e-02
3.34379032258065e-02 8.57524098581825e+00 2.76613089672279e-02
3.47491935483871e-02 8.52758919382744e+00 2.80420751924132e-02
3.60604838709677e-02 8.48020219830358e+00 2.84078023547327e-02
3.73717741935484e-02 8.43307852779502e+00 2.87592377434777e-02
3.86830645161290e-02 8.38621671891878e+00 2.90970679263941e-02
3.99943548387097e-02 8.33961531664775e+00 2.94219257351605e-02
4.13056451612903e-02 8.29327287392540e+00 2.97343962423606e-02
4.26169354838710e-02 8.24718795173550e+00 3.00350218294677e-02
4.39282258064516e-02 8.20135911905963e+00 3.03243066353242e-02
4.52395161290323e-02 8.15578495274146e+00 3.06027203548922e-02
4.65508064516129e-02 8.11046403771717e+00 3.08707016147190e-02
4.78620967741935e-02 8.06539496669173e+00 3.11286609325372e-02
4.91733870967742e-02 8.02057634019060e+00 3.13769832684748e-02
5.04846774193548e-02 7.97600676643729e+00 3.16160302793782e-02
5.17959677419355e-02 7.93168486155082e+00 3.18461423617603e-02
5.31072580645161e-02 7.88760924925781e+00 3.20676404699524e-02
5.44185483870968e-02 7.84377856093238e+00 3.22808276775168e-02
5.57298387096774e-02 7.80019143555458e+00 3.24859906316128e-02
5.70411290322581e-02 7.75684651959986e+00 3.26834008025674e-02
5.83524193548387e-02 7.71374246720304e+00 3.28733156607607e-02
5.96637096774194e-02 7.67087793990720e+00 3.30559797396457e-02
6.09750000000000e-02 7.62825160669340e+00 3.32316255525416e-02
6.22862903225807e-02 7.58586214387839e+00 3.34004744251630e-02
6.35975806451613e-02 7.54370823525827e+00 3.35627372911984e-02
6.49088709677419e-02 7.50178857188010e+00 3.37186154179602e-02
6.62201612903226e-02 7.46010185206457e+00 3.38683010264805e-02
6.75314516129032e-02 7.41864678131102e+00 3.40119778598765e-02
6.88427419354839e-02 7.37742207242394e+00 3.41498217411923e-02
7.01540322580645e-02 7.33642644530391e+00 3.42820010864082e-02
7.14653225806452e-02 7.29565862696465e+00 3.44086773271487e-02
7.27766129032258e-02 7.25511735149400e+00 3.45300053470016e-02
7.40879032258065e-02 7.21480135996593e+00 3.46461338386091e-02
7.53991935483871e-02 7.17470940054862e+00 3.47572056772395e-02
7.67104838709678e-02 7.13484022831650e+00 3.48633582674554e-02
7.80217741935484e-02 7.09519260526190e+00 3.49647238276538e-02
7.93330645161290e-02 7.05576530021241e+00 3.50614296554727e-02
8.06443548387097e-02 7.01655708892724e+00 3.51535984072423e-02
8.19556451612903e-02 6.97756675392290e+00 3.52413483588958e-02
8.32669354838710e-02 6.93879308448111e+00 3.53247936060481e-02
8.45782258064516e-02 6.90023487661176e+00 3.54040442922345e-02
8.58895161290323e-02 6.86189093297537e+00 3.54792067819945e-02
8.72008064516129e-02 6.82376006296661e+00 3.55503838614781e-02
8.85120967741936e-02 6.78584108255526e+00 3.56176749270455e-02
8.98233870967742e-02 6.74813281429071e+00 3.56811761295857e-02
9.11346774193548e-02 6.71063408722872e+00 3.57409805111359e-02
9.24459677419355e-02 6.67334373700622e+00 3.57971781624398e-02
9.37572580645161e-02 6.63626060569273e+00 3.58498563717895e-02
9.50685483870968e-02 6.59938354179220e+00 3.58990997268911e-02
9.63798387096774e-02 6.56271140020746e+00 3.59449902479123e-02
9.76911290322581e-02 6.52624304217136e+00 3.59876074771200e-02
9.90024193548387e-02 6.48997733531196e+00 3.60270285982213e-02
1.00313709677419e-01 6.45391315351574e+00 3.60633285636035e-02
1.01625000000000e-01 6.41804937686349e+00 3.60965801032549e-02
1.02936290322581e-01 6.38238489188031e+00 3.61268538904952e-02
1.04247580645161e-01 6.34691859111695e+00 3.61542187191123e-02
1.05558870967742e-01 6.31164937298247e+00 3.61787412973031e-02
1.06870161290323e-01 6.27657614260739e+00 3.62004864937675e-02
1.08181451612903e-01 6.24169781090211e+00 3.62195176067012e-02
1.09492741935484e-01 6.20701329454870e+00 3.62358960335505e-02
1.10804032258065e-01 6.17252151681828e+00 3.62496815345243e-02
1.12115322580645e-01 6.13822140667657e+00 3.62609324846282e-02
1.13426612903226e-01 6.10411189877481e+00 3.62697055470804e-02
1.14737903225806e-01 6.07019193422487e+00 3.62760559212599e-02
1.16049193548387e-01 6.03646045974843e+00 3.62800375799089e-02
1.17360483870968e-01 6.00291642766723e+00 3.62817029472238e-02
1.18671774193548e-01 5.96955879663887e+00 3.62811031330957e-02
1.19983064516129e-01 5.93638653084667e+00 3.62782881572211e-02
1.21294354838710e-01 5.90339859998918e+00 3.62733066325810e-02
1.22605645161290e-01 5.87059397997955e+00 3.62662059875042e-02
1.23916935483871e-01 5.83797165217324e+00 3.62570326781281e-02
1.25228225806452e-01 5.80553060335689e+00 3.62458318778039e-02
1.26539516129032e-01 5.77326982641369e+00 3.62326476881401e-02
1.27850806451613e-01 5.74118831958674e+00 3.62175233411520e-02
1.29162096774194e-01 5.70928508646682e+00 3.62005008949355e-02
1.30473387096774e-01 5.67755913662637e+00 3.61816214346249e-02
1.31784677419355e-01 5.64600948491614e+00 3.61609252653424e-02
1.33095967741935e-01 5.61463515145198e+00 3.61384516143328e-02
1.34407258064516e-01 5.58343516221940e+00 3.61142388227660e-02
1.35718548387097e-01 5.55240854840147e+00 3.60883245303128e-02
1.37029838709677e-01 5.52155434636466e+00 3.60607453838724e-02
1.38341129032258e-01 5.49087159823596e+00 3.60315372210132e-02
1.39652419354839e-01 5.46035935125994e+00 3.60007352468881e-02
1.40963709677419e-01 5.43001665778389e+00 3.59683737496096e-02
1.42275000000000e-01 5.39984257580910e+00 3.59344862760134e-02
1.43586290322581e-01 5.36983616837535e+00 3.58991057534401e-02
1.44897580645161e-01 5.33999650372914e+00 3.58622644044443e-02
1.46208870967742e-01 5.31032265511486e+00 3.58239936746098e-02
1.47520161290323e-01 5.28081370129036e+00 3.57843243476095e-02
1.48831451612903e-01 5.25146872594899e+00 3.57432867053940e-02
1.50142741935484e-01 5.22228681770377e+00 3.57009102608954e-02
1.51454032258065e-01 5.19326707058056e+00 3.56572239174034e-02
1.52765322580645e-01 5.16440858346349e+00 3.56122561227201e-02
1.54076612903226e-01 5.13571046007911e+00 3.55660346082768e-02
1.55387903225806e-01 5.10717180946846e+00 3.55185865427554e-02
1.56699193548387e-01 5.07879174545460e+00 3.54699386806139e-02
1.58010483870968e-01 5.05056938662682e+00 3.54201171075291e-02
1.59321774193548e-01 5.02250385679266e+00 3.53691473886337e-02
1.60633064516129e-01 4.99459428446648e+00 3.53170547117717e-02
1.61944354838710e-01 4.96683980285360e+00 3.52638636391536e-02
1.63255645161290e-01 4.93923955028354e+00 3.52095982505373e-02
1.64566935483871e-01 4.91179266971841e+00 3.51542822815366e-02
1.65878225806452e-01 4.88449830873699e+00 3.50979388813899e-02
1.67189516129032e-01 4.85735561995025e+00 3.50405907513134e-02
1.68500806451613e-01 4.83036376052859e+00 3.49822602782296e-02
1.69812096774194e-01 4.80352189218574e+00 3.49229692985248e-02
1.71123387096774e-01 4.77682918157753e+00 3.48627392317575e-02
1.72434677419355e-01 4.75028479984712e+00 3.48015912101205e-02
1.73745967741935e-01 4.72388792260865e+00 3.47395458480411e-02
1.75057258064516e-01 4.69763773033019e+00 3.46766233715089e-02
1.76368548387097e-01 4.67153340789601e+00 3.46128437434886e-02
1.77679838709677e-01 4.64557414459001e+00 3.45482264392114e-02
1.78991129032258e-01 4.61975913446370e+00 3.44827905713591e-02
1.80302419354839e-01 4.59408757591464e+00 3.44165550116394e-02
1.81613709677419e-01 4.56855867166974e+00 3.43495381716299e-02
1.82925000000000e-01 4.54317162913893e+00 3.42817581240193e-02
1.84236290322581e-01 4.51792566000901e+00 3.42132326847986e-02
1.85547580645161e-01 4.49281998034743e+00 3.41439793426769e-02
1.86858870967742e-01 4.46785381045946e+00 3.40740151976655e-02
1.88170161290323e-01 4.44302637522207e+00 3.40033570394295e-02
1.89481451612903e-01 4.41833690369894e+00 3.39320214599588e-02
1.90792741935484e-01 4.39378462912370e+00 3.38600246479348e-02
1.92104032258065e-01 4.36936878922114e+00 3.37873825011026e-02
1.93415322580645e-01 4.34508862583572e+00 3.37141107355947e-02
1.94726612903226e-01 4.32094338491499e+00 3.36402246853459e-02
1.96037903225806e-01 4.29693231681868e+00 3.35657394112226e-02
1.97349193548387e-01 4.27305467596013e+00 3.34906698071308e-02
1.98660483870968e-01 4.24930972078991e+00 3.34150304043544e-02
1.99971774193548e-01 4.22569671409337e+00 3.33388354775909e-02
2.01283064516129e-01 4.20221492264437e+00 3.32620991479851e-02
2.02594354838710e-01 4.17886361718908e+00 3.31848351922448e-02
2.03905645161290e-01 4.15564207273259e+00 3.31070571457037e-02
2.05216935483871e-01 4.13254956820436e+00 3.30287784024267e-02
2.06528225806452e-01 4.10958538644225e+00 3.29500120289830e-02
2.07839516129032e-01 4.08674881446853e+00 3.28707708646165e-02
2.09150806451613e-01 4.06403914316685e+00 3.27910676185807e-02
2.10462096774194e-01 4.04145566726611e+00 3.27109146884475e-02
2.11773387096774e-01 4.01899768560672e+00 3.26303242574601e-02
2.13084677419355e-01 3.99666450082825e+00 3.25493083892364e-02
2.14395967741936e-01 3.97445541935350e+00 3.24678788504842e-02
2.15707258064516e-01 3.95236975164511e+00 3.23860472056435e-02
2.17018548387097e-01 3.93040681190375e+00 3.23038249090626e-02
2.18329838709677e-01 3.90856591805210e+00 3.22212231319982e-02
2.19641129032258e-01 3.88684639198249e+00 3.21382528546469e-02
2.20952419354839e-01 3.86524755926500e+00 3.20549249558897e-02
2.22263709677419e-01 3.84376874913146e+00 3.19712500444628e-02
2.23575000000000e-01 3.82240929471451e+00 3.18872385484808e-02
2.24886290322581e-01 3.80116853276511e+00 3.18029007756132e-02
2.26197580645161e-01 3.78004580371988e+00 3.17182468573448e-02
2.27508870967742e-01 3.75904045159871e+00 3.16332866998411e-02
2.28820161290323e-01 3.73815182423172e+00 3.15480300414947e-02
2.30131451612903e-01 3.71737927298993e+00 3.14624865369234e-02
2.31442741935484e-01 3.69672215276958e+00 3.13766655981159e-02
2.32754032258065e-01 3.67617982221132e+00 3.12905764782132e-02
2.34065322580645e-01 3.65575164343926e+00 3.12042283532919e-02
2.35376612903226e-01 3.63543698204566e+00 3.11176301672830e-02
2.36687903225806e-01 3.61523520730246e+00 3.10307907136085e-02
2.37999193548387e-01 3.59514569190868e+00 3.09437187148292e-02
2.39310483870968e-01 3.57516781197516e+00 3.08564226712434e-02
2.40621774193548e-01 3.55530094722900e+00 3.07689109404429e-02
2.41933064516129e-01 3.53554448076875e+00 3.06811918149033e-02
2.43244354838710e-01 3.51589779904942e+00 3.05932733741590e-02
2.44555645161290e-01 3.49636029207999e+00 3.05051635623507e-02
2.45866935483871e-01 3.47693135318616e+00 3.04168702638274e-02
2.47178225806452e-01 3.45761037899556e+00 3.03284011588008e-02
2.48489516129032e-01 3.43839676962861e+00 3.02397637989361e-02
2.49800806451613e-01 3.41928992846866e+00 3.01509656810520e-02
2.51112096774194e-01 3.40028926214723e+00 3.00620141061717e-02
2.52423387096774e-01 3.38139418072865e+00 2.99729162531826e-02
2.53734677419355e-01 3.36260409748713e+00 2.98836792507227e-02
2.55045967741935e-01 3.34391842889223e+00 2.97943100395265e-02
2.56357258064516e-01 3.32533659478733e+00 2.97048154442165e-02
2.57668548387097e-01 3.30685801817357e+00 2.96152022434378e-02
2.58979838709677e-01 3.28848212519537e+00 2.95254770354083e-02
2.60291129032258e-01 3.27020834531312e+00 2.94356463079048e-02
2.61602419354839e-01 3.25203611109363e+00 2.93457165066932e-02
2.62913709677419e-01 3.23396485819574e+00 2.92556939042053e-02
2.64225000000000e-01 3.21599402553746e+00 2.91655846677698e-02
2.65536290322581e-01 3.19812305509266e+00 2.90753949053227e-02
2.66847580645161e-01 3.18035139193612e+00 2.89851306215477e-02
2.68158870967742e-01 3.16267848416786e+00 2.88947976789252e-02
2.69470161290323e-01 3.14510378307246e+00 2.88044018414996e-02
2.70781451612903e-01 3.12762674292439e+00 2.87139488392743e-02
2.72092741935484e-01 3.11024682097403e+00 2.86234442443129e-02
2.73404032258065e-01 3.09296347760188e+00 2.85328935349324e-02
2.74715322580645e-01 3.07577617612958e+00 2.84423021585267e-02
2.76026612903226e-01 3.05868438280614e+00 2.83516754105029e-02
2.77337903225806e-01 3.04168756695723e+00 2.82610184969521e-02
2.78649193548387e-01 3.02478520080168e+00 2.81703365959441e-02
2.79960483870968e-01 3.00797675943789e+00 2.80796347392330e-02
2.81271774193548e-01 2.99126172098845e+00 2.79889178734427e-02
2.82583064516129e-01 2.97463956642186e+00 2.78981909198798e-02
2.83894354838710e-01 2.95810977953921e+00 2.78074586589395e-02
2.85205645161290e-01 2.94167184711419e+00 2.77167257898501e-02
2.86516935483871e-01 2.92532525871991e+00 2.76259969890407e-02
2.87828225806452e-01 2.90906950671585e+00 2.75352767971829e-02
2.89139516129032e-01 2.89290408638337e+00 2.74445696775160e-02
2.90450806451613e-01 2.87682849575762e+00 2.73538800728476e-02
2.91762096774194e-01 2.86084223561448e+00 2.72632122951506e-02
2.93073387096774e-01 2.84494480960203e+00 2.71725705824896e-02
2.94384677419355e-01 2.82913572407712e+00 2.70819591547081e-02
2.95695967741936e-01 2.81341448809252e+00 2.69913821055177e-02
2.97007258064516e-01 2.79778061352431e+00 2.69008434580627e-02
2.98318548387097e-01 2.78223361491310e+00 2.68103472193255e-02
2.99629838709677e-01 2.76677300945131e+00 2.67198972746520e-02
3.00941129032258e-01 2.75139831710665e+00 2.66294974419929e-02
3.02252419354839e-01 2.73610906046780e+00 2.65391515250607e-02
3.03563709677419e-01 2.72090476473188e+00 2.64488632102212e-02
3.04875000000000e-01 2.70578495782407e+00 2.63586361194614e-02
3.06186290322581e-01 2.69074917024775e+00 2.62684738458113e-02
3.07497580645161e-01 2.67579693511522e+00 2.61783799186983e-02
3.08808870967742e-01 2.66092778809054e+00 2.60883577730215e-02
3.10120161290323e-01 2.64614126750401e+00 2.59984107830957e-02
3.11431451612903e-01 2.63143691420811e+00 2.59085423128369e-02
3.12742741935484e-01 2.61681427156532e+00 2.58187556182653e-02
3.14054032258065e-01 2.60227288555909e+00 2.57290538975056e-02
3.15365322580645e-01 2.58781230465376e+00 2.56394403398172e-02
3.16676612903226e-01 2.57343207978256e+00 2.55499180302559e-02
3.17987903225807e-01 2.55913176445523e+00 2.54604899985458e-02
3.19299193548387e-01 2.54491091462180e+00 2.53711592669720e-02
3.20610483870968e-01 2.53076908866070e+00 2.52819287571522e-02
3.21921774193548e-01 2.51670584748324e+00 2.51928013378121e-02
3.23233064516129e-01 2.50272075440101e+00 2.51037798715699e-02
3.24544354838710e-01 2.48881337511421e+00 2.50148671237776e-02
3.25855645161290e-01 2.47498327781302e+00 2.49260658092115e-02
3.27166935483871e-01 2.46123003304854e+00 2.48373786377858e-02
3.28478225806452e-01 2.44755321372137e+00 2.47488082254055e-02
3.29789516129032e-01 2.43395239517988e+00 2.46603571396019e-02
3.31100806451613e-01 2.42042715509469e+00 2.45720279442194e-02
3.32412096774194e-01 2.40697707344739e+00 2.44838231122227e-02
3.33723387096774e-01 2.39360173262589e+00 2.43957450702924e-02
3.35034677419355e-01 2.38030071730232e+00 2.43077962425166e-02
3.36345967741935e-01 2.36707361442182e+00 2.42199789651159e-02
3.37657258064516e-01 2.35392001329518e+00 2.41322955300188e-02
3.38968548387097e-01 2.34083950547994e+00 2.40447482275841e-02
3.40279838709677e-01 2.32783168476935e+00 2.39573392631896e-02
3.41591129032258e-01 2.31489614728232e+00 2.38700707998204e-02
3.42902419354839e-01 2.30203249134766e+00 2.37829449998533e-02
3.44213709677419e-01 2.28924031749320e+00 2.36959639434624e-02
3.45525000000000e-01 2.27651922853310e+00 2.36091296702402e-02
3.46836290322581e-01 2.26386882945518e+00 2.35224442070078e-02
3.48147580645161e-01 2.25128872744231e+00 2.34359095402974e-02
3.49458870967742e-01 2.23877853182849e+00 2.33495275916970e-02
3.50770161290323e-01 2.22633785418246e+00 2.32633002445104e-02
3.52081451612903e-01 2.21396630819933e+00 2.31772293833097e-02
3.53392741935484e-01 2.20166350968998e+00 2.30913168166355e-02
3.54704032258065e-01 2.18942907666234e+00 2.30055643163875e-02
3.56015322580645e-01 2.17726262921576e+00 2.29199736564900e-02
3.57326612903226e-01 2.16516378953064e+00 2.28345465372654e-02
3.58637903225806e-01 2.15313218194733e+00 2.27492846239653e-02
3.59949193548387e-01 2.14116743286329e+00 2.26641895845708e-02
3.61260483870968e-01 2.12926917072280e+00 2.25792630158017e-02
3.62571774193548e-01 2.11743702609369e+00 2.24945064808023e-02
3.63883064516129e-01 2.10567063156708e+00 2.24099215461085e-02
3.65194354838710e-01 2.09396962174731e+00 2.23255097092472e-02
3.66505645161290e-01 2.08233363332645e+00 2.22412724356020e-02
3.67816935483871e-01 2.07076230498660e+00 2.21572111945619e-02
3.69128225806452e-01 2.05925527739003e+00 2.20733273886785e-02
3.70439516129032e-01 2.04781219325150e+00 2.19896223897266e-02
3.71750806451613e-01 2.03643269724316e+00 2.19060975740616e-02
3.73062096774194e-01 2.02511643598473e+00 2.18227542532973e-02
3.74373387096774e-01 2.01386305811386e+00 2.17395937095711e-02
3.75684677419355e-01 2.00267221419341e+00 2.16566172301393e-02
3.76995967741936e-01 1.99154355670181e+00 2.15738260395387e-02
3.78307258064516e-01 1.98047674010140e+00 2.14912213340709e-02
3.79618548387097e-01 1.96947142074810e+00 2.14088043156603e-02
3.80929838709677e-01 1.95852725688189e+00 2.13265761254596e-02
3.82241129032258e-01 1.94764390869327e+00 2.12445378775758e-02
3.83552419354839e-01 1.93682103823516e+00 2.11626906922044e-02
3.84863709677419e-01 1.92605830941361e+00 2.10810356306505e-02
3.86175000000000e-01 1.91535538805227e+00 2.09995737283159e-02
3.87486290322581e-01 1.90471194180668e+00 2.09183060167287e-02
3.88797580645161e-01 1.89412764017914e+00 2.08372335015785e-02
3.90108870967742e-01 1.88360215448460e+00 2.07563571429720e-02
3.91420161290323e-01 1.87313515791261e+00 2.06756778765656e-02
3.92731451612903e-01 1.86272632544456e+00 2.05951966449824e-02
3.94042741935484e-01 1.85237533384465e+00 2.05149143361574e-02
3.95354032258065e-01 1.84208186172014e+00 2.04348318146136e-02
3.96665322580645e-01 1.83184558944066e+00 2.03549499522018e-02
3.97976612903226e-01 1.82166619912932e+00 2.02752695677509e-02
3.99287903225806e-01 1.81154337472129e+00 2.01957914576750e-02
4.00599193548387e-01 1.80147680188510e+00 2.01165164260485e-02
4.01910483870968e-01 1.79146616801392e+00 2.00374452255277e-02
4.03221774193548e-01 1.78151116228251e+00 1.99585785873144e-02
4.04533064516129e-01 1.77161147557047e+00 1.98799172505774e-02
4.05844354838710e-01 1.76176680045365e+00 1.98014619046186e-02
4.07155645161290e-01 1.75197683125952e+00 1.97232132182000e-02
4.08466935483871e-01 1.74224126399238e+00 1.96451718683382e-02
4.09778225806452e-01 1.73255979632481e+00 1.95673384836832e-02
4.11089516129032e-01 1.72293212765163e+00 1.94897136732197e-02
4.12400806451613e-01 1.71335795901682e+00 1.94122980544501e-02
4.13712096774194e-01 1.70383699310524e+00 1.93350921979638e-02
