Energy (eV)          EEDF (eV^-(3/2))     First Anisotropy
1.58730158730159e-03 6.15044406192450e-01 4.11408965079940e-08
4.76190476190476e-03 6.15044372251470e-01 1.28504732686531e-07
7.93650793650794e-03 6.15044283613611e-01 3.19276163530757e-07
1.11111111111111e-02 6.15044136075982e-01 5.65907922524176e-07
1.42857142857143e-02 6.15043929431767e-01 8.51725432139694e-07
1.74603174603175e-02 6.15043665427432e-01 1.15450370408475e-06
2.06349206349206e-02 6.15043351726747e-01 1.45867071167328e-06
2.38095238095238e-02 6.15042993267333e-01 1.76991717151037e-06
2.69841269841270e-02 6.15042591615243e-01 2.09431298323086e-06
3.01587301587302e-02 6.15042147444710e-01 2.42687775083132e-06
3.33333333333333e-02 6.15041663450734e-01 2.76361477814805e-06
3.65079365079365e-02 6.15041140975995e-01 3.11257200720528e-06
3.96825396825397e-02 6.15040579113916e-01 3.48103851798953e-06
4.28571428571429e-02 6.15039976487550e-01 3.87285746360359e-06
4.60317460317460e-02 6.15039331011924e-01 4.28880713263303e-06
4.92063492063492e-02 6.15038641257603e-01 4.72275967615082e-06
5.23809523809524e-02 6.15037907195036e-01 5.16122741689510e-06
5.55555555555556e-02 6.15037131399674e-01 5.60745057911371e-06
5.87301587301587e-02 6.15036312573936e-01 6.07405938378211e-06
6.19047619047619e-02 6.15035449515288e-01 6.56121144727510e-06
6.50793650793651e-02 6.15034540967678e-01 7.06991527240558e-06
6.82539682539682e-02 6.15033585536926e-01 7.60076381954600e-06
7.14285714285714e-02 6.15032581895058e-01 8.12976869358080e-06
7.46031746031746e-02 6.15031534937917e-01 8.65377078584149e-06
7.77777777777778e-02 6.15030443859290e-01 9.19560376169814e-06
8.09523809523810e-02 6.15029307572366e-01 9.75660061028449e-06
8.41269841269841e-02 6.15028124989855e-01 1.03371945838844e-05
8.73015873015873e-02 6.15026894979944e-01 1.09376532842942e-05
9.04761904761905e-02 6.15025616448600e-01 1.15578857076006e-05
9.36507936507937e-02 6.15024288337210e-01 1.21979880104858e-05
9.68253968253968e-02 6.15022909576828e-01 1.28581658125848e-05
1.00000000000000e-01 6.15021479106178e-01 1.35228441751535e-05
1.03174603174603e-01 6.15019999369326e-01 1.41738568528756e-05
1.06349206349206e-01 6.15018473193965e-01 1.48232710230691e-05
1.09523809523810e-01 6.15016900143530e-01 1.54857220501987e-05
1.12698412698413e-01 6.15015279773596e-01 1.61612773058708e-05
1.15873015873016e-01 6.15013611632529e-01 1.68500027790609e-05
1.19047619047619e-01 6.15011895262053e-01 1.75519633408512e-05
1.22222222222222e-01 6.15010130197722e-01 1.82672229683485e-05
1.25396825396825e-01 6.15008315969332e-01 1.89958449298990e-05
1.28571428571429e-01 6.15006452101275e-01 1.97378919424110e-05
1.31746031746032e-01 6.15004538112844e-01 2.04934263081837e-05
1.34920634920635e-01 6.15002573518493e-01 2.12625100342265e-05
1.38095238095238e-01 6.15000557828062e-01 2.20452049251323e-05
1.41269841269841e-01 6.14998490546980e-01 2.28415726683797e-05
1.44444444444444e-01 6.14996371176429e-01 2.36516749018408e-05
1.47619047619048e-01 6.14994199213493e-01 2.44755732853921e-05
1.50793650793651e-01 6.14991974151285e-01 2.53133295460887e-05
1.53968253968254e-01 6.14989695479060e-01 2.61650055041810e-05
1.57142857142857e-01 6.14987362682309e-01 2.70306631303982e-05
1.60317460317460e-01 6.14984975242844e-01 2.79103645703894e-05
1.63492063492063e-01 6.14982532638868e-01 2.88041721628250e-05
1.66666666666667e-01 6.14980034345041e-01 2.97121484656430e-05
1.69841269841270e-01 6.14977479832530e-01 3.06343562213413e-05
1.73015873015873e-01 6.14974868569069e-01 3.15708564575838e-05
1.76190476190476e-01 6.14972200019318e-01 3.25216975174828e-05
1.79365079365079e-01 6.14969473646720e-01 3.34868956093652e-05
1.82539682539683e-01 6.14966688916987e-01 3.44663919391515e-05
1.85714285714286e-01 6.14963845306776e-01 3.54600023136767e-05
1.88888888888889e-01 6.14960942314913e-01 3.64673790272128e-05
1.92063492063492e-01 6.14957979476444e-01 3.74880417202281e-05
1.95238095238095e-01 6.14954956367969e-01 3.85215063553366e-05
1.98412698412698e-01 6.14951872600417e-01 3.95674183831467e-05
2.01587301587302e-01 6.14948727803511e-01 4.05581155128943e-05
2.04761904761905e-01 6.14945532858066e-01 4.14908395023465e-05
2.07936507936508e-01 6.14942287651536e-01 4.24306849474880e-05
2.11111111111111e-01 6.14938992129102e-01 4.33772246842122e-05
2.14285714285714e-01 6.14935646235486e-01 4.43304056006994e-05
2.17460317460317e-01 6.14932249914880e-01 4.52901768185815e-05
2.20634920634921e-01 6.14928803110874e-01 4.62564895982004e-05
2.23809523809524e-01 6.14925305766399e-01 4.72292972503287e-05
2.26984126984127e-01 6.14921757823673e-01 4.82085550502234e-05
2.30158730158730e-01 6.14918159224144e-01 4.91942201534143e-05
2.33333333333333e-01 6.14914509908446e-01 5.01862515292720e-05
2.36507936507937e-01 6.14910809816357e-01 5.11846099032261e-05
2.39682539682540e-01 6.14907058886758e-01 5.21892576742311e-05
2.42857142857143e-01 6.14903257057594e-01 5.32001588589180e-05
2.46031746031746e-01 6.14899404265844e-01 5.42172790371558e-05
2.49206349206349e-01 6.14895500447488e-01 5.52405852787654e-05
2.52380952380952e-01 6.14891545537479e-01 5.62700461086956e-05
2.55555555555556e-01 6.14887539469718e-01 5.73056314585074e-05
2.58730158730159e-01 6.14883482177028e-01 5.83473125932708e-05
2.61904761904762e-01 6.14879373591134e-01 5.93950620799215e-05
2.65079365079365e-01 6.14875213642641e-01 6.04488537489266e-05
2.68253968253968e-01 6.14871002261018e-01 6.15086626347857e-05
2.71428571428571e-01 6.14866739374579e-01 6.25744646283464e-05
2.74603174603175e-01 6.14862424910515e-01 6.36462343928769e-05
2.77777777777778e-01 6.14858058795154e-01 6.47239404119554e-05
2.80952380952381e-01 6.14853640954661e-01 6.58075348982038e-05
2.84126984126984e-01 6.14849171316646e-01 6.68969379965670e-05
2.87301587301587e-01 6.14844649812940e-01 6.79920231914853e-05
2.90476190476190e-01 6.14840076383060e-01 6.90926165852116e-05
2.93650793650794e-01 6.14835450976902e-01 7.01985244849263e-05
2.96825396825397e-01 6.14830773554353e-01 7.13095783997286e-05
3.00000000000000e-01 6.14826044081950e-01 7.24208309734689e-05
3.03174603174603e-01 6.14821263470317e-01 7.35672784439366e-05
3.06349206349206e-01 6.14816427422721e-01 7.48323332275770e-05
3.09523809523810e-01 6.14811525756037e-01 7.62557664087475e-05
3.12698412698413e-01 6.14806548907277e-01 7.78301812924505e-05
3.15873015873016e-01 6.14801487902202e-01 7.95484638493900e-05
3.19047619047619e-01 6.14796334325654e-01 8.14037705572189e-05
3.22222222222222e-01 6.14791080293491e-01 8.33895168446511e-05
3.25396825396825e-01 6.14785718426047e-01 8.54993661329519e-05
3.28571428571429e-01 6.14780241823002e-01 8.77272193929002e-05
3.31746031746032e-01 6.14774644039599e-01 9.00672052048113e-05
3.34920634920635e-01 6.14768919064113e-01 9.25136703064278e-05
3.38095238095238e-01 6.14763061296509e-01 9.50611705762221e-05
3.41269841269841e-01 6.14757065528209e-01 9.77044624444980e-05
3.44444444444444e-01 6.14750926922921e-01 1.00438494685338e-04
3.47619047619048e-01 6.14744640998445e-01 1.03258400605577e-04
3.50793650793651e-01 6.14738203609429e-01 1.06159490574253e-04
3.53968253968254e-01 6.14731610930993e-01 1.09137244886190e-04
3.57142857142857e-01 6.14724859443201e-01 1.12187306960922e-04
3.60317460317460e-01 6.14717945916304e-01 1.15305476824887e-04
3.63492063492063e-01 6.14710867396743e-01 1.18487704882777e-04
3.66666666666667e-01 6.14703621193838e-01 1.21730085969470e-04
3.69841269841270e-01 6.14696204867157e-01 1.25028853646524e-04
3.73015873015873e-01 6.14688616214507e-01 1.28380374435409e-04
3.76190476190476e-01 6.14680853260556e-01 1.31781140859768e-04
3.79365079365079e-01 6.14672914246195e-01 1.35227763230998e-04
3.82539682539683e-01 6.14664797618644e-01 1.38716957785255e-04
3.85714285714286e-01 6.14656502022686e-01 1.42245534079111e-04
3.88888888888889e-01 6.14648026292688e-01 1.45810384991610e-04
3.92063492063492e-01 6.14639369445387e-01 1.49408488388090e-04
3.95238095238095e-01 6.14630530672019e-01 1.53036926237648e-04
3.98412698412698e-01 6.14621509329140e-01 1.56692902496300e-04
4.01587301587302e-01 6.14612304929020e-01 1.60308903819867e-04
4.04761904761905e-01 6.14602926134647e-01 1.63973436083448e-04
4.07936507936508e-01 6.14593362249385e-01 1.67837203785718e-04
4.11111111111111e-01 6.14583603152846e-01 1.71891435130876e-04
4.14285714285714e-01 6.14573639350728e-01 1.76127023000444e-04
4.17460317460317e-01 6.14563461945279e-01 1.80535208900709e-04
4.20634920634921e-01 6.14553062607089e-01 1.85107570525505e-04
4.23809523809524e-01 6.14542433548143e-01 1.89836009814180e-04
4.26984126984127e-01 6.14531567496093e-01 1.94712741474886e-04
4.30158730158730e-01 6.14520457669662e-01 1.99730281985071e-04
4.33333333333333e-01 6.14509097755153e-01 2.04881439010315e-04
4.36507936507937e-01 6.14497481883989e-01 2.10159301206273e-04
4.39682539682540e-01 6.14485604611249e-01 2.15557228443811e-04
4.42857142857143e-01 6.14473460895148e-01 2.21068842393063e-04
4.46031746031746e-01 6.14461046077412e-01 2.26688017460332e-04
4.49206349206349e-01 6.14448355864520e-01 2.32408872054293e-04
4.52380952380952e-01 6.14435386309757e-01 2.38225760209638e-04
4.55555555555556e-01 6.14422133796054e-01 2.44133263523109e-04
4.58730158730159e-01 6.14408595019565e-01 2.50126183346572e-04
4.61904761904762e-01 6.14394766973962e-01 2.56199533309797e-04
4.65079365079365e-01 6.14380646935405e-01 2.62348532112744e-04
4.68253968253968e-01 6.14366232448160e-01 2.68568596583573e-04
4.71428571428571e-01 6.14351521310836e-01 2.74855334874892e-04
4.74603174603175e-01 6.14336511563221e-01 2.81204539441663e-04
4.77777777777778e-01 6.14321201473738e-01 2.87612179390700e-04
4.80952380952381e-01 6.14305589527543e-01 2.94074391518477e-04
4.84126984126984e-01 6.14289674415352e-01 3.00587469632859e-04
4.87301587301587e-01 6.14273455023086e-01 3.07147855033685e-04
4.90476190476190e-01 6.14256930422065e-01 3.13752132102688e-04
4.93650793650794e-01 6.14240099859424e-01 3.20397032321546e-04
4.96825396825397e-01 6.14222962748154e-01 3.27079444217931e-04
5.00000000000000e-01 6.14205518656721e-01 3.33747204053707e-04
5.03174603174603e-01 6.14187773060133e-01 3.40355482330453e-04
5.06349206349206e-01 6.14169730803854e-01 3.46965655942791e-04
5.09523809523809e-01 6.14151390308178e-01 3.53630862420872e-04
5.12698412698413e-01 6.14132750251776e-01 3.60346339181902e-04
5.15873015873016e-01 6.14113809559637e-01 3.67107498888986e-04
5.19047619047619e-01 6.14094567391466e-01 3.73909924212021e-04
5.22222222222222e-01 6.14075023130532e-01 3.80749362753016e-04
5.25396825396825e-01 6.14055176372948e-01 3.87621722148466e-04
5.28571428571429e-01 6.14035026917357e-01 3.94523065330002e-04
5.31746031746032e-01 6.14014574755017e-01 4.01449605923785e-04
5.34920634920635e-01 6.13993820060263e-01 4.08397703795480e-04
5.38095238095238e-01 6.13972763181336e-01 4.15363860750725e-04
5.41269841269841e-01 6.13951404631559e-01 4.22344716350802e-04
5.44444444444444e-01 6.13929745080854e-01 4.29337043851230e-04
5.47619047619048e-01 6.13907785347577e-01 4.36337746274243e-04
5.50793650793651e-01 6.13885526390673e-01 4.43343852591987e-04
5.53968253968254e-01 6.13862969302124e-01 4.50352514036229e-04
5.57142857142857e-01 6.13840115299687e-01 4.57361000507406e-04
5.60317460317460e-01 6.13816965719909e-01 4.64366697079433e-04
5.63492063492063e-01 6.13793522011410e-01 4.71367100637449e-04
5.66666666666667e-01 6.13769785728422e-01 4.78359816610620e-04
5.69841269841270e-01 6.13745758524574e-01 4.85342555761718e-04
5.73015873015873e-01 6.13721442146918e-01 4.92313130968940e-04
5.76190476190476e-01 6.13696838430195e-01 4.99269453525012e-04
5.79365079365079e-01 6.13671949291379e-01 5.06209528832575e-04
5.82539682539683e-01 6.13646776724525e-01 5.13131450584141e-04
5.85714285714286e-01 6.13621322796029e-01 5.20033394955204e-04
5.88888888888889e-01 6.13595589640177e-01 5.26913617145995e-04
5.92063492063492e-01 6.13569579454856e-01 5.33770451162759e-04
5.95238095238095e-01 6.13543294497218e-01 5.40602318338243e-04
5.98412698412698e-01 6.13516737078570e-01 5.47407732915272e-04
6.01587301587302e-01 6.13489909559589e-01 5.54316674206126e-04
6.04761904761905e-01 6.13462801563356e-01 5.61706845486048e-04
6.07936507936508e-01 6.13435378828052e-01 5.69930651244494e-04
6.11111111111111e-01 6.13407597134036e-01 5.79072687057294e-04
6.14285714285714e-01 6.13379414560940e-01 5.89092050793526e-04
6.17460317460317e-01 6.13350791397015e-01 5.99949234386129e-04
6.20634920634921e-01 6.13321690051946e-01 6.11606077408913e-04
6.23809523809524e-01 6.13292074973002e-01 6.24025722263093e-04
6.26984126984127e-01 6.13261912564372e-01 6.37172570912645e-04
6.30158730158730e-01 6.13231171109590e-01 6.51012243101298e-04
6.33333333333333e-01 6.13199820696899e-01 6.65511535950601e-04
6.36507936507936e-01 6.13167833147463e-01 6.80638384890023e-04
6.39682539682540e-01 6.13135181946313e-01 6.96361825871038e-04
6.42857142857143e-01 6.13101842175912e-01 7.12651958840618e-04
6.46031746031746e-01 6.13067790452253e-01 7.29479912392377e-04
6.49206349206349e-01 6.13033004863387e-01 7.46817809573283e-04
6.52380952380952e-01 6.12997464910290e-01 7.64638734815093e-04
6.55555555555556e-01 6.12961151449980e-01 7.82916701948394e-04
6.58730158730159e-01 6.12924046640801e-01 8.01626623258788e-04
6.61904761904762e-01 6.12886133889782e-01 8.20744279525108e-04
6.65079365079365e-01 6.12847397802016e-01 8.40246291059688e-04
6.68253968253968e-01 6.12807824131955e-01 8.60110089674932e-04
6.71428571428571e-01 6.12767399736568e-01 8.80313891489224e-04
6.74603174603175e-01 6.12726112530293e-01 9.00836670385193e-04
6.77777777777778e-01 6.12683951441728e-01 9.21658131861855e-04
6.80952380952381e-01 6.12640906372035e-01 9.42758687002443e-04
6.84126984126984e-01 6.12596968155020e-01 9.64119426019145e-04
6.87301587301587e-01 6.12552128518928e-01 9.85722092569014e-04
6.90476190476190e-01 6.12506380049787e-01 1.00754906410443e-03
6.93650793650794e-01 6.12459716155800e-01 1.02958333710849e-03
6.96825396825397e-01 6.12412131032807e-01 1.05180850983179e-03
7.00000000000000e-01 6.12363619631040e-01 1.07442050276513e-03
7.03174603174603e-01 6.12314158856987e-01 1.09803708739765e-03
7.06349206349206e-01 6.12263688163028e-01 1.12326090287816e-03
7.09523809523810e-01 6.12212129684051e-01 1.15024223285850e-03
7.12698412698413e-01 6.12159409480587e-01 1.17890506542334e-03
7.15873015873016e-01 6.12105457407804e-01 1.20917553994417e-03
7.19047619047619e-01 6.12050206988611e-01 1.24098188944220e-03
7.22222222222222e-01 6.11993595290758e-01 1.27425438455708e-03
7.25396825396825e-01 6.11935562807796e-01 1.30892527901226e-03
7.28571428571429e-01 6.11876053343778e-01 1.34492875650264e-03
7.31746031746032e-01 6.11815013901583e-01 1.38220087892436e-03
7.34920634920635e-01 6.11752394574753e-01 1.42067953590700e-03
7.38095238095238e-01 6.11688148442738e-01 1.46030439560204e-03
7.41269841269841e-01 6.11622231469436e-01 1.50101685667288e-03
7.44444444444444e-01 6.11554602404947e-01 1.54276000147753e-03
7.47619047619048e-01 6.11485222690426e-01 1.58547855042607e-03
7.50793650793651e-01 6.11414056365947e-01 1.62911881745109e-03
7.53968253968254e-01 6.11341069981287e-01 1.67362866655493e-03
7.57142857142857e-01 6.11266232509553e-01 1.71895746944395e-03
7.60317460317460e-01 6.11189515263541e-01 1.76505606420990e-03
7.63492063492063e-01 6.11110891814775e-01 1.81187671500071e-03
7.66666666666667e-01 6.11030337915125e-01 1.85937307268947e-03
7.69841269841270e-01 6.10947831420931e-01 1.90750013649447e-03
7.73015873015873e-01 6.10863352219566e-01 1.95621421642494e-03
7.76190476190476e-01 6.10776882158368e-01 2.00547289624864e-03
7.79365079365079e-01 6.10688404975902e-01 2.05523499663811e-03
7.82539682539683e-01 6.10597906235518e-01 2.10546053793580e-03
7.85714285714286e-01 6.10505373261225e-01 2.15611070350107e-03
7.88888888888889e-01 6.10410795075756e-01 2.20714780677760e-03
7.92063492063492e-01 6.10314162340523e-01 2.25853526110916e-03
7.95238095238095e-01 6.10215467297471e-01 2.31023756309322e-03
7.98412698412698e-01 6.10114703711454e-01 2.36222027094025e-03
8.01587301587302e-01 6.10011866815001e-01 2.41426709260865e-03
8.04761904761905e-01 6.09906968991482e-01 2.46595646867072e-03
8.07936507936508e-01 6.09800041598467e-01 2.51703311116096e-03
8.11111111111111e-01 6.09691118643183e-01 2.56746575284455e-03
8.14285714285714e-01 6.09580233786020e-01 2.61725802227008e-03
8.17460317460317e-01 6.09467420341184e-01 2.66641361223924e-03
8.20634920634921e-01 6.09352711277208e-01 2.71493628215291e-03
8.23809523809524e-01 6.09236139217341e-01 2.76282986006959e-03
8.26984126984127e-01 6.09117736439830e-01 2.81009824449292e-03
8.30158730158730e-01 6.08997534878106e-01 2.85674540587007e-03
8.33333333333333e-01 6.08875566120882e-01 2.90277538797271e-03
8.36507936507937e-01 6.08751861412175e-01 2.94819230903118e-03
8.39682539682540e-01 6.08626451651264e-01 2.99300036268040e-03
8.42857142857143e-01 6.08499367392580e-01 3.03720381879118e-03
8.46031746031746e-01 6.08370638845557e-01 3.08080702411144e-03
8.49206349206349e-01 6.08240295874421e-01 3.12381440278062e-03
8.52380952380952e-01 6.08108367997956e-01 3.16623045668399e-03
8.55555555555556e-01 6.07974884389231e-01 3.20805976569224e-03
8.58730158730159e-01 6.07839873875299e-01 3.24930698781140e-03
8.61904761904762e-01 6.07703364936876e-01 3.28997685920863e-03
8.65079365079365e-01 6.07565385708007e-01 3.33007419410280e-03
8.68253968253968e-01 6.07425963975710e-01 3.36960388461112e-03
8.71428571428571e-01 6.07285127179625e-01 3.40857090045012e-03
8.74603174603175e-01 6.07142902411649e-01 3.44698028834216e-03
8.77777777777778e-01 6.06999316415600e-01 3.48483717088652e-03
8.80952380952381e-01 6.06854395586920e-01 3.52214674471630e-03
8.84126984126984e-01 6.06708165972475e-01 3.55891427696701e-03
8.87301587301587e-01 6.06560653270544e-01 3.59514510642060e-03
8.90476190476190e-01 6.06411882830457e-01 3.63084464407457e-03
8.93650793650794e-01 6.06261879652491e-01 3.66601837810789e-03
8.96825396825397e-01 6.06110668386994e-01 3.70067188160215e-03
9.00000000000000e-01 6.05958273333521e-01 3.73480078806632e-03
9.03174603174603e-01 6.05804719261716e-01 3.76859143076026e-03
9.06349206349206e-01 6.05650014992310e-01 3.80243435586995e-03
9.09523809523810e-01 6.05494153228821e-01 3.83652075418583e-03
9.12698412698413e-01 6.05337127174351e-01 3.87083903576334e-03
9.15873015873016e-01 6.05178930520727e-01 3.90537780343573e-03
9.19047619047619e-01 6.05019557437735e-01 3.94012585307423e-03
9.22222222222222e-01 6.04859002562429e-01 3.97507217382452e-03
9.25396825396825e-01 6.04697260988528e-01 4.01020594826504e-03
9.28571428571429e-01 6.04534328255910e-01 4.04551655247748e-03
9.31746031746032e-01 6.04370200340179e-01 4.08099355603485e-03
9.34920634920635e-01 6.04204873642338e-01 4.11662672187532e-03
9.38095238095238e-01 6.04038344978551e-01 4.15240600608210e-03
9.41269841269841e-01 6.03870611570005e-01 4.18832155754977e-03
9.44444444444444e-01 6.03701671032865e-01 4.22436371753532e-03
9.47619047619048e-01 6.03531521368349e-01 4.26052301913925e-03
9.50793650793651e-01 6.03360160952888e-01 4.29679018670404e-03
9.53968253968254e-01 6.03187588528407e-01 4.33315613507189e-03
9.57142857142857e-01 6.03013803192711e-01 4.36961196880650e-03
9.60317460317460e-01 6.02838804389981e-01 4.40614898133066e-03
9.63492063492064e-01 6.02662591901385e-01 4.44275865393203e-03
9.66666666666667e-01 6.02485165835806e-01 4.47943265475397e-03
9.69841269841270e-01 6.02306526620677e-01 4.51616283760644e-03
9.73015873015873e-01 6.02126674992955e-01 4.55294124049783e-03
9.76190476190476e-01 6.01945611990217e-01 4.58976008310659e-03
9.79365079365079e-01 6.01763338941985e-01 4.62661176255269e-03
9.82539682539682e-01 6.01579857461331e-01 4.66348884700930e-03
9.85714285714286e-01 6.01395169436883e-01 4.70038406704995e-03
9.88888888888889e-01 6.01209277025321e-01 4.73729031443582e-03
9.92063492063492e-01 6.01022182643562e-01 4.77420065820504e-03
9.95238095238095e-01 6.00833888959840e-01 4.81110836573678e-03
9.98412698412698e-01 6.00644398884075e-01 4.84800691175680e-03
1.00158730158730e+00 6.00453715558278e-01 4.88635257265589e-03
