Energy (eV)          EEDF (eV^-(3/2))     First Anisotropy
2.39285714285714e-02 1.47106758434380e-01 1.03894359566842e-04
7.17857142857143e-02 1.45300277432610e-01 1.71080878974939e-04
1.19642857142857e-01 1.43515980143172e-01 2.24582748044323e-04
1.67500000000000e-01 1.41753594138595e-01 2.64467842081645e-04
2.15357142857143e-01 1.40012850364270e-01 2.97108919913061e-04
2.63214285714286e-01 1.38293483040404e-01 3.24935204405876e-04
3.11071428571429e-01 1.36595229663195e-01 3.49213608572206e-04
3.58928571428571e-01 1.34917830952223e-01 3.70714976385688e-04
4.06785714285714e-01 1.33261030810837e-01 3.89954344109849e-04
4.54642857142857e-01 1.31624576287379e-01 4.07298391474731e-04
5.02500000000000e-01 1.30008217536399e-01 4.23020507864810e-04
5.50357142857143e-01 1.28411707783568e-01 4.37331825147267e-04
5.98214285714286e-01 1.26834803278617e-01 4.50399981924532e-04
6.46071428571429e-01 1.25277263267846e-01 4.62361106238248e-04
6.93928571428571e-01 1.23738849954012e-01 4.73327809950783e-04
7.41785714285714e-01 1.22219328459994e-01 4.83394715154527e-04
7.89642857142857e-01 1.20718466793009e-01 4.92642391032964e-04
8.37500000000000e-01 1.19236035809152e-01 5.01140230198788e-04
8.85357142857143e-01 1.17771809180103e-01 5.08948597230891e-04
9.33214285714286e-01 1.16325563353391e-01 5.16120463325429e-04
9.81071428571428e-01 1.14897077523570e-01 5.22702671327290e-04
1.02892857142857e+00 1.13486133596697e-01 5.28736929695211e-04
1.07678571428571e+00 1.12092516160825e-01 5.34260605285390e-04
1.12464285714286e+00 1.10716012432772e-01 5.39307356814461e-04
1.17250000000000e+00 1.09356412267871e-01 5.43907655235264e-04
1.22035714285714e+00 1.08013508088731e-01 5.48089212902446e-04
1.26821428571429e+00 1.06687094867097e-01 5.51877334404745e-04
1.31607142857143e+00 1.05376970082717e-01 5.55295210403009e-04
1.36392857142857e+00 1.04082933722741e-01 5.58364168879370e-04
1.41178571428571e+00 1.02804788219813e-01 5.61103889454048e-04
1.45964285714286e+00 1.01542338424247e-01 5.63532577597962e-04
1.50750000000000e+00 1.00295391600640e-01 5.65667122672212e-04
1.55535714285714e+00 9.90637573711622e-02 5.67523233640726e-04
1.60321428571429e+00 9.78472476958723e-02 5.69115553006610e-04
1.65107142857143e+00 9.66456768368207e-02 5.70457756576569e-04
1.69892857142857e+00 9.54588613517748e-02 5.71562643974633e-04
1.74678571428571e+00 9.42866200434882e-02 5.72442219235475e-04
1.79464285714286e+00 9.31287739334949e-02 5.73107754746254e-04
1.84250000000000e+00 9.19851462544040e-02 5.73569854990765e-04
1.89035714285714e+00 9.08555624027400e-02 5.73838512613332e-04
1.93821428571429e+00 8.97398499191879e-02 5.73923155264616e-04
1.98607142857143e+00 8.86378384567860e-02 5.73832687882350e-04
2.03392857142857e+00 8.75493597717110e-02 5.73575533310669e-04
2.08178571428571e+00 8.64742476803716e-02 5.73159669682576e-04
2.12964285714286e+00 8.54123380350199e-02 5.72592658076472e-04
2.17750000000000e+00 8.43634687138126e-02 5.71881673540892e-04
2.22535714285714e+00 8.33274795805617e-02 5.71033532690909e-04
2.27321428571429e+00 8.23042124655728e-02 5.70054716110205e-04
2.32107142857143e+00 8.12935111371995e-02 5.68951389053865e-04
2.36892857142857e+00 8.02952212911437e-02 5.67729422629326e-04
2.41678571428571e+00 7.93091905134427e-02 5.66394413856570e-04
2.46464285714286e+00 7.83352682578994e-02 5.64951698859081e-04
2.51250000000000e+00 7.73733058350572e-02 5.63406370111272e-04
2.56035714285714e+00 7.64231563772708e-02 5.61763291824702e-04
2.60821428571429e+00 7.54846748204462e-02 5.60027111824455e-04
2.65607142857143e+00 7.45577178784490e-02 5.58202272752730e-04
2.70392857142857e+00 7.36421440317549e-02 5.56293024387387e-04
2.75178571428571e+00 7.27378134950951e-02 5.54303435622199e-04
2.79964285714286e+00 7.18445881966325e-02 5.52237401094096e-04
2.84750000000000e+00 7.09623317665219e-02 5.50098651764955e-04
2.89535714285714e+00 7.00909095062501e-02 5.47890764334270e-04
2.94321428571429e+00 6.92301883714151e-02 5.45617168011860e-04
2.99107142857143e+00 6.83800369486085e-02 5.43281151032979e-04
3.03892857142857e+00 6.75403254439163e-02 5.40885868437835e-04
3.08678571428571e+00 6.67109256543709e-02 5.38434349830207e-04
3.13464285714286e+00 6.58917109487716e-02 5.35929502744679e-04
3.18250000000000e+00 6.50825562562390e-02 5.33374119644577e-04
3.23035714285714e+00 6.42833380390795e-02 5.30770884104567e-04
3.27821428571429e+00 6.34939342766542e-02 5.28122374880822e-04
3.32607142857143e+00 6.27142244444354e-02 5.25431069904945e-04
3.37392857142857e+00 6.19440895026626e-02 5.22699351519834e-04
3.42178571428571e+00 6.11834118709815e-02 5.19929511827964e-04
3.46964285714286e+00 6.04320754107988e-02 5.17123754333336e-04
3.51750000000000e+00 5.96899654140799e-02 5.14284198845509e-04
3.56535714285714e+00 5.89569685791881e-02 5.11412885771746e-04
3.61321428571429e+00 5.82329729958405e-02 5.08511778656353e-04
3.66107142857143e+00 5.75178681260949e-02 5.05582766726356e-04
3.70892857142857e+00 5.68115447933488e-02 5.02627668595597e-04
3.75678571428571e+00 5.61138951596925e-02 4.99648236135067e-04
3.80464285714286e+00 5.54248127096884e-02 4.96646155161744e-04
3.85250000000000e+00 5.47441922395646e-02 4.93623049034036e-04
3.90035714285714e+00 5.40719298356028e-02 4.90580481764422e-04
3.94821428571429e+00 5.34079228601536e-02 4.87519959644931e-04
3.99607142857143e+00 5.27520699343468e-02 4.84442932916436e-04
4.04392857142857e+00 5.21042709275477e-02 4.81350798494511e-04
4.09178571428571e+00 5.14644269370528e-02 4.78244902879121e-04
4.13964285714286e+00 5.08324402731859e-02 4.75126542303437e-04
4.18750000000000e+00 5.02082144489788e-02 4.71996965464870e-04
4.23535714285714e+00 4.95916541607686e-02 4.68857375862062e-04
4.28321428571429e+00 4.89826652752290e-02 4.65708932851688e-04
4.33107142857143e+00 4.83811548136279e-02 4.62552752764904e-04
4.37892857142857e+00 4.77870309418051e-02 4.59389910977497e-04
4.42678571428571e+00 4.72002029519113e-02 4.56221444164109e-04
4.47464285714286e+00 4.66205812487190e-02 4.53048350138727e-04
4.52250000000000e+00 4.60480773398402e-02 4.49871589988016e-04
4.57035714285714e+00 4.54826038182570e-02 4.46692089875272e-04
4.61821428571429e+00 4.49240743503166e-02 4.43510741731569e-04
4.66607142857143e+00 4.43724036613835e-02 4.40328404011652e-04
4.71392857142857e+00 4.38275075263710e-02 4.37145903306324e-04
4.76178571428571e+00 4.32893027532763e-02 4.33964036131024e-04
4.80964285714286e+00 4.27577071706104e-02 4.30783568592792e-04
4.85750000000000e+00 4.22326396181761e-02 4.27605238094157e-04
4.90535714285714e+00 4.17140199313019e-02 4.24429754757107e-04
4.95321428571429e+00 4.12017689297450e-02 4.21257801872930e-04
5.00107142857143e+00 4.06958084046033e-02 4.18090036416497e-04
5.04892857142857e+00 4.01960611094128e-02 4.14927090328076e-04
5.09678571428571e+00 3.97024507452708e-02 4.11769571959792e-04
5.14464285714286e+00 3.92149019492958e-02 4.08618065649488e-04
5.19250000000000e+00 3.87333402859701e-02 4.05473133106084e-04
5.24035714285714e+00 3.82576922328842e-02 4.02335314554068e-04
5.28821428571429e+00 3.77878851704893e-02 3.99205129020913e-04
5.33607142857143e+00 3.73238473701521e-02 3.96083074686042e-04
5.38392857142857e+00 3.68655079858133e-02 3.92969629916830e-04
5.43178571428571e+00 3.64127970405233e-02 3.89865254456500e-04
5.47964285714286e+00 3.59656454158496e-02 3.86770388953805e-04
5.52750000000000e+00 3.55239848437757e-02 3.83685456105690e-04
5.57535714285714e+00 3.50877478937911e-02 3.80610861590846e-04
5.62321428571429e+00 3.46568679634369e-02 3.77546994246133e-04
5.67107142857143e+00 3.42312792673969e-02 3.74494226300436e-04
5.71892857142857e+00 3.38109168297053e-02 3.71452914223427e-04
5.76678571428571e+00 3.33957164715427e-02 3.68423399713379e-04
5.81464285714286e+00 3.29856148015146e-02 3.65406009212648e-04
5.86250000000000e+00 3.25805492080911e-02 3.62401054861200e-04
5.91035714285714e+00 3.21804578478997e-02 3.59408835267451e-04
5.95821428571429e+00 3.17852796370091e-02 3.56429635608016e-04
6.00607142857143e+00 3.13949542409615e-02 3.53463727780352e-04
6.05392857142857e+00 3.10094220675111e-02 3.50511371106012e-04
6.10178571428571e+00 3.06286242555489e-02 3.47572813160425e-04
6.14964285714286e+00 3.02525026661810e-02 3.44648289292565e-04
6.19750000000000e+00 2.98809998756890e-02 3.41738023428360e-04
6.24535714285714e+00 2.95140591649005e-02 3.38842228713508e-04
6.29321428571429e+00 2.91516245111590e-02 3.35961107559992e-04
6.34107142857143e+00 2.87936405792130e-02 3.33094851740970e-04
6.38892857142857e+00 2.84400527144608e-02 3.30243642978831e-04
6.43678571428571e+00 2.80908069328903e-02 3.27407653648163e-04
6.48464285714286e+00 2.77458499128920e-02 3.24587046310675e-04
6.53250000000000e+00 2.74051289887149e-02 3.21781974397424e-04
6.58035714285714e+00 2.70685921408075e-02 3.18992582749399e-04
6.62821428571429e+00 2.67361879884223e-02 3.16219007627099e-04
6.67607142857143e+00 2.64078657812855e-02 3.13461376764001e-04
6.72392857142857e+00 2.60835753933236e-02 3.10719809862137e-04
6.77178571428571e+00 2.57632673135161e-02 3.07994419191817e-04
6.81964285714286e+00 2.54468926383837e-02 3.05285309148210e-04
6.86750000000000e+00 2.51344030659138e-02 3.02592576834505e-04
6.91535714285714e+00 2.48257508867758e-02 2.99916312519707e-04
6.96321428571429e+00 2.45208889775131e-02 2.97256599622671e-04
7.01107142857143e+00 2.42197707929247e-02 2.94613514735876e-04
7.05892857142857e+00 2.39223503602462e-02 2.91987128045805e-04
7.10678571428571e+00 2.36285822708268e-02 2.89377503847522e-04
7.15464285714286e+00 2.33384216732372e-02 2.86784700126404e-04
7.20250000000000e+00 2.30518242676380e-02 2.84208769059423e-04
7.25035714285714e+00 2.27687462977845e-02 2.81649757405091e-04
7.29821428571429e+00 2.24891445447616e-02 2.79107706470047e-04
7.34607142857143e+00 2.22129763200146e-02 2.76582652111560e-04
7.39392857142857e+00 2.19401994599584e-02 2.74074625096110e-04
7.44178571428571e+00 2.16707723183989e-02 2.71583651543096e-04
7.48964285714286e+00 2.14046537602097e-02 2.69109752533252e-04
7.53750000000000e+00 2.11418031561175e-02 2.66652944541527e-04
7.58535714285714e+00 2.08821803754194e-02 2.64213239770910e-04
7.63321428571429e+00 2.06257457802207e-02 2.61790646107405e-04
7.68107142857143e+00 2.03724602190571e-02 2.59385167107417e-04
7.72892857142857e+00 2.01222850219059e-02 2.56996802305011e-04
7.77678571428571e+00 1.98751819932812e-02 2.54625547596148e-04
7.82464285714286e+00 1.96311134064326e-02 2.52271394874061e-04
7.87250000000000e+00 1.93900419985206e-02 2.49934332404570e-04
7.92035714285714e+00 1.91519309639805e-02 2.47614345113093e-04
7.96821428571429e+00 1.89167439492223e-02 2.45311414532156e-04
8.01607142857143e+00 1.86844450467949e-02 2.43025518778202e-04
8.06392857142857e+00 1.84549987907718e-02 2.40756632815931e-04
8.11178571428571e+00 1.82283701504574e-02 2.38504728792201e-04
8.15964285714286e+00 1.80045245250649e-02 2.36269775697908e-04
8.20750000000000e+00 1.77834277392561e-02 2.34051739694505e-04
8.25535714285714e+00 1.75650460370908e-02 2.31850584361633e-04
8.30321428571428e+00 1.73493460771540e-02 2.29666270640250e-04
8.35107142857143e+00 1.71362949272142e-02 2.27498756802140e-04
8.39892857142857e+00 1.69258600599591e-02 2.25347998678123e-04
8.44678571428571e+00 1.67180093472563e-02 2.23213949949127e-04
8.49464285714286e+00 1.65127110552703e-02 2.21096561833599e-04
8.54250000000000e+00 1.63099338403429e-02 2.18995783372399e-04
8.59035714285714e+00 1.61096467434736e-02 2.16911561643105e-04
8.63821428571429e+00 1.59118191858405e-02 2.14843841700977e-04
8.68607142857143e+00 1.57164209639100e-02 2.12792566543655e-04
8.73392857142857e+00 1.55234222454990e-02 2.10757677308716e-04
8.78178571428571e+00 1.53327935645383e-02 2.08739113528104e-04
8.82964285714286e+00 1.51445058165937e-02 2.06736812839821e-04
8.87750000000000e+00 1.49585302550616e-02 2.04750711237126e-04
8.92535714285714e+00 1.47748384861332e-02 2.02780743254552e-04
8.97321428571428e+00 1.45934024646778e-02 2.00826841908194e-04
9.02107142857143e+00 1.44141944897646e-02 1.98888938657461e-04
9.06892857142857e+00 1.42371872010288e-02 1.96966963576591e-04
9.11678571428571e+00 1.40623535738922e-02 1.95060845577491e-04
9.16464285714286e+00 1.38896669154540e-02 1.93170512144332e-04
9.21250000000000e+00 1.37191008609810e-02 1.91295889552014e-04
9.26035714285714e+00 1.35506293693101e-02 1.89436903027972e-04
9.30821428571429e+00 1.33842267190657e-02 1.87593476692985e-04
9.35607142857143e+00 1.32198675045589e-02 1.85765533521324e-04
9.40392857142857e+00 1.30575266324353e-02 1.83952995489930e-04
9.45178571428571e+00 1.28971793173110e-02 1.82155783774046e-04
9.49964285714286e+00 1.27388010780039e-02 1.80373818503221e-04
9.54750000000000e+00 1.25823677342955e-02 1.78607018953196e-04
9.59535714285714e+00 1.24278554027339e-02 1.76855303686957e-04
9.64321428571428e+00 1.22752404931574e-02 1.75118590496828e-04
9.69107142857143e+00 1.21244997049397e-02 1.73396796364015e-04
9.73892857142857e+00 1.19756100238984e-02 1.71689837588659e-04
9.78678571428571e+00 1.18285487183096e-02 1.69997629961843e-04
9.83464285714286e+00 1.16832933354507e-02 1.68320088541525e-04
9.88250000000000e+00 1.15398216986154e-02 1.66657127821386e-04
9.93035714285714e+00 1.13981119032795e-02 1.65008661853981e-04
9.97821428571429e+00 1.12581423139081e-02 1.63374604352639e-04
1.00260714285714e+01 1.11198915599683e-02 1.61754868017440e-04
1.00739285714286e+01 1.09833385352770e-02 1.60149365288069e-04
1.01217857142857e+01 1.08484623915799e-02 1.58558009156103e-04
1.01696428571429e+01 1.07152425353523e-02 1.56980711116099e-04
1.02175000000000e+01 1.05836586285689e-02 1.55417382700889e-04
1.02653571428571e+01 1.04536905803887e-02 1.53867935183339e-04
1.03132142857143e+01 1.03253185492146e-02 1.52332279525980e-04
1.03610714285714e+01 1.01985229346186e-02 1.50810326487043e-04
1.04089285714286e+01 1.00732843793148e-02 1.49301986225686e-04
1.04567857142857e+01 9.94958376248835e-03 1.47807169788214e-04
1.05046428571429e+01 9.82740219698528e-03 1.46325786993698e-04
1.05525000000000e+01 9.70672102990411e-03 1.44857747853508e-04
1.06003571428571e+01 9.58752183512181e-03 1.43402962299262e-04
1.06482142857143e+01 9.46978641503368e-03 1.41961340134697e-04
1.06960714285714e+01 9.35349679329383e-03 1.40532791128461e-04
1.07439285714286e+01 9.23863521648112e-03 1.39117224655163e-04
1.07917857142857e+01 9.12518414808845e-03 1.37714551034295e-04
1.08396428571429e+01 9.01312626594127e-03 1.36324679619018e-04
1.08875000000000e+01 8.90244446264166e-03 1.34947520075063e-04
1.09353571428571e+01 8.79312183884478e-03 1.33582982132620e-04
1.09832142857143e+01 8.68514170472589e-03 1.32230975540554e-04
1.10310714285714e+01 8.57848757344860e-03 1.30891410147734e-04
1.10789285714286e+01 8.47314316256893e-03 1.29564195576622e-04
1.11267857142857e+01 8.36909238861523e-03 1.28249242430175e-04
1.11746428571429e+01 8.26631936471721e-03 1.26946460563558e-04
1.12225000000000e+01 8.16480840092817e-03 1.25655760237010e-04
1.12703571428571e+01 8.06454399817173e-03 1.24377051889579e-04
1.13182142857143e+01 7.96551084947631e-03 1.23110246095755e-04
1.13660714285714e+01 7.86769383409343e-03 1.21855253636827e-04
1.14139285714286e+01 7.77107801867866e-03 1.20611985204019e-04
1.14617857142857e+01 7.67564865240053e-03 1.19380352486986e-04
1.15096428571429e+01 7.58139116476306e-03 1.18160266610302e-04
1.15575000000000e+01 7.48829116582791e-03 1.16951639173283e-04
1.16053571428571e+01 7.39633444076038e-03 1.15754382043642e-04
1.16532142857143e+01 7.30550695086571e-03 1.14568407316572e-04
1.17010714285714e+01 7.21579482828884e-03 1.13393627377385e-04
1.17489285714286e+01 7.12718437700517e-03 1.12229954631494e-04
1.17967857142857e+01 7.03966206840380e-03 1.11077302486618e-04
1.18446428571429e+01 6.95321453928797e-03 1.09935583937792e-04
1.18925000000000e+01 6.86782859201530e-03 1.08804712505689e-04
1.19403571428571e+01 6.78349118958024e-03 1.07684602048470e-04
1.19882142857143e+01 6.70018945648153e-03 1.06575166723249e-04
1.20360714285714e+01 6.61791067394259e-03 1.05476321041146e-04
1.20839285714286e+01 6.53664228074020e-03 1.04387979621653e-04
1.21317857142857e+01 6.45637186921359e-03 1.03310058079337e-04
1.21796428571429e+01 6.37708718342831e-03 1.02242471742803e-04
1.22275000000000e+01 6.29877611924985e-03 1.01185136501808e-04
1.22753571428571e+01 6.22142671990687e-03 1.00137968635692e-04
1.23232142857143e+01 6.14502717671480e-03 9.91008847772073e-05
1.23710714285714e+01 6.06956582476287e-03 9.80738019609135e-05
1.24189285714286e+01 5.99503114360484e-03 9.70566373996836e-05
1.24667857142857e+01 5.92141175365063e-03 9.60493092855538e-05
1.25146428571429e+01 5.84869641448043e-03 9.50517356295565e-05
1.25625000000000e+01 5.77687402486453e-03 9.40638350268399e-05
1.26103571428571e+01 5.70593361875766e-03 9.30855265001907e-05
1.26582142857143e+01 5.63586436590032e-03 9.21167294661572e-05
1.27060714285714e+01 5.56665556792439e-03 9.11573637776167e-05
1.27539285714286e+01 5.49829665892648e-03 9.02073495204058e-05
1.28017857142857e+01 5.43077720220353e-03 8.92666077369113e-05
1.28496428571429e+01 5.36408688870508e-03 8.83350593750248e-05
1.28975000000000e+01 5.29821553700990e-03 8.74126259794954e-05
1.29453571428571e+01 5.23315308970752e-03 8.64992295492071e-05
1.29932142857143e+01 5.16888961389543e-03 8.55947925055058e-05
1.30410714285714e+01 5.10541529766072e-03 8.46992377296543e-05
1.30889285714286e+01 5.04272045055354e-03 8.38124883777338e-05
1.31367857142857e+01 4.98079550063238e-03 8.29344685347135e-05
1.31846428571429e+01 4.91963099304317e-03 8.20651022619407e-05
1.32325000000000e+01 4.85921758996173e-03 8.12043142220716e-05
1.32803571428571e+01 4.79954606732326e-03 8.03520295489151e-05
1.33282142857143e+01 4.74060731523105e-03 7.95081738178422e-05
1.33760714285714e+01 4.68239233477606e-03 7.86726730787635e-05
1.34239285714286e+01 4.62489223842560e-03 7.78454536876350e-05
1.34717857142857e+01 4.56809824734748e-03 7.70264428978831e-05
1.35196428571429e+01 4.51200169010573e-03 7.62155679969584e-05
1.35675000000000e+01 4.45659400257626e-03 7.54127568714345e-05
1.36153571428571e+01 4.40186672498932e-03 7.46179378882778e-05
1.36632142857143e+01 4.34781150226313e-03 7.38310398672527e-05
1.37110714285714e+01 4.29442008112742e-03 7.30519921099596e-05
1.37589285714286e+01 4.24168431044024e-03 7.22807242464407e-05
1.38067857142857e+01 4.18959613876346e-03 7.15171667701444e-05
1.38546428571429e+01 4.13814761316565e-03 7.07612502549853e-05
1.39025000000000e+01 4.08733087911713e-03 7.00129058665146e-05
1.39503571428571e+01 4.03713817781417e-03 6.92720652535975e-05
1.39982142857143e+01 3.98756184644896e-03 6.85386605227297e-05
1.40460714285714e+01 3.93859431560688e-03 6.78126242636052e-05
1.40939285714286e+01 3.89022810952226e-03 6.70938894094280e-05
1.41417857142857e+01 3.84245584388087e-03 6.63823897209832e-05
1.41896428571429e+01 3.79527022472095e-03 6.56780590764937e-05
1.42375000000000e+01 3.74866404831306e-03 6.49808319341616e-05
1.42853571428571e+01 3.70263019873790e-03 6.42906432333439e-05
1.43332142857143e+01 3.65716164810257e-03 6.36074283706492e-05
1.43810714285714e+01 3.61225145418426e-03 6.29311232224603e-05
1.44289285714286e+01 3.56789276063458e-03 6.22616640177182e-05
1.44767857142857e+01 3.52407879498676e-03 6.15989877760714e-05
1.45246428571429e+01 3.48080286764701e-03 6.09430316635888e-05
1.45725000000000e+01 3.43805837176334e-03 6.02937334114223e-05
1.46203571428571e+01 3.39583878103198e-03 5.96510312256508e-05
1.46682142857143e+01 3.35413764986828e-03 5.90148637650541e-05
1.47160714285714e+01 3.31294861127266e-03 5.83851701609451e-05
1.47639285714286e+01 3.27226537699143e-03 5.77618899012993e-05
1.48117857142857e+01 3.23208173570899e-03 5.71449632274532e-05
1.48596428571429e+01 3.19239155212213e-03 5.65343305494192e-05
1.49075000000000e+01 3.15318876680124e-03 5.59299328249546e-05
1.49553571428571e+01 3.11446739420308e-03 5.53317114772926e-05
1.50032142857143e+01 3.07622152280336e-03 5.47396083744939e-05
1.50510714285714e+01 3.03844531316324e-03 5.41535658469123e-05
1.50989285714286e+01 3.00113299805352e-03 5.35735265816393e-05
