Energy (eV)          EEDF (eV^-(3/2))     First Anisotropy
9.56666666666667e-02 4.66235423174918e-02 4.48134055010860e-05
2.87000000000000e-01 4.55612601523070e-02 7.34034245411966e-05
4.78333333333333e-01 4.45231812806766e-02 9.53340148541896e-05
6.69666666666667e-01 4.35087542528700e-02 1.11071082861879e-04
8.61000000000000e-01 4.25174401783873e-02 1.23452664610020e-04
1.05233333333333e+00 4.15487124449479e-02 1.33578999693512e-04
1.24366666666667e+00 4.06020564409897e-02 1.42032987554929e-04
1.43500000000000e+00 3.96769692805010e-02 1.49174584546173e-04
1.62633333333333e+00 3.87729595274416e-02 1.55247677339985e-04
1.81766666666667e+00 3.78895469553553e-02 1.60428190820891e-04
2.00900000000000e+00 3.70262622722804e-02 1.64848901091155e-04
2.20033333333333e+00 3.61826468753085e-02 1.68613506393011e-04
2.39166666666667e+00 3.53582526188325e-02 1.71805191943175e-04
2.58300000000000e+00 3.45526415632887e-02 1.74492135071188e-04
2.77433333333333e+00 3.37653857446102e-02 1.76731200363518e-04
2.96566666666667e+00 3.29960669556481e-02 1.78570512870971e-04
3.15700000000000e+00 3.22442765144903e-02 1.80051303645181e-04
3.34833333333333e+00 3.15096150486648e-02 1.81209266290319e-04
3.53966666666667e+00 3.07916922897409e-02 1.82075578358597e-04
3.73100000000000e+00 3.00901268587694e-02 1.82677684349010e-04
3.92233333333333e+00 2.94045460645667e-02 1.83039905031201e-04
4.11366666666667e+00 2.87345857111008e-02 1.83183920633417e-04
4.30500000000000e+00 2.80798898983207e-02 1.83129158313574e-04
4.49633333333333e+00 2.74401108337240e-02 1.82893105653403e-04
4.68766666666667e+00 2.68149086519615e-02 1.82491568743714e-04
4.87900000000000e+00 2.62039512296910e-02 1.81938885991737e-04
5.07033333333333e+00 2.56069140096151e-02 1.81248105995321e-04
5.26166666666667e+00 2.50234798316693e-02 1.80431138248765e-04
5.45300000000000e+00 2.44533387607565e-02 1.79498881103484e-04
5.64433333333333e+00 2.38961879224623e-02 1.78461330426370e-04
5.83566666666667e+00 2.33517313451744e-02 1.77327673812330e-04
6.02700000000000e+00 2.28196797997012e-02 1.76106372128538e-04
6.21833333333333e+00 2.22997506459094e-02 1.74805229821167e-04
6.40966666666667e+00 2.17916676851275e-02 1.73431457058807e-04
6.60100000000000e+00 2.12951610107627e-02 1.71991724350430e-04
6.79233333333333e+00 2.08099668651464e-02 1.70492210172637e-04
6.98366666666667e+00 2.03358275015945e-02 1.68938643766998e-04
7.17500000000000e+00 1.98724910452222e-02 1.67336343225644e-04
7.36633333333333e+00 1.94197113593259e-02 1.65690248978757e-04
7.55766666666667e+00 1.89772479164987e-02 1.64004954325244e-04
7.74900000000000e+00 1.85448656689146e-02 1.62284732881532e-04
7.94033333333333e+00 1.81223349236162e-02 1.60533562859079e-04
8.13166666666667e+00 1.77094312221140e-02 1.58755149487539e-04
8.32300000000000e+00 1.73059352194709e-02 1.56952945346444e-04
8.51433333333333e+00 1.69116325679068e-02 1.55130168418985e-04
8.70566666666667e+00 1.65263138043388e-02 1.53289818965330e-04
8.89700000000000e+00 1.61497742376520e-02 1.51434694931222e-04
9.08833333333333e+00 1.57818138400689e-02 1.49567405662371e-04
9.27966666666667e+00 1.54222371421186e-02 1.47690384863144e-04
9.47100000000000e+00 1.50708531275274e-02 1.45805902501360e-04
9.66233333333333e+00 1.47274751318359e-02 1.43916075414758e-04
9.85366666666667e+00 1.43919207443164e-02 1.42022877436249e-04
1.00450000000000e+01 1.40640117099581e-02 1.40128148843078e-04
1.02363333333333e+01 1.37435738339024e-02 1.38233604281966e-04
1.04276666666667e+01 1.34304368936678e-02 1.36340841208938e-04
1.06190000000000e+01 1.31244345428404e-02 1.34451347806493e-04
1.08103333333333e+01 1.28254042223798e-02 1.32566508248839e-04
1.10016666666667e+01 1.25331870826457e-02 1.30687609934184e-04
1.11930000000000e+01 1.22476278903710e-02 1.28815850292702e-04
1.13843333333333e+01 1.19685749467643e-02 1.26952340489733e-04
1.15756666666667e+01 1.16958800143477e-02 1.25098111467664e-04
1.17670000000000e+01 1.14293982305612e-02 1.23254119565038e-04
1.19583333333333e+01 1.11689880312982e-02 1.21421249363701e-04
1.21496666666667e+01 1.09145110822960e-02 1.19600318709252e-04
1.23410000000000e+01 1.06658321988623e-02 1.17792083390823e-04
1.25323333333333e+01 1.04228192744879e-02 1.15997239334085e-04
1.27236666666667e+01 1.01853432165371e-02 1.14216426806990e-04
1.29150000000000e+01 9.95327787163283e-03 1.12450234347614e-04
1.31063333333333e+01 9.72649995901330e-03 1.10699200452366e-04
1.32976666666667e+01 9.50488901027711e-03 1.08963817124070e-04
1.34890000000000e+01 9.28832730000476e-03 1.07244533190836e-04
1.36803333333333e+01 9.07669978354652e-03 1.05541755601514e-04
1.38716666666667e+01 8.86989404058641e-03 1.03855852437177e-04
1.40630000000000e+01 8.66780021061358e-03 1.02187155731732e-04
1.42543333333333e+01 8.47031093484874e-03 1.00535962459690e-04
1.44456666666667e+01 8.27732130340142e-03 9.89025371056777e-05
1.46370000000000e+01 8.08872879523639e-03 9.72871140736581e-05
1.48283333333333e+01 7.90443322396490e-03 9.56898984322980e-05
1.50196666666667e+01 7.72433668838003e-03 9.41110681173888e-05
1.52110000000000e+01 7.54834351659186e-03 9.25507759986708e-05
1.54023333333333e+01 7.37636021542786e-03 9.10091504333755e-05
1.55936666666667e+01 7.20829542414124e-03 8.94862971614821e-05
1.57850000000000e+01 7.04405986241487e-03 8.79823010855111e-05
1.59763333333333e+01 6.88356628313137e-03 8.64972266717917e-05
1.61676666666667e+01 6.72672942906039e-03 8.50311195869945e-05
1.63590000000000e+01 6.57346598445415e-03 8.35840082357737e-05
1.65503333333333e+01 6.42369453096395e-03 8.21559040408970e-05
1.67416666666667e+01 6.27733550712217e-03 8.07468028605787e-05
1.69330000000000e+01 6.13431116327398e-03 7.93566863206736e-05
1.71243333333333e+01 5.99454552043128e-03 7.79855219983621e-05
1.73156666666667e+01 5.85796433237567e-03 7.66332646527973e-05
1.75070000000000e+01 5.72449504368997e-03 7.52998573821098e-05
1.76983333333333e+01 5.59406675135455e-03 7.39852317303404e-05
1.78896666666667e+01 5.46661016930703e-03 7.26893087583447e-05
1.80810000000000e+01 5.34205758935529e-03 7.14120000507478e-05
1.82723333333333e+01 5.22034284533375e-03 7.01532077619068e-05
1.84636666666667e+01 5.10140127996517e-03 6.89128255495661e-05
1.86550000000000e+01 4.98516970845279e-03 6.76907394527719e-05
1.88463333333333e+01 4.87158638502639e-03 6.64868278895755e-05
1.90376666666667e+01 4.76059097196052e-03 6.53009624723241e-05
1.92290000000000e+01 4.65212450565828e-03 6.41330087742103e-05
1.94203333333333e+01 4.54612936542821e-03 6.29828262889826e-05
1.96116666666667e+01 4.44254924452189e-03 6.18502691438293e-05
1.98030000000000e+01 4.34132911853566e-03 6.07351867695123e-05
1.99943333333333e+01 4.24241521626983e-03 5.96374238304003e-05
2.01856666666667e+01 4.14575499265680e-03 5.85568208484872e-05
2.03770000000000e+01 4.05129709931961e-03 5.74932147898213e-05
2.05683333333333e+01 3.95899135737478e-03 5.64464389716190e-05
2.07596666666667e+01 3.86878873213002e-03 5.54163236089672e-05
2.09510000000000e+01 3.78064130564992e-03 5.44026963284005e-05
2.11423333333333e+01 3.69450225137310e-03 5.34053820575832e-05
2.13336666666667e+01 3.61032581046580e-03 5.24242035045964e-05
2.15250000000000e+01 3.52806726625595e-03 5.14589816079682e-05
2.17163333333333e+01 3.44768292054366e-03 5.05095354133980e-05
2.19076666666667e+01 3.36913007150416e-03 4.95756824941346e-05
2.20990000000000e+01 3.29236698986119e-03 4.86572393454592e-05
2.22903333333333e+01 3.21735289677813e-03 4.77540212521027e-05
2.24816666666667e+01 3.14404794321019e-03 4.68658426570530e-05
2.26730000000000e+01 3.07241318769737e-03 4.59925175074087e-05
2.28643333333333e+01 3.00241057573079e-03 4.51338591154456e-05
2.30556666666667e+01 2.93400292046045e-03 4.42896804822116e-05
2.32470000000000e+01 2.86715388199636e-03 4.34597946007410e-05
2.34383333333333e+01 2.80182794815181e-03 4.26440143131762e-05
2.36296666666667e+01 2.73799041641871e-03 4.18421525946657e-05
2.38210000000000e+01 2.67560737467349e-03 4.10540228191411e-05
2.40123333333333e+01 2.61464568320535e-03 4.02794386144475e-05
2.42036666666667e+01 2.55507295787704e-03 3.95182141113429e-05
2.43950000000000e+01 2.49685755213908e-03 3.87701641763690e-05
2.45863333333333e+01 2.43996854025742e-03 3.80351042665608e-05
2.47776666666667e+01 2.38437570158252e-03 3.73128506477387e-05
2.49690000000000e+01 2.33004950378229e-03 3.66032205984284e-05
2.51603333333333e+01 2.27696108718927e-03 3.59060322654120e-05
2.53516666666667e+01 2.22508225010566e-03 3.52211048549765e-05
2.55430000000000e+01 2.17438543317184e-03 3.45482588113382e-05
2.57343333333333e+01 2.12484370475825e-03 3.38873156740430e-05
2.59256666666667e+01 2.07643074723891e-03 3.32380982453781e-05
2.61170000000000e+01 2.02912084241787e-03 3.26004307463374e-05
2.63083333333333e+01 1.98288885789619e-03 3.19741386766591e-05
2.64996666666667e+01 1.93771023425063e-03 3.13590489612182e-05
2.66910000000000e+01 1.89356097144592e-03 3.07549900861925e-05
2.68823333333333e+01 1.85041761611177e-03 3.01617919623559e-05
2.70736666666667e+01 1.80825724956752e-03 2.95792860529285e-05
2.72650000000000e+01 1.76705747515304e-03 2.90073054922798e-05
2.74563333333333e+01 1.72679640635514e-03 2.84456849529509e-05
2.76476666666667e+01 1.68745265562269e-03 2.78942607571407e-05
2.78390000000000e+01 1.64900532255373e-03 2.73528709800068e-05
2.80303333333333e+01 1.61143398281446e-03 2.68213553207678e-05
2.82216666666667e+01 1.57471867769319e-03 2.62995551997439e-05
2.84130000000000e+01 1.53883990308527e-03 2.57873138480712e-05
2.86043333333333e+01 1.50377859915192e-03 2.52844761831378e-05
2.87956666666667e+01 1.46951614056440e-03 2.47908888928737e-05
2.89870000000000e+01 1.43603432623268e-03 2.43064005134802e-05
2.91783333333333e+01 1.40331536965463e-03 2.38308613093675e-05
2.93696666666667e+01 1.37134188980517e-03 2.33641233461934e-05
2.95610000000000e+01 1.34009690155813e-03 2.29060405580194e-05
2.97523333333333e+01 1.30956380667974e-03 2.24564686318559e-05
2.99436666666667e+01 1.27972638532038e-03 2.20152650707703e-05
3.01350000000000e+01 1.25056878708258e-03 2.15822892517216e-05
3.03263333333333e+01 1.22207552261585e-03 2.11574023147612e-05
3.05176666666667e+01 1.19423145567138e-03 2.07404672173796e-05
3.07090000000000e+01 1.16702179477234e-03 2.03313487841258e-05
3.09003333333333e+01 1.14043208536996e-03 1.99299136004666e-05
3.10916666666667e+01 1.11444820242409e-03 1.95360300594100e-05
3.12830000000000e+01 1.08905634263503e-03 1.91495684038852e-05
3.14743333333333e+01 1.06424301712335e-03 1.87704006252288e-05
3.16656666666667e+01 1.03999504450171e-03 1.83984005030010e-05
3.18570000000000e+01 1.01629954363019e-03 1.80334436409949e-05
3.20483333333333e+01 9.93143926784900e-04 1.76754073702862e-05
3.22396666666667e+01 9.70515893188660e-04 1.73241707830542e-05
3.24310000000000e+01 9.48403422254423e-04 1.69796147629897e-05
3.26223333333333e+01 9.26794767210026e-04 1.66416218928202e-05
3.28136666666667e+01 9.05678449057491e-04 1.63100764828587e-05
3.30050000000000e+01 8.85043250271511e-04 1.59848645964877e-05
3.31963333333333e+01 8.64878208849907e-04 1.56658739620586e-05
3.33876666666667e+01 8.45172612673261e-04 1.53529939968059e-05
3.35790000000000e+01 8.25915993627700e-04 1.50461158280105e-05
3.37703333333333e+01 8.07098122052639e-04 1.47451322091543e-05
3.39616666666667e+01 7.88709001474324e-04 1.44499375397661e-05
3.41530000000000e+01 7.70738863124235e-04 1.41604278827993e-05
3.43443333333333e+01 7.53178160757599e-04 1.38765008849121e-05
3.45356666666667e+01 7.36017565736140e-04 1.35980557927483e-05
3.47270000000000e+01 7.19247961915390e-04 1.33249934670023e-05
3.49183333333333e+01 7.02860440809206e-04 1.30572163066892e-05
3.51096666666667e+01 6.86846296998665e-04 1.27946282623044e-05
3.53010000000000e+01 6.71197023363362e-04 1.25371348469964e-05
3.54923333333333e+01 6.55904306568846e-04 1.22846430646847e-05
3.56836666666667e+01 6.40960022780084e-04 1.20370614204938e-05
3.58750000000000e+01 6.26356233213547e-04 1.17942999294055e-05
3.60663333333333e+01 6.12085179925984e-04 1.15562700480783e-05
3.62576666666667e+01 5.98139281812341e-04 1.13228846829070e-05
3.64490000000000e+01 5.84511130456964e-04 1.10940581964834e-05
3.66403333333333e+01 5.71193486203617e-04 1.08697063429705e-05
3.68316666666667e+01 5.58179274419016e-04 1.06497462740981e-05
3.70230000000000e+01 5.45461581622994e-04 1.04340965437235e-05
3.72143333333333e+01 5.33033651820970e-04 1.02226770466142e-05
3.74056666666667e+01 5.20888883015529e-04 1.00154090226528e-05
3.75970000000000e+01 5.09020823596735e-04 9.81221505975653e-06
3.77883333333333e+01 4.97423168919535e-04 9.61301903592196e-06
3.79796666666667e+01 4.86089758046957e-04 9.41774612188345e-06
3.81710000000000e+01 4.75014570383042e-04 9.22632278261948e-06
3.83623333333333e+01 4.64191722478822e-04 9.03867672251516e-06
3.85536666666667e+01 4.53615464991802e-04 8.85473688668867e-06
3.87450000000000e+01 4.43280179545165e-04 8.67443346128666e-06
3.89363333333333e+01 4.33180375747057e-04 8.49769782162259e-06
3.91276666666667e+01 4.23310688352031e-04 8.32446253236211e-06
3.93190000000000e+01 4.13665874331275e-04 8.15466134678552e-06
3.95103333333333e+01 4.04240810090971e-04 7.98822915776298e-06
3.97016666666667e+01 3.95030488822309e-04 7.82510199696696e-06
3.98930000000000e+01 3.86030017768536e-04 7.66521703325882e-06
4.00843333333333e+01 3.77234615629087e-04 7.50851252636628e-06
4.02756666666667e+01 3.68639610085678e-04 7.35492782527105e-06
4.04670000000000e+01 3.60240435252919e-04 7.20440336585820e-06
4.06583333333333e+01 3.52032629255816e-04 7.05688062716481e-06
4.08496666666667e+01 3.44011831920267e-04 6.91230212907368e-06
4.10410000000000e+01 3.36173782394886e-04 6.77061142934667e-06
4.12323333333333e+01 3.28514316890295e-04 6.63175308231798e-06
4.14236666666667e+01 3.21029366523128e-04 6.49567263600913e-06
4.16150000000000e+01 3.13714955097532e-04 6.36231662865418e-06
4.18063333333333e+01 3.06567196995461e-04 6.23163254971394e-06
4.19976666666667e+01 2.99582295163986e-04 6.10356883651348e-06
4.21890000000000e+01 2.92756539045754e-04 5.97807487035369e-06
4.23803333333333e+01 2.86086302610180e-04 5.85510093972830e-06
4.25716666666667e+01 2.79568042474569e-04 5.73459823657300e-06
4.27630000000000e+01 2.73198295973501e-04 5.61651885204493e-06
4.29543333333333e+01 2.66973679321521e-04 5.50081574182949e-06
4.31456666666667e+01 2.60890885859192e-04 5.38744272207855e-06
4.33370000000000e+01 2.54946684252064e-04 5.27635446493010e-06
4.35283333333333e+01 2.49137916776076e-04 5.16750646579584e-06
4.37196666666667e+01 2.43461497680250e-04 5.06085503905620e-06
4.39110000000000e+01 2.37914411506530e-04 4.95635731338330e-06
4.41023333333333e+01 2.32493711489706e-04 4.85397120090484e-06
4.42936666666667e+01 2.27196518029002e-04 4.75365539271500e-06
4.44850000000000e+01 2.22020017120660e-04 4.65536935405520e-06
4.46763333333333e+01 2.16961458864736e-04 4.55907329525442e-06
4.48676666666667e+01 2.12018156038354e-04 4.46472816710770e-06
4.50590000000000e+01 2.07187482633457e-04 4.37229565596194e-06
4.52503333333333e+01 2.02466872463339e-04 4.28173815633713e-06
4.54416666666667e+01 1.97853817830807e-04 4.19301876621738e-06
4.56330000000000e+01 1.93345868164042e-04 4.10610128208218e-06
4.58243333333333e+01 1.88940628716195e-04 4.02095017311771e-06
4.60156666666667e+01 1.84635759322163e-04 3.93753057645871e-06
4.62070000000000e+01 1.80428973125960e-04 3.85580829220072e-06
4.63983333333333e+01 1.76318035367169e-04 3.77574975911447e-06
4.65896666666667e+01 1.72300762220439e-04 3.69732204987180e-06
4.67810000000000e+01 1.68375019608219e-04 3.62049286606869e-06
4.69723333333333e+01 1.64538722068270e-04 3.54523051536023e-06
4.71636666666667e+01 1.60789831670384e-04 3.47150390669903e-06
4.73550000000000e+01 1.57126356908747e-04 3.39928254539479e-06
4.75463333333333e+01 1.53546351645094e-04 3.32853651159087e-06
4.77376666666667e+01 1.50047914097524e-04 3.25923645553952e-06
4.79290000000000e+01 1.46629185807144e-04 3.19135359271954e-06
4.81203333333333e+01 1.43288350651810e-04 3.12485968357966e-06
4.83116666666667e+01 1.40023633902249e-04 3.05972702887107e-06
4.85030000000000e+01 1.36833301257996e-04 2.99592846484132e-06
4.86943333333333e+01 1.33715657927011e-04 2.93343734417364e-06
4.88856666666667e+01 1.30669047744628e-04 2.87222753139350e-06
4.90770000000000e+01 1.27691852274130e-04 2.81227339815405e-06
4.92683333333333e+01 1.24782489947850e-04 2.75354980530403e-06
4.94596666666667e+01 1.21939415244768e-04 2.69603209838263e-06
4.96510000000000e+01 1.19161117851385e-04 2.63969610300877e-06
4.98423333333333e+01 1.16446121860199e-04 2.58451810801344e-06
5.00336666666667e+01 1.13792985002045e-04 2.53047486103465e-06
5.02250000000000e+01 1.11200297863238e-04 2.47754356402065e-06
5.04163333333333e+01 1.08666683137571e-04 2.42570185736614e-06
5.06076666666667e+01 1.06190794909780e-04 2.37492781561658e-06
5.07990000000000e+01 1.03771317925154e-04 2.32519994309320e-06
5.09903333333333e+01 1.01406966891505e-04 2.27649715897573e-06
5.11816666666667e+01 9.90964858103364e-05 2.22879879312373e-06
5.13730000000000e+01 9.68386472954172e-05 2.18208458182923e-06
5.15643333333333e+01 9.46322519213737e-05 2.13633465379162e-06
5.17556666666667e+01 9.24761275993967e-05 2.09152952606178e-06
5.19470000000000e+01 9.03691289414868e-05 2.04765009992696e-06
5.21383333333333e+01 8.83101366525593e-05 2.00467764772637e-06
5.23296666666667e+01 8.62980569477256e-05 1.96259380892205e-06
5.25210000000000e+01 8.43318209591466e-05 1.92138058611941e-06
5.27123333333333e+01 8.24103841687430e-05 1.88102033267486e-06
5.29036666666667e+01 8.05327258642853e-05 1.84149574889631e-06
5.30950000000000e+01 7.86978485859972e-05 1.80278987820126e-06
5.32863333333333e+01 7.69047775971592e-05 1.76488609547023e-06
5.34776666666667e+01 7.51525603764252e-05 1.72776810337903e-06
5.36690000000000e+01 7.34402661015092e-05 1.69141992869523e-06
5.38603333333333e+01 7.17669851551516e-05 1.65582591133396e-06
5.40516666666667e+01 7.01318286512510e-05 1.62097070082261e-06
5.42430000000000e+01 6.85339279531483e-05 1.58683925273570e-06
5.44343333333333e+01 6.69724342125919e-05 1.55341681841212e-06
5.46256666666667e+01 6.54465179274363e-05 1.52068894155211e-06
5.48170000000000e+01 6.39553684922014e-05 1.48864145478995e-06
5.50083333333333e+01 6.24981937678345e-05 1.45726047003364e-06
5.51996666666667e+01 6.10742196688728e-05 1.42653237519352e-06
5.53910000000000e+01 5.96826897441151e-05 1.39644383089147e-06
5.55823333333333e+01 5.83228647751225e-05 1.36698176138631e-06
5.57736666666667e+01 5.69940223908844e-05 1.33813335143286e-06
5.59650000000000e+01 5.56954566765832e-05 1.30988604312564e-06
5.61563333333333e+01 5.44264777989134e-05 1.28222752737535e-06
5.63476666666667e+01 5.31864116464216e-05 1.25514574089661e-06
5.65390000000000e+01 5.19745994644793e-05 1.22862886318372e-06
5.67303333333333e+01 5.07903975056308e-05 1.20266530850578e-06
5.69216666666667e+01 4.96331766938958e-05 1.17724372302060e-06
5.71130000000000e+01 4.85023222841952e-05 1.15235298187993e-06
5.73043333333333e+01 4.73972335360546e-05 1.12798218171242e-06
5.74956666666667e+01 4.63173234002753e-05 1.10412063786111e-06
5.76870000000000e+01 4.52620182011731e-05 1.08075788161508e-06
5.78783333333333e+01 4.42307573320772e-05 1.05788365315113e-06
5.80696666666667e+01 4.32229929628811e-05 1.03548789889205e-06
5.82610000000000e+01 4.22381897435640e-05 1.01356076886137e-06
5.84523333333333e+01 4.12758245200307e-05 9.92092610056395e-07
5.86436666666667e+01 4.03353860611506e-05 9.71073963924119e-07
5.88350000000000e+01 3.94163747821364e-05 9.50495563835613e-07
5.90263333333333e+01 3.85183024793655e-05 9.30348328864697e-07
5.92176666666667e+01 3.76406920756099e-05 9.10623361378026e-07
5.94090000000000e+01 3.67830773619406e-05 8.91311944625604e-07
5.96003333333333e+01 3.59450027502635e-05 8.72405536900735e-07
5.97916666666667e+01 3.51260230355277e-05 8.53895769240920e-07
5.99830000000000e+01 3.43257031549155e-05 8.35774443130699e-07
6.01743333333333e+01 3.35436179569078e-05 8.18033525019995e-07
6.03656666666667e+01 3.27793519793415e-05 8.00665144132271e-07
