################################
# DATA CONSIDERED FOR THE TESTS#
################################

# elastic momentum transfer constant rate coefficient = 1.000000e-12 (m3s-1)
#                                     gas temperature = 300.000000 (K)
#                           mass of the heavy species = 40.000000 (uam)
#               decades of decay ensured for the eedf = 15 
#                 number of cells for the energy grid = 3800 

E/N(Td)              Te_th(eV)            Te_sim(eV)           RelError(Te)         RelError(EEDF)
0.00000000000000e+00 2.58519910116516e-02 2.58502800306892e-02 6.61837210783359e-05 1.09043927226781e-04 
1.00000000000000e+00 3.01268347033801e-02 3.01248427697930e-02 6.61182499481636e-05 1.08828996616214e-04 
2.00000000000000e+00 4.29513657785653e-02 4.29485339470759e-02 6.59311162313437e-05 1.08215808803663e-04 
3.00000000000000e+00 6.43255842372075e-02 6.43213328176460e-02 6.60922028442369e-05 1.08743509539950e-04 
4.00000000000000e+00 9.42494900793065e-02 9.42432393607289e-02 6.63209803290402e-05 1.09495191951269e-04 
5.00000000000000e+00 1.32723083304862e-01 1.32714312916304e-01 6.60803557293988e-05 1.08704692137945e-04 
6.00000000000000e+00 1.79746363913875e-01 1.79734464490310e-01 6.62011920904705e-05 1.09101288866412e-04 
7.00000000000000e+00 2.35319331906345e-01 2.35303753403963e-01 6.62015409245743e-05 1.09102449326494e-04 
8.00000000000000e+00 2.99441987282271e-01 2.99422298167602e-01 6.57526850114906e-05 1.07632709370698e-04 
9.00000000000000e+00 3.72114330041654e-01 3.72089565142027e-01 6.65518568565858e-05 1.10256259412506e-04 
1.00000000000000e+01 4.53336360184494e-01 4.53306236490392e-01 6.64488815545465e-05 1.09916483888889e-04 
1.10000000000000e+01 5.43108077710791e-01 5.43072015461120e-01 6.63997667333773e-05 1.09754604737107e-04 
1.20000000000000e+01 6.41429482620545e-01 6.41386902094442e-01 6.63837993992770e-05 1.09701943525102e-04 
1.30000000000000e+01 7.48300574913756e-01 7.48251193064318e-01 6.59919971909594e-05 1.08415104118400e-04 
1.40000000000000e+01 8.63721354590423e-01 8.63664295126146e-01 6.60623521393787e-05 1.08645640215413e-04 
1.50000000000000e+01 9.87691821650547e-01 9.87626504828173e-01 6.61307717069848e-05 1.08870097403122e-04 
1.60000000000000e+01 1.12021197609413e+00 1.12013782221836e+00 6.61962890520947e-05 1.09085227431114e-04 
1.70000000000000e+01 1.26128181792117e+00 1.26119824724447e+00 6.62585280384085e-05 1.09289770763657e-04 
1.80000000000000e+01 1.41090134713166e+00 1.41080807657958e+00 6.61070685569812e-05 1.08792295083027e-04 
1.90000000000000e+01 1.56907056372561e+00 1.56896671702378e+00 6.61835765927227e-05 1.09043426347135e-04 
2.00000000000000e+01 1.73578946770302e+00 1.73567446508526e+00 6.62537824441796e-05 1.09274149757659e-04 
2.10000000000000e+01 1.91105805906389e+00 1.91093161753503e+00 6.61631017741806e-05 1.08976208381551e-04 
2.20000000000000e+01 2.09487633780821e+00 2.09473758096079e+00 6.62362951527596e-05 1.09216663820907e-04 
2.30000000000000e+01 2.28724430393599e+00 2.28709294875183e+00 6.61735975902307e-05 1.09010697024143e-04 
2.40000000000000e+01 2.48816195744723e+00 2.48799742419023e+00 6.61264257751656e-05 1.08855827463292e-04 
2.50000000000000e+01 2.69762929834192e+00 2.69745071068650e+00 6.62017036690105e-05 1.09103006989935e-04 
2.60000000000000e+01 2.91564632662007e+00 2.91545251091323e+00 6.64743542686955e-05 1.10000497048180e-04 
2.70000000000000e+01 3.14221304228167e+00 3.14200371519298e+00 6.66177263853325e-05 1.10473875452156e-04 
2.80000000000000e+01 3.37732944532674e+00 3.37710491881993e+00 6.64804871549722e-05 1.10020705668185e-04 
2.90000000000000e+01 3.62099553575526e+00 3.62075612001096e+00 6.61187626261877e-05 1.08830676011382e-04 
3.00000000000000e+01 3.87321131356724e+00 3.87295435139080e+00 6.63434436265148e-05 1.09569125455098e-04 
3.10000000000000e+01 4.13397677876267e+00 4.13370258057182e+00 6.63279465567774e-05 1.09518103222843e-04 
3.20000000000000e+01 4.40329193134156e+00 4.40300080763080e+00 6.61150146982775e-05 1.08818382500242e-04 
3.30000000000000e+01 4.68115677130391e+00 4.68084606523994e+00 6.63737787791145e-05 1.09669017867052e-04 
3.40000000000000e+01 4.96757129864971e+00 4.96724132043043e+00 6.64264686795438e-05 1.09842591044066e-04 
3.50000000000000e+01 5.26253551337897e+00 5.26218657435723e+00 6.63062550089402e-05 1.09446745500035e-04 
3.60000000000000e+01 5.56604941549169e+00 5.56568182503618e+00 6.60415364782096e-05 1.08577430695442e-04 
3.70000000000000e+01 5.87811300498787e+00 5.87772410727563e+00 6.61602987059023e-05 1.08967074999933e-04 
3.80000000000000e+01 6.19872628186750e+00 6.19831638687845e+00 6.61256797623802e-05 1.08853361262387e-04 
3.90000000000000e+01 6.52788924613059e+00 6.52745866328669e+00 6.59605008087879e-05 1.08312006687754e-04 
4.00000000000000e+01 6.86560189777713e+00 6.86514797246878e+00 6.61158795852582e-05 1.08821191222300e-04 
4.10000000000000e+01 7.21186423680714e+00 7.21138727868480e+00 6.61352053611307e-05 1.08884654300867e-04 
4.20000000000000e+01 7.56667626322060e+00 7.56617658182675e+00 6.60371048615362e-05 1.08562942802444e-04 
4.30000000000000e+01 7.93003797701751e+00 7.92951291707277e+00 6.62115296629915e-05 1.09135297885172e-04 
4.40000000000000e+01 8.30194937819788e+00 8.30139924943228e+00 6.62650108476736e-05 1.09311086327683e-04 
4.50000000000000e+01 8.68241046676172e+00 8.68183557942529e+00 6.62128724078910e-05 1.09139701857136e-04 
4.60000000000000e+01 9.07142124270900e+00 9.07082190666495e+00 6.60685936652218e-05 1.08666122514498e-04 
4.70000000000000e+01 9.46898170603975e+00 9.46835526590574e+00 6.61570751166197e-05 1.08956435388187e-04 
4.80000000000000e+01 9.87509185675395e+00 9.87443862230772e+00 6.61497083473493e-05 1.08932253313362e-04 
4.90000000000000e+01 1.02897516948516e+01 1.02890719759898e+01 6.60578488147848e-05 1.08630927971811e-04 
5.00000000000000e+01 1.07129612203327e+01 1.07122523614711e+01 6.61683401103513e-05 1.08993414574567e-04 
