Energy (eV)          EEDF (eV^-(3/2))     First Anisotropy
5.96774193548387e-02 3.19995019520711e-02 2.15189882553216e-05
1.79032258064516e-01 3.16449652839315e-02 3.54563147545193e-05
2.98387096774194e-01 3.12943566866110e-02 4.66010925715938e-05
4.17741935483871e-01 3.09476326370192e-02 5.49439864264605e-05
5.37096774193548e-01 3.06047500966296e-02 6.18002984734598e-05
6.56451612903226e-01 3.02656665037402e-02 6.76704766028581e-05
7.75806451612903e-01 2.99303397686918e-02 7.28150605096397e-05
8.95161290322581e-01 2.95987282670625e-02 7.73923035430379e-05
1.01451612903226e+00 2.92707908361477e-02 8.15077663478941e-05
1.13387096774194e+00 2.89464867689904e-02 8.52364809084854e-05
1.25322580645161e+00 2.86257758100391e-02 8.86343013132074e-05
1.37258064516129e+00 2.83086181497229e-02 9.17442959607092e-05
1.49193548387097e+00 2.79949744217160e-02 9.46006107588046e-05
1.61129032258065e+00 2.76848056912830e-02 9.72309338738345e-05
1.73064516129032e+00 2.73780734574337e-02 9.96581387041956e-05
1.85000000000000e+00 2.70747396457381e-02 1.01901419751385e-04
1.96935483870968e+00 2.67747666035933e-02 1.03977100657244e-04
2.08870967741935e+00 2.64781170955643e-02 1.05899224313877e-04
2.20806451612903e+00 2.61847542987693e-02 1.07679993241063e-04
2.32741935483871e+00 2.58946417982990e-02 1.09330104408807e-04
2.44677419354839e+00 2.56077435838995e-02 1.10859008610328e-04
2.56612903225806e+00 2.53240240418244e-02 1.12275113536012e-04
2.68548387096774e+00 2.50434479541718e-02 1.13585945231049e-04
2.80483870967742e+00 2.47659804932322e-02 1.14798278583002e-04
2.92419354838710e+00 2.44915872171599e-02 1.15918243054103e-04
3.04354838709677e+00 2.42202340657093e-02 1.16951409629944e-04
3.16290322580645e+00 2.39518873560038e-02 1.17902862877328e-04
3.28225806451613e+00 2.36865137783529e-02 1.18777261058163e-04
3.40161290322581e+00 2.34240803929021e-02 1.19578887071021e-04
3.52096774193548e+00 2.31645546231518e-02 1.20311691222657e-04
3.64032258064516e+00 2.29079042543478e-02 1.20979327684192e-04
3.75967741935484e+00 2.26540974286564e-02 1.21585186205565e-04
3.87903225806452e+00 2.24031026412065e-02 1.22132419147838e-04
3.99838709677419e+00 2.21548887361870e-02 1.22623965009771e-04
4.11774193548387e+00 2.19094249029754e-02 1.23062568859775e-04
4.23709677419355e+00 2.16666806728901e-02 1.23450800503952e-04
4.35645161290323e+00 2.14266259136514e-02 1.23791070119423e-04
4.47580645161290e+00 2.11892308274256e-02 1.24085642034662e-04
4.59516129032258e+00 2.09544659465216e-02 1.24336647298415e-04
4.71451612903226e+00 2.07223021297331e-02 1.24546094578617e-04
4.83387096774194e+00 2.04927105587207e-02 1.24715879954126e-04
4.95322580645161e+00 2.02656627344375e-02 1.24847795679784e-04
5.07258064516129e+00 2.00411304735901e-02 1.24943537996293e-04
5.19193548387097e+00 1.98190859055701e-02 1.25004714396202e-04
5.31129032258065e+00 1.95995014676866e-02 1.25032849899559e-04
5.43064516129032e+00 1.93823499030710e-02 1.25029392721550e-04
5.55000000000000e+00 1.91676042568456e-02 1.24995719714825e-04
5.66935483870968e+00 1.89552378727764e-02 1.24933141087216e-04
5.78870967741936e+00 1.87452243899657e-02 1.24842904760312e-04
5.90806451612903e+00 1.85375377395805e-02 1.24726200352489e-04
6.02741935483871e+00 1.83321521416157e-02 1.24584162775611e-04
6.14677419354839e+00 1.81290421020260e-02 1.24417875732655e-04
6.26612903225806e+00 1.79281824085532e-02 1.24228374691179e-04
6.38548387096774e+00 1.77295481286178e-02 1.24016649611930e-04
6.50483870967742e+00 1.75331146058791e-02 1.23783647718757e-04
6.62419354838710e+00 1.73388574571741e-02 1.23530275860317e-04
6.74354838709677e+00 1.71467525694920e-02 1.23257402745079e-04
6.86290322580645e+00 1.69567760969812e-02 1.22965861013676e-04
6.98225806451613e+00 1.67689044579885e-02 1.22656449120068e-04
7.10161290322581e+00 1.65831143323946e-02 1.22329933249637e-04
7.22096774193548e+00 1.63993826579227e-02 1.21987048898139e-04
7.34032258064516e+00 1.62176866280823e-02 1.21628502336543e-04
7.45967741935484e+00 1.60380036890660e-02 1.21254972194560e-04
7.57903225806452e+00 1.58603115369489e-02 1.20867110771003e-04
7.69838709677419e+00 1.56845881149224e-02 1.20465545302445e-04
7.81774193548387e+00 1.55108116105545e-02 1.20050879115021e-04
7.93709677419355e+00 1.53389604532995e-02 1.19623692852203e-04
8.05645161290323e+00 1.51690133111632e-02 1.19184545446483e-04
8.17580645161290e+00 1.50009490887195e-02 1.18733975027008e-04
8.29516129032258e+00 1.48347469242679e-02 1.18272499962560e-04
8.41451612903226e+00 1.46703861872437e-02 1.17800619695408e-04
8.53387096774193e+00 1.45078464756570e-02 1.17318815564322e-04
8.65322580645161e+00 1.43471076135610e-02 1.16827551581569e-04
8.77258064516129e+00 1.41881496485472e-02 1.16327275134806e-04
8.89193548387097e+00 1.40309528494451e-02 1.15818417778399e-04
9.01129032258065e+00 1.38754977033375e-02 1.15301395824802e-04
9.13064516129032e+00 1.37217649136799e-02 1.14776610900014e-04
9.25000000000000e+00 1.35697353977228e-02 1.14244450633689e-04
9.36935483870968e+00 1.34193902841427e-02 1.13705289184586e-04
9.48870967741935e+00 1.32707109106997e-02 1.13159487771459e-04
9.60806451612903e+00 1.31236788219215e-02 1.12607395177536e-04
9.72741935483871e+00 1.29782757668119e-02 1.12049348202119e-04
9.84677419354839e+00 1.28344836967317e-02 1.11485672201452e-04
9.96612903225807e+00 1.26922847627155e-02 1.10916681602358e-04
1.00854838709677e+01 1.25516613130019e-02 1.10342679738855e-04
1.02048387096774e+01 1.24125958933689e-02 1.09763959831063e-04
1.03241935483871e+01 1.22750712416793e-02 1.09180805864373e-04
1.04435483870968e+01 1.21390702857613e-02 1.08593491522397e-04
1.05629032258065e+01 1.20045761452236e-02 1.08002281314783e-04
1.06822580645161e+01 1.18715721253616e-02 1.07407431672871e-04
1.08016129032258e+01 1.17400417152389e-02 1.06809189725007e-04
1.09209677419355e+01 1.16099685892974e-02 1.06207794600161e-04
1.10403225806452e+01 1.14813366004565e-02 1.05603477498839e-04
1.11596774193548e+01 1.13541297828927e-02 1.04996461691481e-04
1.12790322580645e+01 1.12283323464752e-02 1.04386963746169e-04
1.13983870967742e+01 1.11039286749434e-02 1.03775192363193e-04
1.15177419354839e+01 1.09809033272516e-02 1.03161349543005e-04
1.16370967741935e+01 1.08592410312757e-02 1.02545630618494e-04
1.17564516129032e+01 1.07389266862147e-02 1.01928224222321e-04
1.18758064516129e+01 1.06199453575009e-02 1.01309313391574e-04
1.19951612903226e+01 1.05022822750632e-02 1.00689074464883e-04
1.21145161290323e+01 1.03859228344508e-02 1.00067677933530e-04
1.22338709677419e+01 1.02708525920184e-02 9.94452892514835e-05
1.23532258064516e+01 1.01570572632397e-02 9.88220677766178e-05
1.24725806451613e+01 1.00445227237007e-02 9.81981677562457e-05
1.25919354838710e+01 9.93323500366346e-03 9.75737383218172e-05
1.27112903225806e+01 9.82318028994990e-03 9.69489234280813e-05
1.28306451612903e+01 9.71434492151829e-03 9.63238627907684e-05
1.29500000000000e+01 9.60671538786379e-03 9.56986908897159e-05
1.30693548387097e+01 9.50027832983940e-03 9.50735378639614e-05
1.31887096774194e+01 9.39502053466970e-03 9.44485294902916e-05
1.33080645161290e+01 9.29092893758115e-03 9.38237871116570e-05
1.34274193548387e+01 9.18799061773232e-03 9.31994284906956e-05
1.35467741935484e+01 9.08619279669509e-03 9.25755668732009e-05
1.36661290322581e+01 8.98552283912998e-03 9.19523118036426e-05
1.37854838709677e+01 8.88596824820447e-03 9.13297690927412e-05
1.39048387096774e+01 8.78751666700344e-03 9.07080407388744e-05
1.40241935483871e+01 8.69015587477971e-03 9.00872257078439e-05
1.41435483870968e+01 8.59387378551075e-03 8.94674190543957e-05
1.42629032258065e+01 8.49865844845088e-03 8.88487125158724e-05
1.43822580645161e+01 8.40449804456676e-03 8.82311950795048e-05
1.45016129032258e+01 8.31138088513952e-03 8.76149521414174e-05
1.46209677419355e+01 8.21929541224251e-03 8.70000662106694e-05
1.47403225806452e+01 8.12823019473827e-03 8.63866168667734e-05
1.48596774193548e+01 8.03817392938519e-03 8.57746806774515e-05
1.49790322580645e+01 7.94911543754335e-03 8.51643318735628e-05
1.50983870967742e+01 7.86104366385001e-03 8.45556415612615e-05
1.52177419354839e+01 7.77394767660065e-03 8.39486783683458e-05
1.53370967741935e+01 7.68781666405585e-03 8.33435083976384e-05
1.54564516129032e+01 7.60263993539706e-03 8.27401951437777e-05
1.55758064516129e+01 7.51840691767997e-03 8.21388001137979e-05
1.56951612903226e+01 7.43510715457734e-03 8.15393820895593e-05
1.58145161290323e+01 7.35273030667891e-03 8.09419975975153e-05
1.59338709677419e+01 7.27126614858884e-03 8.03467013585933e-05
1.60532258064516e+01 7.19070456770730e-03 7.97535455823112e-05
1.61725806451613e+01 7.11103556448187e-03 7.91625805299433e-05
1.62919354838710e+01 7.03224924916059e-03 7.85738544655757e-05
1.64112903225806e+01 6.95433584253758e-03 7.79874135748592e-05
1.65306451612903e+01 6.87728567326186e-03 7.74033025071151e-05
1.66500000000000e+01 6.80108917668358e-03 7.68215637147559e-05
1.67693548387097e+01 6.72573689504154e-03 7.62422379728104e-05
1.68887096774194e+01 6.65121947445812e-03 7.56653643290781e-05
1.70080645161290e+01 6.57752766558012e-03 7.50909800246077e-05
1.71274193548387e+01 6.50465232108178e-03 7.45191209941583e-05
1.72467741935484e+01 6.43258439457138e-03 7.39498212481514e-05
1.73661290322581e+01 6.36131494072492e-03 7.33831133524074e-05
1.74854838709677e+01 6.29083511250185e-03 7.28190283783595e-05
1.76048387096774e+01 6.22113616169430e-03 7.22575958256061e-05
1.77241935483871e+01 6.15220943660856e-03 7.16988440846870e-05
1.78435483870968e+01 6.08404638102831e-03 7.11427998588925e-05
1.79629032258064e+01 6.01663853430294e-03 7.05894885121603e-05
1.80822580645161e+01 5.94997752913244e-03 7.00389344030509e-05
1.82016129032258e+01 5.88405509056392e-03 6.94911603312090e-05
1.83209677419355e+01 5.81886303605197e-03 6.89461879592638e-05
1.84403225806452e+01 5.75439327299489e-03 6.84040377645730e-05
1.85596774193548e+01 5.69063779915580e-03 6.78647289666732e-05
1.86790322580645e+01 5.62758870060186e-03 6.73282799347046e-05
1.87983870967742e+01 5.56523815075447e-03 6.67947076695225e-05
1.89177419354839e+01 5.50357841041412e-03 6.62640281946285e-05
1.90370967741935e+01 5.44260182547239e-03 6.57362565089255e-05
1.91564516129032e+01 5.38230082726885e-03 6.52114065169202e-05
1.92758064516129e+01 5.32266793067337e-03 6.46894914065275e-05
1.93951612903226e+01 5.26369573318583e-03 6.41705231645267e-05
1.95145161290323e+01 5.20537691493193e-03 6.36545128596204e-05
1.96338709677419e+01 5.14770423682878e-03 6.31414709145329e-05
1.97532258064516e+01 5.09067053971305e-03 6.26314066419267e-05
1.98725806451613e+01 5.03426874431896e-03 6.21243285896218e-05
1.99919354838710e+01 4.97849184924593e-03 6.16202444960320e-05
2.01112903225806e+01 4.92333293122553e-03 6.11191612254850e-05
2.02306451612903e+01 4.86878514341158e-03 6.06210851023343e-05
2.03500000000000e+01 4.81484171455511e-03 6.01260214766458e-05
2.04693548387097e+01 4.76149594895985e-03 5.96339750448227e-05
2.05887096774194e+01 4.70874122459101e-03 5.91449498064869e-05
2.07080645161290e+01 4.65657099329746e-03 5.86589490027451e-05
2.08274193548387e+01 4.60497877921727e-03 5.81759754265720e-05
2.09467741935484e+01 4.55395817799643e-03 5.76960310163305e-05
2.10661290322581e+01 4.50350285672600e-03 5.72191171536512e-05
2.11854838709677e+01 4.45360655218093e-03 5.67452346219551e-05
2.13048387096774e+01 4.40426307100307e-03 5.62743835475521e-05
2.14241935483871e+01 4.35546628821373e-03 5.58065636882669e-05
2.15435483870968e+01 4.30721014647351e-03 5.53417740529571e-05
2.16629032258065e+01 4.25948865600454e-03 5.48800131167812e-05
2.17822580645161e+01 4.21229589316499e-03 5.44212790284577e-05
2.19016129032258e+01 4.16562599973294e-03 5.39655692456023e-05
2.20209677419355e+01 4.11947318281896e-03 5.35128807990800e-05
2.21403225806452e+01 4.07383171329528e-03 5.30632102544489e-05
2.22596774193548e+01 4.02869592592378e-03 5.26165536579512e-05
2.23790322580645e+01 3.98406021802455e-03 5.21729067927931e-05
2.24983870967742e+01 3.93991904879820e-03 5.17322648377023e-05
2.26177419354839e+01 3.89626693922738e-03 5.12946226130134e-05
2.27370967741935e+01 3.85309847061184e-03 5.08599745437387e-05
2.28564516129032e+01 3.81040828466911e-03 5.04283146082193e-05
2.29758064516129e+01 3.76819108229060e-03 4.99996365768005e-05
2.30951612903226e+01 3.72644162289986e-03 4.95739336920999e-05
2.32145161290323e+01 3.68515472434558e-03 4.91511988466148e-05
2.33338709677419e+01 3.64432526170858e-03 4.87314247538796e-05
2.34532258064516e+01 3.60394816668068e-03 4.83146036418772e-05
2.35725806451613e+01 3.56401842745216e-03 4.79007274719222e-05
2.36919354838710e+01 3.52453108740197e-03 4.74897879046099e-05
2.38112903225806e+01 3.48548124516016e-03 4.70817762528431e-05
2.39306451612903e+01 3.44686405349210e-03 4.66766836943420e-05
2.40500000000000e+01 3.40867471871076e-03 4.62745009844460e-05
2.41693548387097e+01 3.37090850055841e-03 4.58752186601424e-05
2.42887096774194e+01 3.33356071098339e-03 4.54788270075594e-05
2.44080645161290e+01 3.29662671418384e-03 4.50853160174565e-05
2.45274193548387e+01 3.26010192556390e-03 4.46946755833291e-05
2.46467741935484e+01 3.22398181117743e-03 4.43068952323390e-05
2.47661290322581e+01 3.18826188760552e-03 4.39219643155293e-05
2.48854838709677e+01 3.15293772081354e-03 4.35398719768769e-05
2.50048387096774e+01 3.11800492617877e-03 4.31606071110885e-05
2.51241935483871e+01 3.08345916751357e-03 4.27841585484078e-05
2.52435483870968e+01 3.04929615653870e-03 4.24105148024953e-05
2.53629032258065e+01 3.01551165275805e-03 4.20396642074872e-05
2.54822580645161e+01 2.98210146252071e-03 4.16715950502184e-05
2.56016129032258e+01 2.94906143851140e-03 4.13062953283284e-05
2.57209677419355e+01 2.91638747962303e-03 4.09437529199698e-05
2.58403225806452e+01 2.88407552993195e-03 4.05839555553865e-05
2.59596774193548e+01 2.85212157870282e-03 4.02268907784573e-05
2.60790322580645e+01 2.82052165951016e-03 3.98725461116277e-05
2.61983870967742e+01 2.78927184975628e-03 3.95209088291834e-05
2.63177419354839e+01 2.75836827054250e-03 3.91719661156738e-05
2.64370967741935e+01 2.72780708571070e-03 3.88257050388762e-05
2.65564516129032e+01 2.69758450183736e-03 3.84821125133852e-05
2.66758064516129e+01 2.66769676741075e-03 3.81411754546225e-05
2.67951612903226e+01 2.63814017237452e-03 3.78028805662985e-05
2.69145161290323e+01 2.60891104799871e-03 3.74672144544338e-05
2.70338709677419e+01 2.58000576608919e-03 3.71341637374330e-05
2.71532258064516e+01 2.55142073854606e-03 3.68037148420808e-05
2.72725806451613e+01 2.52315241723411e-03 3.64758541450874e-05
2.73919354838710e+01 2.49519729312193e-03 3.61505679483506e-05
2.75112903225806e+01 2.46755189626088e-03 3.58278424457752e-05
2.76306451612903e+01 2.44021279504402e-03 3.55076638609823e-05
2.77500000000000e+01 2.41317659578830e-03 3.51900182560141e-05
2.78693548387097e+01 2.38643994260577e-03 3.48748916635772e-05
2.79887096774194e+01 2.35999951659757e-03 3.45622700635432e-05
2.81080645161290e+01 2.33385203582596e-03 3.42521393515865e-05
2.82274193548387e+01 2.30799425461951e-03 3.39444854678466e-05
2.83467741935484e+01 2.28242296317766e-03 3.36392942175247e-05
2.84661290322581e+01 2.25713498744334e-03 3.33365513944426e-05
2.85854838709677e+01 2.23212718834809e-03 3.30362427587692e-05
2.87048387096774e+01 2.20739646177820e-03 3.27383540073447e-05
2.88241935483871e+01 2.18293973792317e-03 3.24428708939535e-05
2.89435483870968e+01 2.15875398090144e-03 3.21497790610576e-05
2.90629032258065e+01 2.13483618863479e-03 3.18590641285934e-05
2.91822580645161e+01 2.11118339222179e-03 3.15707117797718e-05
2.93016129032258e+01 2.08779265557579e-03 3.12847075994771e-05
2.94209677419355e+01 2.06466107530000e-03 3.10010371849074e-05
2.95403225806452e+01 2.04178578000821e-03 3.07196861252000e-05
2.96596774193548e+01 2.01916393028285e-03 3.04406399744437e-05
2.97790322580645e+01 1.99679271808707e-03 3.01638843593932e-05
2.98983870967742e+01 1.97466936642229e-03 2.98894048278567e-05
3.00177419354839e+01 1.95279112920560e-03 2.96171869521658e-05
3.01370967741935e+01 1.93115529063309e-03 2.93472163098572e-05
3.02564516129032e+01 1.90975916513448e-03 2.90794784581573e-05
3.03758064516129e+01 1.88860009682142e-03 2.88139590347395e-05
3.04951612903226e+01 1.86767545916331e-03 2.85506436154692e-05
3.06145161290323e+01 1.84698265486749e-03 2.82895177886852e-05
3.07338709677419e+01 1.82651911534847e-03 2.80305672270093e-05
3.08532258064516e+01 1.80628230041435e-03 2.77737775506818e-05
3.09725806451613e+01 1.78626969814829e-03 2.75191344202976e-05
3.10919354838710e+01 1.76647882433474e-03 2.72666235191735e-05
3.12112903225806e+01 1.74690722240944e-03 2.70162305301316e-05
3.13306451612903e+01 1.72755246296112e-03 2.67679412258555e-05
3.14500000000000e+01 1.70841214343474e-03 2.65217413406256e-05
3.15693548387097e+01 1.68948388801603e-03 2.62776166570999e-05
3.16887096774194e+01 1.67076534709330e-03 2.60355529896001e-05
3.18080645161290e+01 1.65225419720570e-03 2.57955361621877e-05
3.19274193548387e+01 1.63394814057523e-03 2.55575520932160e-05
3.20467741935484e+01 1.61584490482606e-03 2.53215866749302e-05
3.21661290322581e+01 1.59794224287208e-03 2.50876258546795e-05
3.22854838709677e+01 1.58023793241209e-03 2.48556556190936e-05
3.24048387096774e+01 1.56272977587676e-03 2.46256619733618e-05
3.25241935483871e+01 1.54541559998911e-03 2.43976310203904e-05
3.26435483870968e+01 1.52829325549885e-03 2.41715488477735e-05
3.27629032258065e+01 1.51136061707324e-03 2.39474015860159e-05
3.28822580645161e+01 1.49461558287402e-03 2.37251754648508e-05
3.30016129032258e+01 1.47805607430045e-03 2.35048567046128e-05
3.31209677419355e+01 1.46168003588189e-03 2.32864315891384e-05
3.32403225806452e+01 1.44548543482216e-03 2.30698864513218e-05
3.33596774193548e+01 1.42947026094500e-03 2.28552076542758e-05
3.34790322580645e+01 1.41363252629647e-03 2.26423816623975e-05
3.35983870967742e+01 1.39797026490191e-03 2.24313949393695e-05
3.37177419354839e+01 1.38248153266183e-03 2.22222340164321e-05
3.38370967741935e+01 1.36716440692426e-03 2.20148854787003e-05
3.39564516129032e+01 1.35201698642992e-03 2.18093359473682e-05
3.40758064516129e+01 1.33703739093859e-03 2.16055721462703e-05
3.41951612903226e+01 1.32222376099918e-03 2.14035808060959e-05
3.43145161290323e+01 1.30757425784898e-03 2.12033487132876e-05
3.44338709677419e+01 1.29308706305399e-03 2.10048627573545e-05
3.45532258064516e+01 1.27876037828641e-03 2.08081098387913e-05
3.46725806451613e+01 1.26459242522579e-03 2.06130769304070e-05
3.47919354838710e+01 1.25058144517271e-03 2.04197510648511e-05
3.49112903225806e+01 1.23672569899383e-03 2.02281193184188e-05
3.50306451612903e+01 1.22302346678374e-03 2.00381688708732e-05
3.51500000000000e+01 1.20947304765444e-03 1.98498869189553e-05
3.52693548387097e+01 1.19607275963993e-03 1.96632607338436e-05
3.53887096774194e+01 1.18282093933339e-03 1.94782776493402e-05
3.55080645161290e+01 1.16971594183266e-03 1.92949250465828e-05
3.56274193548387e+01 1.15675614042231e-03 1.91131904100921e-05
3.57467741935484e+01 1.14393992637451e-03 1.89330612465224e-05
3.58661290322581e+01 1.13126570885696e-03 1.87545251384925e-05
3.59854838709677e+01 1.11873191459212e-03 1.85775697334144e-05
3.61048387096774e+01 1.10633698780331e-03 1.84021827290476e-05
3.62241935483871e+01 1.09407938991578e-03 1.82283519260248e-05
3.63435483870968e+01 1.08195759936826e-03 1.80560651515229e-05
3.64629032258064e+01 1.06997011152429e-03 1.78853102977680e-05
3.65822580645161e+01 1.05811543838428e-03 1.77160753593095e-05
3.67016129032258e+01 1.04639210840321e-03 1.75483483596144e-05
3.68209677419355e+01 1.03479866640382e-03 1.73821173994883e-05
3.69403225806452e+01 1.02333367326838e-03 1.72173706468797e-05
3.70596774193548e+01 1.01199570588598e-03 1.70540963237455e-05
3.71790322580645e+01 1.00078335688160e-03 1.68922827532982e-05
3.72983870967742e+01 9.89695234443714e-04 1.67319182910303e-05
3.74177419354839e+01 9.78729962240752e-04 1.65729913701031e-05
3.75370967741936e+01 9.67886179131457e-04 1.64154904916981e-05
3.76564516129032e+01 9.57162539113152e-04 1.62594042126124e-05
