Energy (eV)          EEDF (eV^-(3/2))     First Anisotropy
2.65789473684211e-02 2.24563220406310e-01 1.91880411367778e-04
7.97368421052632e-02 2.20505982460337e-01 3.15045925239516e-04
1.32894736842105e-01 2.16522047623532e-01 4.11146612442277e-04
1.86052631578947e-01 2.12610091491040e-01 4.81328001788583e-04
2.39210526315789e-01 2.08768813609712e-01 5.37566106495252e-04
2.92368421052632e-01 2.04996937019709e-01 5.84468198047319e-04
3.45526315789474e-01 2.01293207844645e-01 6.24457964390885e-04
3.98684210526316e-01 1.97656394836339e-01 6.59022302152620e-04
4.51842105263158e-01 1.94085289004818e-01 6.89162558217892e-04
5.05000000000000e-01 1.90578703203039e-01 7.15597043340389e-04
5.58157894736842e-01 1.87135471739054e-01 7.38865172526273e-04
6.11315789473684e-01 1.83754449968040e-01 7.59386351929665e-04
6.64473684210526e-01 1.80434513932647e-01 7.77495708158838e-04
7.17631578947368e-01 1.77174559982346e-01 7.93466984787687e-04
7.70789473684211e-01 1.73973504410863e-01 8.07527869235617e-04
8.23947368421053e-01 1.70830283082551e-01 8.19870625786605e-04
8.77105263157895e-01 1.67743851092259e-01 8.30659696851049e-04
9.30263157894737e-01 1.64713182413437e-01 8.40037278074842e-04
9.83421052631579e-01 1.61737269560115e-01 8.48127497037970e-04
1.03657894736842e+00 1.58815123242391e-01 8.55039603999175e-04
1.08973684210526e+00 1.55945772060155e-01 8.60870455099381e-04
1.14289473684211e+00 1.53128262125380e-01 8.65706462954306e-04
1.19605263157895e+00 1.50361656833997e-01 8.69625162314368e-04
1.24921052631579e+00 1.47645036456867e-01 8.72696473303209e-04
1.30236842105263e+00 1.44977497926018e-01 8.74983733407789e-04
1.35552631578947e+00 1.42358154447676e-01 8.76544550704117e-04
1.40868421052632e+00 1.39786135289437e-01 8.77431513127108e-04
1.46184210526316e+00 1.37260585413263e-01 8.77692785308037e-04
1.51500000000000e+00 1.34780665264701e-01 8.77372612288601e-04
1.56815789473684e+00 1.32345550424116e-01 8.76511749822531e-04
1.62131578947368e+00 1.29954431398788e-01 8.75147832189254e-04
1.67447368421053e+00 1.27606513290926e-01 8.73315690537734e-04
1.72763157894737e+00 1.25301015593255e-01 8.71047627950599e-04
1.78078947368421e+00 1.23037171872561e-01 8.68373660266364e-04
1.83394736842105e+00 1.20814229569237e-01 8.65321726082798e-04
1.88710526315789e+00 1.18631449695269e-01 8.61917872507788e-04
1.94026315789474e+00 1.16488106638073e-01 8.58186418419237e-04
1.99342105263158e+00 1.14383487871979e-01 8.54150100203714e-04
2.04657894736842e+00 1.12316893766597e-01 8.49830199739574e-04
2.09973684210526e+00 1.10287637320582e-01 8.45246664412942e-04
2.15289473684211e+00 1.08295043935995e-01 8.40418204599181e-04
2.20605263157895e+00 1.06338451221550e-01 8.35362390980518e-04
2.25921052631579e+00 1.04417208735750e-01 8.30095738012316e-04
2.31236842105263e+00 1.02530677805871e-01 8.24633779773054e-04
2.36552631578947e+00 1.00678231281819e-01 8.18991139437361e-04
2.41868421052632e+00 9.88592533601559e-02 8.13181591838992e-04
2.47184210526316e+00 9.70731393481329e-02 8.07218121131735e-04
2.52500000000000e+00 9.53192954927327e-02 8.01112972892279e-04
2.57815789473684e+00 9.35971387543611e-02 7.94877702420649e-04
2.63131578947368e+00 9.19060966408731e-02 7.88523218510908e-04
2.68447368421053e+00 9.02456069904412e-02 7.82059824249666e-04
2.73763157894737e+00 8.86151178105109e-02 7.75497254078103e-04
2.79078947368421e+00 8.70140870694029e-02 7.68844708515552e-04
2.84394736842105e+00 8.54419825401283e-02 7.62110885766609e-04
2.89710526315789e+00 8.38982816003108e-02 7.55304011478485e-04
2.95026315789474e+00 8.23824710807829e-02 7.48431865872253e-04
3.00342105263158e+00 8.08940470734418e-02 7.41501809404874e-04
3.05657894736842e+00 7.94325147845367e-02 7.34520805630275e-04
3.10973684210526e+00 7.79973883546748e-02 7.27495445735297e-04
3.16289473684211e+00 7.65881906983112e-02 7.20431965494610e-04
3.21605263157895e+00 7.52044533584124e-02 7.13336266779363e-04
3.26921052631579e+00 7.38457163330727e-02 7.06213935072144e-04
3.32236842105263e+00 7.25115279396667e-02 6.99070256079979e-04
3.37552631578947e+00 7.12014446481839e-02 6.91910231667471e-04
3.42868421052632e+00 6.99150309497598e-02 6.84738594449360e-04
3.48184210526316e+00 6.86518591964419e-02 6.77559821839510e-04
3.53500000000000e+00 6.74115094739859e-02 6.70378148919979e-04
3.58815789473684e+00 6.61935694477819e-02 6.63197580876777e-04
3.64131578947368e+00 6.49976342398024e-02 6.56021904390655e-04
3.69447368421053e+00 6.38233062804300e-02 6.48854698684035e-04
3.74763157894737e+00 6.26701951894448e-02 6.41699345637510e-04
3.80078947368421e+00 6.15379176335084e-02 6.34559039635176e-04
3.85394736842105e+00 6.04260972110779e-02 6.27436796577182e-04
3.90710526315789e+00 5.93343643153133e-02 6.20335462680690e-04
3.96026315789474e+00 5.82623560228059e-02 6.13257722531884e-04
4.01342105263158e+00 5.72097159616889e-02 6.06206106975226e-04
4.06657894736842e+00 5.61760942040683e-02 5.99182999978337e-04
4.11973684210526e+00 5.51611471415624e-02 5.92190647119939e-04
4.17289473684210e+00 5.41645373715333e-02 5.85231159988484e-04
4.22605263157895e+00 5.31859335920363e-02 5.78306523863370e-04
4.27921052631579e+00 5.22250104822204e-02 5.71418603392961e-04
4.33236842105263e+00 5.12814486033678e-02 5.64569148130780e-04
4.38552631578947e+00 5.03549342837848e-02 5.57759798015357e-04
4.43868421052632e+00 4.94451595231852e-02 5.50992088367343e-04
4.49184210526316e+00 4.85518218818956e-02 5.44267454851179e-04
4.54500000000000e+00 4.76746243884768e-02 5.37587237993758e-04
4.59815789473684e+00 4.68132754330751e-02 5.30952687684803e-04
4.65131578947368e+00 4.59674886781808e-02 5.24364967269652e-04
4.70447368421053e+00 4.51369829559615e-02 5.17825157637862e-04
4.75763157894737e+00 4.43214821820596e-02 5.11334260935900e-04
4.81078947368421e+00 4.35207152567529e-02 5.04893204287263e-04
4.86394736842105e+00 4.27344159816930e-02 4.98502843164957e-04
4.91710526315789e+00 4.19623229647460e-02 4.92163964780971e-04
4.97026315789474e+00 4.12041795395765e-02 4.85877291153668e-04
5.02342105263158e+00 4.04597336740263e-02 4.79643482199906e-04
5.07657894736842e+00 3.97287378924529e-02 4.73463138307867e-04
5.12973684210526e+00 3.90109491888908e-02 4.67336804046378e-04
5.18289473684211e+00 3.83061289465015e-02 4.61264969394692e-04
5.23605263157895e+00 3.76140428623013e-02 4.55248073145866e-04
5.28921052631579e+00 3.69344608638820e-02 4.49286505131459e-04
5.34236842105263e+00 3.62671570381706e-02 4.43380608442368e-04
5.39552631578947e+00 3.56119095512278e-02 4.37530681688868e-04
5.44868421052632e+00 3.49685005794666e-02 4.31736981029365e-04
5.50184210526316e+00 3.43367162324116e-02 4.25999722241370e-04
5.55500000000000e+00 3.37163464862944e-02 4.20319082576108e-04
5.60815789473684e+00 3.31071851096621e-02 4.14695202657619e-04
5.66131578947368e+00 3.25090295992700e-02 4.09128188179235e-04
5.71447368421053e+00 3.19216811084316e-02 4.03618111646272e-04
5.76763157894737e+00 3.13449443851320e-02 3.98165013928703e-04
5.82078947368421e+00 3.07786277030154e-02 3.92768905861239e-04
5.87394736842105e+00 3.02225428016456e-02 3.87429769665015e-04
5.92710526315789e+00 2.96765048200314e-02 3.82147560417538e-04
5.98026315789474e+00 2.91403322389612e-02 3.76922207354970e-04
6.03342105263158e+00 2.86138468169721e-02 3.71753615223100e-04
6.08657894736842e+00 2.80968735346882e-02 3.66641665328308e-04
6.13973684210526e+00 2.75892405339571e-02 3.61586217351550e-04
6.19289473684211e+00 2.70907790608460e-02 3.56587109591531e-04
6.24605263157895e+00 2.66013234119414e-02 3.51644160638435e-04
6.29921052631579e+00 2.61207108760732e-02 3.46757170311638e-04
6.35236842105263e+00 2.56487816833334e-02 3.41925920620227e-04
6.40552631578947e+00 2.51853789489343e-02 3.37150176770406e-04
6.45868421052632e+00 2.47303486240068e-02 3.32429688045996e-04
6.51184210526316e+00 2.42835394415135e-02 3.27764188735467e-04
6.56500000000000e+00 2.38448028687654e-02 3.23153398939125e-04
6.61815789473684e+00 2.34139930553143e-02 3.18597025422215e-04
6.67131578947368e+00 2.29909667871281e-02 3.14094762354810e-04
6.72447368421053e+00 2.25755834363894e-02 3.09646292096915e-04
6.77763157894737e+00 2.21677049172734e-02 3.05251285876556e-04
6.83078947368421e+00 2.17671956375803e-02 3.00909404512312e-04
6.88394736842105e+00 2.13739224560620e-02 2.96620299034564e-04
6.93710526315789e+00 2.09877546358202e-02 2.92383611350374e-04
6.99026315789474e+00 2.06085638031283e-02 2.88198974812499e-04
7.04342105263158e+00 2.02362239025301e-02 2.84066014831123e-04
7.09657894736842e+00 1.98706111571051e-02 2.79984349301561e-04
7.14973684210526e+00 1.95116040257008e-02 2.75953589541607e-04
7.20289473684211e+00 1.91590831626012e-02 2.71973340211000e-04
7.25605263157895e+00 1.88129313793111e-02 2.68043200177288e-04
7.30921052631579e+00 1.84730336036592e-02 2.64162762908711e-04
7.36236842105263e+00 1.81392768434366e-02 2.60331616891329e-04
7.41552631578947e+00 1.78115501469889e-02 2.56549346084647e-04
7.46868421052632e+00 1.74897445681328e-02 2.52815530302626e-04
7.52184210526316e+00 1.71737531281829e-02 2.49129745632275e-04
7.57500000000000e+00 1.68634707821015e-02 2.45491564781383e-04
7.62815789473684e+00 1.65587943819073e-02 2.41900557462812e-04
7.68131578947368e+00 1.62596226440164e-02 2.38356290711559e-04
7.73447368421053e+00 1.59658561139814e-02 2.34858329237385e-04
7.78763157894737e+00 1.56773971349818e-02 2.31406235713547e-04
7.84078947368421e+00 1.53941498138455e-02 2.27999571100121e-04
7.89394736842105e+00 1.51160199906484e-02 2.24637894906615e-04
7.94710526315790e+00 1.48429152059712e-02 2.21320765488190e-04
8.00026315789474e+00 1.45747446715695e-02 2.18047740284168e-04
8.05342105263158e+00 1.43114192388203e-02 2.14818376089160e-04
8.10657894736842e+00 1.40528513704257e-02 2.11632229207637e-04
8.15973684210526e+00 1.37989551103125e-02 2.08488855949774e-04
8.21289473684211e+00 1.35496460551005e-02 2.05387812458403e-04
8.26605263157895e+00 1.33048413269492e-02 2.02328655166158e-04
8.31921052631579e+00 1.30644595448031e-02 1.99310940943503e-04
8.37236842105263e+00 1.28284207985125e-02 1.96334227266819e-04
8.42552631578947e+00 1.25966466211229e-02 1.93398072415316e-04
8.47868421052632e+00 1.23690599639087e-02 1.90502035622314e-04
8.53184210526316e+00 1.21455851696676e-02 1.87645677254444e-04
8.58500000000000e+00 1.19261479486362e-02 1.84828558947402e-04
8.63815789473684e+00 1.17106753527526e-02 1.82050243768772e-04
8.69131578947368e+00 1.14990957524227e-02 1.79310296339450e-04
8.74447368421053e+00 1.12913388117158e-02 1.76608282981287e-04
8.79763157894737e+00 1.10873354659516e-02 1.73943771825312e-04
8.85078947368421e+00 1.08870178977952e-02 1.71316332945310e-04
8.90394736842105e+00 1.06903195156358e-02 1.68725538453867e-04
8.95710526315789e+00 1.04971749305480e-02 1.66170962622959e-04
9.01026315789474e+00 1.03075199354348e-02 1.63652181968749e-04
9.06342105263158e+00 1.01212914828234e-02 1.61168775360133e-04
9.11657894736842e+00 9.93842766474618e-03 1.58720324052051e-04
9.16973684210526e+00 9.75886769153298e-03 1.56306411948253e-04
9.22289473684211e+00 9.58255187162866e-03 1.53926625420222e-04
9.27605263157895e+00 9.40942159231970e-03 1.51580553548284e-04
9.32921052631579e+00 9.23941929949159e-03 1.49267788158377e-04
9.38236842105263e+00 9.07248847923632e-03 1.46987923874177e-04
9.43552631578947e+00 8.90857363834229e-03 1.44740558190079e-04
9.48868421052632e+00 8.74762028655295e-03 1.42525291515556e-04
9.54184210526316e+00 8.58957491776258e-03 1.40341727239682e-04
9.59500000000000e+00 8.43438499290316e-03 1.38189471768360e-04
9.64815789473684e+00 8.28199892182035e-03 1.36068134581019e-04
9.70131578947368e+00 8.13236604676650e-03 1.33977328261292e-04
9.75447368421053e+00 7.98543662493205e-03 1.31916668546506e-04
9.80763157894737e+00 7.84116181252336e-03 1.29885774352323e-04
9.86078947368421e+00 7.69949364792576e-03 1.27884267815574e-04
9.91394736842105e+00 7.56038503634554e-03 1.25911774313391e-04
9.96710526315790e+00 7.42378973358170e-03 1.23967922499889e-04
1.00202631578947e+01 7.28966233121225e-03 1.22052344291457e-04
1.00734210526316e+01 7.15795824108125e-03 1.20164675013424e-04
1.01265789473684e+01 7.02863368049304e-03 1.18304553265100e-04
1.01797368421053e+01 6.90164565791518e-03 1.16471620969449e-04
1.02328947368421e+01 6.77695195855402e-03 1.14665523447270e-04
1.02860526315789e+01 6.65451113032072e-03 1.12885909398622e-04
1.03392105263158e+01 6.53428247005121e-03 1.11132430912742e-04
1.03923684210526e+01 6.41622600997522e-03 1.09404743476109e-04
1.04455263157895e+01 6.30030250442973e-03 1.07702505978613e-04
1.04986842105263e+01 6.18647341681253e-03 1.06025380717915e-04
1.05518421052632e+01 6.07470090677138e-03 1.04373033402071e-04
1.06050000000000e+01 5.96494781762475e-03 1.02745132921473e-04
1.06581578947368e+01 5.85717766500561e-03 1.01141352044079e-04
1.07113157894737e+01 5.75135462170457e-03 9.95613669461012e-05
1.07644736842105e+01 5.64744350882983e-03 9.80048567243766e-05
1.08176315789474e+01 5.54540978307505e-03 9.64715041228807e-05
1.08707894736842e+01 5.44521952523606e-03 9.49609952794530e-05
1.09239473684211e+01 5.34683942893506e-03 9.34730197182955e-05
1.09771052631579e+01 5.25023678954853e-03 9.20072703412794e-05
1.10302631578947e+01 5.15537949333522e-03 9.05634434181209e-05
1.10834210526316e+01 5.06223600676051e-03 8.91412385754801e-05
1.11365789473684e+01 4.97077536601372e-03 8.77403587851037e-05
1.11897368421053e+01 4.88096716671441e-03 8.63605103507779e-05
1.12428947368421e+01 4.79278155380570e-03 8.50014028945059e-05
1.12960526315789e+01 4.70618921162915e-03 8.36627493419493e-05
1.13492105263158e+01 4.62116135417934e-03 8.23442659068182e-05
1.14023684210526e+01 4.53766971553452e-03 8.10456720745512e-05
1.14555263157895e+01 4.45568654046009e-03 7.97666905852406e-05
1.15086842105263e+01 4.37518457518192e-03 7.85070474158608e-05
1.15618421052632e+01 4.29613705832636e-03 7.72664717618328e-05
1.16150000000000e+01 4.21851771202390e-03 7.60446958631773e-05
1.16681578947368e+01 4.14230073381674e-03 7.48414554550861e-05
1.17213157894737e+01 4.06746078612570e-03 7.36564894320375e-05
1.17744736842105e+01 3.99397298980946e-03 7.24895394999148e-05
1.18276315789474e+01 3.92181291522409e-03 7.13403506490449e-05
1.18807894736842e+01 3.85095657410191e-03 7.02086709656006e-05
1.19339473684211e+01 3.78138041157699e-03 6.90942516094801e-05
1.19871052631579e+01 3.71306129835480e-03 6.79968467917896e-05
1.20402631578947e+01 3.64597652302334e-03 6.69162137519526e-05
1.20934210526316e+01 3.58010378450309e-03 6.58521127344620e-05
1.21465789473684e+01 3.51542118463351e-03 6.48043069653663e-05
1.21997368421053e+01 3.45190722089317e-03 6.37725626283239e-05
1.22528947368421e+01 3.38954077925204e-03 6.27566488404738e-05
1.23060526315789e+01 3.32830112715234e-03 6.17563376281480e-05
1.23592105263158e+01 3.26816790661636e-03 6.07714039022100e-05
1.24123684210526e+01 3.20912112747887e-03 5.98016254332384e-05
1.24655263157895e+01 3.15114116074174e-03 5.88467828265248e-05
1.25186842105263e+01 3.09420873204863e-03 5.79066594968992e-05
1.25718421052632e+01 3.03830491527766e-03 5.69810416434032e-05
1.26250000000000e+01 2.98341112624969e-03 5.60697181188398e-05
1.26781578947368e+01 2.92950911696895e-03 5.51724807231823e-05
1.27313157894737e+01 2.87658096828439e-03 5.42891239637913e-05
1.27844736842105e+01 2.82460908522242e-03 5.34194448077329e-05
1.28376315789474e+01 2.77357619070206e-03 5.25632429912269e-05
1.28907894736842e+01 2.72346531979150e-03 5.17203208805606e-05
1.29439473684211e+01 2.67425981406840e-03 5.08904834461740e-05
1.29971052631579e+01 2.62594331608215e-03 5.00735382367124e-05
1.30502631578947e+01 2.57849976391610e-03 4.92692953530727e-05
1.31034210526316e+01 2.53191338584811e-03 4.84775674224462e-05
1.31565789473684e+01 2.48616869510753e-03 4.76981695723880e-05
1.32097368421053e+01 2.44125048472679e-03 4.69309194048343e-05
1.32628947368421e+01 2.39714382248637e-03 4.61756369702020e-05
1.33160526315789e+01 2.35383404595073e-03 4.54321447415868e-05
1.33692105263158e+01 2.31130675759408e-03 4.47002675889247e-05
1.34223684210526e+01 2.26954782001417e-03 4.39798327532395e-05
1.34755263157895e+01 2.22854335123260e-03 4.32706698209621e-05
1.35286842105263e+01 2.18827972008000e-03 4.25726106983226e-05
1.35818421052632e+01 2.14874354166460e-03 4.18854895858294e-05
1.36350000000000e+01 2.10992167292268e-03 4.12091428813812e-05
1.36881578947368e+01 2.07180120852353e-03 4.05434093720118e-05
1.37413157894737e+01 2.03436947574601e-03 3.98881300629671e-05
1.37944736842105e+01 1.99761403111021e-03 3.92431480015519e-05
1.38476315789474e+01 1.96152265595557e-03 3.86083084802905e-05
1.39007894736842e+01 1.92608335237900e-03 3.79834589350159e-05
1.39539473684211e+01 1.89128433924641e-03 3.73684489201262e-05
1.40071052631579e+01 1.85711404827627e-03 3.67631300839796e-05
1.40602631578947e+01 1.82356112019398e-03 3.61673561444259e-05
1.41134210526316e+01 1.79061440095566e-03 3.55809828644809e-05
1.41665789473684e+01 1.75826293804023e-03 3.50038680281722e-05
1.42197368421053e+01 1.72649597680838e-03 3.44358714164791e-05
1.42728947368421e+01 1.69530295692750e-03 3.38768547834678e-05
1.43260526315789e+01 1.66467350886106e-03 3.33266818326254e-05
1.43792105263158e+01 1.63459745042142e-03 3.27852181932966e-05
1.44323684210526e+01 1.60506478338496e-03 3.22523313973117e-05
1.44855263157895e+01 1.57606569016840e-03 3.17278908557828e-05
1.45386842105263e+01 1.54759053056507e-03 3.12117678360699e-05
1.45918421052632e+01 1.51962983854022e-03 3.07038354389255e-05
1.46450000000000e+01 1.49217431908424e-03 3.02039685270516e-05
1.46981578947368e+01 1.46521484530319e-03 2.97120438507349e-05
1.47513157894737e+01 1.43874245483605e-03 2.92279399261140e-05
1.48044736842105e+01 1.41274834743137e-03 2.87515369099726e-05
1.48576315789474e+01 1.38722388183395e-03 2.82827167334805e-05
1.49107894736842e+01 1.36216057291224e-03 2.78213630278670e-05
1.49639473684211e+01 1.33755008883757e-03 2.73673611028489e-05
1.50171052631579e+01 1.31338424831445e-03 2.69205979252486e-05
1.50702631578947e+01 1.28965501786078e-03 2.64809620978036e-05
1.51234210526316e+01 1.26635450913735e-03 2.60483438381700e-05
1.51765789473684e+01 1.24347497632544e-03 2.56226349581257e-05
1.52297368421053e+01 1.22100881355187e-03 2.52037288429360e-05
1.52828947368421e+01 1.19894855236064e-03 2.47915204309378e-05
1.53360526315789e+01 1.17728685923011e-03 2.43859061933390e-05
1.53892105263158e+01 1.15601653313519e-03 2.39867841141784e-05
1.54423684210526e+01 1.13513050315338e-03 2.35940536704960e-05
1.54955263157895e+01 1.11462182611428e-03 2.32076158126959e-05
1.55486842105263e+01 1.09448368429140e-03 2.28273729451051e-05
1.56018421052632e+01 1.07470938313574e-03 2.24532289067314e-05
1.56550000000000e+01 1.05529234905035e-03 2.20850889188554e-05
1.57081578947368e+01 1.03622612732445e-03 2.17228596675084e-05
1.57613157894737e+01 1.01750437962469e-03 2.13664492168159e-05
1.58144736842105e+01 9.99120882255921e-04 2.10157669200271e-05
1.58676315789474e+01 9.81069523967977e-04 2.06707235077421e-05
1.59207894736842e+01 9.63344303924128e-04 2.03312310338849e-05
1.59739473684211e+01 9.45939329706201e-04 1.99972028578242e-05
1.60271052631579e+01 9.28848815355755e-04 1.96685536266903e-05
1.60802631578947e+01 9.12067079450649e-04 1.93451992578847e-05
1.61334210526316e+01 8.95588543216361e-04 1.90270569217802e-05
1.61865789473684e+01 8.79407728671430e-04 1.87140450246204e-05
1.62397368421053e+01 8.63519256806373e-04 1.84060831915889e-05
1.62928947368421e+01 8.47917845795594e-04 1.81030922500832e-05
1.63460526315789e+01 8.32598309241505e-04 1.78049942131927e-05
1.63992105263158e+01 8.17555554450412e-04 1.75117122633403e-05
1.64523684210526e+01 8.02784580739540e-04 1.72231707361216e-05
1.65055263157895e+01 7.88280477774651e-04 1.69392951043280e-05
1.65586842105263e+01 7.74038423937697e-04 1.66600119621569e-05
1.66118421052632e+01 7.60053684723959e-04 1.63852490096053e-05
1.66650000000000e+01 7.46321611168157e-04 1.61149350141796e-05
1.67181578947368e+01 7.32837638378334e-04 1.58489998651113e-05
1.67713157894737e+01 7.19597283777165e-04 1.55873745116888e-05
