Energy (eV)          EEDF (eV^-(3/2))     First Anisotropy
5.28571428571429e-04 1.25188150784503e+02 7.85202823609592e-02
1.58571428571429e-03 1.22144407666802e+02 1.28515120576844e-01
2.64285714285714e-03 1.19174668142716e+02 1.66650143636987e-01
3.70000000000000e-03 1.16277132928693e+02 1.93855763803945e-01
4.75714285714286e-03 1.13450046496644e+02 2.15128566440082e-01
5.81428571428571e-03 1.10691696001102e+02 2.32410478455627e-01
6.87142857142857e-03 1.08000410243338e+02 2.46732661330011e-01
7.92857142857143e-03 1.05374558653138e+02 2.58733200407304e-01
8.98571428571429e-03 1.02812550306844e+02 2.68845231376761e-01
1.00428571428571e-02 1.00312832962591e+02 2.77381706281539e-01
1.11000000000000e-02 9.78738921135541e+01 2.84579157000076e-01
1.21571428571429e-02 9.54942500878073e+01 2.90622540381541e-01
1.32142857142857e-02 9.31724651241978e+01 2.95660374110977e-01
1.42714285714286e-02 9.09071305307985e+01 2.99814475536096e-01
1.53285714285714e-02 8.86968738037446e+01 3.03186507721413e-01
1.63857142857143e-02 8.65403558159023e+01 3.05862541208361e-01
1.74428571428571e-02 8.44362700040831e+01 3.07916328318855e-01
1.85000000000000e-02 8.23833415614375e+01 3.09411715678267e-01
1.95571428571429e-02 8.03803266855204e+01 3.10404460394038e-01
2.06142857142857e-02 7.84260118062158e+01 3.10943623847670e-01
2.16714285714286e-02 7.65192128672835e+01 3.11072659690490e-01
2.27285714285714e-02 7.46587745936157e+01 3.10830275597323e-01
2.37857142857143e-02 7.28435698023141e+01 3.10251125553634e-01
2.48428571428571e-02 7.10724987190877e+01 3.09366371644980e-01
2.59000000000000e-02 6.93444883027759e+01 3.08204146083287e-01
2.69571428571429e-02 6.76584916070585e+01 3.06789934160342e-01
2.80142857142857e-02 6.60134871351854e+01 3.05146894722143e-01
2.90714285714286e-02 6.44084782312514e+01 3.03296130600562e-01
3.01285714285714e-02 6.28424924668925e+01 3.01256918396852e-01
3.11857142857143e-02 6.13145810589844e+01 2.99046905441543e-01
3.22428571428571e-02 5.98238182944200e+01 2.96682278944602e-01
3.33000000000000e-02 5.83693009634062e+01 2.94177913026319e-01
3.43571428571429e-02 5.69501478198336e+01 2.91547496594852e-01
3.54142857142857e-02 5.55654990402351e+01 2.88803645344825e-01
3.64714285714286e-02 5.42145157095287e+01 2.85958000301491e-01
3.75285714285714e-02 5.28963793064620e+01 2.83021314845029e-01
3.85857142857143e-02 5.16102912122811e+01 2.80003532124121e-01
3.96428571428571e-02 5.03554722266299e+01 2.76913853624767e-01
4.07000000000000e-02 4.91311620914974e+01 2.73760800824525e-01
4.17571428571429e-02 4.79366190357697e+01 2.70552270312405e-01
4.28142857142857e-02 4.67711193209316e+01 2.67295583412580e-01
4.38714285714286e-02 4.56339568071896e+01 2.63997530961727e-01
4.49285714285714e-02 4.45244425212775e+01 2.60664413796604e-01
4.59857142857143e-02 4.34419042422280e+01 2.57302079633619e-01
4.70428571428571e-02 4.23856860939332e+01 2.53915956318027e-01
4.81000000000000e-02 4.13551481449800e+01 2.50511082417523e-01
4.91571428571429e-02 4.03496660245865e+01 2.47092135029297e-01
5.02142857142857e-02 3.93686305408488e+01 2.43663455267673e-01
5.12714285714286e-02 3.84114473149424e+01 2.40229071635180e-01
5.23285714285714e-02 3.74775364178760e+01 2.36792721480192e-01
5.33857142857143e-02 3.65663320214311e+01 2.33357870860015e-01
5.44428571428571e-02 3.56772820552308e+01 2.29927732627807e-01
5.55000000000000e-02 3.48098478702388e+01 2.26505283358792e-01
5.65571428571429e-02 3.39635039150563e+01 2.23093278888170e-01
5.76142857142857e-02 3.31377374149834e+01 2.19694268728476e-01
5.86714285714286e-02 3.23320480637496e+01 2.16310609429225e-01
5.97285714285714e-02 3.15459477180992e+01 2.12944476968753e-01
6.07857142857143e-02 3.07789601037296e+01 2.09597878357654e-01
6.18428571428571e-02 3.00306205266510e+01 2.06272662257538e-01
6.29000000000000e-02 2.93004755901515e+01 2.02970529050344e-01
6.39571428571429e-02 2.85880829220565e+01 1.99693040133983e-01
6.50142857142857e-02 2.78930109048374e+01 1.96441626622453e-01
6.60714285714286e-02 2.72148384158964e+01 1.93217597463328e-01
6.71285714285714e-02 2.65531545707105e+01 1.90022147019549e-01
6.81857142857143e-02 2.59075584751507e+01 1.86856362229449e-01
6.92428571428571e-02 2.52776589825336e+01 1.83721229169436e-01
7.03000000000000e-02 2.46630744555200e+01 1.80617639345304e-01
7.13571428571429e-02 2.40634325363623e+01 1.77546395515656e-01
7.24142857142857e-02 2.34783699198968e+01 1.74508217176384e-01
7.34714285714286e-02 2.29075321347762e+01 1.71503745700434e-01
7.45285714285714e-02 2.23505733274145e+01 1.68533549160896e-01
7.55857142857143e-02 2.18071560533986e+01 1.65598126915636e-01
7.66428571428572e-02 2.12769510729972e+01 1.62697913805127e-01
7.77000000000000e-02 2.07596371508369e+01 1.59833284215213e-01
7.87571428571429e-02 2.02549008623917e+01 1.57004555839359e-01
7.98142857142857e-02 1.97624364030172e+01 1.54211993238265e-01
8.08714285714286e-02 1.92819454037013e+01 1.51455811184383e-01
8.19285714285714e-02 1.88131367493044e+01 1.48736177809989e-01
8.29857142857143e-02 1.83557264029109e+01 1.46053217615228e-01
8.40428571428571e-02 1.79094372337070e+01 1.43407014213481e-01
8.51000000000000e-02 1.74739988484258e+01 1.40797613012008e-01
8.61571428571429e-02 1.70491474283805e+01 1.38225023690728e-01
8.72142857142857e-02 1.66346255688018e+01 1.35689222555573e-01
8.82714285714286e-02 1.62301821236749e+01 1.33190154752174e-01
8.93285714285714e-02 1.58355720528178e+01 1.30727736353295e-01
9.03857142857143e-02 1.54505562739812e+01 1.28301856362077e-01
9.14428571428571e-02 1.50749015179701e+01 1.25912378530528e-01
9.25000000000000e-02 1.47083801868123e+01 1.23559143150694e-01
9.35571428571429e-02 1.43507702165243e+01 1.21241968705690e-01
9.46142857142857e-02 1.40018549419337e+01 1.18960653441154e-01
9.56714285714286e-02 1.36614229660203e+01 1.16714976843333e-01
9.67285714285714e-02 1.33292680312482e+01 1.14504701033904e-01
9.77857142857143e-02 1.30051888950362e+01 1.12329572113575e-01
9.88428571428571e-02 1.26889892078126e+01 1.10189321372355e-01
9.99000000000000e-02 1.23804773936619e+01 1.08083666516160e-01
1.00957142857143e-01 1.20794665352381e+01 1.06012312693169e-01
1.02014285714286e-01 1.17857742584770e+01 1.03974953604146e-01
1.03071428571429e-01 1.14992226241653e+01 1.01971272541689e-01
1.04128571428571e-01 1.12196380193873e+01 1.00000943240402e-01
1.05185714285714e-01 1.09468510523354e+01 9.80636307899210e-02
1.06242857142857e-01 1.06806964496863e+01 9.61589924676728e-02
1.07300000000000e-01 1.04210129564636e+01 9.42866785726414e-02
1.08357142857143e-01 1.01676432392641e+01 9.24463330204486e-02
1.09414285714286e-01 9.92043378810624e+00 9.06375941491714e-02
1.10471428571429e-01 9.67923482630523e+00 8.88600954502534e-02
1.11528571428571e-01 9.44390021874841e+00 8.71134660668026e-02
1.12585714285714e-01 9.21428738335493e+00 8.53973314198186e-02
1.13642857142857e-01 8.99025720469311e+00 8.37113137590664e-02
1.14700000000000e-01 8.77167394969277e+00 8.20550327209054e-02
1.15757142857143e-01 8.55840518613736e+00 8.04281056973085e-02
1.16814285714286e-01 8.35032170020051e+00 7.88301483823700e-02
1.17871428571429e-01 8.14729742042844e+00 7.72607752622461e-02
1.18928571428571e-01 7.94920934058617e+00 7.57195999210376e-02
1.19985714285714e-01 7.75593744513060e+00 7.42062354551325e-02
1.21042857142857e-01 7.56736463649931e+00 7.27202948305276e-02
1.22100000000000e-01 7.38337666416339e+00 7.12613912499608e-02
1.23157142857143e-01 7.20386205598278e+00 6.98291383697175e-02
1.24214285714286e-01 7.02871204890779e+00 6.84231506652785e-02
1.25271428571429e-01 6.85782052487698e+00 6.70430437538076e-02
1.26328571428571e-01 6.69108394591404e+00 6.56884345701360e-02
1.27385714285714e-01 6.52840129139637e+00 6.43589416341916e-02
1.28442857142857e-01 6.36967399685167e+00 6.30541852748984e-02
1.29500000000000e-01 6.21480589423976e+00 6.17737878649552e-02
1.30557142857143e-01 6.06370315414468e+00 6.05173739353260e-02
1.31614285714286e-01 5.91627422752873e+00 5.92845704142080e-02
1.32671428571429e-01 5.77242979168947e+00 5.80750068328118e-02
1.33728571428571e-01 5.63208269565821e+00 5.68883154139780e-02
1.34785714285714e-01 5.49514790739725e+00 5.57241312376141e-02
1.35842857142857e-01 5.36154246228296e+00 5.45820923726723e-02
1.36900000000000e-01 5.23118541283933e+00 5.34618400200693e-02
1.37957142857143e-01 5.10399778005862e+00 5.23630185589583e-02
1.39014285714286e-01 4.97990250443749e+00 5.12852756969322e-02
1.40071428571429e-01 4.85882440042261e+00 5.02282625945477e-02
1.41128571428571e-01 4.74069011047301e+00 4.91916338957839e-02
1.42185714285714e-01 4.62542806061451e+00 4.81750478228960e-02
1.43242857142857e-01 4.51296841707630e+00 4.71781662454139e-02
1.44300000000000e-01 4.40324304398022e+00 4.62006547595772e-02
1.45357142857143e-01 4.29618546235022e+00 4.52421826898653e-02
1.46414285714286e-01 4.19173080894607e+00 4.43024231772190e-02
1.47471428571429e-01 4.08981579786987e+00 4.33810532472881e-02
1.48528571428571e-01 3.99037868191565e+00 4.24777538029255e-02
1.49585714285714e-01 3.89335921515827e+00 4.15922096705813e-02
1.50642857142857e-01 3.79869861645304e+00 4.07241096266230e-02
1.51700000000000e-01 3.70633953382163e+00 3.98731464333186e-02
1.52757142857143e-01 3.61622600993716e+00 3.90390168118435e-02
1.53814285714286e-01 3.52830344750982e+00 3.82214214875506e-02
1.54871428571429e-01 3.44251857693267e+00 3.74200652196587e-02
1.55928571428571e-01 3.35881942376120e+00 3.66346567697607e-02
1.56985714285714e-01 3.27715527722327e+00 3.58649089154055e-02
1.58042857142857e-01 3.19747665949565e+00 3.51105384480521e-02
1.59100000000000e-01 3.11973529572655e+00 3.43712661797743e-02
1.60157142857143e-01 3.04388408497440e+00 3.36468168989482e-02
1.61214285714286e-01 2.96987707109964e+00 3.29369193861590e-02
1.62271428571429e-01 2.89766941550291e+00 3.22413064179084e-02
1.63328571428571e-01 2.82721736976129e+00 3.15597147208064e-02
1.64385714285714e-01 2.75847824912216e+00 3.08918849634372e-02
1.65442857142857e-01 2.69141040664236e+00 3.02375617360185e-02
1.66500000000000e-01 2.62597320795528e+00 2.95964935378838e-02
1.67557142857143e-01 2.56212700680219e+00 2.89684327235502e-02
1.68614285714286e-01 2.49983312055235e+00 2.83531354989608e-02
1.69671428571429e-01 2.43905380723417e+00 2.77503619081607e-02
1.70728571428571e-01 2.37975224250971e+00 2.71598757798161e-02
1.71785714285714e-01 2.32189249736374e+00 2.65814447052108e-02
1.72842857142857e-01 2.26543951633582e+00 2.60148400066947e-02
1.73900000000000e-01 2.21035909628109e+00 2.54598367130505e-02
1.74957142857143e-01 2.15661786576885e+00 2.49162135011838e-02
1.76014285714286e-01 2.10418326449356e+00 2.43837526796223e-02
1.77071428571429e-01 2.05302352392454e+00 2.38622401645009e-02
1.78128571428571e-01 2.00310764793044e+00 2.33514654229221e-02
1.79185714285714e-01 1.95440539399942e+00 2.28512214426146e-02
1.80242857142857e-01 1.90688725491650e+00 2.23613046941125e-02
1.81300000000000e-01 1.86052444088584e+00 2.18815150990072e-02
1.82357142857143e-01 1.81528886218578e+00 2.14116559707723e-02
1.83414285714286e-01 1.77115311185122e+00 2.09515339904341e-02
1.84471428571429e-01 1.72809044937288e+00 2.05009591763288e-02
1.85528571428571e-01 1.68607478439277e+00 2.00597448273174e-02
1.86585714285714e-01 1.64508066089672e+00 1.96277074879744e-02
1.87642857142857e-01 1.60508324179157e+00 1.92046669079081e-02
1.88700000000000e-01 1.56605829385703e+00 1.87904460063784e-02
1.89757142857143e-01 1.52798217314267e+00 1.83848708145562e-02
1.90814285714286e-01 1.49083181040102e+00 1.79877704468210e-02
1.91871428571429e-01 1.45458469735672e+00 1.75989770674074e-02
1.92928571428571e-01 1.41921887298595e+00 1.72183258354277e-02
1.93985714285714e-01 1.38471291021077e+00 1.68456548682544e-02
1.95042857142857e-01 1.35104590291731e+00 1.64808052002969e-02
1.96100000000000e-01 1.31819745328932e+00 1.61236207463815e-02
1.97157142857143e-01 1.28614765951385e+00 1.57739482468770e-02
1.98214285714286e-01 1.25487710352756e+00 1.54316372370314e-02
1.99271428571429e-01 1.22436683945122e+00 1.50965400126463e-02
2.00328571428571e-01 1.19459838204333e+00 1.47685115781133e-02
2.01385714285714e-01 1.16555369550043e+00 1.44474096097940e-02
2.02442857142857e-01 1.13721518252989e+00 1.41330944157835e-02
2.03500000000000e-01 1.10956567368812e+00 1.38254288996578e-02
2.04557142857143e-01 1.08258841703025e+00 1.35242785093073e-02
2.05614285714286e-01 1.05626706780171e+00 1.32295112059574e-02
2.06671428571429e-01 1.03058567869714e+00 1.29409974303047e-02
2.07728571428571e-01 1.00552869014359e+00 1.26586100542547e-02
2.08785714285714e-01 9.81080920873336e-01 1.23822243454815e-02
2.09842857142857e-01 9.57227558726140e-01 1.21117179291500e-02
2.10900000000000e-01 9.33954151674963e-01 1.18469707530769e-02
2.11957142857143e-01 9.11246599112172e-01 1.15878650406918e-02
2.13014285714286e-01 8.89091143177396e-01 1.13342852608370e-02
2.14071428571429e-01 8.67474360553381e-01 1.10861180952985e-02
2.15128571428571e-01 8.46383154288645e-01 1.08432523945682e-02
2.16185714285714e-01 8.25804745862395e-01 1.06055791443252e-02
2.17242857142857e-01 8.05726667442492e-01 1.03729914296916e-02
2.18300000000000e-01 7.86136754331530e-01 1.01453844024478e-02
2.19357142857143e-01 7.67023137630980e-01 9.92265523826326e-03
2.20414285714286e-01 7.48374236945266e-01 9.70470310797386e-03
2.21471428571429e-01 7.30178753472350e-01 9.49142914707605e-03
2.22528571428571e-01 7.12425663121889e-01 9.28273641559442e-03
2.23585714285714e-01 6.95104209836045e-01 9.07852986691290e-03
2.24642857142857e-01 6.78203899072782e-01 8.87871631485955e-03
2.25700000000000e-01 6.61714491447510e-01 8.68320440333594e-03
2.26757142857143e-01 6.45625996557333e-01 8.49190456776657e-03
2.27814285714286e-01 6.29928666842745e-01 8.30472900827099e-03
2.28871428571429e-01 6.14612991768824e-01 8.12159166143534e-03
2.29928571428571e-01 5.99669692033586e-01 7.94240816420284e-03
2.30985714285714e-01 5.85089713945914e-01 7.76709582526176e-03
2.32042857142857e-01 5.70864223940254e-01 7.59557359506532e-03
2.33100000000000e-01 5.56984603224597e-01 7.42776203803409e-03
2.34157142857143e-01 5.43442442581426e-01 7.26358329805377e-03
2.35214285714286e-01 5.30229537203201e-01 7.10296107375810e-03
2.36271428571429e-01 5.17337881792178e-01 6.94582059271280e-03
2.37328571428571e-01 5.04759665686194e-01 6.79208857914428e-03
2.38385714285714e-01 4.92487268126410e-01 6.64169322793968e-03
2.39442857142857e-01 4.80513253640166e-01 6.49456417757722e-03
2.40500000000000e-01 4.68830367536026e-01 6.35063248492601e-03
2.41557142857143e-01 4.57431531527000e-01 6.20983059454667e-03
2.42614285714286e-01 4.46309839385215e-01 6.07209231616241e-03
2.43671428571429e-01 4.35458552815451e-01 5.93735280126919e-03
2.44728571428571e-01 4.24871097353003e-01 5.80554851445451e-03
2.45785714285714e-01 4.14541058380393e-01 5.67661720996396e-03
2.46842857142857e-01 4.04462177240981e-01 5.55049790743244e-03
2.47900000000000e-01 3.94628347447023e-01 5.42713086921468e-03
2.48957142857143e-01 3.85033610995124e-01 5.30645757320329e-03
2.50014285714286e-01 3.75672154710090e-01 5.18842069247014e-03
2.51071428571429e-01 3.66538306770096e-01 5.07296407423497e-03
2.52128571428571e-01 3.57626533254296e-01 4.96003271449464e-03
2.53185714285714e-01 3.48931434789968e-01 4.84957273704370e-03
2.54242857142857e-01 3.40447743281229e-01 4.74153137184432e-03
2.55300000000000e-01 3.32170318717241e-01 4.63585693476367e-03
2.56357142857143e-01 3.24094146070457e-01 4.53249880360577e-03
2.57414285714286e-01 3.16214332220253e-01 4.43140739984347e-03
2.58471428571429e-01 3.08526103026919e-01 4.33253416982614e-03
2.59528571428571e-01 3.01024800426061e-01 4.23583156242617e-03
2.60585714285714e-01 2.93705879606415e-01 4.14125301036183e-03
2.61642857142857e-01 2.86564906256301e-01 4.04875291101457e-03
2.62700000000000e-01 2.79597553877000e-01 3.95828660841352e-03
2.63757142857143e-01 2.72799601171620e-01 3.86981037217665e-03
2.64814285714286e-01 2.66166929456528e-01 3.78328138121459e-03
2.65871428571429e-01 2.59695520197524e-01 3.69865770702716e-03
2.66928571428571e-01 2.53381452564424e-01 3.61589829407574e-03
2.67985714285714e-01 2.47220901055545e-01 3.53496294323432e-03
2.69042857142857e-01 2.41210133179963e-01 3.45581229484849e-03
2.70100000000000e-01 2.35345507196103e-01 3.37840781279077e-03
2.71157142857143e-01 2.29623469913636e-01 3.30271176601471e-03
2.72214285714286e-01 2.24040554515322e-01 3.22868721408953e-03
2.73271428571429e-01 2.18593378482403e-01 3.15629799241930e-03
2.74328571428571e-01 2.13278641536475e-01 3.08550869506052e-03
2.75385714285714e-01 2.08093123639944e-01 3.01628466011760e-03
2.76442857142857e-01 2.03033683045116e-01 2.94859195483622e-03
2.77500000000000e-01 1.98097254390700e-01 2.88239736154574e-03
2.78557142857143e-01 1.93280846851414e-01 2.81766836154554e-03
2.79614285714286e-01 1.88581542305134e-01 2.75437312231931e-03
2.80671428571429e-01 1.83996493586060e-01 2.69248048450542e-03
2.81728571428571e-01 1.79522922752524e-01 2.63195994689417e-03
2.82785714285714e-01 1.75158119403913e-01 2.57278165358453e-03
2.83842857142857e-01 1.70899439038531e-01 2.51491638090850e-03
2.84900000000000e-01 1.66744301451372e-01 2.45833552507913e-03
2.85957142857143e-01 1.62690189176438e-01 2.40301108814764e-03
2.87014285714286e-01 1.58734645944430e-01 2.34891566674299e-03
2.88071428571429e-01 1.54875275211921e-01 2.29602244062455e-03
2.89128571428571e-01 1.51109738703477e-01 2.24430515961258e-03
2.90185714285714e-01 1.47435754994965e-01 2.19373813232802e-03
2.91242857142857e-01 1.43851098131311e-01 2.14429621475464e-03
2.92300000000000e-01 1.40353596277863e-01 2.09595479941757e-03
2.93357142857143e-01 1.36941130409124e-01 2.04868980317065e-03
2.94414285714286e-01 1.33611633010905e-01 2.00247765731093e-03
2.95471428571429e-01 1.30363086841923e-01 1.95729529755066e-03
2.96528571428571e-01 1.27193523706781e-01 1.91312015265504e-03
2.97585714285714e-01 1.24101023263498e-01 1.86993013459629e-03
2.98642857142857e-01 1.21083711860041e-01 1.82770362857293e-03
2.99700000000000e-01 1.18139761399126e-01 1.78641948355353e-03
3.00757142857143e-01 1.15267388234401e-01 1.74605700167567e-03
3.01814285714286e-01 1.12464852078296e-01 1.70659592959167e-03
3.02871428571429e-01 1.09730454959326e-01 1.66801644970621e-03
3.03928571428571e-01 1.07062540189379e-01 1.63029917031662e-03
3.04985714285714e-01 1.04459491359972e-01 1.59342511702386e-03
3.06042857142857e-01 1.01919731362928e-01 1.55737572404191e-03
3.07100000000000e-01 9.94417214348468e-02 1.52213282595360e-03
3.08157142857143e-01 9.70239602279116e-02 1.48767864852391e-03
3.09214285714286e-01 9.46649828908289e-02 1.45399580114220e-03
3.10271428571429e-01 9.23633601909216e-02 1.42106726918312e-03
3.11328571428571e-01 9.01176976449434e-02 1.38887640546469e-03
3.12385714285714e-01 8.79266346742019e-02 1.35740692277157e-03
3.13442857142857e-01 8.57888437802295e-02 1.32664288630247e-03
3.14500000000000e-01 8.37030297404903e-02 1.29656870649717e-03
3.15557142857143e-01 8.16679288261856e-02 1.26716913108768e-03
3.16614285714286e-01 7.96823080288429e-02 1.23842923851232e-03
3.17671428571429e-01 7.77449643211652e-02 1.21033443126954e-03
3.18728571428571e-01 7.58547239254763e-02 1.18287042852858e-03
3.19785714285714e-01 7.40104416025628e-02 1.15602325963319e-03
3.20842857142857e-01 7.22109999578124e-02 1.12977925754943e-03
3.21900000000000e-01 7.04553087642163e-02 1.10412505263616e-03
3.22957142857143e-01 6.87423043039241e-02 1.07904756577653e-03
3.24014285714286e-01 6.70709487173910e-02 1.05453400265040e-03
3.25071428571429e-01 6.54402293810598e-02 1.03057184796241e-03
3.26128571428571e-01 6.38491582916420e-02 1.00714885905823e-03
3.27185714285714e-01 6.22967714675149e-02 9.84253060289749e-04
3.28242857142857e-01 6.07821283646778e-02 9.61872737339660e-04
3.29300000000000e-01 5.93043113069031e-02 9.39996431820241e-04
3.30357142857143e-01 5.78624249314642e-02 9.18612935345795e-04
3.31414285714286e-01 5.64555956414140e-02 8.97711284560180e-04
3.32471428571429e-01 5.50829710816390e-02 8.77280756132402e-04
3.33528571428571e-01 5.37437196206317e-02 8.57310861248342e-04
