Energy (eV)          EEDF (eV^-(3/2))     First Anisotropy
8.25000000000000e-02 4.08742828373516e-01 7.33488357855816e-04
2.47500000000000e-01 3.74912578797892e-01 1.16499087601059e-03
4.12500000000000e-01 3.43882343575800e-01 1.42018032161361e-03
5.77500000000000e-01 3.15420375070779e-01 1.55305207818966e-03
7.42500000000000e-01 2.89314106607689e-01 1.62022334974550e-03
9.07500000000000e-01 2.65368564929970e-01 1.64551562600062e-03
1.07250000000000e+00 2.43404914052400e-01 1.64226202935143e-03
1.23750000000000e+00 2.23259119634201e-01 1.61896504349877e-03
1.40250000000000e+00 2.04780723897414e-01 1.58145613807747e-03
1.56750000000000e+00 1.87831721941113e-01 1.53391795668119e-03
1.73250000000000e+00 1.72285531059250e-01 1.47943846895597e-03
1.89750000000000e+00 1.58026045364550e-01 1.42034097430231e-03
2.06250000000000e+00 1.44946768657959e-01 1.35839459785185e-03
2.22750000000000e+00 1.32950019067534e-01 1.29495573589041e-03
2.39250000000000e+00 1.21946199516653e-01 1.23106702740153e-03
2.55750000000000e+00 1.11853128573088e-01 1.16752885780183e-03
2.72250000000000e+00 1.02595426681413e-01 1.10495235872423e-03
2.88750000000000e+00 9.41039531948661e-02 1.04379951407140e-03
3.05250000000000e+00 8.63152900021603e-02 9.84414024258962e-04
3.21750000000000e+00 7.91712678927445e-02 9.27045386782999e-04
3.38250000000000e+00 7.26185321231944e-02 8.71867896098500e-04
3.54750000000000e+00 6.66081439401918e-02 8.18995772506637e-04
3.71250000000000e+00 6.10952150840880e-02 7.68495298291713e-04
3.87750000000000e+00 5.60385725433595e-02 7.20394611005682e-04
4.04250000000000e+00 5.14004510561949e-02 6.74691642960709e-04
4.20750000000000e+00 4.71462110626756e-02 6.31360580432883e-04
4.37250000000000e+00 4.32440800010930e-02 5.90357131565635e-04
4.53750000000000e+00 3.96649150162865e-02 5.51622829154337e-04
4.70250000000000e+00 3.63819853078031e-02 5.15088547141077e-04
4.86750000000000e+00 3.33707724923578e-02 4.80677373481082e-04
5.03250000000000e+00 3.06087874896112e-02 4.48306954091513e-04
5.19750000000000e+00 2.80754025636876e-02 4.17891400762675e-04
5.36250000000000e+00 2.57516972660432e-02 3.89342838696887e-04
5.52750000000000e+00 2.36203171291174e-02 3.62572655647508e-04
5.69250000000000e+00 2.16653440554291e-02 3.37492503654008e-04
5.85750000000000e+00 1.98721774341247e-02 3.14015095507452e-04
6.02250000000000e+00 1.82274250971046e-02 2.92054830881415e-04
6.18750000000000e+00 1.67188033003386e-02 2.71528281180759e-04
6.35250000000000e+00 1.53350449833868e-02 2.52354557329436e-04
6.51750000000000e+00 1.40658156219671e-02 2.34455580732338e-04
6.68250000000000e+00 1.29016360451183e-02 2.17756274343882e-04
6.84750000000000e+00 1.18338116405238e-02 2.02184688030159e-04
7.01250000000000e+00 1.08543674192688e-02 1.87672070120888e-04
7.17750000000000e+00 9.95598845506632e-03 1.74152895131272e-04
7.34250000000000e+00 9.13196525312491e-03 1.61564856026842e-04
7.50750000000000e+00 8.37614364064920e-03 1.49848828053839e-04
7.67250000000000e+00 7.68287880473261e-03 1.38948810020486e-04
7.83750000000000e+00 7.04699313437690e-03 1.28811847955674e-04
8.00250000000000e+00 6.46373755178395e-03 1.19387945261949e-04
8.16750000000000e+00 5.92875604412465e-03 1.10629962795589e-04
8.33250000000000e+00 5.43805313089226e-03 1.02493511727997e-04
8.49750000000000e+00 4.98796402387195e-03 9.49368415532229e-05
8.66250000000000e+00 4.57512725686787e-03 8.79207251923921e-05
8.82750000000000e+00 4.19645958077437e-03 8.14083427955675e-05
8.99250000000000e+00 3.84913293649649e-03 7.53651655454615e-05
9.15750000000000e+00 3.53055333374334e-03 6.97588405172745e-05
9.32250000000000e+00 3.23834147795160e-03 6.45590774378548e-05
9.48750000000000e+00 2.97031500065255e-03 5.97375380095276e-05
9.65250000000000e+00 2.72447216057103e-03 5.52677283143923e-05
9.81750000000000e+00 2.49897689372873e-03 5.11248946894137e-05
9.98250000000000e+00 2.29214510089955e-03 4.72859233576817e-05
1.01475000000000e+01 2.10243207000542e-03 4.37292440137256e-05
1.03125000000000e+01 1.92842093951756e-03 4.04347374881566e-05
1.04775000000000e+01 1.76881211670263e-03 3.73836475569474e-05
1.06425000000000e+01 1.62241357168460e-03 3.45584969114574e-05
1.08075000000000e+01 1.48813193483392e-03 3.19430072652467e-05
1.09725000000000e+01 1.36496433099554e-03 2.95220235414101e-05
1.11375000000000e+01 1.25199088956990e-03 2.72814420584133e-05
1.13025000000000e+01 1.14836787450906e-03 2.52081426122172e-05
1.14675000000000e+01 1.05332138291956e-03 2.32899243369539e-05
1.16325000000000e+01 9.66141565210447e-04 2.15154452148331e-05
1.17975000000000e+01 8.86177323619922e-04 1.98741650976691e-05
1.19625000000000e+01 8.12831449526871e-04 1.83562920968805e-05
1.21275000000000e+01 7.45556163230514e-04 1.69527321955647e-05
1.22925000000000e+01 6.83849022887283e-04 1.56550419348825e-05
1.24575000000000e+01 6.27249172051042e-04 1.44553840271737e-05
1.26225000000000e+01 5.75333897791600e-04 1.33464857496659e-05
1.27875000000000e+01 5.27715473686013e-04 1.23215999750942e-05
1.29525000000000e+01 4.84038264104729e-04 1.13744686988072e-05
1.31175000000000e+01 4.43976068166084e-04 1.04992889258197e-05
1.32825000000000e+01 4.07229683522637e-04 9.69068078563534e-06
1.34475000000000e+01 3.73524671784586e-04 8.94365774737597e-06
1.36125000000000e+01 3.42609308891469e-04 8.25359881271255e-06
1.37775000000000e+01 3.14252705124615e-04 7.61622256921156e-06
1.39425000000000e+01 2.88243080719740e-04 7.02756299191069e-06
1.41075000000000e+01 2.64386184201216e-04 6.48394688616354e-06
1.42725000000000e+01 2.42503841625407e-04 5.98197286999228e-06
1.44375000000000e+01 2.22432625898195e-04 5.51849179932129e-06
1.46025000000000e+01 2.04022636228551e-04 5.09058854450041e-06
1.47675000000000e+01 1.87136378602566e-04 4.69556503143791e-06
1.49325000000000e+01 1.71647738916836e-04 4.33092446543181e-06
1.50975000000000e+01 1.57441041102087e-04 3.99435666039828e-06
1.52625000000000e+01 1.44410183202697e-04 3.68372440063627e-06
1.54275000000000e+01 1.32457844959971e-04 3.39705076653168e-06
1.55925000000000e+01 1.21494760981038e-04 3.13250735968662e-06
1.57575000000000e+01 1.11439054065091e-04 2.88840336685898e-06
1.59225000000000e+01 1.02215623707926e-04 2.66317540581266e-06
1.60875000000000e+01 9.37555852178869e-05 2.45537809971239e-06
1.62525000000000e+01 8.59957552542613e-05 2.26367533005033e-06
1.64175000000000e+01 7.88781799459123e-05 2.08683212126972e-06
1.65825000000000e+01 7.23497020659217e-05 1.92370711325737e-06
1.67475000000000e+01 6.63615640297099e-05 1.77324558071720e-06
1.69125000000000e+01 6.08690437516480e-05 1.63447296111701e-06
1.70775000000000e+01 5.58311206405760e-05 1.50648885542643e-06
1.72425000000000e+01 5.12101692397320e-05 1.38846146824164e-06
1.74075000000000e+01 4.69716782230603e-05 1.27962245612792e-06
1.75725000000000e+01 4.30839926492355e-05 1.17926215511195e-06
1.77375000000000e+01 3.95180775484423e-05 1.08672516022690e-06
1.79025000000000e+01 3.62473010762713e-05 1.00140623186268e-06
1.80675000000000e+01 3.32472356152267e-05 9.22746505406421e-07
1.82325000000000e+01 3.04954753383836e-05 8.50229982280511e-07
1.83975000000000e+01 2.79714688726797e-05 7.83380282004529e-07
1.85625000000000e+01 2.56563658120950e-05 7.21757636326771e-07
1.87275000000000e+01 2.35328759344120e-05 6.64956107798560e-07
1.88925000000000e+01 2.15851400701245e-05 6.12601016404030e-07
1.90575000000000e+01 1.97986116590870e-05 5.64346559015356e-07
1.92225000000000e+01 1.81599481103146e-05 5.19873607523253e-07
1.93875000000000e+01 1.66569111535635e-05 4.78887672499639e-07
1.95525000000000e+01 1.52782754384700e-05 4.41117020188165e-07
1.97175000000000e+01 1.40137446986273e-05 4.06310931493047e-07
1.98825000000000e+01 1.28538748544757e-05 3.74238092451479e-07
2.00475000000000e+01 1.17900034807048e-05 3.44685106433365e-07
2.02125000000000e+01 1.08141851113969e-05 3.17455119018170e-07
2.03775000000000e+01 9.91913189974457e-06 2.92366547155428e-07
2.05425000000000e+01 9.09815918915977e-06 2.69251904826340e-07
2.07075000000000e+01 8.34513558927712e-06 2.47956717991754e-07
2.08725000000000e+01 7.65443718399601e-06 2.28338522139678e-07
2.10375000000000e+01 7.02090552956684e-06 2.10265936235867e-07
2.12025000000000e+01 6.43980912903236e-06 1.93617807336600e-07
2.13675000000000e+01 5.90680809529808e-06 1.78282420545747e-07
2.15325000000000e+01 5.41792173891986e-06 1.64156769390973e-07
2.16975000000000e+01 4.96949883853965e-06 1.51145882058409e-07
2.18625000000000e+01 4.55819037193594e-06 1.39162199263327e-07
2.20275000000000e+01 4.18092450403210e-06 1.28124999848134e-07
2.21925000000000e+01 3.83488364506196e-06 1.17959870489973e-07
2.23575000000000e+01 3.51748340755278e-06 1.08598216170087e-07
2.25225000000000e+01 3.22635330496688e-06 9.99768083072202e-08
2.26875000000000e+01 2.95931904785099e-06 9.20373676892451e-08
2.28525000000000e+01 2.71438630527277e-06 8.47261795520331e-08
2.30175000000000e+01 2.48972581026802e-06 7.79937383537062e-08
2.31825000000000e+01 2.28365969805901e-06 7.17944199768131e-08
2.33475000000000e+01 2.09464897501206e-06 6.60861792617945e-08
2.35125000000000e+01 1.92128202474663e-06 6.08302709332820e-08
2.36775000000000e+01 1.76226406555458e-06 5.59909921272317e-08
2.38425000000000e+01 1.61640748039295e-06 5.15354448624749e-08
2.40075000000000e+01 1.48262294723014e-06 4.74333169257589e-08
2.41725000000000e+01 1.35991130350312e-06 4.36566797554909e-08
2.43375000000000e+01 1.24735608392583e-06 4.01798020168629e-08
2.45025000000000e+01 1.14411667591761e-06 3.69789776604589e-08
2.46675000000000e+01 1.04942204153358e-06 3.40323673484231e-08
2.48325000000000e+01 9.62564959009307e-07 3.13198522173385e-08
2.49975000000000e+01 8.82896740913310e-07 2.88228990256393e-08
2.51625000000000e+01 8.09822389459959e-07 2.65244358061386e-08
2.53275000000000e+01 7.42796152800649e-07 2.44087372115121e-08
2.54925000000000e+01 6.81317449105580e-07 2.24613188027724e-08
2.56575000000000e+01 6.24927127995389e-07 2.06688395882472e-08
2.58225000000000e+01 5.73204041401333e-07 1.90190121737116e-08
2.59875000000000e+01 5.25761898243671e-07 1.75005199334239e-08
2.61525000000000e+01 4.82246379437592e-07 1.61029406571904e-08
2.63175000000000e+01 4.42332491680259e-07 1.48166761705131e-08
2.64825000000000e+01 4.05722140255875e-07 1.36328874636045e-08
2.66475000000000e+01 3.72141902731388e-07 1.25434349008428e-08
2.68125000000000e+01 3.41340986915818e-07 1.15408231152899e-08
2.69775000000000e+01 3.13089357832310e-07 1.06181502234272e-08
2.71425000000000e+01 2.87176019714338e-07 9.76906102345736e-09
2.73075000000000e+01 2.63407440195206e-07 8.98770386656045e-09
2.74725000000000e+01 2.41606104922023e-07 8.26869091453163e-09
2.76375000000000e+01 2.21609191799336e-07 7.60706151942952e-09
2.78025000000000e+01 2.03267354961105e-07 6.99824848135779e-09
2.79675000000000e+01 1.86443609389164e-07 6.43804695942180e-09
2.81325000000000e+01 1.71012307848011e-07 5.92258582836736e-09
2.82975000000000e+01 1.56858202495207e-07 5.44830128952829e-09
2.84625000000000e+01 1.43875584159093e-07 5.01191255958795e-09
2.86275000000000e+01 1.31967492855549e-07 4.61039947439017e-09
2.87925000000000e+01 1.21044993647580e-07 4.24098185770564e-09
2.89575000000000e+01 1.11026512439549e-07 3.90110051655228e-09
2.91225000000000e+01 1.01837226745443e-07 3.58839973545610e-09
2.92875000000000e+01 9.34085068811775e-08 3.30071115199190e-09
2.94525000000000e+01 8.56774034075062e-08 3.03603890512646e-09
2.96175000000000e+01 7.85861769955317e-08 2.79254595635762e-09
2.97825000000000e+01 7.20818672036456e-08 2.56854149145661e-09
2.99475000000000e+01 6.61158969453296e-08 2.36246931782903e-09
3.01125000000000e+01 6.06437096938071e-08 2.17289717915759e-09
3.02775000000000e+01 5.56244367140290e-08 1.99850691512104e-09
3.04425000000000e+01 5.10205918367323e-08 1.83808539963827e-09
3.06075000000000e+01 4.67977914950087e-08 1.69051619630094e-09
3.07725000000000e+01 4.29244979324915e-08 1.55477187446634e-09
3.09375000000000e+01 3.93717836653250e-08 1.42990693391598e-09
3.11025000000000e+01 3.61131154388128e-08 1.31505129007340e-09
3.12675000000000e+01 3.31241560652382e-08 1.20940427554369e-09
3.14325000000000e+01 3.03825826628911e-08 1.11222911721219e-09
3.15975000000000e+01 2.78679199388313e-08 1.02284785134307e-09
3.17625000000000e+01 2.55613872702686e-08 9.40636642071838e-10
3.19275000000000e+01 2.34457584424958e-08 8.65021471407576e-10
3.20925000000000e+01 2.15052329958337e-08 7.95474171370197e-10
3.22575000000000e+01 1.97253182207512e-08 7.31508771200461e-10
3.24225000000000e+01 1.80927209198468e-08 6.72678134712178e-10
3.25875000000000e+01 1.65952481283212e-08 6.18570864820483e-10
3.27525000000000e+01 1.52217160514783e-08 5.68808454090541e-10
3.29175000000000e+01 1.39618665391579e-08 5.23042661819489e-10
3.30825000000000e+01 1.28062904732957e-08 4.80953099701857e-10
3.32475000000000e+01 1.17463574964322e-08 4.42245009545516e-10
3.34125000000000e+01 1.07741515563547e-08 4.06647217810604e-10
3.35775000000000e+01 9.88241178548825e-09 3.73910252946728e-10
3.37425000000000e+01 9.06447827349851e-09 3.43804612611943e-10
3.39075000000000e+01 8.31424232811071e-09 3.16119168878141e-10
3.40725000000000e+01 7.62610085267133e-09 2.90659700468057e-10
3.42375000000000e+01 6.99491449972325e-09 2.67247541935806e-10
3.44025000000000e+01 6.41596928806671e-09 2.45718340501145e-10
3.45675000000000e+01 5.88494139664522e-09 2.25920911983113e-10
3.47325000000000e+01 5.39786487232145e-09 2.07716187956106e-10
3.48975000000000e+01 4.95110201037036e-09 1.90976246875483e-10
3.50625000000000e+01 4.54131618647782e-09 1.75583422494528e-10
3.52275000000000e+01 4.16544693734208e-09 1.61429483424022e-10
3.53925000000000e+01 3.82068710376884e-09 1.48414878173224e-10
3.55575000000000e+01 3.50446186555437e-09 1.36448040460164e-10
3.57225000000000e+01 3.21440951157979e-09 1.25444749992697e-10
3.58875000000000e+01 2.94836380149913e-09 1.15327544302664e-10
3.60525000000000e+01 2.70433778729025e-09 1.06025177566242e-10
3.62175000000000e+01 2.48050897384078e-09 9.74721226665920e-11
3.63825000000000e+01 2.27520570774182e-09 8.96081130523200e-11
3.65475000000000e+01 2.08689469263464e-09 8.23777212191924e-11
3.67125000000000e+01 1.91416953786970e-09 7.57299708947080e-11
3.68775000000000e+01 1.75574025495390e-09 6.96179802373690e-11
3.70425000000000e+01 1.61042362334126e-09 6.39986335762921e-11
3.72075000000000e+01 1.47713435361410e-09 5.88322794136662e-11
3.73725000000000e+01 1.35487698205765e-09 5.40824525938070e-11
3.75375000000000e+01 1.24273843609301e-09 4.97156187094307e-11
3.77025000000000e+01 1.13988121504391e-09 4.57009389693933e-11
3.78675000000000e+01 1.04553713530813e-09 4.20100538935752e-11
3.80325000000000e+01 9.59001593219700e-10 3.86168843307897e-11
3.81975000000000e+01 8.79628302754534e-10 3.54974484154555e-11
3.83625000000000e+01 8.06824468778084e-10 3.26296931891081e-11
3.85275000000000e+01 7.40046359786919e-10 2.99933397143896e-11
3.86925000000000e+01 6.78795247079331e-10 2.75697406026526e-11
3.88575000000000e+01 6.22613680026961e-10 2.53417489623674e-11
3.90225000000000e+01 5.71082069629475e-10 2.32935978547364e-11
3.91875000000000e+01 5.23815554836768e-10 2.14107894158277e-11
3.93525000000000e+01 4.80461128234991e-10 1.96799928716459e-11
3.95175000000000e+01 4.40694999629738e-10 1.80889507343247e-11
3.96825000000000e+01 4.04220177836461e-10 1.66263925244683e-11
3.98475000000000e+01 3.70764252617842e-10 1.52819554169887e-11
4.00125000000000e+01 3.40077360202644e-10 1.40461112559365e-11
4.01775000000000e+01 3.11930317191625e-10 1.29100994281323e-11
4.03425000000000e+01 2.86112908913691e-10 1.18658651261886e-11
4.05075000000000e+01 2.62432319448979e-10 1.09060025690390e-11
4.06725000000000e+01 2.40711691593568e-10 1.00237027826282e-11
4.08375000000000e+01 2.20788806010999e-10 9.21270557519637e-12
4.10025000000000e+01 2.02514869705918e-10 8.46725537083604e-12
4.11675000000000e+01 1.85753404771625e-10 7.78206059191062e-12
4.13325000000000e+01 1.70379229112196e-10 7.15225630568685e-12
4.14975000000000e+01 1.56277521526758e-10 6.57336987331769e-12
4.16625000000000e+01 1.43342964173549e-10 6.04128936027835e-12
4.18275000000000e+01 1.31478956009301e-10 5.55223448664854e-12
4.19925000000000e+01 1.20596891329569e-10 5.10272991338392e-12
4.21575000000000e+01 1.10615498021805e-10 4.68958067705020e-12
4.23225000000000e+01 1.01460230588978e-10 4.30984960051893e-12
4.24875000000000e+01 9.30627134105504e-11 3.96083652094807e-12
4.26525000000000e+01 8.53602300828509e-11 3.64005918908936e-12
4.28175000000000e+01 7.82952550249968e-11 3.34523570566539e-12
4.29825000000000e+01 7.18150238522008e-11 3.07426837132491e-12
4.31475000000000e+01 6.58711393078113e-11 2.82522883658822e-12
4.33125000000000e+01 6.04192098110138e-11 2.59634444730578e-12
4.34775000000000e+01 5.54185179207067e-11 2.38598568953502e-12
4.36425000000000e+01 5.08317162394904e-11 2.19265464545087e-12
4.38075000000000e+01 4.66245484866464e-11 2.01497437899850e-12
4.39725000000000e+01 4.27655936569541e-11 1.85167917652220e-12
4.41375000000000e+01 3.92260313546097e-11 1.70160557360611e-12
4.43025000000000e+01 3.59794265496562e-11 1.56368410488414e-12
4.44675000000000e+01 3.30015321493893e-11 1.43693171865515e-12
4.46325000000000e+01 3.02701079102547e-11 1.32044480281114e-12
4.47975000000000e+01 2.77647543377897e-11 1.21339277288336e-12
4.49625000000000e+01 2.54667603341004e-11 1.11501217696388e-12
4.51275000000000e+01 2.33589634550370e-11 1.02460127589577e-12
4.52925000000000e+01 2.14256217334064e-11 9.41515060468881e-13
4.54575000000000e+01 1.96522961109402e-11 8.65160670434008e-13
4.56225000000000e+01 1.80257426009673e-11 7.94993182977095e-13
4.57875000000000e+01 1.65338133764148e-11 7.30511740896824e-13
4.59525000000000e+01 1.51653660444171e-11 6.71255993122120e-13
4.61175000000000e+01 1.39101804299566e-11 6.16802822406840e-13
4.62825000000000e+01 1.27588822470381e-11 5.66763337063130e-13
4.64475000000000e+01 1.17028730873401e-11 5.20780105456444e-13
4.66125000000000e+01 1.07342662034664e-11 4.78524613697389e-13
4.67775000000000e+01 9.84582760719916e-12 4.39694928539993e-13
4.69425000000000e+01 9.03092204284821e-12 4.04013548944046e-13
4.71075000000000e+01 8.28346343220225e-12 3.71225431090789e-13
4.72725000000000e+01 7.59786942098235e-12 3.41096172865884e-13
4.74375000000000e+01 6.96901968733038e-12 3.13410344949735e-13
4.76025000000000e+01 6.39221770096162e-12 2.87969956690889e-13
4.77675000000000e+01 5.86315564738194e-12 2.64593045890598e-13
4.79325000000000e+01 5.37788225520781e-12 2.43112382502410e-13
4.80975000000000e+01 4.93277328630928e-12 2.23374277055965e-13
4.82625000000000e+01 4.52450446838320e-12 2.05237485354726e-13
4.84275000000000e+01 4.15002666780499e-12 1.88572201678357e-13
4.85925000000000e+01 3.80654311733877e-12 1.73259133346588e-13
4.87575000000000e+01 3.49148852863227e-12 1.59188650077218e-13
4.89225000000000e+01 3.20250993349929e-12 1.46260002100325e-13
4.90875000000000e+01 2.93744911090379e-12 1.34380601477548e-13
4.92525000000000e+01 2.69432646840262e-12 1.23465361522944e-13
4.94175000000000e+01 2.47132625766625e-12 1.13436089633479e-13
4.95825000000000e+01 2.26678301366040e-12 1.04220929215641e-13
4.97475000000000e+01 2.07916911621034e-12 9.57538467426203e-14
4.99125000000000e+01 1.90708338105207e-12 8.79741602963935e-14
5.00775000000000e+01 1.74924059516333e-12 8.08261062432243e-14
5.02425000000000e+01 1.60446191821951e-12 7.42584409615021e-14
5.04075000000000e+01 1.47166607848835e-12 6.82240747895107e-14
5.05725000000000e+01 1.34986129741034e-12 6.26797355893132e-14
5.07375000000000e+01 1.23813788255414e-12 5.75856595331239e-14
5.09025000000000e+01 1.13566143362776e-12 5.29053069117745e-14
5.10675000000000e+01 1.04166661080501e-12 4.86051009425313e-14
5.12325000000000e+01 9.55451418826336e-13 4.46541877168573e-14
5.13975000000000e+01 8.76371964185134e-13 4.10242155788672e-14
5.15625000000000e+01 8.03837646243851e-13 3.76891323632686e-14
5.17275000000000e+01 7.37306746365009e-13 3.46249990484965e-14
5.18925000000000e+01 6.76282382114814e-13 3.18098184974214e-14
5.20575000000000e+01 6.20308796323516e-13 2.92233780652639e-14
