Energy (eV)          EEDF (eV^-(3/2))     First Anisotropy
7.41304347826087e-02 3.60861614208485e-02 2.81136196166112e-05
2.22391304347826e-01 3.55484142944613e-02 4.62331068551421e-05
3.70652173913044e-01 3.50186805465593e-02 6.05304252036850e-05
5.18913043478261e-01 3.44968407603501e-02 7.10912143256178e-05
6.67173913043478e-01 3.39827773032669e-02 7.96534295753927e-05
8.15434782608696e-01 3.34763742933680e-02 8.68822947741144e-05
9.63695652173913e-01 3.29775175772094e-02 9.31260974909831e-05
1.11195652173913e+00 3.24860946996474e-02 9.85975455079735e-05
1.26021739130435e+00 3.20019948852847e-02 1.03439273769067e-04
1.40847826086957e+00 3.15251090076235e-02 1.07753186618376e-04
1.55673913043478e+00 3.10553295663441e-02 1.11615517638437e-04
1.70500000000000e+00 3.05925506630720e-02 1.15085329432072e-04
1.85326086956522e+00 3.01366679800592e-02 1.18209661601753e-04
2.00152173913043e+00 2.96875787487450e-02 1.21026822580235e-04
2.14978260869565e+00 2.92451817348079e-02 1.23568588801340e-04
2.29804347826087e+00 2.88093772124902e-02 1.25861728240235e-04
2.44630434782609e+00 2.83800669421183e-02 1.27929086847271e-04
2.59456521739130e+00 2.79571541479591e-02 1.29790383742650e-04
2.74282608695652e+00 2.75405434964051e-02 1.31462806011414e-04
2.89108695652174e+00 2.71301410744846e-02 1.32961462149548e-04
3.03934782608696e+00 2.67258543686925e-02 1.34299733581934e-04
3.18760869565217e+00 2.63275922441357e-02 1.35489551233303e-04
3.33586956521739e+00 2.59352649239898e-02 1.36541616030206e-04
3.48413043478261e+00 2.55487839692620e-02 1.37465576803767e-04
3.63239130434783e+00 2.51680622588515e-02 1.38270175372617e-04
3.78065217391304e+00 2.47930139699180e-02 1.38963366022245e-04
3.92891304347826e+00 2.44235545585310e-02 1.39552414779572e-04
4.07717391304348e+00 2.40596007406129e-02 1.40043982574233e-04
4.22543478260870e+00 2.37010704731639e-02 1.40444195427851e-04
4.37369565217391e+00 2.33478829357689e-02 1.40758704106460e-04
4.52195652173913e+00 2.29999585123783e-02 1.40992735144258e-04
4.67021739130435e+00 2.26572187733611e-02 1.41151134747613e-04
4.81847826086956e+00 2.23195864578250e-02 1.41238406783015e-04
4.96673913043478e+00 2.19869854562004e-02 1.41258745816814e-04
5.11500000000000e+00 2.16593407930836e-02 1.41216065924588e-04
5.26326086956522e+00 2.13365786109527e-02 1.41114026243895e-04
5.41152173913043e+00 2.10186261516336e-02 1.40956053190238e-04
5.55978260869565e+00 2.07054117418199e-02 1.40745360105626e-04
5.70804347826087e+00 2.03968647762627e-02 1.40484965052115e-04
5.85630434782609e+00 2.00929157018554e-02 1.40177706420655e-04
6.00456521739130e+00 1.97934960019541e-02 1.39826256961609e-04
6.15282608695652e+00 1.94985381809332e-02 1.39433136379474e-04
6.30108695652174e+00 1.92079757489702e-02 1.39000722673018e-04
6.44934782608696e+00 1.89217432070573e-02 1.38531262375264e-04
6.59760869565217e+00 1.86397760322371e-02 1.38026879825326e-04
6.74586956521739e+00 1.83620106630569e-02 1.37489585585488e-04
6.89413043478261e+00 1.80883844852414e-02 1.36921284101339e-04
7.04239130434783e+00 1.78188358175772e-02 1.36323780689209e-04
7.19065217391304e+00 1.75533038980094e-02 1.35698787924676e-04
7.33891304347826e+00 1.72917288699448e-02 1.35047931496029e-04
7.48717391304348e+00 1.70340517687578e-02 1.34372755578184e-04
7.63543478260870e+00 1.67802145084996e-02 1.33674727776284e-04
7.78369565217391e+00 1.65301598688035e-02 1.32955243681892e-04
7.93195652173913e+00 1.62838314819870e-02 1.32215631079698e-04
8.08021739130435e+00 1.60411738203446e-02 1.31457153838225e-04
8.22847826086957e+00 1.58021321836310e-02 1.30681015514206e-04
8.37673913043478e+00 1.55666526867307e-02 1.29888362696966e-04
8.52500000000000e+00 1.53346822475109e-02 1.29080288079879e-04
8.67326086956522e+00 1.51061685751186e-02 1.28257833463217e-04
8.82152173913043e+00 1.48810601573921e-02 1.27421992375092e-04
8.96978260869565e+00 1.46593062500626e-02 1.26573712510574e-04
9.11804347826087e+00 1.44408568650400e-02 1.25713898197327e-04
9.26630434782609e+00 1.42256627591445e-02 1.24843412555411e-04
9.41456521739130e+00 1.40136754230057e-02 1.23963079556749e-04
9.56282608695652e+00 1.38048470701282e-02 1.23073685956359e-04
9.71108695652174e+00 1.35991306261192e-02 1.22175983105339e-04
9.85934782608696e+00 1.33964797180768e-02 1.21270688654641e-04
1.00076086956522e+01 1.31968486641366e-02 1.20358488072063e-04
1.01558695652174e+01 1.30001924637474e-02 1.19440036495995e-04
1.03041304347826e+01 1.28064667852258e-02 1.18515959811620e-04
1.04523913043478e+01 1.26156279586753e-02 1.17586855541153e-04
1.06006521739130e+01 1.24276329667407e-02 1.16653295382881e-04
1.07489130434783e+01 1.22424394295149e-02 1.15715825679452e-04
1.08971739130435e+01 1.20600056004296e-02 1.14774967725855e-04
1.10454347826087e+01 1.18802903566398e-02 1.13831220464390e-04
1.11936956521739e+01 1.17032531848239e-02 1.12885060700601e-04
1.13419565217391e+01 1.15288541770333e-02 1.11936943535072e-04
1.14902173913043e+01 1.13570540200161e-02 1.10987303840944e-04
1.16384782608696e+01 1.11878139878163e-02 1.10036557570749e-04
1.17867391304348e+01 1.10210959286175e-02 1.09085102107738e-04
1.19350000000000e+01 1.08568622606134e-02 1.08133316338800e-04
1.20832608695652e+01 1.06950759633765e-02 1.07181562798616e-04
1.22315217391304e+01 1.05357005654433e-02 1.06230187689563e-04
1.23797826086957e+01 1.03787001401992e-02 1.05279520891417e-04
1.25280434782609e+01 1.02240392976346e-02 1.04329877914616e-04
1.26763043478261e+01 1.00716831726251e-02 1.03381559867737e-04
1.28245652173913e+01 9.92159742085102e-03 1.02434853612091e-04
1.29728260869565e+01 9.77374820978365e-03 1.01490032775856e-04
1.31210869565217e+01 9.62810221217071e-03 1.00547358643979e-04
1.32693478260870e+01 9.48462659514762e-03 9.96070802832222e-05
1.34176086956522e+01 9.34328901624855e-03 9.86694344533548e-05
1.35658695652174e+01 9.20405761599547e-03 9.77346472075433e-05
1.37141304347826e+01 9.06690100760041e-03 9.68029337774015e-05
1.38623913043478e+01 8.93178827303489e-03 9.58744984578454e-05
1.40106521739130e+01 8.79868895595488e-03 9.49495360798631e-05
1.41589130434783e+01 8.66757305195480e-03 9.40282318755943e-05
1.43071739130435e+01 8.53841100471075e-03 9.31107613445774e-05
1.44554347826087e+01 8.41117369921756e-03 9.21972916122525e-05
1.46036956521739e+01 8.28583245256512e-03 9.12879812792904e-05
1.47519565217391e+01 8.16235901016121e-03 9.03829804225096e-05
1.49002173913043e+01 8.04072553845568e-03 8.94824312588495e-05
1.50484782608696e+01 7.92090461946387e-03 8.85864687221960e-05
1.51967391304348e+01 7.80286924217007e-03 8.76952204603807e-05
1.53450000000000e+01 7.68659279887868e-03 8.68088066728642e-05
1.54932608695652e+01 7.57204907913507e-03 8.59273412503385e-05
1.56415217391304e+01 7.45921226157700e-03 8.50509316025240e-05
1.57897826086957e+01 7.34805691037495e-03 8.41796784901695e-05
1.59380434782609e+01 7.23855796942373e-03 8.33136770826545e-05
1.60863043478261e+01 7.13069075461657e-03 8.24530167821573e-05
1.62345652173913e+01 7.02443095037906e-03 8.15977811740394e-05
1.63828260869565e+01 6.91975460348168e-03 8.07480485240147e-05
1.65310869565217e+01 6.81663811826352e-03 7.99038922069095e-05
1.66793478260870e+01 6.71505824942169e-03 7.90653806607521e-05
1.68276086956522e+01 6.61499209868300e-03 7.82325772128840e-05
1.69758695652174e+01 6.51641710957907e-03 7.74055409775562e-05
1.71241304347826e+01 6.41931106060300e-03 7.65843266771192e-05
1.72723913043478e+01 6.32365206197531e-03 7.57689844684324e-05
1.74206521739130e+01 6.22941855065319e-03 7.49595607794491e-05
1.75689130434783e+01 6.13658928383306e-03 7.41560981324430e-05
1.77171739130435e+01 6.04514333581395e-03 7.33586349724221e-05
1.78654347826087e+01 5.95506009322662e-03 7.25672064476917e-05
1.80136956521739e+01 5.86631924886497e-03 7.17818442353680e-05
1.81619565217391e+01 5.77890079864617e-03 7.10025764671355e-05
1.83102173913043e+01 5.69278503658287e-03 7.02294280804658e-05
1.84584782608696e+01 5.60795255080044e-03 6.94624211188441e-05
1.86067391304348e+01 5.52438421776967e-03 6.87015746647477e-05
1.87550000000000e+01 5.44206119940126e-03 6.79469046740033e-05
1.89032608695652e+01 5.36096493875486e-03 6.71984246451787e-05
1.90515217391304e+01 5.28107715455839e-03 6.64561454527303e-05
1.91997826086957e+01 5.20237983839679e-03 6.57200751852760e-05
1.93480434782609e+01 5.12485525061140e-03 6.49902197719677e-05
1.94963043478261e+01 5.04848591509103e-03 6.42665828200355e-05
1.96445652173913e+01 4.97325461655446e-03 6.35491655355829e-05
1.97928260869565e+01 4.89914439625844e-03 6.28379669973771e-05
1.99410869565217e+01 4.82613854854005e-03 6.21329843894050e-05
2.00893478260870e+01 4.75422061594277e-03 6.14342129295368e-05
2.02376086956522e+01 4.68337438662637e-03 6.07416457175076e-05
2.03858695652174e+01 4.61358389067706e-03 6.00552742751364e-05
2.05341304347826e+01 4.54483339547247e-03 5.93750883941056e-05
2.06823913043478e+01 4.47710740318005e-03 5.87010759885096e-05
2.08306521739130e+01 4.41039064723174e-03 5.80332236014711e-05
2.09789130434783e+01 4.34466808791480e-03 5.73715162580995e-05
2.11271739130435e+01 4.27992490995845e-03 5.67159373230158e-05
2.12754347826087e+01 4.21614651916360e-03 5.60664689757429e-05
2.14236956521739e+01 4.15331853820918e-03 5.54230920685205e-05
2.15719565217391e+01 4.09142680432445e-03 5.47857860502040e-05
2.17202173913043e+01 4.03045736578855e-03 5.41545291670833e-05
2.18684782608696e+01 3.97039647905965e-03 5.35292986321220e-05
2.20167391304348e+01 3.91123060484647e-03 5.29100705563603e-05
2.21650000000000e+01 3.85294640589494e-03 5.22968198171812e-05
2.23132608695652e+01 3.79553074395603e-03 5.16895204705747e-05
2.24615217391304e+01 3.73897067604687e-03 5.10881456201317e-05
2.26097826086957e+01 3.68325345231780e-03 5.04926672901246e-05
2.27580434782609e+01 3.62836651315442e-03 4.99030568129835e-05
2.29063043478261e+01 3.57429748561884e-03 4.93192847032096e-05
2.30545652173913e+01 3.52103418139533e-03 4.87413205863355e-05
2.32028260869565e+01 3.46856459379548e-03 4.81691333588014e-05
2.33510869565217e+01 3.41687689527221e-03 4.76026913219120e-05
2.34993478260870e+01 3.36595943408449e-03 4.70419621177002e-05
2.36476086956522e+01 3.31580073234687e-03 4.64869126126151e-05
2.37958695652174e+01 3.26638948342148e-03 4.59375092346268e-05
2.39441304347826e+01 3.21771454874215e-03 4.53937178577662e-05
2.40923913043478e+01 3.16976495593668e-03 4.48555036902593e-05
2.42406521739130e+01 3.12252989633465e-03 4.43228315917743e-05
2.43889130434783e+01 3.07599872194281e-03 4.37956659626542e-05
2.45371739130435e+01 3.03016094363851e-03 4.32739706365630e-05
2.46854347826087e+01 2.98500622878726e-03 4.27577091791621e-05
2.48336956521739e+01 2.94052439836243e-03 4.22468447817054e-05
2.49819565217391e+01 2.89670542520744e-03 4.17413401984399e-05
2.51302173913043e+01 2.85353943158783e-03 4.12411578663260e-05
2.52784782608696e+01 2.81101668713231e-03 4.07462600046131e-05
2.54267391304348e+01 2.76912760613127e-03 4.02566085581965e-05
2.55750000000000e+01 2.72786274588907e-03 3.97721650997820e-05
2.57232608695652e+01 2.68721280458025e-03 3.92928910906017e-05
2.58715217391304e+01 2.64716861867574e-03 3.88187477836167e-05
2.60197826086957e+01 2.60772116135872e-03 3.83496961296939e-05
2.61680434782609e+01 2.56886154047555e-03 3.78856970233054e-05
2.63163043478261e+01 2.53058099608356e-03 3.74267112097509e-05
2.64645652173913e+01 2.49287089892859e-03 3.69726992289908e-05
2.66128260869565e+01 2.45572274834747e-03 3.65236215121257e-05
2.67610869565217e+01 2.41912817048802e-03 3.60794384611917e-05
2.69093478260870e+01 2.38307891600841e-03 3.56401103982423e-05
2.70576086956522e+01 2.34756685863487e-03 3.52055974801825e-05
2.72058695652174e+01 2.31258399331737e-03 3.47758599136770e-05
2.73541304347826e+01 2.27812243403716e-03 3.43508578709302e-05
2.75023913043478e+01 2.24417441242082e-03 3.39305514080451e-05
2.76506521739130e+01 2.21073227597776e-03 3.35149006677259e-05
2.77989130434783e+01 2.17778848601040e-03 3.31038657986893e-05
2.79471739130435e+01 2.14533561628309e-03 3.26974068775213e-05
2.80954347826087e+01 2.11336635133717e-03 3.22954840999164e-05
2.82436956521739e+01 2.08187348449924e-03 3.18980577034704e-05
2.83919565217391e+01 2.05084991660284e-03 3.15050879197113e-05
2.85402173913043e+01 2.02028865427147e-03 3.11165350472456e-05
2.86884782608696e+01 1.99018280844667e-03 3.07323595118117e-05
2.88367391304348e+01 1.96052559251841e-03 3.03525218226995e-05
2.89850000000000e+01 1.93131032111510e-03 2.99769825019631e-05
2.91332608695652e+01 1.90253040858723e-03 2.96057022520599e-05
2.92815217391304e+01 1.87417936722494e-03 2.92386418859927e-05
2.94297826086957e+01 1.84625080609633e-03 2.88757622595566e-05
2.95780434782609e+01 1.81873842959808e-03 2.85170244296080e-05
2.97263043478261e+01 1.79163603575608e-03 2.81623895872230e-05
2.98745652173913e+01 1.76493751511034e-03 2.78118190153592e-05
3.00228260869565e+01 1.73863684924259e-03 2.74652741482425e-05
3.01710869565217e+01 1.71272810950497e-03 2.71227166198553e-05
3.03193478260870e+01 1.68720545542451e-03 2.67841082254089e-05
3.04676086956522e+01 1.66206313364835e-03 2.64494108600931e-05
3.06158695652174e+01 1.63729547663918e-03 2.61185866580093e-05
3.07641304347826e+01 1.61289690115372e-03 2.57915979317333e-05
3.09123913043478e+01 1.58886190723043e-03 2.54684071136872e-05
3.10606521739130e+01 1.56518507694270e-03 2.51489768873850e-05
3.12089130434783e+01 1.54186107294779e-03 2.48332701296618e-05
3.13571739130435e+01 1.51888463751562e-03 2.45212498546205e-05
3.15054347826087e+01 1.49625059133686e-03 2.42128793376367e-05
3.16536956521739e+01 1.47395383213919e-03 2.39081220600797e-05
3.18019565217391e+01 1.45198933375552e-03 2.36069416736562e-05
3.19502173913043e+01 1.43035214491748e-03 2.33093020457886e-05
3.20984782608696e+01 1.40903738820529e-03 2.30151672963881e-05
3.22467391304348e+01 1.38804025874815e-03 2.27245017653422e-05
3.23950000000000e+01 1.36735602334328e-03 2.24372699618816e-05
3.25432608695652e+01 1.34698001938322e-03 2.21534366736048e-05
3.26915217391304e+01 1.32690765361607e-03 2.18729669165818e-05
3.28397826086956e+01 1.30713440130058e-03 2.15958258869333e-05
3.29880434782609e+01 1.28765580518079e-03 2.13219790638923e-05
3.31363043478261e+01 1.26846747430342e-03 2.10513921620995e-05
3.32845652173913e+01 1.24956508320766e-03 2.07840311003911e-05
3.34328260869565e+01 1.23094437088966e-03 2.05198620388181e-05
3.35810869565217e+01 1.21260113989633e-03 2.02588514084691e-05
3.37293478260870e+01 1.19453125521440e-03 2.00009658829704e-05
3.38776086956522e+01 1.17673064350476e-03 1.97461723347991e-05
3.40258695652174e+01 1.15919529217944e-03 1.94944379259832e-05
3.41741304347826e+01 1.14192124834180e-03 1.92457300650522e-05
3.43223913043478e+01 1.12490461805226e-03 1.90000163652495e-05
3.44706521739130e+01 1.10814156544612e-03 1.87572647303084e-05
3.46189130434783e+01 1.09162831172243e-03 1.85174433133229e-05
3.47671739130435e+01 1.07536113444000e-03 1.82805204768119e-05
3.49154347826087e+01 1.05933636667414e-03 1.80464648738537e-05
3.50636956521739e+01 1.04355039605192e-03 1.78152454087495e-05
3.52119565217391e+01 1.02799966407738e-03 1.75868312109246e-05
3.53602173913043e+01 1.01268066528237e-03 1.73611916633610e-05
3.55084782608696e+01 9.97589946478621e-04 1.71382964253170e-05
3.56567391304348e+01 9.82724105851239e-04 1.69181154084579e-05
3.58050000000000e+01 9.68079792321226e-04 1.67006187408315e-05
3.59532608695652e+01 9.53653704786441e-04 1.64857768383556e-05
3.61015217391304e+01 9.39442591256577e-04 1.62735603693568e-05
3.62497826086957e+01 9.25443248242147e-04 1.60639402201341e-05
3.63980434782609e+01 9.11652520028921e-04 1.58568875626007e-05
3.65463043478261e+01 8.98067297852503e-04 1.56523738203915e-05
3.66945652173913e+01 8.84684519312742e-04 1.54503706461175e-05
3.68428260869565e+01 8.71501167644625e-04 1.52508499446338e-05
3.69910869565217e+01 8.58514271073130e-04 1.50537838915138e-05
3.71393478260870e+01 8.45720902037505e-04 1.48591449122222e-05
3.72876086956522e+01 8.33118176638242e-04 1.46669056510766e-05
3.74358695652174e+01 8.20703253983963e-04 1.44770390308886e-05
3.75841304347826e+01 8.08473335451118e-04 1.42895182224090e-05
3.77323913043478e+01 7.96425664153995e-04 1.41043166146478e-05
3.78806521739130e+01 7.84557524320459e-04 1.39214078713273e-05
3.80289130434783e+01 7.72866240585416e-04 1.37407659016913e-05
3.81771739130435e+01 7.61349177482990e-04 1.35623648321481e-05
3.83254347826087e+01 7.50003738849753e-04 1.33861790597112e-05
3.84736956521739e+01 7.38827367150440e-04 1.32121832240909e-05
3.86219565217391e+01 7.27817542991393e-04 1.30403521887531e-05
3.87702173913043e+01 7.16971784522324e-04 1.28706610588460e-05
3.89184782608696e+01 7.06287646904156e-04 1.27030851953109e-05
3.90667391304348e+01 6.95762721675193e-04 1.25376001975130e-05
3.92150000000000e+01 6.85394636291738e-04 1.23741818776788e-05
3.93632608695652e+01 6.75181053590951e-04 1.22128063080597e-05
3.95115217391304e+01 6.65119671185855e-04 1.20534497957878e-05
3.96597826086957e+01 6.55208221025240e-04 1.18960888584439e-05
3.98080434782609e+01 6.45444468880193e-04 1.17407002687185e-05
3.99563043478261e+01 6.35826213766651e-04 1.15872610303810e-05
4.01045652173913e+01 6.26351287523799e-04 1.14357483618179e-05
4.02528260869565e+01 6.17017554300219e-04 1.12861397107314e-05
4.04010869565217e+01 6.07822910095044e-04 1.11384127656277e-05
4.05493478260870e+01 5.98765282215102e-04 1.09925454407044e-05
4.06976086956522e+01 5.89842628876953e-04 1.08485158538391e-05
4.08458695652174e+01 5.81052938744703e-04 1.07063023660265e-05
4.09941304347826e+01 5.72394230411792e-04 1.05658835597256e-05
4.11423913043478e+01 5.63864552019785e-04 1.04272382178139e-05
4.12906521739130e+01 5.55461980816586e-04 1.02903453609424e-05
4.14389130434783e+01 5.47184622661743e-04 1.01551842268501e-05
4.15871739130435e+01 5.39030611661333e-04 1.00217342502564e-05
4.17354347826087e+01 5.30998109745622e-04 9.88997509824622e-06
4.18836956521739e+01 5.23085306196845e-04 9.75988665049442e-06
4.20319565217391e+01 5.15290417299505e-04 9.63144898558886e-06
4.21802173913043e+01 5.07611685918587e-04 9.50464239237790e-06
4.23284782608696e+01 5.00047381121226e-04 9.37944737875384e-06
4.24767391304348e+01 4.92595797732698e-04 9.25584465908136e-06
4.26250000000000e+01 4.85255256006397e-04 9.13381513608016e-06
4.27732608695652e+01 4.78024101243684e-04 9.01333993209191e-06
4.29215217391304e+01 4.70900703369992e-04 8.89440037126881e-06
4.30697826086957e+01 4.63883456618761e-04 8.77697796225862e-06
4.32180434782609e+01 4.56970779168054e-04 8.66105442782963e-06
4.33663043478261e+01 4.50161112735851e-04 8.54661168784936e-06
4.35145652173913e+01 4.43452922277391e-04 8.43363184741675e-06
4.36628260869565e+01 4.36844695622770e-04 8.32209720617607e-06
4.38110869565217e+01 4.30334943150831e-04 8.21199026547111e-06
4.39593478260870e+01 4.23922197408617e-04 8.10329371742540e-06
4.41076086956522e+01 4.17605012825787e-04 7.99599042934571e-06
4.42558695652174e+01 4.11381965387507e-04 7.89006346991365e-06
4.44041304347826e+01 4.05251652271105e-04 7.78549609385046e-06
4.45523913043478e+01 3.99212691572602e-04 7.68227172700636e-06
4.47006521739130e+01 3.93263721994032e-04 7.58037399118120e-06
4.48489130434783e+01 3.87403402496526e-04 7.47978668947465e-06
4.49971739130435e+01 3.81630412038457e-04 7.38049379204000e-06
4.51454347826087e+01 3.75943449276533e-04 7.28247945960785e-06
4.52936956521739e+01 3.70341232234570e-04 7.18572802948158e-06
4.54419565217391e+01 3.64822498052771e-04 7.09022400569293e-06
4.55902173913043e+01 3.59386002690159e-04 6.99595206619911e-06
4.57384782608696e+01 3.54030520655781e-04 6.90289706835054e-06
4.58867391304348e+01 3.48754844697204e-04 6.81104403982256e-06
4.60350000000000e+01 3.43557785563978e-04 6.72037816578014e-06
4.61832608695652e+01 3.38438171738583e-04 6.63088480968709e-06
4.63315217391304e+01 3.33394849138981e-04 6.54254950069315e-06
4.64797826086957e+01 3.28426680892148e-04 6.45535792136687e-06
4.66280434782609e+01 3.23532547076885e-04 6.36929592742087e-06
4.67763043478261e+01 3.18711344439786e-04 6.28434953565855e-06
