Energy (eV)          EEDF (eV^-(3/2))     First Anisotropy
7.25000000000000e-02 7.81915037515656e-02 7.76415656083889e-05
2.17500000000000e-01 7.62861928139466e-02 1.27073447969403e-04
3.62500000000000e-01 7.44273090403357e-02 1.64771574058515e-04
5.07500000000000e-01 7.26137211290070e-02 1.91659931590010e-04
6.52500000000000e-01 7.08443253449296e-02 2.12680026740498e-04
7.97500000000000e-01 6.91180448480462e-02 2.29752549940197e-04
9.42500000000000e-01 6.74338290379164e-02 2.43897467551229e-04
1.08750000000000e+00 6.57906529143305e-02 2.55745982843125e-04
1.23250000000000e+00 6.41875164535020e-02 2.65726587404749e-04
1.37750000000000e+00 6.26234439994615e-02 2.74148895351960e-04
1.52250000000000e+00 6.10974836702804e-02 2.81246926963219e-04
1.66750000000000e+00 5.96087067787628e-02 2.87203682650894e-04
1.81250000000000e+00 5.81562072672545e-02 2.92166113930738e-04
1.95750000000000e+00 5.67391011562232e-02 2.96254756456642e-04
2.10250000000000e+00 5.53565260062755e-02 2.99570205565682e-04
2.24750000000000e+00 5.40076403932839e-02 3.02197628352527e-04
2.39250000000000e+00 5.26916233963020e-02 3.04210003450123e-04
2.53750000000000e+00 5.14076740979593e-02 3.05670507403563e-04
2.68250000000000e+00 5.01550110970289e-02 3.06634311501853e-04
2.82750000000000e+00 4.89328720328732e-02 3.07149960859372e-04
2.97250000000000e+00 4.77405131214773e-02 3.07260450834724e-04
3.11750000000000e+00 4.65772087027878e-02 3.07004079837466e-04
3.26250000000000e+00 4.54422507990823e-02 3.06415134030587e-04
3.40750000000000e+00 4.43349486840996e-02 3.05524443677487e-04
3.55250000000000e+00 4.32546284626694e-02 3.04359840101701e-04
3.69750000000000e+00 4.22006326605849e-02 3.02946534708042e-04
3.84250000000000e+00 4.11723198244694e-02 3.01307436175750e-04
3.98750000000000e+00 4.01690641313931e-02 2.99463418084001e-04
4.13250000000000e+00 3.91902550080020e-02 2.97433546412306e-04
4.27750000000000e+00 3.82352967589280e-02 2.95235274268587e-04
4.42250000000000e+00 3.73036082042535e-02 2.92884609628674e-04
4.56750000000000e+00 3.63946223258099e-02 2.90396260679733e-04
4.71250000000000e+00 3.55077859220951e-02 2.87783762446061e-04
4.85750000000000e+00 3.46425592715991e-02 2.85059587667501e-04
5.00250000000000e+00 3.37984158043342e-02 2.82235244347149e-04
5.14750000000000e+00 3.29748417813688e-02 2.79321361948551e-04
5.29250000000000e+00 3.21713359821695e-02 2.76327767875747e-04
5.43750000000000e+00 3.13874093995629e-02 2.73263555591846e-04
5.58250000000000e+00 3.06225849421294e-02 2.70137145507985e-04
5.72750000000000e+00 2.98763971438493e-02 2.66956339592923e-04
5.87250000000000e+00 2.91483918808240e-02 2.63728370505169e-04
6.01750000000000e+00 2.84381260948997e-02 2.60459945927846e-04
6.16250000000000e+00 2.77451675240257e-02 2.57157288685795e-04
6.30750000000000e+00 2.70690944391836e-02 2.53826173141015e-04
6.45250000000000e+00 2.64094953877260e-02 2.50471958292848e-04
6.59750000000000e+00 2.57659689429697e-02 2.47099617950898e-04
6.74250000000000e+00 2.51381234598910e-02 2.43713768299520e-04
6.88750000000000e+00 2.45255768367736e-02 2.40318693131109e-04
7.03250000000000e+00 2.39279562826640e-02 2.36918366990075e-04
7.17750000000000e+00 2.33448980904949e-02 2.33516476439344e-04
7.32250000000000e+00 2.27760474157351e-02 2.30116439635393e-04
7.46750000000000e+00 2.22210580604345e-02 2.26721424375708e-04
7.61250000000000e+00 2.16795922625306e-02 2.23334364763494e-04
7.75750000000000e+00 2.11513204902893e-02 2.19957976617962e-04
7.90250000000000e+00 2.06359212417545e-02 2.16594771744202e-04
8.04750000000000e+00 2.01330808490846e-02 2.13247071164228e-04
8.19250000000000e+00 1.96424932876569e-02 2.09917017399872e-04
8.33750000000000e+00 1.91638599898230e-02 2.06606585888720e-04
8.48250000000000e+00 1.86968896632037e-02 2.03317595605971e-04
8.62750000000000e+00 1.82412981134100e-02 2.00051718957703e-04
8.77250000000000e+00 1.77968080710854e-02 1.96810491004569e-04
8.91750000000000e+00 1.73631490231614e-02 1.93595318069231e-04
9.06250000000000e+00 1.69400570482256e-02 1.90407485775770e-04
9.20750000000000e+00 1.65272746559017e-02 1.87248166564789e-04
9.35250000000000e+00 1.61245506301422e-02 1.84118426723897e-04
9.49750000000000e+00 1.57316398763407e-02 1.81019232969705e-04
9.64250000000000e+00 1.53483032721694e-02 1.77951458614253e-04
9.78750000000000e+00 1.49743075220510e-02 1.74915889345906e-04
9.93250000000000e+00 1.46094250151769e-02 1.71913228652181e-04
1.00775000000000e+01 1.42534336869851e-02 1.68944102909694e-04
1.02225000000000e+01 1.39061168840136e-02 1.66009066164261e-04
1.03675000000000e+01 1.35672632320466e-02 1.63108604622340e-04
1.05125000000000e+01 1.32366665074742e-02 1.60243140873306e-04
1.06575000000000e+01 1.29141255117860e-02 1.57413037860477e-04
1.08025000000000e+01 1.25994439491236e-02 1.54618602617458e-04
1.09475000000000e+01 1.22924303068162e-02 1.51860089785028e-04
1.10925000000000e+01 1.19928977388279e-02 1.49137704922723e-04
1.12375000000000e+01 1.17006639520445e-02 1.46451607628128e-04
1.13825000000000e+01 1.14155510953313e-02 1.43801914476014e-04
1.15275000000000e+01 1.11373856512946e-02 1.41188701788506e-04
1.16725000000000e+01 1.08659983306800e-02 1.38612008246698e-04
1.18175000000000e+01 1.06012239693448e-02 1.36071837353393e-04
1.19625000000000e+01 1.03429014277400e-02 1.33568159755972e-04
1.21075000000000e+01 1.00908734928423e-02 1.31100915437763e-04
1.22525000000000e+01 9.84498678247556e-03 1.28670015785711e-04
1.23975000000000e+01 9.60509165196339e-03 1.26275345541645e-04
1.25425000000000e+01 9.37104210305685e-03 1.23916764643917e-04
1.26875000000000e+01 9.14269569508101e-03 1.21594109965788e-04
1.28325000000000e+01 8.91991345824666e-03 1.19307196956478e-04
1.29775000000000e+01 8.70255980907443e-03 1.17055821190444e-04
1.31225000000000e+01 8.49050246787982e-03 1.14839759830077e-04
1.32675000000000e+01 8.28361237826876e-03 1.12658773006704e-04
1.34125000000000e+01 8.08176362859504e-03 1.10512605124459e-04
1.35575000000000e+01 7.88483337533137e-03 1.08400986091304e-04
1.37025000000000e+01 7.69270176830789e-03 1.06323632481243e-04
1.38475000000000e+01 7.50525187777229e-03 1.04280248631485e-04
1.39925000000000e+01 7.32236962322728e-03 1.02270527678137e-04
1.41375000000000e+01 7.14394370400214e-03 1.00294152533749e-04
1.42825000000000e+01 6.96986553151603e-03 9.83507968098782e-05
1.44275000000000e+01 6.80002916319183e-03 9.64401256876224e-05
1.45725000000000e+01 6.63433123798037e-03 9.45617967389048e-05
1.47175000000000e+01 6.47267091345568e-03 9.27154607011686e-05
1.48625000000000e+01 6.31494980444314e-03 9.09007622079353e-05
1.50075000000000e+01 6.16107192314305e-03 8.91173404775767e-05
1.51525000000000e+01 6.01094362071321e-03 8.73648299625208e-05
1.52975000000000e+01 5.86447353027498e-03 8.56428609609601e-05
1.54425000000000e+01 5.72157251130817e-03 8.39510601930389e-05
1.55875000000000e+01 5.58215359540079e-03 8.22890513433872e-05
1.57325000000000e+01 5.44613193332082e-03 8.06564555717593e-05
1.58775000000000e+01 5.31342474337759e-03 7.90528919934341e-05
1.60225000000000e+01 5.18395126104157e-03 7.74779781309586e-05
1.61675000000000e+01 5.05763268979168e-03 7.59313303387289e-05
1.63125000000000e+01 4.93439215316038e-03 7.44125642018146e-05
1.64575000000000e+01 4.81415464794729e-03 7.29212949103620e-05
1.66025000000000e+01 4.69684699857280e-03 7.14571376108449e-05
1.67475000000000e+01 4.58239781254402e-03 7.00197077353632e-05
1.68925000000000e+01 4.47073743700590e-03 6.86086213101230e-05
1.70375000000000e+01 4.36179791635105e-03 6.72234952441776e-05
1.71825000000000e+01 4.25551295086248e-03 6.58639475994523e-05
1.73275000000000e+01 4.15181785636417e-03 6.45295978430213e-05
1.74725000000000e+01 4.05064952485475e-03 6.32200670825591e-05
1.76175000000000e+01 3.95194638610053e-03 6.19349782858324e-05
1.77625000000000e+01 3.85564837016431e-03 6.06739564850694e-05
1.79075000000000e+01 3.76169687084731e-03 5.94366289669909e-05
1.80525000000000e+01 3.67003471002191e-03 5.82226254492445e-05
1.81975000000000e+01 3.58060610283352e-03 5.70315782439530e-05
1.83425000000000e+01 3.49335662375032e-03 5.58631224090613e-05
1.84875000000000e+01 3.40823317344037e-03 5.47168958881061e-05
1.86325000000000e+01 3.32518394645575e-03 5.35925396390239e-05
1.87775000000000e+01 3.24415839970419e-03 5.24896977525769e-05
1.89225000000000e+01 3.16510722168894e-03 5.14080175609406e-05
1.90675000000000e+01 3.08798230249822e-03 5.03471497369816e-05
1.92125000000000e+01 3.01273670452589e-03 4.93067483847158e-05
1.93575000000000e+01 2.93932463390558e-03 4.82864711214203e-05
1.95025000000000e+01 2.86770141264097e-03 4.72859791518501e-05
1.96475000000000e+01 2.79782345141505e-03 4.63049373349841e-05
1.97925000000000e+01 2.72964822306208e-03 4.53430142437031e-05
1.99375000000000e+01 2.66313423668584e-03 4.43998822177903e-05
2.00825000000000e+01 2.59824101240864e-03 4.34752174106205e-05
2.02275000000000e+01 2.53492905673559e-03 4.25686998298811e-05
2.03725000000000e+01 2.47315983851914e-03 4.16800133726644e-05
2.05175000000000e+01 2.41289576550940e-03 4.08088458552406e-05
2.06625000000000e+01 2.35410016147572e-03 3.99548890378161e-05
2.08075000000000e+01 2.29673724388591e-03 3.91178386445599e-05
2.09525000000000e+01 2.24077210212919e-03 3.82973943791694e-05
2.10975000000000e+01 2.18617067626997e-03 3.74932599362373e-05
2.12425000000000e+01 2.13289973631917e-03 3.67051430086582e-05
2.13875000000000e+01 2.08092686201075e-03 3.59327552913190e-05
2.15325000000000e+01 2.03022042307098e-03 3.51758124812861e-05
2.16775000000000e+01 1.98074955996855e-03 3.44340342747041e-05
2.18225000000000e+01 1.93248416513364e-03 3.37071443606082e-05
2.19675000000000e+01 1.88539486463477e-03 3.29948704118402e-05
2.21125000000000e+01 1.83945300030198e-03 3.22969440732491e-05
2.22575000000000e+01 1.79463061228578e-03 3.16131009473500e-05
2.24025000000000e+01 1.75090042204095e-03 3.09430805776075e-05
2.25475000000000e+01 1.70823581572507e-03 3.02866264294966e-05
2.26925000000000e+01 1.66661082800154e-03 2.96434858694897e-05
2.28375000000000e+01 1.62600012623725e-03 2.90134101421124e-05
2.29825000000000e+01 1.58637899508542e-03 2.83961543452028e-05
2.31275000000000e+01 1.54772332144397e-03 2.77914774034996e-05
2.32725000000000e+01 1.51000957978050e-03 2.71991420406817e-05
2.34175000000000e+01 1.47321481781486e-03 2.66189147499709e-05
2.35625000000000e+01 1.43731664255054e-03 2.60505657634125e-05
2.37075000000000e+01 1.40229320664652e-03 2.54938690199320e-05
2.38525000000000e+01 1.36812319512110e-03 2.49486021322698e-05
2.39975000000000e+01 1.33478581237981e-03 2.44145463528836e-05
2.41425000000000e+01 1.30226076955937e-03 2.38914865389120e-05
2.42875000000000e+01 1.27052827218005e-03 2.33792111162798e-05
2.44325000000000e+01 1.23956900809891e-03 2.28775120430234e-05
2.45775000000000e+01 1.20936413575657e-03 2.23861847719161e-05
2.47225000000000e+01 1.17989527271040e-03 2.19050282124607e-05
2.48675000000000e+01 1.15114448444714e-03 2.14338446923203e-05
2.50125000000000e+01 1.12309427346805e-03 2.09724399182489e-05
2.51575000000000e+01 1.09572756864010e-03 2.05206229365840e-05
2.53025000000000e+01 1.06902771480662e-03 2.00782060933594e-05
2.54475000000000e+01 1.04297846265108e-03 1.96450049940896e-05
2.55925000000000e+01 1.01756395880792e-03 1.92208384632797e-05
2.57375000000000e+01 9.92768736214299e-04 1.88055285037100e-05
2.58825000000000e+01 9.68577704696971e-04 1.83989002555381e-05
2.60275000000000e+01 9.44976141788520e-04 1.80007819552649e-05
2.61725000000000e+01 9.21949683767391e-04 1.76110048946032e-05
2.63175000000000e+01 8.99484316916240e-04 1.72294033792879e-05
2.64625000000000e+01 8.77566368993306e-04 1.68558146878654e-05
2.66075000000000e+01 8.56182500911584e-04 1.64900790304945e-05
2.67525000000000e+01 8.35319698620774e-04 1.61320395077919e-05
2.68975000000000e+01 8.14965265187026e-04 1.57815420697522e-05
2.70425000000000e+01 7.95106813065694e-04 1.54384354747712e-05
2.71875000000000e+01 7.75732256562373e-04 1.51025712487987e-05
2.73325000000000e+01 7.56829804477644e-04 1.47738036446457e-05
2.74775000000000e+01 7.38387952931041e-04 1.44519896014692e-05
2.76225000000000e+01 7.20395478359889e-04 1.41369887044570e-05
2.77675000000000e+01 7.02841430688727e-04 1.38286631447334e-05
2.79125000000000e+01 6.85715126665184e-04 1.35268776795031e-05
2.80575000000000e+01 6.69006143358234e-04 1.32314995924523e-05
2.82025000000000e+01 6.52704311814890e-04 1.29423986544237e-05
2.83475000000000e+01 6.36799710871452e-04 1.26594470843792e-05
2.84925000000000e+01 6.21282661115575e-04 1.23825195106672e-05
2.86375000000000e+01 6.06143718995452e-04 1.21114929326049e-05
2.87825000000000e+01 5.91373671072545e-04 1.18462466823888e-05
2.89275000000000e+01 5.76963528414360e-04 1.15866623873451e-05
2.90725000000000e+01 5.62904521123857e-04 1.13326239325299e-05
2.92175000000000e+01 5.49188093002157e-04 1.10840174236876e-05
2.93625000000000e+01 5.35805896341314e-04 1.08407311505777e-05
2.95075000000000e+01 5.22749786843960e-04 1.06026555506765e-05
2.96525000000000e+01 5.10011818666758e-04 1.03696831732614e-05
2.97975000000000e+01 4.97584239584620e-04 1.01417086438834e-05
2.99425000000000e+01 4.85459486272768e-04 9.91862862923443e-06
3.00875000000000e+01 4.73630179703755e-04 9.70034180241344e-06
3.02325000000000e+01 4.62089120656647e-04 9.48674880859717e-06
3.03775000000000e+01 4.50829285335638e-04 9.27775223111701e-06
3.05225000000000e+01 4.39843821095420e-04 9.07325655794775e-06
3.06675000000000e+01 4.29126042270720e-04 8.87316814860983e-06
3.08125000000000e+01 4.18669426107461e-04 8.67739520148691e-06
3.09575000000000e+01 4.08467608793059e-04 8.48584772156181e-06
3.11025000000000e+01 3.98514381583467e-04 8.29843748857122e-06
3.12475000000000e+01 3.88803687024575e-04 8.11507802558066e-06
3.13925000000000e+01 3.79329615265697e-04 7.93568456797993e-06
3.15375000000000e+01 3.70086400462882e-04 7.76017403289990e-06
3.16825000000000e+01 3.61068417269866e-04 7.58846498905009e-06
3.18275000000000e+01 3.52270177414535e-04 7.42047762697668e-06
3.19725000000000e+01 3.43686326358805e-04 7.25613372974012e-06
3.21175000000000e+01 3.35311640039890e-04 7.09535664401144e-06
3.22625000000000e+01 3.27141021690985e-04 6.93807125158626e-06
3.24075000000000e+01 3.19169498739411e-04 6.78420394131474e-06
3.25525000000000e+01 3.11392219780348e-04 6.63368258144539e-06
3.26975000000000e+01 3.03804451624311e-04 6.48643649238126e-06
3.28425000000000e+01 2.96401576416563e-04 6.34239641984595e-06
3.29875000000000e+01 2.89179088826733e-04 6.20149450845735e-06
3.31325000000000e+01 2.82132593306905e-04 6.06366427570627e-06
3.32775000000000e+01 2.75257801416521e-04 5.92884058633743e-06
3.34225000000000e+01 2.68550529212474e-04 5.79695962712971e-06
3.35675000000000e+01 2.62006694702790e-04 5.66795888207290e-06
3.37125000000000e+01 2.55622315362366e-04 5.54177710793735e-06
3.38575000000000e+01 2.49393505709230e-04 5.41835431023381e-06
3.40025000000000e+01 2.43316474939874e-04 5.29763171955962e-06
3.41475000000000e+01 2.37387524622199e-04 5.17955176832730e-06
3.42925000000000e+01 2.31603046444679e-04 5.06405806787335e-06
3.44375000000000e+01 2.25959520020371e-04 4.95109538594232e-06
3.45825000000000e+01 2.20453510744437e-04 4.84060962454243e-06
3.47275000000000e+01 2.15081667703871e-04 4.73254779816907e-06
3.48725000000000e+01 2.09840721638160e-04 4.62685801239308e-06
3.50175000000000e+01 2.04727482949636e-04 4.52348944280850e-06
3.51625000000000e+01 1.99738839762318e-04 4.42239231433644e-06
3.53075000000000e+01 1.94871756028044e-04 4.32351788088119e-06
3.54525000000000e+01 1.90123269678758e-04 4.22681840533362e-06
3.55975000000000e+01 1.85490490823821e-04 4.13224713991866e-06
3.57425000000000e+01 1.80970599991244e-04 4.03975830688227e-06
3.58875000000000e+01 1.76560846411783e-04 3.94930707951363e-06
3.60325000000000e+01 1.72258546344841e-04 3.86084956349830e-06
3.61775000000000e+01 1.68061081445163e-04 3.77434277859813e-06
3.63225000000000e+01 1.63965897169337e-04 3.68974464065386e-06
3.64675000000000e+01 1.59970501221117e-04 3.60701394390593e-06
3.66125000000000e+01 1.56072462034630e-04 3.52611034362926e-06
3.67575000000000e+01 1.52269407294546e-04 3.44699433907778e-06
3.69025000000000e+01 1.48559022492308e-04 3.36962725673444e-06
3.70475000000000e+01 1.44939049517535e-04 3.29397123386233e-06
3.71925000000000e+01 1.41407285283762e-04 3.21998920235273e-06
3.73375000000000e+01 1.37961580387651e-04 3.14764487286605e-06
3.74825000000000e+01 1.34599837800889e-04 3.07690271926100e-06
3.76275000000000e+01 1.31320011593947e-04 3.00772796330805e-06
3.77725000000000e+01 1.28120105690948e-04 2.94008655968313e-06
3.79175000000000e+01 1.24998172654870e-04 2.87394518123689e-06
3.80625000000000e+01 1.21952312502350e-04 2.80927120453597e-06
3.82075000000000e+01 1.18980671547373e-04 2.74603269567182e-06
3.83525000000000e+01 1.16081441273129e-04 2.68419839633291e-06
3.84975000000000e+01 1.13252857231368e-04 2.62373771013647e-06
3.86425000000000e+01 1.10493197968569e-04 2.56462068921556e-06
3.87875000000000e+01 1.07800783978277e-04 2.50681802105768e-06
3.89325000000000e+01 1.05173976678971e-04 2.45030101559062e-06
3.90775000000000e+01 1.02611177416833e-04 2.39504159251184e-06
3.92225000000000e+01 1.00110826492824e-04 2.34101226885735e-06
3.93675000000000e+01 9.76714022134611e-05 2.28818614680652e-06
3.95125000000000e+01 9.52914199647280e-05 2.23653690171837e-06
3.96575000000000e+01 9.29694313085503e-05 2.18603877039617e-06
3.98025000000000e+01 9.07040231012883e-05 2.13666653957624e-06
3.99475000000000e+01 8.84938166337089e-05 2.08839553463740e-06
4.00925000000000e+01 8.63374667919141e-05 2.04120160852718e-06
4.02375000000000e+01 8.42336612387159e-05 1.99506113090142e-06
4.03825000000000e+01 8.21811196149578e-05 1.94995097747340e-06
4.05275000000000e+01 8.01785927602992e-05 1.90584851956914e-06
4.06725000000000e+01 7.82248619529861e-05 1.86273161388531e-06
4.08175000000000e+01 7.63187381681465e-05 1.82057859244620e-06
4.09625000000000e+01 7.44590613541603e-05 1.77936825275625e-06
4.11075000000000e+01 7.26446997266602e-05 1.73907984814503e-06
4.12525000000000e+01 7.08745490797376e-05 1.69969307830110e-06
4.13975000000000e+01 6.91475321139313e-05 1.66118807999151e-06
4.15425000000000e+01 6.74625977805920e-05 1.62354541796360e-06
4.16875000000000e+01 6.58187206422222e-05 1.58674607602604e-06
4.18325000000000e+01 6.42149002484036e-05 1.55077144830581e-06
4.19775000000000e+01 6.26501605269306e-05 1.51560333067796e-06
4.21225000000000e+01 6.11235491897809e-05 1.48122391236528e-06
4.22675000000000e+01 5.96341371535606e-05 1.44761576770461e-06
4.24125000000000e+01 5.81810179740714e-05 1.41476184807681e-06
4.25575000000000e+01 5.67633072946558e-05 1.38264547399748e-06
4.27025000000000e+01 5.53801423079854e-05 1.35125032736564e-06
4.28475000000000e+01 5.40306812309624e-05 1.32056044386721e-06
4.29925000000000e+01 5.27141027924179e-05 1.29056020553070e-06
4.31375000000000e+01 5.14296057332924e-05 1.26123433343228e-06
4.32825000000000e+01 5.01764083189963e-05 1.23256788054733e-06
4.34275000000000e+01 4.89537478636523e-05 1.20454622474594e-06
4.35725000000000e+01 4.77608802659309e-05 1.17715506192962e-06
4.37175000000000e+01 4.65970795561964e-05 1.15038039930657e-06
4.38625000000000e+01 4.54616374546876e-05 1.12420854880303e-06
4.40075000000000e+01 4.43538629404645e-05 1.09862612060801e-06
4.41525000000000e+01 4.32730818308583e-05 1.07362001684908e-06
4.42975000000000e+01 4.22186363711694e-05 1.04917742539652e-06
4.44425000000000e+01 4.11898848343632e-05 1.02528581379366e-06
4.45875000000000e+01 4.01862011305201e-05 1.00193292331097e-06
4.47325000000000e+01 3.92069744258021e-05 9.79106763121312e-07
4.48775000000000e+01 3.82516087707047e-05 9.56795604594359e-07
4.50225000000000e+01 3.73195227373660e-05 9.34987975707744e-07
4.51675000000000e+01 3.64101490657153e-05 9.13672655572751e-07
4.53125000000000e+01 3.55229343182424e-05 8.92838669072358e-07
4.54575000000000e+01 3.46573385431806e-05 8.72475281609449e-07
4.56025000000000e+01 3.38128349458958e-05 8.52571993963067e-07
4.57475000000000e+01 3.29889095682842e-05 8.33118537250713e-07
