Energy (eV)          EEDF (eV^-(3/2))     First Anisotropy
2.59523809523810e-02 2.00893707955062e-01 1.63582390814843e-04
7.78571428571429e-02 1.97602421457699e-01 2.68811989231005e-04
1.29761904761905e-01 1.94365056832424e-01 3.51411251749355e-04
1.81666666666667e-01 1.91180730676966e-01 4.12101554494608e-04
2.33571428571429e-01 1.88048574049050e-01 4.61040610598287e-04
2.85476190476190e-01 1.84967732243332e-01 5.02125603696444e-04
3.37380952380952e-01 1.81937364567399e-01 5.37401493406607e-04
3.89285714285714e-01 1.78956644080873e-01 5.68119832633515e-04
4.41190476190476e-01 1.76024757403058e-01 5.95121570148497e-04
4.93095238095238e-01 1.73140904478964e-01 6.19008672052883e-04
5.45000000000000e-01 1.70304298361022e-01 6.40232285025407e-04
5.96904761904762e-01 1.67514164994331e-01 6.59142539188307e-04
6.48809523809524e-01 1.64769743005494e-01 6.76018735094079e-04
7.00714285714286e-01 1.62070283494877e-01 6.91088667476670e-04
7.52619047619048e-01 1.59415049832216e-01 7.04541547062660e-04
8.04523809523810e-01 1.56803317455614e-01 7.16536956037587e-04
8.56428571428571e-01 1.54234373676878e-01 7.27211244082752e-04
9.08333333333333e-01 1.51707517477622e-01 7.36682212557932e-04
9.60238095238095e-01 1.49222059327673e-01 7.45052621441597e-04
1.01214285714286e+00 1.46777320993581e-01 7.52412866842851e-04
1.06404761904762e+00 1.44372635348821e-01 7.58843056214999e-04
1.11595238095238e+00 1.42007346210701e-01 7.64414645586267e-04
1.16785714285714e+00 1.39680808136634e-01 7.69191745699230e-04
1.21976190476190e+00 1.37392386258854e-01 7.73232175925726e-04
1.27166666666667e+00 1.35141456093116e-01 7.76588321296736e-04
1.32357142857143e+00 1.32927403422890e-01 7.79307845199772e-04
1.37547619047619e+00 1.30749624075527e-01 7.81434282746202e-04
1.42738095238095e+00 1.28607523776602e-01 7.83007530916233e-04
1.47928571428571e+00 1.26500517987964e-01 7.84064269675935e-04
1.53119047619048e+00 1.24428031734621e-01 7.84638314019819e-04
1.58309523809524e+00 1.22389499489412e-01 7.84760921283547e-04
1.63500000000000e+00 1.20384364975966e-01 7.84461056253213e-04
1.68690476190476e+00 1.18412081031490e-01 7.83765614500338e-04
1.73880952380952e+00 1.16472109457515e-01 7.82699621723615e-04
1.79071428571429e+00 1.14563920873074e-01 7.81286408006532e-04
1.84261904761905e+00 1.12686994560088e-01 7.79547756946501e-04
1.89452380952381e+00 1.10840818352242e-01 7.77504042169142e-04
1.94642857142857e+00 1.09024888463501e-01 7.75174348580730e-04
1.99833333333333e+00 1.07238709361456e-01 7.72576575016085e-04
2.05023809523810e+00 1.05481793632187e-01 7.69727530835293e-04
2.10214285714286e+00 1.03753661839041e-01 7.66643017966603e-04
2.15404761904762e+00 1.02053842416786e-01 7.63337908873503e-04
2.20595238095238e+00 1.00381871517393e-01 7.59826217046020e-04
2.25785714285714e+00 9.87372928921245e-02 7.56121156187125e-04
2.30976190476190e+00 9.71196577671296e-02 7.52235198173276e-04
2.36166666666667e+00 9.55285247142407e-02 7.48180121817326e-04
2.41357142857143e+00 9.39634595509802e-02 7.43967060997559e-04
2.46547619047619e+00 9.24240352011891e-02 7.39606548775374e-04
2.51738095238095e+00 9.09098315855730e-02 7.35108553816428e-04
2.56928571428571e+00 8.94204355071187e-02 7.30482517563248e-04
2.62119047619048e+00 8.79554405327768e-02 7.25737384965855e-04
2.67309523809524e+00 8.65144468995147e-02 7.20881636042895e-04
2.72500000000000e+00 8.50970613879213e-02 7.15923315127100e-04
2.77690476190476e+00 8.37028972207791e-02 7.10870054426107e-04
2.82880952380952e+00 8.23315739575350e-02 7.05729098552108e-04
2.88071428571429e+00 8.09827173904969e-02 7.00507327165333e-04
2.93261904761905e+00 7.96559594382339e-02 6.95211273717441e-04
2.98452380952381e+00 7.83509380587927e-02 6.89847145683485e-04
3.03642857142857e+00 7.70672971369811e-02 6.84420843507357e-04
3.08833333333333e+00 7.58046863919165e-02 6.78937975305216e-04
3.14023809523810e+00 7.45627612814655e-02 6.73403873439348e-04
3.19214285714286e+00 7.33411829044239e-02 6.67823607416824e-04
3.24404761904762e+00 7.21396179195926e-02 6.62201998443013e-04
3.29595238095238e+00 7.09577384430486e-02 6.56543633150001e-04
3.34785714285714e+00 6.97952219626516e-02 6.50852873850251e-04
3.39976190476190e+00 6.86517512500694e-02 6.45133870687576e-04
3.45166666666667e+00 6.75270142709701e-02 6.39390570759525e-04
3.50357142857143e+00 6.64207041097148e-02 6.33626728903490e-04
3.55547619047619e+00 6.53325188755913e-02 6.27845917932457e-04
3.60738095238095e+00 6.42621616238232e-02 6.22051535956780e-04
3.65928571428571e+00 6.32093402745557e-02 6.16246815531311e-04
3.71119047619048e+00 6.21737675303859e-02 6.10434830246983e-04
3.76309523809524e+00 6.11551608063894e-02 6.04618502924265e-04
3.81500000000000e+00 6.01532421444353e-02 5.98800613426077e-04
3.86690476190476e+00 5.91677381402393e-02 5.92983803983858e-04
3.91880952380952e+00 5.81983798687630e-02 5.87170585879424e-04
3.97071428571429e+00 5.72449028108334e-02 5.81363345718361e-04
4.02261904761905e+00 5.63070467786550e-02 5.75564349998296e-04
4.07452380952381e+00 5.53845558518247e-02 5.69775751152748e-04
4.12642857142857e+00 5.44771783003614e-02 5.63999593343827e-04
4.17833333333333e+00 5.35846665184302e-02 5.58237816169211e-04
4.23023809523810e+00 5.27067769567851e-02 5.52492259921380e-04
4.28214285714286e+00 5.18432700543116e-02 5.46764669002070e-04
4.33404761904762e+00 5.09939101787255e-02 5.41056696698450e-04
4.38595238095238e+00 5.01584655561029e-02 5.35369909778880e-04
4.43785714285714e+00 4.93367082097191e-02 5.29705791263741e-04
4.48976190476191e+00 4.85284138978505e-02 5.24065744618155e-04
4.54166666666667e+00 4.77333620508468e-02 5.18451096329861e-04
4.59357142857143e+00 4.69513357162133e-02 5.12863099734756e-04
4.64547619047619e+00 4.61821214940525e-02 5.07302938709672e-04
4.69738095238095e+00 4.54255094806421e-02 5.01771729760135e-04
4.74928571428571e+00 4.46812932111631e-02 4.96270525403484e-04
4.80119047619048e+00 4.39492696018503e-02 4.90800316128249e-04
4.85309523809524e+00 4.32292388991661e-02 4.85362033493693e-04
4.90500000000000e+00 4.25210046206262e-02 4.79956553129327e-04
4.95690476190476e+00 4.18243735027613e-02 4.74584696315568e-04
5.00880952380952e+00 4.11391554483816e-02 4.69247232518905e-04
5.06071428571429e+00 4.04651634747049e-02 4.63944881781254e-04
5.11261904761905e+00 3.98022136610516e-02 4.58678316140059e-04
5.16452380952381e+00 3.91501251025509e-02 4.53448162063987e-04
5.21642857142857e+00 3.85087198568195e-02 4.48255002816914e-04
5.26833333333333e+00 3.78778228967427e-02 4.43099379593942e-04
5.32023809523810e+00 3.72572620627175e-02 4.37981793702940e-04
5.37214285714286e+00 3.66468680145495e-02 4.32902707652770e-04
5.42404761904762e+00 3.60464741886572e-02 4.27862547163384e-04
5.47595238095238e+00 3.54559167491538e-02 4.22861703121798e-04
5.52785714285714e+00 3.48750345443102e-02 4.17900532442649e-04
5.57976190476190e+00 3.43036690625855e-02 4.12979359876611e-04
5.63166666666667e+00 3.37416643883840e-02 4.08098478843961e-04
5.68357142857143e+00 3.31888671625082e-02 4.03258153104329e-04
5.73547619047619e+00 3.26451265372658e-02 3.98458618384749e-04
5.78738095238095e+00 3.21102941363341e-02 3.93700083029162e-04
5.83928571428571e+00 3.15842240142750e-02 3.88982729506311e-04
5.89119047619048e+00 3.10667726158401e-02 3.84306715045676e-04
5.94309523809524e+00 3.05577987394384e-02 3.79672173032490e-04
5.99500000000000e+00 3.00571634959241e-02 3.75079214369864e-04
6.04690476190476e+00 2.95647302716025e-02 3.70527927965051e-04
6.09880952380952e+00 2.90803646909525e-02 3.66018381850496e-04
6.15071428571429e+00 2.86039345799580e-02 3.61550624237952e-04
6.20261904761905e+00 2.81353099292952e-02 3.57124683974796e-04
6.25452380952381e+00 2.76743628611218e-02 3.52740571674034e-04
6.30642857142857e+00 2.72209675918812e-02 3.48398280819900e-04
6.35833333333333e+00 2.67750003987566e-02 3.44097788105824e-04
6.41023809523810e+00 2.63363395859110e-02 3.39839054461832e-04
6.46214285714286e+00 2.59048654506195e-02 3.35622025396298e-04
6.51404761904762e+00 2.54804602526084e-02 3.31446631948240e-04
6.56595238095238e+00 2.50630081798927e-02 3.27312791620844e-04
6.61785714285714e+00 2.46523953178602e-02 3.23220408624613e-04
6.66976190476190e+00 2.42485096181887e-02 3.19169374745289e-04
6.72166666666667e+00 2.38512408676859e-02 3.15159569595438e-04
6.77357142857143e+00 2.34604806599886e-02 3.11190861419486e-04
6.82547619047619e+00 2.30761223641806e-02 3.07263107884096e-04
6.87738095238095e+00 2.26980610963031e-02 3.03376156247328e-04
6.92928571428571e+00 2.23261936907356e-02 2.99529844093874e-04
6.98119047619048e+00 2.19604186715263e-02 2.95723999515226e-04
7.03309523809524e+00 2.16006362262742e-02 2.91958441792140e-04
7.08500000000000e+00 2.12467481772970e-02 2.88232982065376e-04
7.13690476190476e+00 2.08986579553784e-02 2.84547423446940e-04
7.18880952380952e+00 2.05562705734177e-02 2.80901561551479e-04
7.24071428571429e+00 2.02194926005097e-02 2.77295184992657e-04
7.29261904761905e+00 1.98882321360011e-02 2.73728075497622e-04
7.34452380952381e+00 1.95623987857743e-02 2.70200008467724e-04
7.39642857142857e+00 1.92419036361995e-02 2.66710753530421e-04
7.44833333333333e+00 1.89266592303382e-02 2.63260074597646e-04
7.50023809523810e+00 1.86165795440795e-02 2.59847730379794e-04
7.55214285714286e+00 1.83115799622668e-02 2.56473474457909e-04
7.60404761904762e+00 1.80115772568186e-02 2.53137055760679e-04
7.65595238095238e+00 1.77164895627897e-02 2.49838219034751e-04
7.70785714285714e+00 1.74262363564458e-02 2.46576704869130e-04
7.75976190476190e+00 1.71407384332919e-02 2.43352250132995e-04
7.81166666666667e+00 1.68599178861035e-02 2.40164588014585e-04
7.86357142857143e+00 1.65836980847456e-02 2.37013448427439e-04
7.91547619047619e+00 1.63120036541682e-02 2.33898558411450e-04
7.96738095238095e+00 1.60447604542075e-02 2.30819642131086e-04
8.01928571428572e+00 1.57818955593547e-02 2.27776421248676e-04
8.07119047619048e+00 1.55233372385404e-02 2.24768614936964e-04
8.12309523809524e+00 1.52690149365212e-02 2.21795940225444e-04
8.17500000000000e+00 1.50188592536519e-02 2.18858112342625e-04
8.22690476190476e+00 1.47728019272774e-02 2.15954844694055e-04
8.27880952380952e+00 1.45307758131047e-02 2.13085849119588e-04
8.33071428571429e+00 1.42927148668814e-02 2.10250836130935e-04
8.38261904761905e+00 1.40585541260974e-02 2.07449514900519e-04
8.43452380952381e+00 1.38282296930955e-02 2.04681593547274e-04
8.48642857142857e+00 1.36016787167856e-02 2.01946779419518e-04
8.53833333333333e+00 1.33788393757813e-02 1.99244779055192e-04
8.59023809523810e+00 1.31596508615298e-02 1.96575298444993e-04
8.64214285714286e+00 1.29440533614729e-02 1.93938043006260e-04
8.69404761904762e+00 1.27319880434727e-02 1.91332717826618e-04
8.74595238095238e+00 1.25233970389991e-02 1.88759027905546e-04
8.79785714285714e+00 1.23182234275953e-02 1.86216678103602e-04
8.84976190476191e+00 1.21164112213450e-02 1.83705373366861e-04
8.90166666666667e+00 1.19179053493751e-02 1.81224818689439e-04
8.95357142857143e+00 1.17226516434956e-02 1.78774719321103e-04
9.00547619047619e+00 1.15305968227411e-02 1.76354780973413e-04
9.05738095238095e+00 1.13416884790598e-02 1.73964709761029e-04
9.10928571428571e+00 1.11558750630132e-02 1.71604212393032e-04
9.16119047619048e+00 1.09731058695120e-02 1.69272996126833e-04
9.21309523809524e+00 1.07933310245778e-02 1.66970768945041e-04
9.26500000000000e+00 1.06165014711276e-02 1.64697239731235e-04
9.31690476190476e+00 1.04425689557911e-02 1.62452118205691e-04
9.36880952380952e+00 1.02714860157442e-02 1.60235115047716e-04
9.42071428571429e+00 1.01032059657567e-02 1.58045942006441e-04
9.47261904761905e+00 9.93768288528106e-03 1.55884311847591e-04
9.52452380952381e+00 9.77487160644463e-03 1.53749938498983e-04
9.57642857142857e+00 9.61472770119383e-03 1.51642537195399e-04
9.62833333333333e+00 9.45720746934972e-03 1.49561824410188e-04
9.68023809523810e+00 9.30226792668345e-03 1.47507517989438e-04
9.73214285714286e+00 9.14986679303209e-03 1.45479337094762e-04
9.78404761904762e+00 8.99996248123031e-03 1.43477002326813e-04
9.83595238095238e+00 8.85251408528666e-03 1.41500235848507e-04
9.88785714285714e+00 8.70748136938154e-03 1.39548761314649e-04
9.93976190476191e+00 8.56482475688802e-03 1.37622303985822e-04
9.99166666666667e+00 8.42450531943353e-03 1.35720590507877e-04
1.00435714285714e+01 8.28648476737300e-03 1.33843349630586e-04
1.00954761904762e+01 8.15072543633397e-03 1.31990311726245e-04
1.01473809523810e+01 8.01719028024628e-03 1.30161208077257e-04
1.01992857142857e+01 7.88584286124679e-03 1.28355772645819e-04
1.02511904761905e+01 7.75664733587498e-03 1.26573741175616e-04
1.03030952380952e+01 7.62956844919408e-03 1.24814850287864e-04
1.03550000000000e+01 7.50457152505254e-03 1.23078839348863e-04
1.04069047619048e+01 7.38162245299521e-03 1.21365449306140e-04
1.04588095238095e+01 7.26068768376211e-03 1.19674422943114e-04
1.05107142857143e+01 7.14173421543658e-03 1.18005505252512e-04
1.05626190476190e+01 7.02472958793871e-03 1.16358442301823e-04
1.06145238095238e+01 6.90964187406207e-03 1.14732982923626e-04
1.06664285714286e+01 6.79643966750836e-03 1.13128877904863e-04
1.07183333333333e+01 6.68509207760473e-03 1.11545879201251e-04
1.07702380952381e+01 6.57556872077412e-03 1.09983741533646e-04
1.08221428571429e+01 6.46783970918898e-03 1.08442221378865e-04
1.08740476190476e+01 6.36187564666682e-03 1.06921077180806e-04
1.09259523809524e+01 6.25764761668888e-03 1.05420069663381e-04
1.09778571428571e+01 6.15512717745883e-03 1.03938960846996e-04
1.10297619047619e+01 6.05428635405390e-03 1.02477515494302e-04
1.10816666666667e+01 5.95509762804652e-03 1.01035500189057e-04
1.11335714285714e+01 5.85753393363282e-03 9.96126835231710e-05
1.11854761904762e+01 5.76156864669096e-03 9.82088363762408e-05
1.12373809523810e+01 5.66717558016623e-03 9.68237310178544e-05
1.12892857142857e+01 5.57432897684481e-03 9.54571424174857e-05
1.13411904761905e+01 5.48300349986048e-03 9.41088475997406e-05
1.13930952380952e+01 5.39317422827156e-03 9.27786250195293e-05
1.14450000000000e+01 5.30481665018594e-03 9.14662557997099e-05
1.14969047619048e+01 5.21790665375446e-03 9.01715229319355e-05
1.15488095238095e+01 5.13242052366457e-03 8.88942114319009e-05
1.16007142857143e+01 5.04833493166396e-03 8.76341085739700e-05
1.16526190476190e+01 4.96562693243408e-03 8.63910031125281e-05
1.17045238095238e+01 4.88427395726191e-03 8.51646864039239e-05
1.17564285714286e+01 4.80425380579720e-03 8.39549518459273e-05
1.18083333333333e+01 4.72554464210081e-03 8.27615943344460e-05
1.18602380952381e+01 4.64812498862265e-03 8.15844113238412e-05
1.19121428571429e+01 4.57197371838100e-03 8.04232021334184e-05
1.19640476190476e+01 4.49707005179698e-03 7.92777680763143e-05
1.20159523809524e+01 4.42339354848193e-03 7.81479126566176e-05
1.20678571428571e+01 4.35092410355395e-03 7.70334408937682e-05
1.21197619047619e+01 4.27964194209591e-03 7.59341602842088e-05
1.21716666666667e+01 4.20952761199468e-03 7.48498801678790e-05
1.22235714285714e+01 4.14056198097258e-03 7.37804118425042e-05
1.22754761904762e+01 4.07272622907833e-03 7.27255687399098e-05
1.23273809523810e+01 4.00600184525740e-03 7.16851658088923e-05
1.23792857142857e+01 3.94037062224957e-03 7.06590203876940e-05
1.24311904761905e+01 3.87581465003235e-03 6.96469517577368e-05
1.24830952380952e+01 3.81231631253883e-03 6.86487807110467e-05
1.25350000000000e+01 3.74985828280296e-03 6.76643303750963e-05
1.25869047619048e+01 3.68842351673635e-03 6.66934256627430e-05
1.26388095238095e+01 3.62799525046016e-03 6.57358933671377e-05
1.26907142857143e+01 3.56855699379076e-03 6.47915623100139e-05
1.27426190476190e+01 3.51009252718590e-03 6.38602628059264e-05
1.27945238095238e+01 3.45258589727594e-03 6.29418274109172e-05
1.28464285714286e+01 3.39602141116326e-03 6.20360905343016e-05
1.28983333333333e+01 3.34038363350160e-03 6.11428880623209e-05
1.29502380952381e+01 3.28565738224338e-03 6.02620580660763e-05
1.30021428571429e+01 3.23182772322873e-03 5.93934403237797e-05
1.30540476190476e+01 3.17887996779268e-03 5.85368763995770e-05
1.31059523809524e+01 3.12679966711077e-03 5.76922097683262e-05
1.31578571428571e+01 3.07557260948317e-03 5.68592853503356e-05
1.32097619047619e+01 3.02518481642080e-03 5.60379501541787e-05
1.32616666666667e+01 2.97562253768690e-03 5.52280528399677e-05
1.33135714285714e+01 2.92687224906196e-03 5.44294437892295e-05
1.33654761904762e+01 2.87892064716873e-03 5.36419752166248e-05
1.34173809523810e+01 2.83175464694896e-03 5.28655007446509e-05
1.34692857142857e+01 2.78536137805989e-03 5.20998759874753e-05
1.35211904761905e+01 2.73972818033070e-03 5.13449582415186e-05
1.35730952380952e+01 2.69484260135027e-03 5.06006061854584e-05
1.36250000000000e+01 2.65069239303856e-03 4.98666804324581e-05
1.36769047619048e+01 2.60726550733246e-03 4.91430431506678e-05
1.37288095238095e+01 2.56455009418737e-03 4.84295581212259e-05
1.37807142857143e+01 2.52253449708180e-03 4.77260908323259e-05
1.38326190476190e+01 2.48120725077730e-03 4.70325081096967e-05
1.38845238095238e+01 2.44055707816224e-03 4.63486786183413e-05
1.39364285714286e+01 2.40057288629727e-03 4.56744725932019e-05
1.39883333333333e+01 2.36124376427489e-03 4.50097615779938e-05
1.40402380952381e+01 2.32255898021582e-03 4.43544188998628e-05
1.40921428571429e+01 2.28450797751405e-03 4.37083193395273e-05
1.41440476190476e+01 2.24708037305282e-03 4.30713391794024e-05
1.41959523809524e+01 2.21026595329784e-03 4.24433562828215e-05
1.42478571428571e+01 2.17405467231046e-03 4.18242497728977e-05
1.42997619047619e+01 2.13843664898314e-03 4.12139004639171e-05
1.43516666666667e+01 2.10340216359640e-03 4.06121905596131e-05
1.44035714285714e+01 2.06894165615697e-03 4.00190036957999e-05
1.44554761904762e+01 2.03504572281947e-03 3.94342250113316e-05
1.45073809523810e+01 2.00170511404344e-03 3.88577408543540e-05
1.45592857142857e+01 1.96891073204803e-03 3.82894391744853e-05
1.46111904761905e+01 1.93665362765502e-03 3.77292093079108e-05
1.46630952380952e+01 1.90492499852836e-03 3.71769417689762e-05
1.47150000000000e+01 1.87371618675226e-03 3.66325286212843e-05
1.47669047619048e+01 1.84301867583279e-03 3.60958632153111e-05
1.48188095238095e+01 1.81282408921755e-03 3.55668402237368e-05
1.48707142857143e+01 1.78312418718391e-03 3.50453557012288e-05
1.49226190476190e+01 1.75391086520649e-03 3.45313068290310e-05
1.49745238095238e+01 1.72517615172771e-03 3.40245922524153e-05
1.50264285714286e+01 1.69691220540768e-03 3.35251118935060e-05
1.50783333333333e+01 1.66911131356541e-03 3.30327667697440e-05
1.51302380952381e+01 1.64176589005708e-03 3.25474593132409e-05
1.51821428571429e+01 1.61486847266408e-03 3.20690931425580e-05
1.52340476190476e+01 1.58841172177588e-03 3.15975730919609e-05
1.52859523809524e+01 1.56238841768295e-03 3.11328052617895e-05
1.53378571428571e+01 1.53679145913185e-03 3.06746967963244e-05
1.53897619047619e+01 1.51161386137220e-03 3.02231561742701e-05
1.54416666666667e+01 1.48684875376046e-03 2.97780929998793e-05
1.54935714285714e+01 1.46248937853553e-03 2.93394180288199e-05
1.55454761904762e+01 1.43852908833770e-03 2.89070432133035e-05
1.55973809523810e+01 1.41496134486990e-03 2.84808814987864e-05
1.56492857142857e+01 1.39177971709959e-03 2.80608470882402e-05
1.57011904761905e+01 1.36897787906052e-03 2.76468552926578e-05
1.57530952380952e+01 1.34654960857459e-03 2.72388223860421e-05
1.58050000000000e+01 1.32448878554096e-03 2.68366658555540e-05
1.58569047619048e+01 1.30278938984766e-03 2.64403042197569e-05
1.59088095238095e+01 1.28144550028396e-03 2.60496570499946e-05
1.59607142857143e+01 1.26045129238090e-03 2.56646450084131e-05
1.60126190476190e+01 1.23980103722746e-03 2.52851896710772e-05
1.60645238095238e+01 1.21948909989548e-03 2.49112137556010e-05
1.61164285714286e+01 1.19950993752338e-03 2.45426409908717e-05
1.61683333333333e+01 1.17985809818631e-03 2.41793959906654e-05
1.62202380952381e+01 1.16052821939727e-03 2.38214044691386e-05
1.62721428571429e+01 1.14151502628656e-03 2.34685930826373e-05
1.63240476190476e+01 1.12281333063655e-03 2.31208894473407e-05
1.63759523809524e+01 1.10441802900148e-03 2.27782221712924e-05
