Energy (eV)          EEDF (eV^-(3/2))     First Anisotropy
5.79761904761905e-03 6.70512653007611e-01 3.84726801549697e-04
1.73928571428571e-02 6.65024716581852e-01 6.34827627802410e-04
2.89880952380952e-02 6.59581697199080e-01 8.36811671179874e-04
4.05833333333333e-02 6.54183227228640e-01 9.89512307377563e-04
5.21785714285714e-02 6.48828942047206e-01 1.11624881519746e-03
6.37738095238095e-02 6.43518480016017e-01 1.22585493024077e-03
7.53690476190476e-02 6.38251482456259e-01 1.32291049575712e-03
8.69642857142857e-02 6.33027593624808e-01 1.41018608538709e-03
9.85595238095238e-02 6.27846460690191e-01 1.48952243142207e-03
1.10154761904762e-01 6.22707733703498e-01 1.56222279769839e-03
1.21750000000000e-01 6.17611065595814e-01 1.62925360198002e-03
1.33345238095238e-01 6.12556112127010e-01 1.69135721893165e-03
1.44940476190476e-01 6.07542531874881e-01 1.74912003459467e-03
1.56535714285714e-01 6.02569986212097e-01 1.80301581082644e-03
1.68130952380952e-01 5.97638139282989e-01 1.85343454752712e-03
1.79726190476190e-01 5.92746657980835e-01 1.90070239459176e-03
1.91321428571429e-01 5.87895211899773e-01 1.94509579459634e-03
2.02916666666667e-01 5.83083473391299e-01 1.98685180321256e-03
2.14511904761905e-01 5.78311117460931e-01 2.02617577966805e-03
2.26107142857143e-01 5.73577821774235e-01 2.06324721472175e-03
2.37702380952381e-01 5.68883266635036e-01 2.09822423909697e-03
2.49297619047619e-01 5.64227134963816e-01 2.13124715412626e-03
2.60892857142857e-01 5.59609112276176e-01 2.16244123494021e-03
2.72488095238095e-01 5.55028886661837e-01 2.19191898262737e-03
2.84083333333333e-01 5.50486148763429e-01 2.21978195312661e-03
2.95678571428571e-01 5.45980591755592e-01 2.24612225681667e-03
3.07273809523810e-01 5.41511911324249e-01 2.27102380079718e-03
3.18869047619048e-01 5.37079805632256e-01 2.29456331823054e-03
3.30464285714286e-01 5.32683975341184e-01 2.31681124120953e-03
3.42059523809524e-01 5.28324123548086e-01 2.33783243973346e-03
3.53654761904762e-01 5.23999955780087e-01 2.35768684245959e-03
3.65250000000000e-01 5.19711179974493e-01 2.37642997482829e-03
3.76845238095238e-01 5.15457506459036e-01 2.39411342090774e-03
3.88440476190476e-01 5.11238647932340e-01 2.41078522317560e-03
4.00035714285714e-01 5.07054319444534e-01 2.42649023025944e-03
4.11630952380952e-01 5.02904238377981e-01 2.44127040076175e-03
4.23226190476190e-01 4.98788124428183e-01 2.45516507120252e-03
4.34821428571429e-01 4.94705699575558e-01 2.46821118672031e-03
4.46416666666667e-01 4.90656688094976e-01 2.48044351153104e-03
4.58011904761905e-01 4.86640816508367e-01 2.49189481599635e-03
4.69607142857143e-01 4.82657813575998e-01 2.50259603644397e-03
4.81202380952381e-01 4.78707410278152e-01 2.51257642315880e-03
4.92797619047619e-01 4.74789339796959e-01 2.52186367169058e-03
5.04392857142857e-01 4.70903337498351e-01 2.53048404082291e-03
5.15988095238095e-01 4.67049140914234e-01 2.53846245886756e-03
5.27583333333333e-01 4.63226489724741e-01 2.54582261969023e-03
5.39178571428572e-01 4.59435125740642e-01 2.55258706965617e-03
5.50773809523810e-01 4.55674792885907e-01 2.55877728764895e-03
5.62369047619048e-01 4.51945237173873e-01 2.56441375356536e-03
5.73964285714286e-01 4.48246206709964e-01 2.56951601601895e-03
5.85559523809524e-01 4.44577451654527e-01 2.57410275439543e-03
5.97154761904762e-01 4.40938724212774e-01 2.57819183021430e-03
6.08750000000000e-01 4.37329778618043e-01 2.58180033850432e-03
6.20345238095238e-01 4.33750371115187e-01 2.58494465395854e-03
6.31940476190476e-01 4.30200259944124e-01 2.58764047342104e-03
6.43535714285714e-01 4.26679205323510e-01 2.58990285507012e-03
6.55130952380952e-01 4.23186969434540e-01 2.59174625460689e-03
6.66726190476191e-01 4.19723316404882e-01 2.59318455964763e-03
6.78321428571429e-01 4.16288012287754e-01 2.59423111796292e-03
6.89916666666667e-01 4.12880825061278e-01 2.59489876812551e-03
7.01511904761905e-01 4.09501524597470e-01 2.59519986812848e-03
7.13107142857143e-01 4.06149882651872e-01 2.59514631741526e-03
7.24702380952381e-01 4.02825672848136e-01 2.59474958101664e-03
7.36297619047619e-01 3.99528670662738e-01 2.59402071117427e-03
7.47892857142857e-01 3.96258653409797e-01 2.59297036753180e-03
7.59488095238095e-01 3.93015400226059e-01 2.59160883601923e-03
7.71083333333333e-01 3.89798692055968e-01 2.58994604653616e-03
7.82678571428571e-01 3.86608311636870e-01 2.58799158951979e-03
7.94273809523810e-01 3.83444043484338e-01 2.58575473225876e-03
8.05869047619048e-01 3.80305673873790e-01 2.58324443117444e-03
8.17464285714286e-01 3.77192990837664e-01 2.58046934711195e-03
8.29059523809524e-01 3.74105784139363e-01 2.57743785983382e-03
8.40654761904762e-01 3.71043845263011e-01 2.57415807781178e-03
8.52250000000000e-01 3.68006967399370e-01 2.57063785050588e-03
8.63845238095238e-01 3.64994945431867e-01 2.56688477919573e-03
8.75440476190476e-01 3.62007575922747e-01 2.56290622721188e-03
8.87035714285714e-01 3.59044657099333e-01 2.55870932961123e-03
8.98630952380952e-01 3.56105988840395e-01 2.55430100233113e-03
9.10226190476191e-01 3.53191372662631e-01 2.54968795151855e-03
9.21821428571429e-01 3.50300611704182e-01 2.54487667974490e-03
9.33416666666667e-01 3.47433510720678e-01 2.53987349514229e-03
9.45011904761905e-01 3.44589876062609e-01 2.53468452015463e-03
9.56607142857143e-01 3.41769515665426e-01 2.52931569651176e-03
9.68202380952381e-01 3.38972239036569e-01 2.52377279259650e-03
9.79797619047619e-01 3.36197857242600e-01 2.51806140979651e-03
9.91392857142857e-01 3.33446182896438e-01 2.51218698854725e-03
1.00298809523810e+00 3.30717030144713e-01 2.50615481175007e-03
1.01458333333333e+00 3.28010214665609e-01 2.49997001848898e-03
1.02617857142857e+00 3.25325553619819e-01 2.49363760216644e-03
1.03777380952381e+00 3.22662865680425e-01 2.48716241073563e-03
1.04936904761905e+00 3.20021971004548e-01 2.48054916107926e-03
1.06096428571429e+00 3.17402691221302e-01 2.47380243439631e-03
1.07255952380952e+00 3.14804849443545e-01 2.46692669722019e-03
1.08415476190476e+00 3.12228270183876e-01 2.45992629443937e-03
1.09575000000000e+00 3.09672779415403e-01 2.45280544198705e-03
1.10734523809524e+00 3.07138204535549e-01 2.44556824767049e-03
1.11894047619048e+00 3.04624374354432e-01 2.43821870910023e-03
1.13053571428571e+00 3.02131119083335e-01 2.43076071211712e-03
1.14213095238095e+00 2.99658270344532e-01 2.42319804953435e-03
1.15372619047619e+00 2.97205661095423e-01 2.41553441406180e-03
1.16532142857143e+00 2.94773125682244e-01 2.40777339095890e-03
1.17691666666667e+00 2.92360499807021e-01 2.39991847671526e-03
1.18851190476190e+00 2.89967620516550e-01 2.39197307187088e-03
1.20010714285714e+00 2.87594326210805e-01 2.38394049815698e-03
1.21170238095238e+00 2.85240456573184e-01 2.37582399149490e-03
1.22329761904762e+00 2.82905852618980e-01 2.36762669477592e-03
1.23489285714286e+00 2.80590356664675e-01 2.35935167499053e-03
1.24648809523810e+00 2.78293812317386e-01 2.35100191618171e-03
1.25808333333333e+00 2.76016064482058e-01 2.34258033520146e-03
1.26967857142857e+00 2.73756959297167e-01 2.33408977486235e-03
1.28127380952381e+00 2.71516344178567e-01 2.32553299689785e-03
1.29286904761905e+00 2.69294067790925e-01 2.31691269775404e-03
1.30446428571429e+00 2.67089980037562e-01 2.30823150173281e-03
1.31605952380952e+00 2.64903932066618e-01 2.29949197552210e-03
1.32765476190476e+00 2.62735776211665e-01 2.29069662156036e-03
1.33925000000000e+00 2.60585366031433e-01 2.28184787121681e-03
1.35084523809524e+00 2.58452556283204e-01 2.27294809940275e-03
1.36244047619048e+00 2.56337202913026e-01 2.26399962186757e-03
1.37403571428571e+00 2.54239163045999e-01 2.25500469290667e-03
1.38563095238095e+00 2.52158294991382e-01 2.24596551863086e-03
1.39722619047619e+00 2.50094458188365e-01 2.23688425059210e-03
1.40882142857143e+00 2.48047513241563e-01 2.22776297924654e-03
1.42041666666667e+00 2.46017321896478e-01 2.21860374733207e-03
1.43201190476190e+00 2.44003747030205e-01 2.20940854353653e-03
1.44360714285714e+00 2.42006652655746e-01 2.20017931483205e-03
1.45520238095238e+00 2.40025903871720e-01 2.19091796034867e-03
1.46679761904762e+00 2.38061366894664e-01 2.18162632511088e-03
1.47839285714286e+00 2.36112909036057e-01 2.17230621248107e-03
1.48998809523810e+00 2.34180398693422e-01 2.16295937808684e-03
1.50158333333333e+00 2.32263705353941e-01 2.15358754131370e-03
1.51317857142857e+00 2.30362699547755e-01 2.14419237943532e-03
1.52477380952381e+00 2.28477252877382e-01 2.13477552161865e-03
1.53636904761905e+00 2.26607237996215e-01 2.12533856053316e-03
1.54796428571429e+00 2.24752528599948e-01 2.11588304654056e-03
1.55955952380952e+00 2.22912999429623e-01 2.10641049841528e-03
1.57115476190476e+00 2.21088526228168e-01 2.09692239774004e-03
1.58275000000000e+00 2.19278985767255e-01 2.08742018317706e-03
1.59434523809524e+00 2.17484255827126e-01 2.07790526131879e-03
1.60594047619048e+00 2.15704215188353e-01 2.06837900418240e-03
1.61753571428571e+00 2.13938743623660e-01 2.05884274702609e-03
1.62913095238095e+00 2.12187721900359e-01 2.04929779825180e-03
1.64072619047619e+00 2.10451031740370e-01 2.03974543409380e-03
1.65232142857143e+00 2.08728555844385e-01 2.03018689319417e-03
1.66391666666667e+00 2.07020177873140e-01 2.02062338663875e-03
1.67551190476190e+00 2.05325782439588e-01 2.01105609271320e-03
1.68710714285714e+00 2.03645255110870e-01 2.00148616618239e-03
1.69870238095238e+00 2.01978482371027e-01 1.99191473322576e-03
1.71029761904762e+00 2.00325351643105e-01 1.98234288627442e-03
1.72189285714286e+00 1.98685751271538e-01 1.97277169341583e-03
1.73348809523810e+00 1.97059570514641e-01 1.96320219339674e-03
1.74508333333333e+00 1.95446699546190e-01 1.95363540433012e-03
1.75667857142857e+00 1.93847029420588e-01 1.94407231887120e-03
1.76827380952381e+00 1.92260452093115e-01 1.93451389930197e-03
1.77986904761905e+00 1.90686860403348e-01 1.92496108636104e-03
1.79146428571429e+00 1.89126148067948e-01 1.91541479448581e-03
1.80305952380952e+00 1.87578209681895e-01 1.90587591998554e-03
1.81465476190476e+00 1.86042940685926e-01 1.89634533645396e-03
1.82625000000000e+00 1.84520237385089e-01 1.88682389009095e-03
1.83784523809524e+00 1.83009996933138e-01 1.87731240800215e-03
1.84944047619048e+00 1.81512117325587e-01 1.86781169605824e-03
1.86103571428571e+00 1.80026497392833e-01 1.85832253700467e-03
1.87263095238095e+00 1.78553036801044e-01 1.84884569805932e-03
1.88422619047619e+00 1.77091636022029e-01 1.83938192658356e-03
1.89582142857143e+00 1.75642196350032e-01 1.82993194566878e-03
1.90741666666667e+00 1.74204619887161e-01 1.82049646185735e-03
1.91901190476190e+00 1.72778809536799e-01 1.81107616087738e-03
1.93060714285714e+00 1.71364669004224e-01 1.80167171479611e-03
1.94220238095238e+00 1.69962102768383e-01 1.79228377790114e-03
1.95379761904762e+00 1.68571016097316e-01 1.78291298250787e-03
1.96539285714286e+00 1.67191315034400e-01 1.77355994622705e-03
1.97698809523810e+00 1.65822906392028e-01 1.76422526790805e-03
1.98858333333333e+00 1.64465697752002e-01 1.75490953437888e-03
2.00017857142857e+00 1.63119597439061e-01 1.74561331652991e-03
2.01177380952381e+00 1.61784514535055e-01 1.73633716532799e-03
2.02336904761905e+00 1.60460358865965e-01 1.72708161866700e-03
2.03496428571429e+00 1.59147040995820e-01 1.71784719750995e-03
2.04655952380952e+00 1.57844472226900e-01 1.70863441224026e-03
2.05815476190476e+00 1.56552564574885e-01 1.69944375894213e-03
2.06975000000000e+00 1.55271230781902e-01 1.69027571561053e-03
2.08134523809524e+00 1.54000384304246e-01 1.68113074861287e-03
2.09294047619048e+00 1.52739939306547e-01 1.67200931091046e-03
2.10453571428571e+00 1.51489810655975e-01 1.66291184047539e-03
2.11613095238095e+00 1.50249913922236e-01 1.65383876621799e-03
2.12772619047619e+00 1.49020165354498e-01 1.64479050448091e-03
2.13932142857143e+00 1.47800481893222e-01 1.63576745546768e-03
2.15091666666667e+00 1.46590781158681e-01 1.62677000927639e-03
2.16251190476190e+00 1.45390981445407e-01 1.61779854244760e-03
2.17410714285714e+00 1.44201001722035e-01 1.60885342356199e-03
2.18570238095238e+00 1.43020761609610e-01 1.59993500990659e-03
2.19729761904762e+00 1.41850181392488e-01 1.59104364408311e-03
2.20889285714286e+00 1.40689182007467e-01 1.58217965970380e-03
2.22048809523810e+00 1.39537685038457e-01 1.57334337810915e-03
2.23208333333333e+00 1.38395612716198e-01 1.56453511365710e-03
2.24367857142857e+00 1.37262887897851e-01 1.55575517055396e-03
2.25527380952381e+00 1.36139434077045e-01 1.54700383963032e-03
2.26686904761905e+00 1.35025175373581e-01 1.53828140372429e-03
2.27846428571429e+00 1.33920036528323e-01 1.52958813456097e-03
2.29005952380952e+00 1.32823942902799e-01 1.52092429774914e-03
2.30165476190476e+00 1.31736820459989e-01 1.51229014977136e-03
2.31325000000000e+00 1.30658595773591e-01 1.50368593491889e-03
2.32484523809524e+00 1.29589196018270e-01 1.49511189038136e-03
2.33644047619048e+00 1.28528548964745e-01 1.48656824478489e-03
2.34803571428571e+00 1.27476582974910e-01 1.47805521688367e-03
2.35963095238095e+00 1.26433227001334e-01 1.46957302023643e-03
2.37122619047619e+00 1.25398410569357e-01 1.46112186036970e-03
2.38282142857143e+00 1.24372063785521e-01 1.45270193188944e-03
2.39441666666667e+00 1.23354117328420e-01 1.44431342324615e-03
2.40601190476190e+00 1.22344502444029e-01 1.43595651394218e-03
2.41760714285714e+00 1.21343150945111e-01 1.42763137895704e-03
2.42920238095238e+00 1.20349995194350e-01 1.41933818604997e-03
2.44079761904762e+00 1.19364968112130e-01 1.41107709301597e-03
2.45239285714286e+00 1.18388003167855e-01 1.40284825219337e-03
2.46398809523810e+00 1.17419034375466e-01 1.39465180780839e-03
2.47558333333333e+00 1.16457996292783e-01 1.38648790016458e-03
2.48717857142857e+00 1.15504824005597e-01 1.37835666307788e-03
2.49877380952381e+00 1.14559453134850e-01 1.37025822126785e-03
2.51036904761905e+00 1.13621819828400e-01 1.36219269462579e-03
2.52196428571429e+00 1.12691860756721e-01 1.35416019568920e-03
2.53355952380952e+00 1.11769513112185e-01 1.34616083360748e-03
2.54515476190476e+00 1.10854714594051e-01 1.33819471170474e-03
2.55675000000000e+00 1.09947403415094e-01 1.33026192499862e-03
2.56834523809524e+00 1.09047518293801e-01 1.32236256424306e-03
2.57994047619048e+00 1.08154998450225e-01 1.31449671473157e-03
2.59153571428571e+00 1.07269783601888e-01 1.30666445522177e-03
2.60313095238095e+00 1.06391813963011e-01 1.29886586165450e-03
2.61472619047619e+00 1.05521030230491e-01 1.29110100485615e-03
2.62632142857143e+00 1.04657373589945e-01 1.28336994819979e-03
2.63791666666667e+00 1.03800785708366e-01 1.27567275139737e-03
2.64951190476190e+00 1.02951208730187e-01 1.26800946823764e-03
2.66110714285714e+00 1.02108585276477e-01 1.26038015011105e-03
2.67270238095238e+00 1.01272858431685e-01 1.25278484382401e-03
2.68429761904762e+00 1.00443971749239e-01 1.24522358937595e-03
2.69589285714286e+00 9.96218692445595e-02 1.23769642355224e-03
2.70748809523810e+00 9.88064953912867e-02 1.23020337777210e-03
2.71908333333333e+00 9.79977951204420e-02 1.22274448143084e-03
2.73067857142857e+00 9.71957138079053e-02 1.21531975982058e-03
2.74227380952381e+00 9.64001972795861e-02 1.20792923201589e-03
2.75386904761905e+00 9.56111918047891e-02 1.20057291428058e-03
2.76546428571429e+00 9.48286440925892e-02 1.19325081802031e-03
2.77705952380952e+00 9.40525012909704e-02 1.18596295295064e-03
2.78865476190476e+00 9.32827109749856e-02 1.17870932512027e-03
2.80025000000000e+00 9.25192211515391e-02 1.17148993489924e-03
2.81184523809524e+00 9.17619802530802e-02 1.16430478021039e-03
2.82344047619048e+00 9.10109371341226e-02 1.15715385555057e-03
2.83503571428571e+00 9.02660410677910e-02 1.15003715110873e-03
2.84663095238095e+00 8.95272417449388e-02 1.14295465574141e-03
2.85822619047619e+00 8.87944892630649e-02 1.13590635510839e-03
2.86982142857143e+00 8.80677341306778e-02 1.12889222977545e-03
2.88141666666667e+00 8.73469272613563e-02 1.12191225824974e-03
2.89301190476190e+00 8.66320199704385e-02 1.11496641514421e-03
2.90460714285714e+00 8.59229639741238e-02 1.10805467400136e-03
2.91620238095238e+00 8.52197113789870e-02 1.10117700551868e-03
2.92779761904762e+00 8.45222146860148e-02 1.09433337574451e-03
2.93939285714286e+00 8.38304267849560e-02 1.08752374895758e-03
2.95098809523810e+00 8.31443009511441e-02 1.08074808591980e-03
2.96258333333333e+00 8.24637908445907e-02 1.07400634655671e-03
2.97417857142857e+00 8.17888505000585e-02 1.06729848826872e-03
2.98577380952381e+00 8.11194343307970e-02 1.06062446421402e-03
2.99736904761905e+00 8.04554971231671e-02 1.05398422604221e-03
3.00896428571429e+00 7.97969940335903e-02 1.04737772223112e-03
3.02055952380952e+00 7.91438805876374e-02 1.04080490063058e-03
3.03215476190476e+00 7.84961126706287e-02 1.03426570685615e-03
3.04375000000000e+00 7.78536465310908e-02 1.02776008265446e-03
3.05534523809524e+00 7.72164387756410e-02 1.02128796849880e-03
3.06694047619048e+00 7.65844463660580e-02 1.01484930278865e-03
3.07853571428571e+00 7.59576266163755e-02 1.00844402112666e-03
3.09013095238095e+00 7.53359371919712e-02 1.00207205871069e-03
3.10172619047619e+00 7.47193361007514e-02 9.95733348817887e-04
3.11332142857143e+00 7.41077816963086e-02 9.89427821262566e-04
3.12491666666667e+00 7.35012326730964e-02 9.83155404837269e-04
3.13651190476191e+00 7.28996480636430e-02 9.76916025819964e-04
3.14810714285714e+00 7.23029872376402e-02 9.70709610246553e-04
3.15970238095238e+00 7.17112098935903e-02 9.64536082467370e-04
3.17129761904762e+00 7.11242760617288e-02 9.58395363679613e-04
3.18289285714286e+00 7.05421460994291e-02 9.52287374245586e-04
3.19448809523810e+00 6.99647806885289e-02 9.46212032271214e-04
3.20608333333333e+00 6.93921408344226e-02 9.40169255765038e-04
3.21767857142857e+00 6.88241878581443e-02 9.34158961263895e-04
3.22927380952381e+00 6.82608833990721e-02 9.28181062435528e-04
3.24086904761905e+00 6.77021894105525e-02 9.22235472281385e-04
3.25246428571429e+00 6.71480681573327e-02 9.16322101782843e-04
3.26405952380952e+00 6.65984822146607e-02 9.10440861952025e-04
3.27565476190476e+00 6.60533944607779e-02 9.04591662523789e-04
3.28725000000000e+00 6.55127680794230e-02 8.98774410624995e-04
3.29884523809524e+00 6.49765665556630e-02 8.92989012867847e-04
3.31044047619048e+00 6.44447536734284e-02 8.87235374694551e-04
3.32203571428571e+00 6.39172935130673e-02 8.81513399784290e-04
3.33363095238095e+00 6.33941504504574e-02 8.75822991983534e-04
3.34522619047619e+00 6.28752891499553e-02 8.70164054071399e-04
3.35682142857143e+00 6.23606745666832e-02 8.64536486503129e-04
3.36841666666667e+00 6.18502719425941e-02 8.58940189380905e-04
3.38001190476191e+00 6.13440468041255e-02 8.53375061237571e-04
3.39160714285714e+00 6.08419649613207e-02 8.47841000871902e-04
3.40320238095238e+00 6.03439925011405e-02 8.42337906172271e-04
3.41479761904762e+00 5.98500957895794e-02 8.36865672920506e-04
3.42639285714286e+00 5.93602414679140e-02 8.31424196665062e-04
3.43798809523810e+00 5.88743964504531e-02 8.26013371562076e-04
3.44958333333333e+00 5.83925279236699e-02 8.20633092120577e-04
3.46117857142857e+00 5.79146033398546e-02 8.15283252081945e-04
3.47277380952381e+00 5.74405904190729e-02 8.09963743280406e-04
3.48436904761905e+00 5.69704571455909e-02 8.04674457424211e-04
3.49596428571429e+00 5.65041717657140e-02 7.99415284991537e-04
3.50755952380952e+00 5.60417027869331e-02 7.94186116889494e-04
3.51915476190476e+00 5.55830189718991e-02 7.88986843387115e-04
3.53075000000000e+00 5.51280893402358e-02 7.83817353029646e-04
3.54234523809524e+00 5.46768831651312e-02 7.78677534332592e-04
3.55394047619048e+00 5.42293699712623e-02 7.73567275244664e-04
3.56553571428571e+00 5.37855195327376e-02 7.68486462660756e-04
3.57713095238095e+00 5.33453018722614e-02 7.63434983984957e-04
3.58872619047619e+00 5.29086872554674e-02 7.58412726122748e-04
3.60032142857143e+00 5.24756461925746e-02 7.53419574455593e-04
3.61191666666667e+00 5.20461494351659e-02 7.48455414436920e-04
3.62351190476191e+00 5.16201679742142e-02 7.43520130599241e-04
3.63510714285714e+00 5.11976730392607e-02 7.38613608041013e-04
3.64670238095238e+00 5.07786360930345e-02 7.33735731466134e-04
3.65829761904762e+00 5.03630288329839e-02 7.28886384207345e-04
