Energy (eV)          EEDF (eV^-(3/2))     First Anisotropy
6.52500000000000e-02 5.37404197060394e-02 4.48055832495683e-05
1.95750000000000e-01 5.28215003493843e-02 7.36016293477717e-05
3.26250000000000e-01 5.19182937986496e-02 9.61475468807596e-05
4.56750000000000e-01 5.10305313770689e-02 1.12670585043343e-04
5.87250000000000e-01 5.01579490020497e-02 1.25959007491549e-04
7.17750000000000e-01 4.93002871066080e-02 1.37083810160403e-04
8.48250000000000e-01 4.84572905621536e-02 1.46607578533247e-04
9.78750000000000e-01 4.76287086025969e-02 1.54874976516578e-04
1.10925000000000e+00 4.68142947497533e-02 1.62117816588876e-04
1.23975000000000e+00 4.60138067400235e-02 1.68502185929467e-04
1.37025000000000e+00 4.52270064523271e-02 1.74152666249128e-04
1.50075000000000e+00 4.44536598372691e-02 1.79166021234913e-04
1.63125000000000e+00 4.36935368475168e-02 1.83619496498663e-04
1.76175000000000e+00 4.29464113693680e-02 1.87576134980487e-04
1.89225000000000e+00 4.22120611554888e-02 1.91088332934817e-04
2.02275000000000e+00 4.14902677588018e-02 1.94200305571997e-04
2.15325000000000e+00 4.07808164675047e-02 1.96949848616813e-04
2.28375000000000e+00 4.00834962411997e-02 1.99369629247231e-04
2.41425000000000e+00 3.93980996481157e-02 2.01488153079251e-04
2.54475000000000e+00 3.87244228034037e-02 2.03330502427026e-04
2.67525000000000e+00 3.80622653084866e-02 2.04918909460154e-04
2.80575000000000e+00 3.74114301914472e-02 2.06273207837510e-04
2.93625000000000e+00 3.67717238484347e-02 2.07411193332950e-04
3.06675000000000e+00 3.61429559860737e-02 2.08348915242861e-04
3.19725000000000e+00 3.55249395648571e-02 2.09100914410275e-04
3.32775000000000e+00 3.49174907435082e-02 2.09680419555799e-04
3.45825000000000e+00 3.43204288242927e-02 2.10099510670313e-04
3.58875000000000e+00 3.37335761992673e-02 2.10369256112115e-04
3.71925000000000e+00 3.31567582974460e-02 2.10499828508840e-04
3.84975000000000e+00 3.25898035328710e-02 2.10500603423487e-04
3.98025000000000e+00 3.20325432535708e-02 2.10380243889167e-04
4.11075000000000e+00 3.14848116913913e-02 2.10146773269792e-04
4.24125000000000e+00 3.09464459126850e-02 2.09807638408515e-04
4.37175000000000e+00 3.04172857698428e-02 2.09369764642731e-04
4.50225000000000e+00 2.98971738536553e-02 2.08839603965883e-04
4.63275000000000e+00 2.93859554464878e-02 2.08223177381459e-04
4.76325000000000e+00 2.88834784762570e-02 2.07526112308481e-04
4.89375000000000e+00 2.83895934711939e-02 2.06753675749141e-04
5.02425000000000e+00 2.79041535153801e-02 2.05910803809799e-04
5.15475000000000e+00 2.74270142050454e-02 2.05002128069822e-04
5.28525000000000e+00 2.69580336056117e-02 2.04031999214061e-04
5.41575000000000e+00 2.64970722094715e-02 2.03004508280232e-04
5.54625000000000e+00 2.60439928944890e-02 2.01923505819416e-04
5.67675000000000e+00 2.55986608832101e-02 2.00792619223905e-04
5.80725000000000e+00 2.51609437027705e-02 1.99615268440055e-04
5.93775000000000e+00 2.47307111454886e-02 1.98394680253288e-04
6.06825000000000e+00 2.43078352301328e-02 1.97133901306659e-04
6.19875000000000e+00 2.38921901638511e-02 1.95835809992808e-04
6.32925000000000e+00 2.34836523047513e-02 1.94503127340787e-04
6.45975000000000e+00 2.30821001251214e-02 1.93138427003723e-04
6.59025000000000e+00 2.26874141752786e-02 1.91744144439913e-04
6.72075000000000e+00 2.22994770480369e-02 1.90322585368655e-04
6.85125000000000e+00 2.19181733437815e-02 1.88875933572366e-04
6.98175000000000e+00 2.15433896361416e-02 1.87406258108026e-04
7.11225000000000e+00 2.11750144382488e-02 1.85915519983771e-04
7.24275000000000e+00 2.08129381695735e-02 1.84405578350202e-04
7.37325000000000e+00 2.04570531233278e-02 1.82878196250375e-04
7.50375000000000e+00 2.01072534344261e-02 1.81335045967747e-04
7.63425000000000e+00 1.97634350479935e-02 1.79777714007096e-04
7.76475000000000e+00 1.94254956884123e-02 1.78207705739832e-04
7.89525000000000e+00 1.90933348288983e-02 1.76626449741850e-04
8.02575000000000e+00 1.87668536615973e-02 1.75035301849221e-04
8.15625000000000e+00 1.84459550681921e-02 1.73435548954553e-04
8.28675000000000e+00 1.81305435910137e-02 1.71828412564632e-04
8.41725000000000e+00 1.78205254046443e-02 1.70215052137895e-04
8.54775000000000e+00 1.75158082880084e-02 1.68596568218675e-04
8.67825000000000e+00 1.72163015969386e-02 1.66974005383494e-04
8.80875000000000e+00 1.69219162372126e-02 1.65348355013320e-04
8.93925000000000e+00 1.66325646380496e-02 1.63720557904478e-04
9.06975000000000e+00 1.63481607260613e-02 1.62091506729756e-04
9.20025000000000e+00 1.60686198996473e-02 1.60462048360293e-04
9.33075000000000e+00 1.57938590038286e-02 1.58832986057867e-04
9.46125000000000e+00 1.55237963055118e-02 1.57205081546461e-04
9.59175000000000e+00 1.52583514691757e-02 1.55579056971242e-04
9.72225000000000e+00 1.49974455329740e-02 1.53955596752368e-04
9.85275000000000e+00 1.47410008852465e-02 1.52335349340515e-04
9.98325000000000e+00 1.44889412414321e-02 1.50718928880442e-04
1.01137500000000e+01 1.42411916213763e-02 1.49106916788427e-04
1.02442500000000e+01 1.39976783270267e-02 1.47499863248928e-04
1.03747500000000e+01 1.37583289205105e-02 1.45898288635502e-04
1.05052500000000e+01 1.35230722025860e-02 1.44302684860523e-04
1.06357500000000e+01 1.32918381914632e-02 1.42713516658012e-04
1.07662500000000e+01 1.30645581019863e-02 1.41131222803545e-04
1.08967500000000e+01 1.28411643251719e-02 1.39556217274867e-04
1.10272500000000e+01 1.26215904080979e-02 1.37988890356680e-04
1.11577500000000e+01 1.24057710341353e-02 1.36429609692765e-04
1.12882500000000e+01 1.21936420035186e-02 1.34878721288408e-04
1.14187500000000e+01 1.19851402142485e-02 1.33336550465875e-04
1.15492500000000e+01 1.17802036433205e-02 1.31803402775533e-04
1.16797500000000e+01 1.15787713282755e-02 1.30279564865034e-04
1.18102500000000e+01 1.13807833490648e-02 1.28765305308769e-04
1.19407500000000e+01 1.11861808102260e-02 1.27260875399762e-04
1.20712500000000e+01 1.09949058233633e-02 1.25766509905918e-04
1.22017500000000e+01 1.08069014899273e-02 1.24282427792509e-04
1.23322500000000e+01 1.06221118842897e-02 1.22808832912636e-04
1.24627500000000e+01 1.04404820371068e-02 1.21345914667259e-04
1.25932500000000e+01 1.02619579189679e-02 1.19893848636370e-04
1.27237500000000e+01 1.00864864243232e-02 1.18452797182713e-04
1.28542500000000e+01 9.91401535568648e-03 1.17022910029426e-04
1.29847500000000e+01 9.74449340810791e-03 1.15604324812876e-04
1.31152500000000e+01 9.57787015391236e-03 1.14197167611862e-04
1.32457500000000e+01 9.41409602769875e-03 1.12801553454369e-04
1.33762500000000e+01 9.25312231159573e-03 1.11417586802886e-04
1.35067500000000e+01 9.09490112076969e-03 1.10045362019328e-04
1.36372500000000e+01 8.93938538918036e-03 1.08684963810524e-04
1.37677500000000e+01 8.78652885558018e-03 1.07336467655129e-04
1.38982500000000e+01 8.63628604975289e-03 1.05999940212856e-04
1.40287500000000e+01 8.48861227898754e-03 1.04675439716802e-04
1.41592500000000e+01 8.34346361478380e-03 1.03363016349662e-04
1.42897500000000e+01 8.20079687978446e-03 1.02062712604520e-04
1.44202500000000e+01 8.06056963493156e-03 1.00774563630924e-04
1.45507500000000e+01 7.92274016684197e-03 9.94985975668905e-05
1.46812500000000e+01 7.78726747539898e-03 9.82348358574531e-05
1.48117500000000e+01 7.65411126155595e-03 9.69832935603403e-05
1.49422500000000e+01 7.52323191534858e-03 9.57439796393367e-05
1.50727500000000e+01 7.39459050411215e-03 9.45168972458637e-05
1.52032500000000e+01 7.26814876090020e-03 9.33020439892817e-05
1.53337500000000e+01 7.14386907310127e-03 9.20994121963792e-05
1.54642500000000e+01 7.02171447125028e-03 9.09089891605093e-05
1.55947500000000e+01 6.90164861803126e-03 8.97307573808210e-05
1.57252500000000e+01 6.78363579746805e-03 8.85646947919772e-05
1.58557500000000e+01 6.66764090429988e-03 8.74107749847593e-05
1.59862500000000e+01 6.55362943353863e-03 8.62689674179462e-05
1.61167500000000e+01 6.44156747020463e-03 8.51392376218012e-05
1.62472500000000e+01 6.33142167923796e-03 8.40215473935183e-05
1.63777500000000e+01 6.22315929558229e-03 8.29158549849680e-05
1.65082500000000e+01 6.11674811443825e-03 8.18221152830290e-05
1.66387500000000e+01 6.01215648168348e-03 8.07402799828090e-05
1.67692500000000e+01 5.90935328445649e-03 7.96702977540518e-05
1.68997500000000e+01 5.80830794190150e-03 7.86121144009892e-05
1.70302500000000e+01 5.70899039607155e-03 7.75656730158872e-05
1.71607500000000e+01 5.61137110298722e-03 7.65309141265546e-05
1.72912500000000e+01 5.51542102384811e-03 7.55077758380415e-05
1.74217500000000e+01 5.42111161639474e-03 7.44961939687495e-05
1.75522500000000e+01 5.32841482641802e-03 7.34961021811786e-05
1.76827500000000e+01 5.23730307941405e-03 7.25074321075091e-05
1.78132500000000e+01 5.14774927238144e-03 7.15301134702251e-05
1.79437500000000e+01 5.05972676575907e-03 7.05640741979718e-05
1.80742500000000e+01 4.97320937550157e-03 6.96092405368151e-05
1.82047500000000e+01 4.88817136529036e-03 6.86655371570977e-05
1.83352500000000e+01 4.80458743887789e-03 6.77328872560470e-05
1.84657500000000e+01 4.72243273256277e-03 6.68112126562954e-05
1.85962500000000e+01 4.64168280779353e-03 6.59004339004760e-05
1.87267500000000e+01 4.56231364389893e-03 6.50004703420307e-05
1.88572500000000e+01 4.48430163094252e-03 6.41112402323834e-05
1.89877500000000e+01 4.40762356269936e-03 6.32326608046027e-05
1.91182500000000e+01 4.33225662975293e-03 6.23646483536993e-05
1.92487500000000e+01 4.25817841270996e-03 6.15071183136776e-05
1.93792500000000e+01 4.18536687553138e-03 6.06599853314523e-05
1.95097500000000e+01 4.11380035897723e-03 5.98231633377632e-05
1.96402500000000e+01 4.04345757416370e-03 5.89965656151898e-05
1.97707500000000e+01 3.97431759623030e-03 5.81801048633714e-05
1.99012500000000e+01 3.90635985811542e-03 5.73736932615421e-05
2.00317500000000e+01 3.83956414443816e-03 5.65772425284789e-05
2.01622500000000e+01 3.77391058548492e-03 5.57906639799555e-05
2.02927500000000e+01 3.70937965129873e-03 5.50138685837864e-05
2.04232500000000e+01 3.64595214586969e-03 5.42467670125667e-05
2.05537500000000e+01 3.58360920142474e-03 5.34892696941802e-05
2.06842500000000e+01 3.52233227281503e-03 5.27412868601591e-05
2.08147500000000e+01 3.46210313199937e-03 5.20027285919762e-05
2.09452500000000e+01 3.40290386262183e-03 5.12735048653410e-05
2.10757500000000e+01 3.34471685468228e-03 5.05535255925797e-05
2.12062500000000e+01 3.28752479929785e-03 4.98427006631630e-05
2.13367500000000e+01 3.23131068355412e-03 4.91409399824530e-05
2.14672500000000e+01 3.17605778544425e-03 4.84481535087323e-05
2.15977500000000e+01 3.12174966889472e-03 4.77642512885737e-05
2.17282500000000e+01 3.06837017887606e-03 4.70891434906219e-05
2.18587500000000e+01 3.01590343659725e-03 4.64227404378349e-05
2.19892500000000e+01 2.96433383478223e-03 4.57649526382472e-05
2.21197500000000e+01 2.91364603302722e-03 4.51156908143093e-05
2.22502500000000e+01 2.86382495323739e-03 4.44748659308460e-05
2.23807500000000e+01 2.81485577514162e-03 4.38423892216945e-05
2.25112500000000e+01 2.76672393188389e-03 4.32181722150709e-05
2.26417500000000e+01 2.71941510569007e-03 4.26021267577020e-05
2.27722500000000e+01 2.67291522360883e-03 4.19941650377748e-05
2.29027500000000e+01 2.62721045332536e-03 4.13941996067502e-05
2.30332500000000e+01 2.58228719904667e-03 4.08021434000714e-05
2.31637500000000e+01 2.53813209745724e-03 4.02179097568176e-05
2.32942500000000e+01 2.49473201374387e-03 3.96414124383369e-05
2.34247500000000e+01 2.45207403768841e-03 3.90725656458987e-05
2.35552500000000e+01 2.41014547982741e-03 3.85112840374029e-05
2.36857500000000e+01 2.36893386767739e-03 3.79574827431742e-05
2.38162500000000e+01 2.32842694202461e-03 3.74110773808807e-05
2.39467500000000e+01 2.28861265327834e-03 3.68719840696089e-05
2.40772500000000e+01 2.24947915788648e-03 3.63401194431279e-05
2.42077500000000e+01 2.21101481481246e-03 3.58154006623678e-05
2.43382500000000e+01 2.17320818207238e-03 3.52977454271464e-05
2.44687500000000e+01 2.13604801333135e-03 3.47870719871703e-05
2.45992500000000e+01 2.09952325455806e-03 3.42832991523410e-05
2.47297500000000e+01 2.06362304073653e-03 3.37863463023854e-05
2.48602500000000e+01 2.02833669263410e-03 3.32961333958419e-05
2.49907500000000e+01 1.99365371362469e-03 3.28125809784267e-05
2.51212500000000e+01 1.95956378656633e-03 3.23356101908000e-05
2.52517500000000e+01 1.92605677073217e-03 3.18651427757581e-05
2.53822500000000e+01 1.89312269879390e-03 3.14011010848738e-05
2.55127500000000e+01 1.86075177385675e-03 3.09434080846031e-05
2.56432500000000e+01 1.82893436654525e-03 3.04919873618820e-05
2.57737500000000e+01 1.79766101213873e-03 3.00467631292325e-05
2.59042500000000e+01 1.76692240775590e-03 2.96076602293958e-05
2.60347500000000e+01 1.73670940958750e-03 2.91746041395119e-05
2.61652500000000e+01 1.70701303017627e-03 2.87475209748635e-05
2.62957500000000e+01 1.67782443574350e-03 2.83263374922045e-05
2.64262500000000e+01 1.64913494356121e-03 2.79109810926843e-05
2.65567500000000e+01 1.62093601936931e-03 2.75013798243839e-05
2.66872500000000e+01 1.59321927483693e-03 2.70974623844874e-05
2.68177500000000e+01 1.56597646506712e-03 2.66991581210948e-05
2.69482500000000e+01 1.53919948614424e-03 2.63063970346958e-05
2.70787500000000e+01 1.51288037272332e-03 2.59191097793178e-05
2.72092500000000e+01 1.48701129566059e-03 2.55372276633576e-05
2.73397500000000e+01 1.46158455968453e-03 2.51606826501168e-05
2.74702500000000e+01 1.43659260110679e-03 2.47894073580490e-05
2.76007500000000e+01 1.41202798557220e-03 2.44233350607306e-05
2.77312500000000e+01 1.38788340584726e-03 2.40623996865684e-05
2.78617500000000e+01 1.36415167964652e-03 2.37065358182560e-05
2.79922500000000e+01 1.34082574749598e-03 2.33556786919888e-05
2.81227500000000e+01 1.31789867063316e-03 2.30097641964483e-05
2.82532500000000e+01 1.29536362894305e-03 2.26687288715656e-05
2.83837500000000e+01 1.27321391892925e-03 2.23325099070743e-05
2.85142500000000e+01 1.25144295171997e-03 2.20010451408630e-05
2.86447500000000e+01 1.23004425110798e-03 2.16742730571368e-05
2.87752500000000e+01 1.20901145162417e-03 2.13521327843938e-05
2.89057500000000e+01 1.18833829664399e-03 2.10345640932278e-05
2.90362500000000e+01 1.16801863652629e-03 2.07215073939656e-05
2.91667500000000e+01 1.14804642678401e-03 2.04129037341458e-05
2.92972500000000e+01 1.12841572628612e-03 2.01086947958474e-05
2.94277500000000e+01 1.10912069549029e-03 1.98088228928734e-05
2.95582500000000e+01 1.09015559470585e-03 1.95132309678001e-05
2.96887500000000e+01 1.07151478238633e-03 1.92218625888985e-05
2.98192500000000e+01 1.05319271345135e-03 1.89346619469303e-05
2.99497500000000e+01 1.03518393763709e-03 1.86515738518304e-05
3.00802500000000e+01 1.01748309787496e-03 1.83725437292781e-05
3.02107500000000e+01 1.00008492869813e-03 1.80975176171649e-05
3.03412500000000e+01 9.82984254675106e-04 1.78264421619652e-05
3.04717500000000e+01 9.66175988870277e-04 1.75592646150131e-05
3.06022500000000e+01 9.49655131330659e-04 1.72959328286930e-05
3.07327500000000e+01 9.33416767598575e-04 1.70363952525480e-05
3.08632500000000e+01 9.17456067249751e-04 1.67806009293106e-05
3.09937500000000e+01 9.01768282456409e-04 1.65284994908613e-05
3.11242500000000e+01 8.86348746574930e-04 1.62800411541222e-05
3.12547500000000e+01 8.71192872757670e-04 1.60351767168838e-05
3.13852500000000e+01 8.56296152588512e-04 1.57938575535735e-05
3.15157500000000e+01 8.41654154741743e-04 1.55560356109729e-05
3.16462500000000e+01 8.27262523663874e-04 1.53216634038803e-05
3.17767500000000e+01 8.13116978277990e-04 1.50906940107274e-05
3.19072500000000e+01 7.99213310710260e-04 1.48630810691541e-05
3.20377500000000e+01 7.85547385038219e-04 1.46387787715425e-05
3.21682500000000e+01 7.72115136060462e-04 1.44177418605148e-05
3.22987500000000e+01 7.58912568087361e-04 1.41999256243981e-05
3.24292500000000e+01 7.45935753752470e-04 1.39852858926595e-05
3.25597500000000e+01 7.33180832844258e-04 1.37737790313146e-05
3.26902500000000e+01 7.20644011157804e-04 1.35653619383125e-05
3.28207500000000e+01 7.08321559366139e-04 1.33599920388992e-05
3.29512500000000e+01 6.96209811910883e-04 1.31576272809626e-05
3.30817500000000e+01 6.84305165911851e-04 1.29582261303618e-05
3.32122500000000e+01 6.72604080095307e-04 1.27617475662427e-05
3.33427500000000e+01 6.61103073740539e-04 1.25681510763449e-05
3.34732500000000e+01 6.49798725644451e-04 1.23773966522971e-05
3.36037500000000e+01 6.38687673103856e-04 1.21894447849082e-05
3.37342500000000e+01 6.27766610915178e-04 1.20042564594533e-05
3.38647500000000e+01 6.17032290391248e-04 1.18217931509579e-05
3.39952500000000e+01 6.06481518394918e-04 1.16420168194814e-05
3.41257500000000e+01 5.96111156389202e-04 1.14648899054022e-05
3.42562500000000e+01 5.85918119503655e-04 1.12903753247066e-05
3.43867500000000e+01 5.75899375616716e-04 1.11184364642834e-05
3.45172500000000e+01 5.66051944453741e-04 1.09490371772242e-05
3.46477500000000e+01 5.56372896700464e-04 1.07821417781312e-05
3.47782500000000e+01 5.46859353131614e-04 1.06177150384367e-05
3.49087500000000e+01 5.37508483754431e-04 1.04557221817334e-05
3.50392500000000e+01 5.28317506966831e-04 1.02961288791169e-05
3.51697500000000e+01 5.19283688729957e-04 1.01389012445416e-05
3.53002500000000e+01 5.10404341754891e-04 9.98400583019291e-06
3.54307500000000e+01 5.01676824703267e-04 9.83140962187545e-06
3.55612500000000e+01 4.93098541401544e-04 9.68108003441812e-06
3.56917500000000e+01 4.84666940068732e-04 9.53298490709823e-06
3.58222500000000e+01 4.76379512557310e-04 9.38709249908588e-06
3.59527500000000e+01 4.68233793607126e-04 9.24337148490762e-06
3.60832500000000e+01 4.60227360112060e-04 9.10179094993262e-06
3.62137500000000e+01 4.52357830399220e-04 8.96232038588107e-06
3.63442500000000e+01 4.44622863520468e-04 8.82492968635590e-06
3.64747500000000e+01 4.37020158556055e-04 8.68958914239773e-06
3.66052500000000e+01 4.29547453930173e-04 8.55626943806561e-06
3.67357500000000e+01 4.22202526738198e-04 8.42494164604322e-06
3.68662500000000e+01 4.14983192085444e-04 8.29557722327022e-06
3.69967500000000e+01 4.07887302437227e-04 8.16814800660192e-06
3.71272500000000e+01 4.00912746980032e-04 8.04262620849518e-06
3.72577500000000e+01 3.94057450993615e-04 7.91898441272295e-06
3.73882500000000e+01 3.87319375233832e-04 7.79719557011723e-06
3.75187500000000e+01 3.80696515326027e-04 7.67723299434038e-06
3.76492500000000e+01 3.74186901168791e-04 7.55907035768699e-06
3.77797500000000e+01 3.67788596347916e-04 7.44268168691497e-06
3.79102500000000e+01 3.61499697560372e-04 7.32804135910727e-06
3.80407500000000e+01 3.55318334048126e-04 7.21512409756408e-06
3.81712500000000e+01 3.49242667041654e-04 7.10390496772606e-06
3.83017500000000e+01 3.43270889212959e-04 6.99435937312949e-06
3.84322500000000e+01 3.37401224137948e-04 6.88646305139245e-06
3.85627500000000e+01 3.31631925767996e-04 6.78019207023298e-06
3.86932500000000e+01 3.25961277910550e-04 6.67552282351993e-06
3.88237500000000e+01 3.20387593718615e-04 6.57243202735578e-06
3.89542500000000e+01 3.14909215188969e-04 6.47089671619232e-06
3.90847500000000e+01 3.09524512668951e-04 6.37089423897934e-06
3.92152500000000e+01 3.04231884371695e-04 6.27240225534594e-06
3.93457500000000e+01 2.99029755899643e-04 6.17539873181489e-06
3.94762500000000e+01 2.93916579776211e-04 6.07986193805068e-06
3.96067500000000e+01 2.88890834985458e-04 5.98577044314081e-06
3.97372500000000e+01 2.83951026519635e-04 5.89310311191030e-06
3.98677500000000e+01 2.79095684934460e-04 5.80183910127005e-06
3.99982500000000e+01 2.74323365912005e-04 5.71195785659859e-06
4.01287500000000e+01 2.69632649831055e-04 5.62343910815721e-06
4.02592500000000e+01 2.65022141344814e-04 5.53626286753954e-06
4.03897500000000e+01 2.60490468965828e-04 5.45040942415430e-06
4.05202500000000e+01 2.56036284658013e-04 5.36585934174154e-06
4.06507500000000e+01 2.51658263435653e-04 5.28259345492282e-06
4.07812500000000e+01 2.47355102969256e-04 5.20059286578502e-06
4.09117500000000e+01 2.43125523198151e-04 5.11983894049806e-06
4.10422500000000e+01 2.38968265949709e-04 5.04031330596540e-06
4.11727500000000e+01 2.34882094565071e-04 4.96199784650863e-06
