Energy (eV)          EEDF (eV^-(3/2))     First Anisotropy
3.39473684210526e-03 1.73519966199003e+00 1.03700230193786e-03
1.01842105263158e-02 1.71952696554326e+00 1.71040226985719e-03
1.69736842105263e-02 1.70399582820100e+00 2.25267687810124e-03
2.37631578947368e-02 1.68860497144263e+00 2.66146708575942e-03
3.05526315789474e-02 1.67335312827534e+00 2.99978160239405e-03
3.73421052631579e-02 1.65823904302620e+00 3.29151949615815e-03
4.41315789473684e-02 1.64326147143876e+00 3.54908616427237e-03
5.09210526315790e-02 1.62841918049322e+00 3.77999507144789e-03
5.77105263157895e-02 1.61371094830689e+00 3.98924384448174e-03
6.45000000000000e-02 1.59913556403328e+00 4.18037492590237e-03
7.12894736842105e-02 1.58469182778299e+00 4.35601814489755e-03
7.80789473684211e-02 1.57037855046073e+00 4.51819592136094e-03
8.48684210526316e-02 1.55619455373399e+00 4.66850748594769e-03
9.16578947368421e-02 1.54213866991302e+00 4.80824631917330e-03
9.84473684210526e-02 1.52820974185472e+00 4.93847834472262e-03
1.05236842105263e-01 1.51440662290542e+00 5.06009590902594e-03
1.12026315789474e-01 1.50072817665507e+00 5.17385614098729e-03
1.18815789473684e-01 1.48717327703555e+00 5.28040892062329e-03
1.25605263157895e-01 1.47374080825950e+00 5.38031778746734e-03
1.32394736842105e-01 1.46042966439763e+00 5.47407576106771e-03
1.39184210526316e-01 1.44723874961864e+00 5.56211755165042e-03
1.45973684210526e-01 1.43416697808021e+00 5.64482921598496e-03
1.52763157894737e-01 1.42121327356589e+00 5.72255575205149e-03
1.59552631578947e-01 1.40837656967030e+00 5.79560719904117e-03
1.66342105263158e-01 1.39565580969655e+00 5.86426366882786e-03
1.73131578947368e-01 1.38304994633875e+00 5.92877940420782e-03
1.79921052631579e-01 1.37055794182725e+00 5.98938613434463e-03
1.86710526315789e-01 1.35817876783117e+00 6.04629594354125e-03
1.93500000000000e-01 1.34591140517600e+00 6.09970361867575e-03
2.00289473684211e-01 1.33375484395889e+00 6.14978864060139e-03
2.07078947368421e-01 1.32170808339858e+00 6.19671691016186e-03
2.13868421052632e-01 1.30977013180876e+00 6.24064222638167e-03
2.20657894736842e-01 1.29794000634772e+00 6.28170753494946e-03
2.27447368421053e-01 1.28621673310753e+00 6.32004600086768e-03
2.34236842105263e-01 1.27459934702608e+00 6.35578200060110e-03
2.41026315789474e-01 1.26308689165872e+00 6.38903193397418e-03
2.47815789473684e-01 1.25167841924925e+00 6.41990493521536e-03
2.54605263157895e-01 1.24037299064588e+00 6.44850355429271e-03
2.61394736842105e-01 1.22916967509116e+00 6.47492430799835e-03
2.68184210526316e-01 1.21806755027846e+00 6.49925816768878e-03
2.74973684210526e-01 1.20706570227130e+00 6.52159104483425e-03
2.81763157894737e-01 1.19616322530880e+00 6.54200417650226e-03
2.88552631578947e-01 1.18535922185076e+00 6.56057446958458e-03
2.95342105263158e-01 1.17465280249936e+00 6.57737485804897e-03
3.02131578947368e-01 1.16404308581857e+00 6.59247457940572e-03
3.08921052631579e-01 1.15352919836951e+00 6.60593942352740e-03
3.15710526315789e-01 1.14311027463460e+00 6.61783200292397e-03
3.22500000000000e-01 1.13278545684901e+00 6.62821195525000e-03
3.29289473684211e-01 1.12255389502802e+00 6.63713613138752e-03
3.36078947368421e-01 1.11241474686412e+00 6.64465878664125e-03
3.42868421052632e-01 1.10236717768653e+00 6.65083175468597e-03
3.49657894736842e-01 1.09241036030531e+00 6.65570458978465e-03
3.56447368421053e-01 1.08254347503106e+00 6.65932469204041e-03
3.63236842105263e-01 1.07276570960442e+00 6.66173746213029e-03
3.70026315789474e-01 1.06307625904939e+00 6.66298640567578e-03
3.76815789473684e-01 1.05347432568730e+00 6.66311322889278e-03
3.83605263157895e-01 1.04395911906866e+00 6.66215796439630e-03
3.90394736842105e-01 1.03452985583465e+00 6.66015905156263e-03
3.97184210526316e-01 1.02518575972634e+00 6.65715341040910e-03
4.03973684210526e-01 1.01592606151862e+00 6.65317654561018e-03
4.10763157894737e-01 1.00674999888916e+00 6.64826260899333e-03
4.17552631578947e-01 9.97656816423639e-01 6.64244445717275e-03
4.24342105263158e-01 9.88645765551534e-01 6.63575373885256e-03
4.31131578947368e-01 9.79716104421978e-01 6.62822094381714e-03
4.37921052631579e-01 9.70867097905530e-01 6.61987544827163e-03
4.44710526315790e-01 9.62098017531752e-01 6.61074558910521e-03
4.51500000000000e-01 9.53408141371392e-01 6.60085870255541e-03
4.58289473684211e-01 9.44796754035181e-01 6.59024116338433e-03
4.65078947368421e-01 9.36263146595396e-01 6.57891843569972e-03
4.71868421052632e-01 9.27806616545013e-01 6.56691512002283e-03
4.78657894736842e-01 9.19426467686940e-01 6.55425498516125e-03
4.85447368421053e-01 9.11122010129998e-01 6.54096099459200e-03
4.92236842105263e-01 9.02892560230582e-01 6.52705535991200e-03
4.99026315789474e-01 8.94737440487087e-01 6.51255956344503e-03
5.05815789473684e-01 8.86655979533705e-01 6.49749437929719e-03
5.12605263157895e-01 8.78647512083798e-01 6.48187992048209e-03
5.19394736842105e-01 8.70711378829142e-01 6.46573565699914e-03
5.26184210526316e-01 8.62846926431846e-01 6.44908043266015e-03
5.32973684210526e-01 8.55053507469378e-01 6.43193250699009e-03
5.39763157894737e-01 8.47330480338270e-01 6.41430956968445e-03
5.46552631578947e-01 8.39677209244485e-01 6.39622875406879e-03
5.53342105263158e-01 8.32093064149940e-01 6.37770667463542e-03
5.60131578947368e-01 8.24577420680447e-01 6.35875943857763e-03
5.66921052631579e-01 8.17129660114720e-01 6.33940265654927e-03
5.73710526315789e-01 8.09749169332367e-01 6.31965147651768e-03
5.80500000000000e-01 8.02435340725770e-01 6.29952059293493e-03
5.87289473684211e-01 7.95187572187950e-01 6.27902425774418e-03
5.94078947368421e-01 7.88005267050285e-01 6.25817630133644e-03
6.00868421052632e-01 7.80887834044926e-01 6.23699015199525e-03
6.07657894736842e-01 7.73834687221270e-01 6.21547884515142e-03
6.14447368421053e-01 7.66845245932807e-01 6.19365502958243e-03
6.21236842105263e-01 7.59918934788400e-01 6.17153099474051e-03
6.28026315789474e-01 7.53055183572163e-01 6.14911867594017e-03
6.34815789473684e-01 7.46253427229460e-01 6.12642965918048e-03
6.41605263157895e-01 7.39513105819573e-01 6.10347520623708e-03
6.48394736842105e-01 7.32833664438775e-01 6.08026625866280e-03
6.55184210526316e-01 7.26214553205626e-01 6.05681344147636e-03
6.61973684210526e-01 7.19655227214972e-01 6.03312708630117e-03
6.68763157894737e-01 7.13155146464034e-01 6.00921723438120e-03
6.75552631578947e-01 7.06713775837144e-01 5.98509363934297e-03
6.82342105263158e-01 7.00330585060988e-01 5.96076578861387e-03
6.89131578947368e-01 6.94005048633577e-01 5.93624290561513e-03
6.95921052631579e-01 6.87736645808516e-01 5.91153395176470e-03
7.02710526315789e-01 6.81524860551452e-01 5.88664764636984e-03
7.09500000000000e-01 6.75369181471778e-01 5.86159246813774e-03
7.16289473684211e-01 6.69269101806516e-01 5.83637665840557e-03
7.23078947368421e-01 6.63224119369878e-01 5.81100823223085e-03
7.29868421052632e-01 6.57233736519899e-01 5.78549498863455e-03
7.36657894736842e-01 6.51297460093382e-01 5.75984451333841e-03
7.43447368421053e-01 6.45414801389545e-01 5.73406417941376e-03
7.50236842105263e-01 6.39585276129202e-01 5.70816116429304e-03
7.57026315789474e-01 6.33808404392115e-01 5.68214245008647e-03
7.63815789473684e-01 6.28083710600399e-01 5.65601482381530e-03
7.70605263157895e-01 6.22410723478838e-01 5.62978489335683e-03
7.77394736842105e-01 6.16788975994527e-01 5.60345908740624e-03
7.84184210526316e-01 6.11218005340095e-01 5.57704365536467e-03
7.90973684210526e-01 6.05697352895122e-01 5.55054468231905e-03
7.97763157894737e-01 6.00226564167954e-01 5.52396808870552e-03
8.04552631578947e-01 5.94805188778822e-01 5.49731962991515e-03
8.11342105263158e-01 5.89432780422299e-01 5.47060491039716e-03
8.18131578947368e-01 5.84108896811201e-01 5.44382938306956e-03
8.24921052631579e-01 5.78833099659649e-01 5.41699834869498e-03
8.31710526315790e-01 5.73604954646527e-01 5.39011696918175e-03
8.38500000000000e-01 5.68424031361392e-01 5.36319026678507e-03
8.45289473684211e-01 5.63289903287495e-01 5.33622312473348e-03
8.52078947368421e-01 5.58202147760481e-01 5.30922029402531e-03
8.58868421052632e-01 5.53160345939279e-01 5.28218639966451e-03
8.65657894736842e-01 5.48164082754432e-01 5.25512594115904e-03
8.72447368421053e-01 5.43212946891231e-01 5.22804329147785e-03
8.79236842105263e-01 5.38306530755459e-01 5.20094270877265e-03
8.86026315789474e-01 5.33444430423507e-01 5.17382833521307e-03
8.92815789473684e-01 5.28626245625546e-01 5.14670419582008e-03
8.99605263157895e-01 5.23851579712217e-01 5.11957420957555e-03
9.06394736842105e-01 5.19120039606451e-01 5.09244218815920e-03
9.13184210526316e-01 5.14431235786715e-01 5.06531183468194e-03
9.19973684210526e-01 5.09784782254618e-01 5.03818675422931e-03
9.26763157894737e-01 5.05180296488362e-01 5.01107045251764e-03
9.33552631578947e-01 5.00617399426098e-01 4.98396633455041e-03
9.40342105263158e-01 4.96095715434398e-01 4.95687771463624e-03
9.47131578947368e-01 4.91614872263293e-01 4.92980781497764e-03
9.53921052631579e-01 4.87174501029745e-01 4.90275976427090e-03
9.60710526315790e-01 4.82774236186973e-01 4.87573660723363e-03
9.67500000000000e-01 4.78413715481000e-01 4.84874130314077e-03
9.74289473684211e-01 4.74092579934275e-01 4.82177672551000e-03
9.81078947368421e-01 4.69810473811606e-01 4.79484566664913e-03
9.87868421052632e-01 4.65567044595042e-01 4.76795084180349e-03
9.94657894736842e-01 4.61361942942279e-01 4.74109488883309e-03
1.00144736842105e+00 4.57194822670552e-01 4.71428037210052e-03
1.00823684210526e+00 4.53065340708020e-01 4.68750977045982e-03
1.01502631578947e+00 4.48973157129181e-01 4.66078549531313e-03
1.02181578947368e+00 4.44917935046455e-01 4.63410991143547e-03
1.02860526315789e+00 4.40899340577559e-01 4.60748528517212e-03
1.03539473684211e+00 4.36917042931927e-01 4.58091381614887e-03
1.04218421052632e+00 4.32970714268284e-01 4.55439766998248e-03
1.04897368421053e+00 4.29060029670773e-01 4.52793891764652e-03
1.05576315789474e+00 4.25184667230631e-01 4.50153956806207e-03
1.06255263157895e+00 4.21344307910043e-01 4.47520159951690e-03
1.06934210526316e+00 4.17538635518715e-01 4.44892690127506e-03
1.07613157894737e+00 4.13767336791239e-01 4.42271731419723e-03
1.08292105263158e+00 4.10030101223614e-01 4.39657462342338e-03
1.08971052631579e+00 4.06326621183553e-01 4.37050054903120e-03
1.09650000000000e+00 4.02656591783407e-01 4.34449678558877e-03
1.10328947368421e+00 3.99019710857702e-01 4.31856494700388e-03
1.11007894736842e+00 3.95415679034237e-01 4.29270659593718e-03
1.11686842105263e+00 3.91844199612416e-01 4.26692327218562e-03
1.12365789473684e+00 3.88304978541326e-01 4.24121643955109e-03
1.13044736842105e+00 3.84797724487070e-01 4.21558752259845e-03
1.13723684210526e+00 3.81322148686838e-01 4.19003789987788e-03
1.14402631578947e+00 3.77877965045496e-01 4.16456889531342e-03
1.15081578947368e+00 3.74464890021925e-01 4.13918181402387e-03
1.15760526315789e+00 3.71082642607929e-01 4.11387789212046e-03
1.16439473684211e+00 3.67730944390245e-01 4.08865832330354e-03
1.17118421052632e+00 3.64409519441567e-01 4.06352428455071e-03
1.17797368421053e+00 3.61118094300047e-01 4.03847688773415e-03
1.18476315789474e+00 3.57856398028024e-01 4.01351720520856e-03
1.19155263157895e+00 3.54624162107604e-01 3.98864629453068e-03
1.19834210526316e+00 3.51421120420592e-01 3.96386515182321e-03
1.20513157894737e+00 3.48247009304218e-01 3.93917474381216e-03
1.21192105263158e+00 3.45101567426040e-01 3.91457600177931e-03
1.21871052631579e+00 3.41984535864509e-01 3.89006981391028e-03
1.22550000000000e+00 3.38895658011203e-01 3.86565705654763e-03
1.23228947368421e+00 3.35834679551604e-01 3.84133855010102e-03
1.23907894736842e+00 3.32801348516446e-01 3.81711508223650e-03
1.24586842105263e+00 3.29795415187935e-01 3.79298743029811e-03
1.25265789473684e+00 3.26816632080983e-01 3.76895631879465e-03
1.25944736842105e+00 3.23864753991944e-01 3.74502244849378e-03
1.26623684210526e+00 3.20939537886373e-01 3.72118649084151e-03
1.27302631578947e+00 3.18040742969912e-01 3.69744908092275e-03
1.27981578947368e+00 3.15168130600420e-01 3.67381084586041e-03
1.28660526315789e+00 3.12321464269958e-01 3.65027236460936e-03
1.29339473684211e+00 3.09500509649766e-01 3.62683418900214e-03
1.30018421052632e+00 3.06705034505863e-01 3.60349686411220e-03
1.30697368421053e+00 3.03934808681540e-01 3.58026088947206e-03
1.31376315789474e+00 3.01189604140020e-01 3.55712673934925e-03
1.32055263157895e+00 2.98469194883444e-01 3.53409488236756e-03
1.32734210526316e+00 2.95773356935743e-01 3.51116574409420e-03
1.33413157894737e+00 2.93101868383189e-01 3.48833973251148e-03
1.34092105263158e+00 2.90454509277575e-01 3.46561723305029e-03
1.34771052631579e+00 2.87831061695683e-01 3.44299860234216e-03
1.35450000000000e+00 2.85231309663249e-01 3.42048419310148e-03
1.36128947368421e+00 2.82655039138570e-01 3.39807431872551e-03
1.36807894736842e+00 2.80102038049938e-01 3.37576927172647e-03
1.37486842105263e+00 2.77572096222576e-01 3.35356934158067e-03
1.38165789473684e+00 2.75065005362651e-01 3.33147478056705e-03
1.38844736842105e+00 2.72580559092851e-01 3.30948582696134e-03
1.39523684210526e+00 2.70118552865166e-01 3.28760270045944e-03
1.40202631578947e+00 2.67678784013419e-01 3.26582559643287e-03
1.40881578947368e+00 2.65261051684642e-01 3.24415470859699e-03
1.41560526315789e+00 2.62865156823752e-01 3.22259019667707e-03
1.42239473684211e+00 2.60490902206436e-01 3.20113220318206e-03
1.42918421052632e+00 2.58138092373155e-01 3.17978086965805e-03
1.43597368421053e+00 2.55806533614233e-01 3.15853630547721e-03
1.44276315789474e+00 2.53496034001098e-01 3.13739860401424e-03
1.44955263157895e+00 2.51206403322835e-01 3.11636785832394e-03
1.45634210526316e+00 2.48937453071609e-01 3.09544413101004e-03
1.46313157894737e+00 2.46688996472403e-01 3.07462747460113e-03
1.46992105263158e+00 2.44460848407385e-01 3.05391792748066e-03
1.47671052631579e+00 2.42252825460193e-01 3.03331550878776e-03
1.48350000000000e+00 2.40064745856258e-01 3.01282023834377e-03
1.49028947368421e+00 2.37896429448871e-01 2.99243210812032e-03
1.49707894736842e+00 2.35747697746670e-01 2.97215109698003e-03
1.50386842105263e+00 2.33618373856218e-01 2.95197718497010e-03
1.51065789473684e+00 2.31508282468424e-01 2.93191032577016e-03
1.51744736842105e+00 2.29417249884683e-01 2.91195046528465e-03
1.52423684210526e+00 2.27345103948538e-01 2.89209753789453e-03
1.53102631578947e+00 2.25291674084897e-01 2.87235146176926e-03
1.53781578947368e+00 2.23256791246017e-01 2.85271215705582e-03
1.54460526315789e+00 2.21240287898484e-01 2.83317951978154e-03
1.55139473684211e+00 2.19241998047421e-01 2.81375343529798e-03
1.55818421052632e+00 2.17261757184456e-01 2.79443379132268e-03
1.56497368421053e+00 2.15299402275070e-01 2.77522045273188e-03
1.57176315789474e+00 2.13354771781608e-01 2.75611327453688e-03
1.57855263157895e+00 2.11427705613195e-01 2.73711211447372e-03
1.58534210526316e+00 2.09518045113381e-01 2.71821680865354e-03
1.59213157894737e+00 2.07625633082054e-01 2.69942718794098e-03
1.59892105263158e+00 2.05750313715924e-01 2.68074307461979e-03
1.60571052631579e+00 2.03891932641720e-01 2.66216427822965e-03
1.61250000000000e+00 2.02050336869016e-01 2.64369061159771e-03
1.61928947368421e+00 2.00225374778407e-01 2.62532186776484e-03
1.62607894736842e+00 1.98416896141801e-01 2.60705783183238e-03
1.63286842105263e+00 1.96624752076973e-01 2.58889829246154e-03
1.63965789473684e+00 1.94848795036043e-01 2.57084301957962e-03
1.64644736842105e+00 1.93088878824793e-01 2.55289177934997e-03
1.65323684210526e+00 1.91344858548730e-01 2.53504433110119e-03
1.66002631578947e+00 1.89616590642566e-01 2.51730042349847e-03
1.66681578947368e+00 1.87903932827395e-01 2.49965980920083e-03
1.67360526315789e+00 1.86206744099659e-01 2.48212222373106e-03
1.68039473684211e+00 1.84524884749047e-01 2.46468739629809e-03
1.68718421052632e+00 1.82858216317216e-01 2.44735506030695e-03
1.69397368421053e+00 1.81206601587052e-01 2.43012493293795e-03
1.70076315789474e+00 1.79569904599711e-01 2.41299672559989e-03
1.70755263157895e+00 1.77947990614827e-01 2.39597015408257e-03
1.71434210526316e+00 1.76340726100045e-01 2.37904491881963e-03
1.72113157894737e+00 1.74747978747254e-01 2.36222071810601e-03
1.72792105263158e+00 1.73169617425438e-01 2.34549724536556e-03
1.73471052631579e+00 1.71605512205714e-01 2.32887418574721e-03
1.74150000000000e+00 1.70055534323803e-01 2.31235122907178e-03
1.74828947368421e+00 1.68519556170017e-01 2.29592805111870e-03
1.75507894736842e+00 1.66997451304298e-01 2.27960432318414e-03
1.76186842105263e+00 1.65489094420029e-01 2.26337972136755e-03
1.76865789473684e+00 1.63994361334285e-01 2.24725390848127e-03
1.77544736842105e+00 1.62513129002149e-01 2.23122654614814e-03
1.78223684210526e+00 1.61045275473898e-01 2.21529729228433e-03
1.78902631578947e+00 1.59590679917270e-01 2.19946579796777e-03
1.79581578947368e+00 1.58149222583329e-01 2.18373171929145e-03
1.80260526315789e+00 1.56720784797122e-01 2.16809470020745e-03
1.80939473684211e+00 1.55305248970959e-01 2.15255438127121e-03
1.81618421052632e+00 1.53902498571476e-01 2.13711040814077e-03
1.82297368421053e+00 1.52512418110550e-01 2.12176241498880e-03
1.82976315789474e+00 1.51134893157938e-01 2.10651003295355e-03
1.83655263157895e+00 1.49769810309511e-01 2.09135289835333e-03
1.84334210526316e+00 1.48417057178389e-01 2.07629063664665e-03
1.85013157894737e+00 1.47076522406999e-01 2.06132287313349e-03
1.85692105263158e+00 1.45748095629530e-01 2.04644923071387e-03
1.86371052631579e+00 1.44431667490901e-01 2.03166932710171e-03
1.87050000000000e+00 1.43127129616751e-01 2.01698278531374e-03
1.87728947368421e+00 1.41834374604965e-01 2.00238921845350e-03
1.88407894736842e+00 1.40553296036856e-01 1.98788823744843e-03
1.89086842105263e+00 1.39283788448200e-01 1.97347945857308e-03
1.89765789473684e+00 1.38025747320990e-01 1.95916248873289e-03
1.90444736842105e+00 1.36779069094084e-01 1.94493693527081e-03
1.91123684210526e+00 1.35543651129034e-01 1.93080240390177e-03
1.91802631578947e+00 1.34319391726989e-01 1.91675849614774e-03
1.92481578947368e+00 1.33106190101343e-01 1.90280481895161e-03
1.93160526315789e+00 1.31903946369835e-01 1.88894097071475e-03
1.93839473684211e+00 1.30712561564428e-01 1.87516654838332e-03
1.94518421052632e+00 1.29531937604900e-01 1.86148115434166e-03
1.95197368421053e+00 1.28361977291161e-01 1.84788438290638e-03
1.95876315789474e+00 1.27202584312660e-01 1.83437582717851e-03
1.96555263157895e+00 1.26053663222892e-01 1.82095508570911e-03
1.97234210526316e+00 1.24915119431907e-01 1.80762174943381e-03
1.97913157894737e+00 1.23786859215283e-01 1.79437541036118e-03
1.98592105263158e+00 1.22668789684092e-01 1.78121565973220e-03
1.99271052631579e+00 1.21560818799318e-01 1.76814208573640e-03
1.99950000000000e+00 1.20462855347758e-01 1.75515428203214e-03
2.00628947368421e+00 1.19374808934856e-01 1.74225183534689e-03
2.01307894736842e+00 1.18296589993029e-01 1.72943433175742e-03
2.01986842105263e+00 1.17228109758390e-01 1.71670136280076e-03
2.02665789473684e+00 1.16169280263773e-01 1.70405251347726e-03
2.03344736842105e+00 1.15120014346663e-01 1.69148737021980e-03
2.04023684210526e+00 1.14080225621816e-01 1.67900551919724e-03
2.04702631578947e+00 1.13049828494124e-01 1.66660654421126e-03
2.05381578947368e+00 1.12028738136612e-01 1.65429003451317e-03
2.06060526315789e+00 1.11016870483759e-01 1.64205557341596e-03
2.06739473684211e+00 1.10014142238864e-01 1.62990274405266e-03
2.07418421052632e+00 1.09020470852776e-01 1.61783113498107e-03
2.08097368421053e+00 1.08035774517409e-01 1.60584032916413e-03
2.08776315789474e+00 1.07059972172745e-01 1.59392990953986e-03
2.09455263157895e+00 1.06092983486301e-01 1.58209946444343e-03
2.10134210526316e+00 1.05134728846799e-01 1.57034857694322e-03
2.10813157894737e+00 1.04185129370848e-01 1.55867683191097e-03
2.11492105263158e+00 1.03244106878828e-01 1.54708381450928e-03
2.12171052631579e+00 1.02311583905877e-01 1.53556910831701e-03
2.12850000000000e+00 1.01387483682468e-01 1.52413230226620e-03
2.13528947368421e+00 1.00471730128351e-01 1.51277298051740e-03
2.14207894736842e+00 9.95642478587608e-02 1.50149072756944e-03
