Energy (eV)          EEDF (eV^-(3/2))     First Anisotropy
5.55000000000000e-03 2.17732113388538e+00 1.78437206584654e-03
1.66500000000000e-02 2.13996559907379e+00 2.93108309998605e-03
2.77500000000000e-02 2.10325096006661e+00 3.82871937415050e-03
3.88500000000000e-02 2.06716622123990e+00 4.48642593213701e-03
4.99500000000000e-02 2.03170057561737e+00 5.01526410184578e-03
6.10500000000000e-02 1.99684340163413e+00 5.45789742956604e-03
7.21500000000000e-02 1.96258425995577e+00 5.83673866441979e-03
8.32500000000000e-02 1.92891289035185e+00 6.16551993573965e-03
9.43500000000000e-02 1.89581920862310e+00 6.45347785055507e-03
1.05450000000000e-01 1.86329330358133e+00 6.70723066229161e-03
1.16550000000000e-01 1.83132543408111e+00 6.93174304955618e-03
1.27650000000000e-01 1.79990602610245e+00 7.13087136414539e-03
1.38750000000000e-01 1.76902566988343e+00 7.30769427625581e-03
1.49850000000000e-01 1.73867511710213e+00 7.46472453176635e-03
1.60950000000000e-01 1.70884527810685e+00 7.60405062216254e-03
1.72050000000000e-01 1.67952721919385e+00 7.72743501886886e-03
1.83150000000000e-01 1.65071215993180e+00 7.83638435859470e-03
1.94250000000000e-01 1.62239147053216e+00 7.93220087982377e-03
2.05350000000000e-01 1.59455666926466e+00 8.01602095307779e-03
2.16450000000000e-01 1.56719941991706e+00 8.08884449861135e-03
2.27550000000000e-01 1.54031152929863e+00 8.15155782610582e-03
2.38650000000000e-01 1.51388494478631e+00 8.20495163251271e-03
2.49750000000000e-01 1.48791175191309e+00 8.24973537376440e-03
2.60850000000000e-01 1.46238417199767e+00 8.28654887847507e-03
2.71950000000000e-01 1.43729455981489e+00 8.31597183450812e-03
2.83050000000000e-01 1.41263540130600e+00 8.33853161417528e-03
2.94150000000000e-01 1.38839931132834e+00 8.35470978689064e-03
3.05250000000000e-01 1.36457903144354e+00 8.36494758394921e-03
3.16350000000000e-01 1.34116742774374e+00 8.36965051865270e-03
3.27450000000000e-01 1.31815748871499e+00 8.36919231954432e-03
3.38550000000000e-01 1.29554232313745e+00 8.36391830045963e-03
3.49650000000000e-01 1.27331515802153e+00 8.35414826530947e-03
3.60750000000000e-01 1.25146933657942e+00 8.34017902576942e-03
3.71850000000000e-01 1.22999831623151e+00 8.32228659478899e-03
3.82950000000000e-01 1.20889566664691e+00 8.30072810694024e-03
3.94050000000000e-01 1.18815506781767e+00 8.27574350726556e-03
4.05150000000000e-01 1.16777030816602e+00 8.24755704286897e-03
4.16250000000000e-01 1.14773528268401e+00 8.21637858557395e-03
4.27350000000000e-01 1.12804399110520e+00 8.18240480920928e-03
4.38450000000000e-01 1.10869053610760e+00 8.14582024123111e-03
4.49550000000000e-01 1.08966912154752e+00 8.10679820525322e-03
4.60650000000000e-01 1.07097405072366e+00 8.06550166848578e-03
4.71750000000000e-01 1.05259972467103e+00 8.02208400596969e-03
4.82850000000000e-01 1.03454064048413e+00 7.97668969173966e-03
4.93950000000000e-01 1.01679138966885e+00 7.92945492559170e-03
5.05050000000000e-01 9.99346656522742e-01 7.88050820291493e-03
5.16150000000000e-01 9.82201216542992e-01 7.82997083402269e-03
5.27250000000000e-01 9.65349934861747e-01 7.77795741855664e-03
5.38350000000000e-01 9.48787764708281e-01 7.72457627980723e-03
5.49450000000000e-01 9.32509745897541e-01 7.66992986317384e-03
5.60550000000000e-01 9.16511003344631e-01 7.61411510245723e-03
5.71650000000000e-01 9.00786745604776e-01 7.55722375722637e-03
5.82750000000000e-01 8.85332263438337e-01 7.49934272411028e-03
5.93850000000000e-01 8.70142928400447e-01 7.44055432452950e-03
6.04950000000000e-01 8.55214191454846e-01 7.38093657109463e-03
6.16050000000000e-01 8.40541581611491e-01 7.32056341464542e-03
6.27150000000000e-01 8.26120704587546e-01 7.25950497368563e-03
6.38250000000000e-01 8.11947241491347e-01 7.19782774777855e-03
6.49350000000000e-01 7.98016947528936e-01 7.13559481630072e-03
6.60450000000000e-01 7.84325650732798e-01 7.07286602380638e-03
6.71550000000000e-01 7.70869250712399e-01 7.00969815312436e-03
6.82650000000000e-01 7.57643717426168e-01 6.94614508719744e-03
6.93750000000000e-01 7.44645089974544e-01 6.88225796057533e-03
7.04850000000000e-01 7.31869475413728e-01 6.81808530138043e-03
7.15950000000000e-01 7.19313047589794e-01 6.75367316449031e-03
7.27050000000000e-01 7.06972045992796e-01 6.68906525660936e-03
7.38150000000000e-01 6.94842774630536e-01 6.62430305384022e-03
7.49250000000000e-01 6.82921600921661e-01 6.55942591231066e-03
7.60350000000000e-01 6.71204954607739e-01 6.49447117236096e-03
7.71450000000000e-01 6.59689326684011e-01 6.42947425675330e-03
7.82550000000000e-01 6.48371268348479e-01 6.36446876332391e-03
7.93650000000000e-01 6.37247389969035e-01 6.29948655246406e-03
8.04750000000000e-01 6.26314360068296e-01 6.23455782978248e-03
8.15850000000000e-01 6.15568904325870e-01 6.16971122427289e-03
8.26950000000000e-01 6.05007804597731e-01 6.10497386228519e-03
8.38050000000000e-01 5.94627897952418e-01 6.04037143757334e-03
8.49150000000000e-01 5.84426075723781e-01 5.97592827767238e-03
8.60250000000000e-01 5.74399282579959e-01 5.91166740683729e-03
8.71350000000000e-01 5.64544515608352e-01 5.84761060575819e-03
8.82450000000000e-01 5.54858823416275e-01 5.78377846825112e-03
8.93550000000000e-01 5.45339305247053e-01 5.72019045510787e-03
9.04650000000000e-01 5.35983110111277e-01 5.65686494527465e-03
9.15750000000000e-01 5.26787435932961e-01 5.59381928451867e-03
9.26850000000000e-01 5.17749528710353e-01 5.53106983172903e-03
9.37950000000000e-01 5.08866681691146e-01 5.46863200298819e-03
9.49050000000000e-01 5.00136234561831e-01 5.40652031354083e-03
9.60150000000000e-01 4.91555572650963e-01 5.34474841777850e-03
9.71250000000000e-01 4.83122126146099e-01 5.28332914735092e-03
9.82350000000000e-01 4.74833369324168e-01 5.22227454750613e-03
9.93450000000000e-01 4.66686819795041e-01 5.16159591175556e-03
1.00455000000000e+00 4.58680037758087e-01 5.10130381495472e-03
1.01565000000000e+00 4.50810625271478e-01 5.04140814488271e-03
1.02675000000000e+00 4.43076225534033e-01 4.98191813239978e-03
1.03785000000000e+00 4.35474522179383e-01 4.92284238025678e-03
1.04895000000000e+00 4.28003238582241e-01 4.86418889062532e-03
1.06005000000000e+00 4.20660137176584e-01 4.80596509141449e-03
1.07115000000000e+00 4.13443018785524e-01 4.74817786143453e-03
1.08225000000000e+00 4.06349721962678e-01 4.69083355446481e-03
1.09335000000000e+00 3.99378122344842e-01 4.63393802228066e-03
1.10445000000000e+00 3.92526132015765e-01 4.57749663669002e-03
1.11555000000000e+00 3.85791698880843e-01 4.52151431062723e-03
1.12665000000000e+00 3.79172806052540e-01 4.46599551834924e-03
1.13775000000000e+00 3.72667471246349e-01 4.41094431477731e-03
1.14885000000000e+00 3.66273746187127e-01 4.35636435402465e-03
1.15995000000000e+00 3.59989716025600e-01 4.30225890714730e-03
1.17105000000000e+00 3.53813498764894e-01 4.24863087915423e-03
1.18215000000000e+00 3.47743244696895e-01 4.19548282531167e-03
1.19325000000000e+00 3.41777135848280e-01 4.14281696677288e-03
1.20435000000000e+00 3.35913385436058e-01 4.09063520556384e-03
1.21545000000000e+00 3.30150237332447e-01 4.03893913895445e-03
1.22655000000000e+00 3.24485965538934e-01 3.98773007324190e-03
1.23765000000000e+00 3.18918873669354e-01 3.93700903697229e-03
1.24875000000000e+00 3.13447294441848e-01 3.88677679362579e-03
1.25985000000000e+00 3.08069589179524e-01 3.83703385378776e-03
1.27095000000000e+00 3.02784147319696e-01 3.78778048682833e-03
1.28205000000000e+00 2.97589385931537e-01 3.73901673211212e-03
1.29315000000000e+00 2.92483749242009e-01 3.69074240975752e-03
1.30425000000000e+00 2.87465708169924e-01 3.64295713096480e-03
1.31535000000000e+00 2.82533759868006e-01 3.59566030793130e-03
1.32645000000000e+00 2.77686427272803e-01 3.54885116337091e-03
1.33755000000000e+00 2.72922258662319e-01 3.50252873965427e-03
1.34865000000000e+00 2.68239827221246e-01 3.45669190758565e-03
1.35975000000000e+00 2.63637730613645e-01 3.41133937483104e-03
1.37085000000000e+00 2.59114590562962e-01 3.36646969401209e-03
1.38195000000000e+00 2.54669052439250e-01 3.32208127047925e-03
1.39305000000000e+00 2.50299784853475e-01 3.27817236977734e-03
1.40415000000000e+00 2.46005479258776e-01 3.23474112481560e-03
1.41525000000000e+00 2.41784849558570e-01 3.19178554275435e-03
1.42635000000000e+00 2.37636631721384e-01 3.14930351161979e-03
1.43745000000000e+00 2.33559583402289e-01 3.10729280665698e-03
1.44855000000000e+00 2.29552483570831e-01 3.06575109643206e-03
1.45965000000000e+00 2.25614132145350e-01 3.02467594869329e-03
1.47075000000000e+00 2.21743349633562e-01 2.98406483600037e-03
1.48185000000000e+00 2.17938976779321e-01 2.94391514113121e-03
1.49295000000000e+00 2.14199874215431e-01 2.90422416227454e-03
1.50405000000000e+00 2.10524922122421e-01 2.86498911801714e-03
1.51515000000000e+00 2.06913019893167e-01 2.82620715213299e-03
1.52625000000000e+00 2.03363085803277e-01 2.78787533818240e-03
1.53735000000000e+00 1.99874056687124e-01 2.74999068392826e-03
1.54845000000000e+00 1.96444887619443e-01 2.71255013557657e-03
1.55955000000000e+00 1.93074551602381e-01 2.67555058184758e-03
1.57065000000000e+00 1.89762039257931e-01 2.63898885788425e-03
1.58175000000000e+00 1.86506358525628e-01 2.60286174900402e-03
1.59285000000000e+00 1.83306534365441e-01 2.56716599430024e-03
1.60395000000000e+00 1.80161608465759e-01 2.53189829009820e-03
1.61505000000000e+00 1.77070638956386e-01 2.49705529327176e-03
1.62615000000000e+00 1.74032700126464e-01 2.46263362442568e-03
1.63725000000000e+00 1.71046882147230e-01 2.42862987094855e-03
1.64835000000000e+00 1.68112290799536e-01 2.39504058994130e-03
1.65945000000000e+00 1.65228047206035e-01 2.36186231102579e-03
1.67055000000000e+00 1.62393287567973e-01 2.32909153903816e-03
1.68165000000000e+00 1.59607162906487e-01 2.29672475661077e-03
1.69275000000000e+00 1.56868838808347e-01 2.26475842664731e-03
1.70385000000000e+00 1.54177495176057e-01 2.23318899469500e-03
1.71495000000000e+00 1.51532325982249e-01 2.20201289121714e-03
1.72605000000000e+00 1.48932539028279e-01 2.17122653377052e-03
1.73715000000000e+00 1.46377355706981e-01 2.14082632909035e-03
1.74825000000000e+00 1.43866010769478e-01 2.11080867508671e-03
1.75935000000000e+00 1.41397752095999e-01 2.08116996275569e-03
1.77045000000000e+00 1.38971840470628e-01 2.05190657800791e-03
1.78155000000000e+00 1.36587549359918e-01 2.02301490341800e-03
1.79265000000000e+00 1.34244164695300e-01 1.99449131989774e-03
1.80375000000000e+00 1.31940984659231e-01 1.96633220829546e-03
1.81485000000000e+00 1.29677319475004e-01 1.93853395092463e-03
1.82595000000000e+00 1.27452491200169e-01 1.91109293302416e-03
1.83705000000000e+00 1.25265833523496e-01 1.88400554415307e-03
1.84815000000000e+00 1.23116691565425e-01 1.85726817952145e-03
1.85925000000000e+00 1.21004421681934e-01 1.83087724126067e-03
1.87035000000000e+00 1.18928391271775e-01 1.80482913963471e-03
1.88145000000000e+00 1.16887978587017e-01 1.77912029419465e-03
1.89255000000000e+00 1.14882572546843e-01 1.75374713487881e-03
1.90365000000000e+00 1.12911572554533e-01 1.72870610306018e-03
1.91475000000000e+00 1.10974388317595e-01 1.70399365254316e-03
1.92585000000000e+00 1.09070439670976e-01 1.67960625051158e-03
1.93695000000000e+00 1.07199156403315e-01 1.65554037842961e-03
1.94805000000000e+00 1.05359978086165e-01 1.63179253289759e-03
1.95915000000000e+00 1.03552353906153e-01 1.60835922646413e-03
1.97025000000000e+00 1.01775742500020e-01 1.58523698839614e-03
1.98135000000000e+00 1.00029611792483e-01 1.56242236540852e-03
1.99245000000000e+00 9.83134388368903e-02 1.53991192235486e-03
2.00355000000000e+00 9.66267096586028e-02 1.51770224288075e-03
2.01465000000000e+00 9.49689191010629e-02 1.49578993004083e-03
2.02575000000000e+00 9.33395706745070e-02 1.47417160688111e-03
2.03685000000000e+00 9.17381764072724e-02 1.45284391698781e-03
2.04795000000000e+00 9.01642566996548e-02 1.43180352500405e-03
2.05905000000000e+00 8.86173401802741e-02 1.41104711711554e-03
2.07015000000000e+00 8.70969635649033e-02 1.39057140150631e-03
2.08125000000000e+00 8.56026715177204e-02 1.37037310878578e-03
2.09235000000000e+00 8.41340165149405e-02 1.35044899238822e-03
2.10345000000000e+00 8.26905587107871e-02 1.33079582894558e-03
2.11455000000000e+00 8.12718658057634e-02 1.31141041863482e-03
2.12565000000000e+00 7.98775129171834e-02 1.29228958550055e-03
2.13675000000000e+00 7.85070824519245e-02 1.27343017775400e-03
2.14785000000000e+00 7.71601639813624e-02 1.25482906804938e-03
2.15895000000000e+00 7.58363541184531e-02 1.23648315373822e-03
2.17005000000000e+00 7.45352563969223e-02 1.21838935710278e-03
2.18115000000000e+00 7.32564811525287e-02 1.20054462556925e-03
2.19225000000000e+00 7.19996454063634e-02 1.18294593190141e-03
2.20335000000000e+00 7.07643727501526e-02 1.16559027437586e-03
2.21445000000000e+00 6.95502932335271e-02 1.14847467693921e-03
2.22555000000000e+00 6.83570432532261e-02 1.13159618934799e-03
2.23665000000000e+00 6.71842654442028e-02 1.11495188729219e-03
2.24775000000000e+00 6.60316085725969e-02 1.09853887250291e-03
2.25885000000000e+00 6.48987274305443e-02 1.08235427284476e-03
2.26995000000000e+00 6.37852827327910e-02 1.06639524239365e-03
2.28105000000000e+00 6.26909410150813e-02 1.05065896150065e-03
2.29215000000000e+00 6.16153745342884e-02 1.03514263684235e-03
2.30325000000000e+00 6.05582611702597e-02 1.01984350145846e-03
2.31435000000000e+00 5.95192843293448e-02 1.00475881477697e-03
2.32545000000000e+00 5.84981328495797e-02 9.89885862627581e-04
2.33655000000000e+00 5.74945009074967e-02 9.75221957243716e-04
2.34765000000000e+00 5.65080879265345e-02 9.60764437253802e-04
2.35875000000000e+00 5.55385984870179e-02 9.46510667662248e-04
2.36985000000000e+00 5.45857422376839e-02 9.32458039820338e-04
2.38095000000000e+00 5.36492338087240e-02 9.18603971387731e-04
2.39205000000000e+00 5.27287927263195e-02 9.04945906285022e-04
2.40315000000000e+00 5.18241433286424e-02 8.91481314637467e-04
2.41425000000000e+00 5.09350146832982e-02 8.78207692710513e-04
2.42535000000000e+00 5.00611405061843e-02 8.65122562837476e-04
2.43645000000000e+00 4.92022590817412e-02 8.52223473339675e-04
2.44755000000000e+00 4.83581131845712e-02 8.39507998439432e-04
2.45865000000000e+00 4.75284500024027e-02 8.26973738166195e-04
2.46975000000000e+00 4.67130210603754e-02 8.14618318256160e-04
2.48085000000000e+00 4.59115821466250e-02 8.02439390045712e-04
2.49195000000000e+00 4.51238932391448e-02 7.90434630359099e-04
2.50305000000000e+00 4.43497184339010e-02 7.78601741390352e-04
2.51415000000000e+00 4.35888258741828e-02 7.66938450579902e-04
2.52525000000000e+00 4.28409876811636e-02 7.55442510486350e-04
2.53635000000000e+00 4.21059798856539e-02 7.44111698653286e-04
2.54745000000000e+00 4.13835823610250e-02 7.32943817471684e-04
2.55855000000000e+00 4.06735787572835e-02 7.21936694038025e-04
2.56965000000000e+00 3.99757564362770e-02 7.11088180008339e-04
2.58075000000000e+00 3.92899064080113e-02 7.00396151448500e-04
2.59185000000000e+00 3.86158232680600e-02 6.89858508680902e-04
2.60295000000000e+00 3.79533051360486e-02 6.79473176127800e-04
2.61405000000000e+00 3.73021535951932e-02 6.69238102151454e-04
2.62515000000000e+00 3.66621736328773e-02 6.59151258891297e-04
2.63625000000000e+00 3.60331735822473e-02 6.49210642098364e-04
2.64735000000000e+00 3.54149650648104e-02 6.39414270967099e-04
2.65845000000000e+00 3.48073629340177e-02 6.29760187964705e-04
2.66955000000000e+00 3.42101852198147e-02 6.20246458658294e-04
2.68065000000000e+00 3.36232530741431e-02 6.10871171539940e-04
2.69175000000000e+00 3.30463907173783e-02 6.01632437849768e-04
2.70285000000000e+00 3.24794253856847e-02 5.92528391397280e-04
2.71395000000000e+00 3.19221872792754e-02 5.83557188381072e-04
2.72505000000000e+00 3.13745095115590e-02 5.74717007207022e-04
2.73615000000000e+00 3.08362280591585e-02 5.66006048305108e-04
2.74725000000000e+00 3.03071817127887e-02 5.57422533945030e-04
2.75835000000000e+00 2.97872120289753e-02 5.48964708050693e-04
2.76945000000000e+00 2.92761632826033e-02 5.40630836013728e-04
2.78055000000000e+00 2.87738824202788e-02 5.32419204506133e-04
2.79165000000000e+00 2.82802190144913e-02 5.24328121292139e-04
2.80275000000000e+00 2.77950252185622e-02 5.16355915039450e-04
2.81385000000000e+00 2.73181557223668e-02 5.08500935129908e-04
2.82495000000000e+00 2.68494677088149e-02 5.00761551469713e-04
2.83605000000000e+00 2.63888208110791e-02 4.93136154299268e-04
2.84715000000000e+00 2.59360770705566e-02 4.85623154002763e-04
2.85825000000000e+00 2.54911008955516e-02 4.78220980917592e-04
2.86935000000000e+00 2.50537590206678e-02 4.70928085143639e-04
2.88045000000000e+00 2.46239204668964e-02 4.63742936352575e-04
2.89155000000000e+00 2.42014565023894e-02 4.56664023597207e-04
2.90265000000000e+00 2.37862406039062e-02 4.49689855120890e-04
2.91375000000000e+00 2.33781484189208e-02 4.42818958167239e-04
2.92485000000000e+00 2.29770577283800e-02 4.36049878790067e-04
2.93595000000000e+00 2.25828484101000e-02 4.29381181663618e-04
2.94705000000000e+00 2.21954024027911e-02 4.22811449893227e-04
2.95815000000000e+00 2.18146036706998e-02 4.16339284826432e-04
2.96925000000000e+00 2.14403381688574e-02 4.09963305864573e-04
2.98035000000000e+00 2.10724938089244e-02 4.03682150274977e-04
2.99145000000000e+00 2.07109604256220e-02 3.97494473003725e-04
3.00255000000000e+00 2.03556297437382e-02 3.91398946489090e-04
3.01365000000000e+00 2.00063953457009e-02 3.85394260475693e-04
3.02475000000000e+00 1.96631526397069e-02 3.79479121829402e-04
3.03585000000000e+00 1.93257988283979e-02 3.73652254353012e-04
3.04695000000000e+00 1.89942328780739e-02 3.67912398602762e-04
3.05805000000000e+00 1.86683554884345e-02 3.62258311705740e-04
3.06915000000000e+00 1.83480690628399e-02 3.56688767178168e-04
3.08025000000000e+00 1.80332776790813e-02 3.51202554744652e-04
3.09135000000000e+00 1.77238870606539e-02 3.45798480158396e-04
3.10245000000000e+00 1.74198045485217e-02 3.40475365022403e-04
3.11355000000000e+00 1.71209390733672e-02 3.35232046611750e-04
3.12465000000000e+00 1.68272011283173e-02 3.30067377696892e-04
3.13575000000000e+00 1.65385027421370e-02 3.24980226368057e-04
3.14685000000000e+00 1.62547574528828e-02 3.19969475860762e-04
3.15795000000000e+00 1.59758802820084e-02 3.15034024382447e-04
3.16905000000000e+00 1.57017877089147e-02 3.10172784940283e-04
3.18015000000000e+00 1.54323976459362e-02 3.05384685170162e-04
3.19125000000000e+00 1.51676294137566e-02 3.00668667166866e-04
3.20235000000000e+00 1.49074037172465e-02 2.96023687315439e-04
3.21345000000000e+00 1.46516426217150e-02 2.91448716123827e-04
3.22455000000000e+00 1.44002695295694e-02 2.86942738056736e-04
3.23565000000000e+00 1.41532091573752e-02 2.82504751370732e-04
3.24675000000000e+00 1.39103875133093e-02 2.78133767950669e-04
3.25785000000000e+00 1.36717318750001e-02 2.73828813147358e-04
3.26895000000000e+00 1.34371707677486e-02 2.69588925616534e-04
3.28005000000000e+00 1.32066339431218e-02 2.65413157159155e-04
3.29115000000000e+00 1.29800523579147e-02 2.61300572562996e-04
3.30225000000000e+00 1.27573581534721e-02 2.57250249445565e-04
3.31335000000000e+00 1.25384846353661e-02 2.53261278098370e-04
3.32445000000000e+00 1.23233662534217e-02 2.49332761332513e-04
3.33555000000000e+00 1.21119385820852e-02 2.45463814325623e-04
3.34665000000000e+00 1.19041383011295e-02 2.41653564470139e-04
3.35775000000000e+00 1.16999031766904e-02 2.37901151222963e-04
3.36885000000000e+00 1.14991720426284e-02 2.34205725956455e-04
3.37995000000000e+00 1.13018847822100e-02 2.30566451810801e-04
3.39105000000000e+00 1.11079823101031e-02 2.26982503547730e-04
3.40215000000000e+00 1.09174065546824e-02 2.23453067405595e-04
3.41325000000000e+00 1.07301004406367e-02 2.19977340955848e-04
3.42435000000000e+00 1.05460078718760e-02 2.16554532960842e-04
3.43545000000000e+00 1.03650737147314e-02 2.13183863233029e-04
3.44655000000000e+00 1.01872437814427e-02 2.09864562495516e-04
3.45765000000000e+00 1.00124648139305e-02 2.06595872243978e-04
3.46875000000000e+00 9.84068446784525e-03 2.03377044609948e-04
3.47985000000000e+00 9.67185129689114e-03 2.00207342225457e-04
3.49095000000000e+00 9.50591473741843e-03 1.97086038089037e-04
3.50205000000000e+00 9.34282509328017e-03 1.94012415433094e-04
