################################
# DATA CONSIDERED FOR THE TESTS#
################################

# elastic momentum transfer constant rate coefficient = 1.000000e-12 (m3s-1)
#                                     gas temperature = 300.000000 (K)
#                           mass of the heavy species = 40.000000 (uam)
#               decades of decay ensured for the eedf = 15 
#                 number of cells for the energy grid = 6400 

E/N(Td)              Te_th(eV)            Te_sim(eV)           RelError(Te)         RelError(EEDF)
0.00000000000000e+00 2.58519910116516e-02 2.58512257008790e-02 2.96035524804126e-05 3.84437069391332e-05 
1.00000000000000e+00 3.01268347033801e-02 3.01259437189309e-02 2.95744461021822e-05 3.83679251584640e-05 
2.00000000000000e+00 4.29513657785653e-02 4.29500990889768e-02 2.94912528527298e-05 3.81517336442123e-05 
3.00000000000000e+00 6.43255842372075e-02 6.43236825889123e-02 2.95628608388148e-05 3.83423088344220e-05 
4.00000000000000e+00 9.42494900793065e-02 9.42466942089663e-02 2.96645672864884e-05 3.85968512799814e-05 
5.00000000000000e+00 1.32723083304862e-01 1.32719160328324e-01 2.95576055091579e-05 3.83259936455201e-05 
6.00000000000000e+00 1.79746363913875e-01 1.79741041397395e-01 2.96112609130593e-05 3.84633500595867e-05 
7.00000000000000e+00 2.35319331906345e-01 2.35312363633125e-01 2.96119879446517e-05 3.84699678823093e-05 
8.00000000000000e+00 2.99441987282271e-01 2.99433180032162e-01 2.94122083176212e-05 3.79536238230588e-05 
9.00000000000000e+00 3.72114330041654e-01 3.72103253171139e-01 2.97673849700287e-05 3.88747746728467e-05 
1.00000000000000e+01 4.53336360184494e-01 4.53322886529753e-01 2.97210987792021e-05 3.87464395747091e-05 
1.10000000000000e+01 5.43108077710791e-01 5.43091947625096e-01 2.96995871668827e-05 3.86942580032211e-05 
1.20000000000000e+01 6.41429482620545e-01 6.41410436986905e-01 2.96924824257683e-05 3.86723601146722e-05 
1.30000000000000e+01 7.48300574913756e-01 7.48278486341777e-01 2.95183148579882e-05 3.82259095672404e-05 
1.40000000000000e+01 8.63721354590423e-01 8.63695831969006e-01 2.95496010160573e-05 3.83075398022951e-05 
1.50000000000000e+01 9.87691821650547e-01 9.87662605302914e-01 2.95804288270776e-05 3.83868509535080e-05 
1.60000000000000e+01 1.12021197609413e+00 1.12017880686262e+00 2.96097811994943e-05 3.84654734116415e-05 
1.70000000000000e+01 1.26128181792117e+00 1.26124443755437e+00 2.96368077822789e-05 3.85303779819528e-05 
1.80000000000000e+01 1.41090134713166e+00 1.41085962687743e+00 2.95699301136881e-05 3.83605373811871e-05 
1.90000000000000e+01 1.56907056372561e+00 1.56902411373314e+00 2.96035076736301e-05 3.84506258111749e-05 
2.00000000000000e+01 1.73578946770302e+00 1.73573802811616e+00 2.96346923513228e-05 3.85248624537623e-05 
2.10000000000000e+01 1.91105805906389e+00 1.91100150247529e+00 2.95943853353463e-05 3.84198311709316e-05 
2.20000000000000e+01 2.09487633780821e+00 2.09481427307231e+00 2.96269210642153e-05 3.85046026539565e-05 
2.30000000000000e+01 2.28724430393599e+00 2.28717660367945e+00 2.95990491363404e-05 3.84319721092369e-05 
2.40000000000000e+01 2.48816195744723e+00 2.48808836123976e+00 2.95785438103542e-05 3.83824738738294e-05 
2.50000000000000e+01 2.69762929834192e+00 2.69754941737590e+00 2.96115430192547e-05 3.84645208666577e-05 
2.60000000000000e+01 2.91564632662007e+00 2.91555963642556e+00 2.97327538380617e-05 3.87809972544928e-05 
2.70000000000000e+01 3.14221304228167e+00 3.14211941539850e+00 2.97964784420978e-05 3.89478585444168e-05 
2.80000000000000e+01 3.37732944532674e+00 3.37722901880462e+00 2.97354829441473e-05 3.87881430911670e-05 
2.90000000000000e+01 3.62099553575526e+00 3.62088844599310e+00 2.95746738987790e-05 3.83685150340313e-05 
3.00000000000000e+01 3.87321131356724e+00 3.87309637773950e+00 2.96745564417439e-05 3.86288716853078e-05 
3.10000000000000e+01 4.13397677876267e+00 4.13385413337397e+00 2.96676530282335e-05 3.86108720235341e-05 
3.20000000000000e+01 4.40329193134156e+00 4.40316171275097e+00 2.95730086993562e-05 3.83641880868688e-05 
3.30000000000000e+01 4.68115677130391e+00 4.68101779693344e+00 2.96880402129068e-05 3.86640829776081e-05 
3.40000000000000e+01 4.96757129864971e+00 4.96742370487630e+00 2.97114554659310e-05 3.87252778999419e-05 
3.50000000000000e+01 5.26253551337897e+00 5.26237943696244e+00 2.96580262759730e-05 3.85856950286083e-05 
3.60000000000000e+01 5.56604941549169e+00 5.56588499248005e+00 2.95403434949198e-05 3.82792294338393e-05 
3.70000000000000e+01 5.87811300498787e+00 5.87793905316317e+00 2.95931406131505e-05 3.84165540044250e-05 
3.80000000000000e+01 6.19872628186750e+00 6.19854293751506e+00 2.95777461534375e-05 3.83765057973000e-05 
3.90000000000000e+01 6.52788924613059e+00 6.52769664523218e+00 2.95043146638435e-05 3.81856438249152e-05 
4.00000000000000e+01 6.86560189777713e+00 6.86539885849346e+00 2.95734134743371e-05 3.83652312271744e-05 
4.10000000000000e+01 7.21186423680714e+00 7.21165089564829e+00 2.95819710191694e-05 3.83875854941411e-05 
4.20000000000000e+01 7.56667626322060e+00 7.56645275588998e+00 2.95383762754599e-05 3.82741308916972e-05 
4.30000000000000e+01 7.93003797701751e+00 7.92980312170044e+00 2.96159132849740e-05 3.84759276448313e-05 
4.40000000000000e+01 8.30194937819788e+00 8.30170331093854e+00 2.96396964293772e-05 3.85379049732017e-05 
4.50000000000000e+01 8.68241046676172e+00 8.68215332410467e+00 2.96165054661663e-05 3.84774538772979e-05 
4.60000000000000e+01 9.07142124270900e+00 9.07115316102928e+00 2.95523350253840e-05 3.83104016068754e-05 
4.70000000000000e+01 9.46898170603975e+00 9.46870150277852e+00 2.95916995009159e-05 3.84129116564512e-05 
4.80000000000000e+01 9.87509185675395e+00 9.87479966829727e+00 2.95884292436165e-05 3.84042553619356e-05 
4.90000000000000e+01 1.02897516948516e+01 1.02894476574229e+01 2.95475962606462e-05 3.82981224421027e-05 
5.00000000000000e+01 1.07129612203327e+01 1.07126441519661e+01 2.95967062789780e-05 3.84258716213303e-05 
