Energy (eV)          EEDF (eV^-(3/2))     First Anisotropy
5.28571428571429e-02 3.20202025295948e-02 2.02779745019873e-05
1.58571428571429e-01 3.17057821353961e-02 3.34326931077389e-05
2.64285714285714e-01 3.13944491745992e-02 4.39973843630470e-05
3.70000000000000e-01 3.10861733281489e-02 5.19402358926882e-05
4.75714285714286e-01 3.07809245770142e-02 5.84961543932843e-05
5.81428571428571e-01 3.04786731968982e-02 6.41340949614857e-05
6.87142857142857e-01 3.01793897558692e-02 6.90977557323422e-05
7.92857142857143e-01 2.98830451099081e-02 7.35348976764082e-05
8.98571428571429e-01 2.95896104017096e-02 7.75439112206942e-05
1.00428571428571e+00 2.92990570576578e-02 8.11946125294324e-05
1.11000000000000e+00 2.90113567831924e-02 8.45388858055743e-05
1.21571428571429e+00 2.87264815652145e-02 8.76166731316926e-05
1.32142857142857e+00 2.84444036607840e-02 9.04595908455321e-05
1.42714285714286e+00 2.81650956039956e-02 9.30932360756971e-05
1.53285714285714e+00 2.78885301945302e-02 9.55387234951475e-05
1.63857142857143e+00 2.76146805011766e-02 9.78137454695748e-05
1.74428571428571e+00 2.73435198588933e-02 9.99333276474559e-05
1.85000000000000e+00 2.70750218610587e-02 1.01910378965641e-04
1.95571428571429e+00 2.68091603634853e-02 1.03756102337535e-04
2.06142857142857e+00 2.65459094758244e-02 1.05480306784936e-04
2.16714285714286e+00 2.62852435646270e-02 1.07091648534392e-04
2.27285714285714e+00 2.60271372456723e-02 1.08597820333601e-04
2.37857142857143e+00 2.57715653852246e-02 1.10005701252599e-04
2.48428571428571e+00 2.55185030974368e-02 1.11321478290684e-04
2.59000000000000e+00 2.52679257386567e-02 1.12550744170113e-04
2.69571428571429e+00 2.50198089092579e-02 1.13698578059318e-04
2.80142857142857e+00 2.47741284472879e-02 1.14769612394464e-04
2.90714285714286e+00 2.45308604298603e-02 1.15768088584793e-04
3.01285714285714e+00 2.42899811672894e-02 1.16697904031015e-04
3.11857142857143e+00 2.40514672033580e-02 1.17562651422369e-04
3.22428571428571e+00 2.38152953129454e-02 1.18365653166210e-04
3.33000000000000e+00 2.35814424974528e-02 1.19109990028027e-04
3.43571428571429e+00 2.33498859855753e-02 1.19798526214644e-04
3.54142857142857e+00 2.31206032282198e-02 1.20433931080934e-04
3.64714285714286e+00 2.28935718990382e-02 1.21018697973822e-04
3.75285714285714e+00 2.26687698896499e-02 1.21555160846778e-04
3.85857142857143e+00 2.24461753093963e-02 1.22045508420399e-04
3.96428571428571e+00 2.22257664831506e-02 1.22491797460767e-04
4.07000000000000e+00 2.20075219474687e-02 1.22895963785783e-04
4.17571428571429e+00 2.17914204507723e-02 1.23259832382945e-04
4.28142857142857e+00 2.15774409491010e-02 1.23585126398081e-04
4.38714285714286e+00 2.13655626061525e-02 1.23873475129860e-04
4.49285714285714e+00 2.11557647892476e-02 1.24126421309357e-04
4.59857142857143e+00 2.09480270687961e-02 1.24345427280332e-04
4.70428571428571e+00 2.07423292162660e-02 1.24531881251658e-04
4.81000000000000e+00 2.05386512008562e-02 1.24687102305754e-04
4.91571428571429e+00 2.03369731893257e-02 1.24812345235998e-04
5.02142857142857e+00 2.01372755423476e-02 1.24908804913631e-04
5.12714285714286e+00 1.99395388142498e-02 1.24977620230415e-04
5.23285714285714e+00 1.97437437495265e-02 1.25019877789414e-04
5.33857142857143e+00 1.95498712821395e-02 1.25036614963847e-04
5.44428571428571e+00 1.93579025336301e-02 1.25028823289195e-04
5.55000000000000e+00 1.91678188101914e-02 1.24997451014548e-04
5.65571428571429e+00 1.89796016022793e-02 1.24943405710664e-04
5.76142857142857e+00 1.87932325814261e-02 1.24867556646047e-04
5.86714285714286e+00 1.86086935997946e-02 1.24770736951865e-04
5.97285714285714e+00 1.84259666871148e-02 1.24653745702467e-04
6.07857142857143e+00 1.82450340498917e-02 1.24517349565776e-04
6.18428571428571e+00 1.80658780696487e-02 1.24362284849846e-04
6.29000000000000e+00 1.78884813003196e-02 1.24189258908188e-04
6.39571428571429e+00 1.77128264677240e-02 1.23998951677701e-04
6.50142857142857e+00 1.75388964667466e-02 1.23792017085628e-04
6.60714285714286e+00 1.73666743607757e-02 1.23569084337798e-04
6.71285714285714e+00 1.71961433789826e-02 1.23330759189834e-04
6.81857142857143e+00 1.70272869154813e-02 1.23077624892859e-04
6.92428571428571e+00 1.68600885276923e-02 1.22810243533854e-04
7.03000000000000e+00 1.66945319340003e-02 1.22529156853154e-04
7.13571428571429e+00 1.65306010131451e-02 1.22234887216500e-04
7.24142857142857e+00 1.63682798017028e-02 1.21927938504432e-04
7.34714285714286e+00 1.62075524934542e-02 1.21608796928080e-04
7.45285714285714e+00 1.60484034369477e-02 1.21277931856569e-04
7.55857142857143e+00 1.58908171346408e-02 1.20935796381666e-04
7.66428571428571e+00 1.57347782413749e-02 1.20582828254034e-04
7.77000000000000e+00 1.55802715622575e-02 1.20219450376735e-04
7.87571428571429e+00 1.54272820520055e-02 1.19846071454458e-04
7.98142857142857e+00 1.52757948126786e-02 1.19463086585652e-04
8.08714285714286e+00 1.51257950930089e-02 1.19070877805282e-04
8.19285714285714e+00 1.49772682862049e-02 1.18669814651356e-04
8.29857142857143e+00 1.48301999290918e-02 1.18260254510892e-04
8.40428571428571e+00 1.46845757006913e-02 1.17842543308068e-04
8.51000000000000e+00 1.45403814202966e-02 1.17417015808931e-04
8.61571428571429e+00 1.43976030467908e-02 1.16983996074797e-04
8.72142857142857e+00 1.42562266765983e-02 1.16543797873356e-04
8.82714285714286e+00 1.41162385429952e-02 1.16096725054498e-04
8.93285714285714e+00 1.39776250141207e-02 1.15643071954565e-04
9.03857142857143e+00 1.38403725921304e-02 1.15183123610840e-04
9.14428571428572e+00 1.37044679118720e-02 1.14717156288158e-04
9.25000000000000e+00 1.35698977391295e-02 1.14245437668773e-04
9.35571428571429e+00 1.34366489699344e-02 1.13768227180797e-04
9.46142857142857e+00 1.33047086287038e-02 1.13285776293617e-04
9.56714285714286e+00 1.31740638675489e-02 1.12798328786774e-04
9.67285714285714e+00 1.30447019644656e-02 1.12306121048367e-04
9.77857142857143e+00 1.29166103225100e-02 1.11809382207660e-04
9.88428571428572e+00 1.27897764685629e-02 1.11308334551179e-04
9.99000000000000e+00 1.26641880517240e-02 1.10803193533193e-04
1.00957142857143e+01 1.25398328431140e-02 1.10294168371222e-04
1.02014285714286e+01 1.24166987325811e-02 1.09781462019467e-04
1.03071428571429e+01 1.22947737296357e-02 1.09265271067534e-04
1.04128571428571e+01 1.21740459615274e-02 1.08745786408180e-04
1.05185714285714e+01 1.20545036720873e-02 1.08223193255619e-04
1.06242857142857e+01 1.19361352205874e-02 1.07697671325679e-04
1.07300000000000e+01 1.18189290806053e-02 1.07169394766751e-04
1.08357142857143e+01 1.17028738399705e-02 1.06638533060896e-04
1.09414285714286e+01 1.15879581964160e-02 1.06105250691066e-04
1.10471428571429e+01 1.14741709597448e-02 1.05569706793810e-04
1.11528571428571e+01 1.13615010496412e-02 1.05032056063555e-04
1.12585714285714e+01 1.12499374945897e-02 1.04492448640428e-04
1.13642857142857e+01 1.11394694308112e-02 1.03951030247612e-04
1.14700000000000e+01 1.10300861012020e-02 1.03407942105018e-04
1.15757142857143e+01 1.09217768552216e-02 1.02863321720079e-04
1.16814285714286e+01 1.08145311450273e-02 1.02317302565987e-04
1.17871428571429e+01 1.07083385273005e-02 1.01770013747838e-04
1.18928571428571e+01 1.06031886612698e-02 1.01221580799547e-04
1.19985714285714e+01 1.04990713077028e-02 1.00672125564390e-04
1.21042857142857e+01 1.03959763279118e-02 1.00121766301631e-04
1.22100000000000e+01 1.02938936827655e-02 9.95706175916207e-05
1.23157142857143e+01 1.01928134325301e-02 9.90187910352519e-05
1.24214285714286e+01 1.00927257334224e-02 9.84663949478279e-05
1.25271428571429e+01 9.99362083915245e-03 9.79135340426721e-05
1.26328571428571e+01 9.89548909913330e-03 9.73603101382474e-05
1.27385714285714e+01 9.79832095753976e-03 9.68068220371370e-05
1.28442857142857e+01 9.70210695238080e-03 9.62531656100873e-05
1.29500000000000e+01 9.60683771457671e-03 9.56994336979782e-05
1.30557142857143e+01 9.51250396776756e-03 9.51457167342686e-05
1.31614285714286e+01 9.41909652522866e-03 9.45921024566990e-05
1.32671428571429e+01 9.32660629117636e-03 9.40386756101759e-05
1.33728571428571e+01 9.23502425914237e-03 9.34855185776060e-05
1.34785714285714e+01 9.14434151109561e-03 9.29327112607943e-05
1.35842857142857e+01 9.05454921657612e-03 9.23803311475640e-05
1.36900000000000e+01 8.96563863183401e-03 9.18284532139594e-05
1.37957142857143e+01 8.87760109961446e-03 9.12771504808719e-05
1.39014285714286e+01 8.79042804638894e-03 9.07264937443749e-05
1.40071428571429e+01 8.70411098346274e-03 9.01765512983477e-05
1.41128571428571e+01 8.61864150549528e-03 8.96273894996988e-05
1.42185714285714e+01 8.53401128968065e-03 8.90790726532851e-05
1.43242857142857e+01 8.45021209493911e-03 8.85316630661025e-05
1.44300000000000e+01 8.36723576111363e-03 8.79852209518179e-05
1.45357142857143e+01 8.28507420873884e-03 8.74398049305180e-05
1.46414285714286e+01 8.20371943654915e-03 8.68954717775905e-05
1.47471428571429e+01 8.12316352241932e-03 8.63522761658123e-05
1.48528571428571e+01 8.04339862201483e-03 8.58102711736084e-05
1.49585714285714e+01 7.96441696802725e-03 8.52695081751724e-05
1.50642857142857e+01 7.88621086941950e-03 8.47300368846333e-05
1.51700000000000e+01 7.80877271067610e-03 8.41919052641879e-05
1.52757142857143e+01 7.73209495156199e-03 8.36551599742375e-05
1.53814285714286e+01 7.65617012487447e-03 8.31198461402692e-05
1.54871428571429e+01 7.58099083724267e-03 8.25860071136920e-05
1.55928571428571e+01 7.50654976789437e-03 8.20536849302179e-05
1.56985714285714e+01 7.43283966794250e-03 8.15229202058260e-05
1.58042857142857e+01 7.35985335968062e-03 8.09937521730510e-05
1.59100000000000e+01 7.28758373588328e-03 8.04662185934302e-05
1.60157142857143e+01 7.21602375955926e-03 7.99403561640640e-05
1.61214285714286e+01 7.14516646191923e-03 7.94162003016576e-05
1.62271428571429e+01 7.07500494305552e-03 7.88937849211688e-05
1.63328571428571e+01 7.00553237081361e-03 7.83731428502453e-05
1.64385714285714e+01 6.93674198012627e-03 7.78543057312652e-05
1.65442857142857e+01 6.86862707235597e-03 7.73373040513744e-05
1.66500000000000e+01 6.80118101464199e-03 7.68221670596296e-05
1.67557142857143e+01 6.73439723965170e-03 7.63089231350353e-05
1.68614285714286e+01 6.66826924373971e-03 7.57975995867852e-05
1.69671428571429e+01 6.60279058752586e-03 7.52882224496507e-05
1.70728571428571e+01 6.53795489486104e-03 7.47808168594771e-05
1.71785714285714e+01 6.47375585220578e-03 7.42754069613542e-05
1.72842857142857e+01 6.41018720801649e-03 7.37720159346112e-05
1.73900000000000e+01 6.34724277213620e-03 7.32706659147964e-05
1.74957142857143e+01 6.28491641554668e-03 7.27713783275145e-05
1.76014285714286e+01 6.22320206869814e-03 7.22741737038245e-05
1.77071428571429e+01 6.16209372200049e-03 7.17790714912639e-05
1.78128571428571e+01 6.10158542487439e-03 7.12860903946885e-05
1.79185714285714e+01 6.04167128517138e-03 7.07952482904580e-05
1.80242857142857e+01 5.98234546860100e-03 7.03065622473482e-05
1.81300000000000e+01 5.92360219816219e-03 6.98200484533472e-05
1.82357142857143e+01 5.86543575389852e-03 6.93357225189729e-05
1.83414285714286e+01 5.80784047138020e-03 6.88535993068146e-05
1.84471428571429e+01 5.75081074212132e-03 6.83736927570906e-05
1.85528571428571e+01 5.69434101270809e-03 6.78960161975219e-05
1.86585714285714e+01 5.63842578425775e-03 6.74205822633303e-05
1.87642857142857e+01 5.58305961188379e-03 6.69474029147995e-05
1.88700000000000e+01 5.52823710416543e-03 6.64764893687786e-05
1.89757142857143e+01 5.47395292290748e-03 6.60078523746986e-05
1.90814285714286e+01 5.42020178175890e-03 6.55415020572183e-05
1.91871428571429e+01 5.36697844656666e-03 6.50774477552772e-05
1.92928571428571e+01 5.31427773457410e-03 6.46156983042148e-05
1.93985714285714e+01 5.26209451391602e-03 6.41562619612811e-05
1.95042857142857e+01 5.21042370311951e-03 6.36991464204601e-05
1.96100000000000e+01 5.15926027060885e-03 6.32443587485147e-05
1.97157142857143e+01 5.10859923447148e-03 6.27919056364831e-05
1.98214285714286e+01 5.05843566119893e-03 6.23417932544696e-05
1.99271428571429e+01 5.00876466598657e-03 6.18940271031566e-05
2.00328571428571e+01 4.95958141199578e-03 6.14486122709880e-05
2.01385714285714e+01 4.91088110988264e-03 6.10055533649165e-05
2.02442857142857e+01 4.86265901733220e-03 6.05648545229325e-05
2.03500000000000e+01 4.81491043859632e-03 6.01265193544598e-05
2.04557142857143e+01 4.76763072426662e-03 5.96905511697686e-05
2.05614285714286e+01 4.72081527012575e-03 5.92569528459917e-05
2.06671428571429e+01 4.67445951740056e-03 5.88257266901595e-05
2.07728571428571e+01 4.62855895208248e-03 5.83968746738930e-05
2.08785714285714e+01 4.58310910448768e-03 5.79703983690881e-05
2.09842857142857e+01 4.53810554882237e-03 5.75462989585370e-05
2.10900000000000e+01 4.49354390275152e-03 5.71245771804333e-05
2.11957142857143e+01 4.44941982717944e-03 5.67052335378724e-05
2.13014285714286e+01 4.40572902520047e-03 5.62882681752265e-05
2.14071428571429e+01 4.36246724231233e-03 5.58736807518012e-05
2.15128571428571e+01 4.31963026578951e-03 5.54614706562248e-05
2.16185714285714e+01 4.27721392427288e-03 5.50516369467647e-05
2.17242857142857e+01 4.23521408736392e-03 5.46441783603450e-05
2.18300000000000e+01 4.19362666522224e-03 5.42390932609233e-05
2.19357142857143e+01 4.15244760835433e-03 5.38363798309914e-05
2.20414285714286e+01 4.11167290665400e-03 5.34360359575005e-05
2.21471428571429e+01 4.07129858958157e-03 5.30380591153137e-05
2.22528571428571e+01 4.03132072558577e-03 5.26424465632340e-05
2.23585714285714e+01 3.99173542172076e-03 5.22491952886308e-05
2.24642857142857e+01 3.95253882326742e-03 5.18583020151119e-05
2.25700000000000e+01 3.91372711335779e-03 5.14697631545475e-05
2.26757142857143e+01 3.87529651277210e-03 5.10835749822490e-05
2.27814285714286e+01 3.83724327906067e-03 5.06997335317145e-05
2.28871428571429e+01 3.79956370669357e-03 5.03182344871018e-05
2.29928571428571e+01 3.76225412652711e-03 4.99390733626077e-05
2.30985714285714e+01 3.72531090544631e-03 4.95622454511250e-05
2.32042857142857e+01 3.68873044601152e-03 4.91877458307682e-05
2.33100000000000e+01 3.65250918610789e-03 4.88155693203142e-05
2.34157142857143e+01 3.61664359875099e-03 4.84457106395795e-05
2.35214285714286e+01 3.58113019128242e-03 4.80781643122859e-05
2.36271428571429e+01 3.54596550549423e-03 4.77129245668488e-05
2.37328571428571e+01 3.51114611713612e-03 4.73499855006334e-05
2.38385714285714e+01 3.47666863558184e-03 4.69893410323741e-05
2.39442857142857e+01 3.44252970349934e-03 4.66309849077271e-05
2.40500000000000e+01 3.40872599652363e-03 4.62749106578923e-05
2.41557142857143e+01 3.37525422307106e-03 4.59211117465532e-05
2.42614285714286e+01 3.34211112360178e-03 4.55695814802182e-05
2.43671428571429e+01 3.30929347072256e-03 4.52203129166633e-05
2.44728571428571e+01 3.27679806873134e-03 4.48732990154593e-05
2.45785714285714e+01 3.24462175330591e-03 4.45285325938731e-05
2.46842857142857e+01 3.21276139119608e-03 4.41860063315916e-05
2.47900000000000e+01 3.18121387991835e-03 4.38457127323129e-05
2.48957142857143e+01 3.14997614757878e-03 4.35076442584646e-05
2.50014285714286e+01 3.11904515219625e-03 4.31717932484313e-05
2.51071428571429e+01 3.08841788178675e-03 4.28381518320466e-05
2.52128571428571e+01 3.05809135394224e-03 4.25067120686233e-05
2.53185714285714e+01 3.02806261554011e-03 4.21774659060843e-05
2.54242857142857e+01 2.99832874245589e-03 4.18504051849890e-05
2.55300000000000e+01 2.96888683927833e-03 4.15255216028871e-05
2.56357142857143e+01 2.93973403914066e-03 4.12028068378945e-05
2.57414285714286e+01 2.91086750309931e-03 4.08822524722799e-05
2.58471428571429e+01 2.88228442020220e-03 4.05638499144417e-05
2.59528571428571e+01 2.85398200709918e-03 4.02475905255496e-05
2.60585714285714e+01 2.82595750777096e-03 3.99334655816800e-05
2.61642857142857e+01 2.79820819326090e-03 3.96214662772384e-05
2.62700000000000e+01 2.77073136140914e-03 3.93115836918871e-05
2.63757142857143e+01 2.74352433669219e-03 3.90038089039627e-05
2.64814285714286e+01 2.71658446965203e-03 3.86981329199133e-05
2.65871428571429e+01 2.68990913695084e-03 3.83945466022571e-05
2.66928571428571e+01 2.66349574101047e-03 3.80930407858412e-05
2.67985714285714e+01 2.63734170975945e-03 3.77936062427547e-05
2.69042857142857e+01 2.61144449638268e-03 3.74962336852301e-05
2.70100000000000e+01 2.58580157907335e-03 3.72009137349667e-05
2.71157142857143e+01 2.56041046088054e-03 3.69076370272841e-05
2.72214285714286e+01 2.53526866918442e-03 3.66163941459456e-05
2.73271428571429e+01 2.51037375573928e-03 3.63271755566260e-05
2.74328571428571e+01 2.48572329633981e-03 3.60399717136877e-05
2.75385714285714e+01 2.46131489058495e-03 3.57547730276731e-05
2.76442857142857e+01 2.43714616164429e-03 3.54715698677655e-05
2.77500000000000e+01 2.41321475602655e-03 3.51903525333283e-05
2.78557142857143e+01 2.38951834343505e-03 3.49111113495966e-05
2.79614285714286e+01 2.36605461628495e-03 3.46338366074656e-05
2.80671428571429e+01 2.34282128973632e-03 3.43585185020335e-05
2.81728571428571e+01 2.31981610138505e-03 3.40851472307202e-05
2.82785714285714e+01 2.29703681104253e-03 3.38137129631465e-05
2.83842857142857e+01 2.27448120051757e-03 3.35442058432054e-05
2.84900000000000e+01 2.25214707340039e-03 3.32766159626693e-05
2.85957142857143e+01 2.23003225492563e-03 3.30109334491475e-05
2.87014285714286e+01 2.20813459152806e-03 3.27471484104463e-05
2.88071428571429e+01 2.18645195086716e-03 3.24852508777920e-05
2.89128571428571e+01 2.16498222154079e-03 3.22252308960262e-05
2.90185714285714e+01 2.14372331287954e-03 3.19670784956977e-05
2.91242857142857e+01 2.12267315474324e-03 3.17107836948129e-05
2.92300000000000e+01 2.10182969731933e-03 3.14563364743438e-05
2.93357142857143e+01 2.08119091099326e-03 3.12037268591141e-05
2.94414285714286e+01 2.06075478593924e-03 3.09529448663777e-05
2.95471428571429e+01 2.04051933213776e-03 3.07039804533503e-05
2.96528571428571e+01 2.02048257911017e-03 3.04568236001636e-05
2.97585714285714e+01 2.00064257572675e-03 3.02114642840045e-05
2.98642857142857e+01 1.98099739001681e-03 2.99678924805761e-05
2.99700000000000e+01 1.96154510898055e-03 2.97260981413825e-05
3.00757142857143e+01 1.94228383846645e-03 2.94860712681371e-05
3.01814285714286e+01 1.92321170279424e-03 2.92478018652312e-05
3.02871428571429e+01 1.90432684476633e-03 2.90112798912415e-05
3.03928571428571e+01 1.88562742542174e-03 2.87764953352464e-05
3.04985714285714e+01 1.86711162385700e-03 2.85434381928616e-05
3.06042857142857e+01 1.84877763704896e-03 2.83120984674576e-05
3.07100000000000e+01 1.83062367967909e-03 2.80824661490890e-05
3.08157142857143e+01 1.81264798401775e-03 2.78545312829691e-05
3.09214285714286e+01 1.79484879957661e-03 2.76282839255269e-05
3.10271428571429e+01 1.77722439311491e-03 2.74037140995770e-05
3.11328571428571e+01 1.75977304841133e-03 2.71808118645593e-05
3.12385714285714e+01 1.74249306609685e-03 2.69595672943281e-05
3.13442857142857e+01 1.72538276348932e-03 2.67399704781593e-05
3.14500000000000e+01 1.70844047442958e-03 2.65220115012046e-05
3.15557142857143e+01 1.69166454917211e-03 2.63056805075301e-05
3.16614285714286e+01 1.67505335406452e-03 2.60909676594804e-05
3.17671428571429e+01 1.65860527154952e-03 2.58778630962254e-05
3.18728571428571e+01 1.64231869995332e-03 2.56663569984306e-05
3.19785714285714e+01 1.62619205332963e-03 2.54564395676715e-05
3.20842857142857e+01 1.61022376130527e-03 2.52481010272607e-05
3.21900000000000e+01 1.59441226892728e-03 2.50413316041128e-05
3.22957142857143e+01 1.57875603655965e-03 2.48361215867956e-05
3.24014285714286e+01 1.56325353958769e-03 2.46324612879466e-05
3.25071428571429e+01 1.54790326841640e-03 2.44303410059394e-05
3.26128571428571e+01 1.53270372827416e-03 2.42297510844458e-05
3.27185714285714e+01 1.51765343906710e-03 2.40306818933494e-05
3.28242857142857e+01 1.50275093523511e-03 2.38331238294180e-05
3.29300000000000e+01 1.48799476560903e-03 2.36370672994799e-05
3.30357142857143e+01 1.47338349331334e-03 2.34425027738977e-05
3.31414285714286e+01 1.45891569549333e-03 2.32494207518051e-05
3.32471428571429e+01 1.44458996331044e-03 2.30578117256469e-05
3.33528571428571e+01 1.43040490176012e-03 2.28676662360492e-05
