Energy (eV)          EEDF (eV^-(3/2))     First Anisotropy
3.95652173913043e-02 9.27587258858519e-02 7.22366041293093e-05
1.18695652173913e-01 9.13743617092783e-02 1.18792410002901e-04
1.97826086956522e-01 9.00106582698619e-02 1.55524700993001e-04
2.76956521739130e-01 8.86673072327119e-02 1.82655022505076e-04
3.56086956521739e-01 8.73440048425392e-02 2.04649271005609e-04
4.35217391304348e-01 8.60404518865307e-02 2.23216884223994e-04
5.14347826086957e-01 8.47563536173060e-02 2.39252893147163e-04
5.93478260869565e-01 8.34914196887117e-02 2.53303933295731e-04
6.72608695652174e-01 8.22453640829024e-02 2.65736572304681e-04
7.51739130434783e-01 8.10179050531981e-02 2.76812708520905e-04
8.30869565217391e-01 7.98087650577340e-02 2.86728271172021e-04
9.10000000000000e-01 7.86176706968040e-02 2.95635062451750e-04
9.89130434782609e-01 7.74443526522493e-02 3.03653985420031e-04
1.06826086956522e+00 7.62885456248239e-02 3.10883504798219e-04
1.14739130434783e+00 7.51499882665089e-02 3.17405297468445e-04
1.22652173913043e+00 7.40284231474732e-02 3.23288168456977e-04
1.30565217391304e+00 7.29235966599978e-02 3.28590842524438e-04
1.38478260869565e+00 7.18352589996360e-02 3.33364007684379e-04
1.46391304347826e+00 7.07631640730955e-02 3.37651844116216e-04
1.54304347826087e+00 6.97070694756979e-02 3.41493189238765e-04
1.62217391304348e+00 6.86667364057169e-02 3.44922441395675e-04
1.70130434782609e+00 6.76419296392211e-02 3.47970270414595e-04
1.78043478260870e+00 6.66324174498610e-02 3.50664184561516e-04
1.85956521739130e+00 6.56379715818622e-02 3.53028987103357e-04
1.93869565217391e+00 6.46583671796196e-02 3.55087151231739e-04
2.01782608695652e+00 6.36933827388842e-02 3.56859124256854e-04
2.09695652173913e+00 6.27428000708803e-02 3.58363584624615e-04
2.17608695652174e+00 6.18064042339756e-02 3.59617655323194e-04
2.25521739130435e+00 6.08839835031330e-02 3.60637084140346e-04
2.33434782608696e+00 5.99753293048603e-02 3.61436397144027e-04
2.41347826086957e+00 5.90802361864133e-02 3.62029029693606e-04
2.49260869565217e+00 5.81985017537352e-02 3.62427439433025e-04
2.57173913043478e+00 5.73299266405912e-02 3.62643203808018e-04
2.65086956521739e+00 5.64743144492541e-02 3.62687105125459e-04
2.73000000000000e+00 5.56314717197112e-02 3.62569204658976e-04
2.80913043478261e+00 5.48012078728897e-02 3.62298907937498e-04
2.88826086956522e+00 5.39833351800478e-02 3.61885022091812e-04
2.96739130434783e+00 5.31776687083603e-02 3.61335806833325e-04
3.04652173913043e+00 5.23840262905839e-02 3.60659019549400e-04
3.12565217391304e+00 5.16022284728457e-02 3.59861955717951e-04
3.20478260869565e+00 5.08320984846542e-02 3.58951484878533e-04
3.28391304347826e+00 5.00734621887532e-02 3.57934083109393e-04
3.36304347826087e+00 4.93261480515345e-02 3.56815862089119e-04
3.44217391304348e+00 4.85899870948343e-02 3.55602595514661e-04
3.52130434782609e+00 4.78648128667935e-02 3.54299742851865e-04
3.60043478260870e+00 4.71504613954856e-02 3.52912471062012e-04
3.67956521739130e+00 4.64467711602597e-02 3.51445673985850e-04
3.75869565217391e+00 4.57535830489443e-02 3.49903991307666e-04
3.83782608695652e+00 4.50707403222999e-02 3.48291823539601e-04
3.91695652173913e+00 4.43980885838878e-02 3.46613348001363e-04
3.99608695652174e+00 4.37354757380876e-02 3.44872532457026e-04
4.07521739130435e+00 4.30827519625415e-02 3.43073147758595e-04
4.15434782608696e+00 4.24397696676698e-02 3.41218779627919e-04
4.23347826086957e+00 4.18063834696906e-02 3.39312839409341e-04
4.31260869565217e+00 4.11824501515632e-02 3.37358574137213e-04
4.39173913043478e+00 4.05678286365899e-02 3.35359075743248e-04
4.47086956521739e+00 3.99623799507233e-02 3.33317289716180e-04
4.55000000000000e+00 3.93659671967530e-02 3.31236023035683e-04
4.62913043478261e+00 3.87784555179175e-02 3.29117951666520e-04
4.70826086956522e+00 3.81997120726770e-02 3.26965627434862e-04
4.78739130434783e+00 3.76296059995731e-02 3.24781484550303e-04
4.86652173913043e+00 3.70680083925872e-02 3.22567845597418e-04
4.94565217391304e+00 3.65147922671960e-02 3.20326927241254e-04
5.02478260869565e+00 3.59698325363116e-02 3.18060845473791e-04
5.10391304347826e+00 3.54330059774843e-02 3.15771620629048e-04
5.18304347826087e+00 3.49041912094210e-02 3.13461181998144e-04
5.26217391304348e+00 3.43832686602876e-02 3.11131372257167e-04
5.34130434782609e+00 3.38701205448004e-02 3.08783951543945e-04
5.42043478260870e+00 3.33646308335855e-02 3.06420601383596e-04
5.49956521739130e+00 3.28666852308358e-02 3.04042928171588e-04
5.57869565217391e+00 3.23761711455616e-02 3.01652467198823e-04
5.65782608695652e+00 3.18929776662913e-02 2.99250685078556e-04
5.73695652173913e+00 3.14169955385438e-02 2.96838983363915e-04
5.81608695652174e+00 3.09481171367295e-02 2.94418701354261e-04
5.89521739130435e+00 3.04862364431168e-02 2.91991118815510e-04
5.97434782608696e+00 3.00312490206488e-02 2.89557458628518e-04
6.05347826086957e+00 2.95830519924532e-02 2.87118889229850e-04
6.13260869565217e+00 2.91415440155412e-02 2.84676526995615e-04
6.21173913043478e+00 2.87066252608499e-02 2.82231438437617e-04
6.29086956521739e+00 2.82781973877925e-02 2.79784642354963e-04
6.37000000000000e+00 2.78561635248226e-02 2.77337111815327e-04
6.44913043478261e+00 2.74404282448048e-02 2.74889776101965e-04
6.52826086956522e+00 2.70308975460915e-02 2.72443522505517e-04
6.60739130434783e+00 2.66274788286836e-02 2.69999198090121e-04
6.68652173913044e+00 2.62300808758098e-02 2.67557611317566e-04
6.76565217391304e+00 2.58386138308496e-02 2.65119533652928e-04
6.84478260869565e+00 2.54529891794042e-02 2.62685701039887e-04
6.92391304347826e+00 2.50731197269558e-02 2.60256815363532e-04
7.00304347826087e+00 2.46989195814184e-02 2.57833545793166e-04
7.08217391304348e+00 2.43303041315085e-02 2.55416530117576e-04
7.16130434782609e+00 2.39671900297655e-02 2.53006375969533e-04
7.24043478260870e+00 2.36094951716085e-02 2.50603662046868e-04
7.31956521739130e+00 2.32571386788158e-02 2.48208939149740e-04
7.39869565217391e+00 2.29100408797110e-02 2.45822731625510e-04
7.47782608695652e+00 2.25681232912194e-02 2.43445537906392e-04
7.55695652173913e+00 2.22313086024893e-02 2.41077831842050e-04
7.63608695652174e+00 2.18995206555926e-02 2.38720063594255e-04
7.71521739130435e+00 2.15726844300781e-02 2.36372660535476e-04
7.79434782608696e+00 2.12507260242788e-02 2.34036028152976e-04
7.87347826086957e+00 2.09335726402896e-02 2.31710550873938e-04
7.95260869565217e+00 2.06211525658597e-02 2.29396592897917e-04
8.03173913043478e+00 2.03133951597855e-02 2.27094498955479e-04
8.11086956521739e+00 2.00102308343688e-02 2.24804595075698e-04
8.19000000000000e+00 1.97115910412132e-02 2.22527189284468e-04
8.26913043478261e+00 1.94174082542307e-02 2.20262572312918e-04
8.34826086956522e+00 1.91276159558314e-02 2.18011018240942e-04
8.42739130434783e+00 1.88421486204595e-02 2.15772785151838e-04
8.50652173913043e+00 1.85609417011676e-02 2.13548115725894e-04
8.58565217391304e+00 1.82839316136642e-02 2.11337237845924e-04
8.66478260869565e+00 1.80110557232621e-02 2.09140365145399e-04
8.74391304347826e+00 1.77422523294221e-02 2.06957697569110e-04
8.82304347826087e+00 1.74774606530652e-02 2.04789421879700e-04
8.90217391304348e+00 1.72166208215959e-02 2.02635712177251e-04
8.98130434782609e+00 1.69596738565696e-02 2.00496730367795e-04
9.06043478260870e+00 1.67065616591794e-02 1.98372626645225e-04
9.13956521739130e+00 1.64572269982702e-02 1.96263539873477e-04
9.21869565217391e+00 1.62116134965376e-02 1.94169598240563e-04
9.29782608695652e+00 1.59696656178178e-02 1.92090919352460e-04
9.37695652173913e+00 1.57313286553079e-02 1.90027610842986e-04
9.45608695652174e+00 1.54965487181610e-02 1.87979770718180e-04
9.53521739130435e+00 1.52652727203125e-02 1.85947487715023e-04
9.61434782608696e+00 1.50374483674882e-02 1.83930841673690e-04
9.69347826086956e+00 1.48130241463462e-02 1.81929903870311e-04
9.77260869565217e+00 1.45919493118846e-02 1.79944737363285e-04
9.85173913043478e+00 1.43741738768909e-02 1.77975397302131e-04
9.93086956521739e+00 1.41596485997368e-02 1.76021931249860e-04
1.00100000000000e+01 1.39483249741263e-02 1.74084379386754e-04
1.00891304347826e+01 1.37401552176728e-02 1.72162775349441e-04
1.01682608695652e+01 1.35350922592975e-02 1.70257145295987e-04
1.02473913043478e+01 1.33330897340636e-02 1.68367508968480e-04
1.03265217391304e+01 1.31341019669433e-02 1.66493881064960e-04
1.04056521739130e+01 1.29380839627168e-02 1.64636269106664e-04
1.04847826086957e+01 1.27449914014743e-02 1.62794674909922e-04
1.05639130434783e+01 1.25547806228312e-02 1.60969095989704e-04
1.06430434782609e+01 1.23674086162676e-02 1.59159523450176e-04
1.07221739130435e+01 1.21828330167028e-02 1.57365943364295e-04
1.08013043478261e+01 1.20010120895327e-02 1.55588338088128e-04
1.08804347826087e+01 1.18219047213926e-02 1.53826684258365e-04
1.09595652173913e+01 1.16454704158100e-02 1.52080954086211e-04
1.10386956521739e+01 1.14716692790190e-02 1.50351116588990e-04
1.11178260869565e+01 1.13004620111262e-02 1.48637135689337e-04
1.11969565217391e+01 1.11318099018494e-02 1.46938971428858e-04
1.12760869565217e+01 1.09656748170660e-02 1.45256581123650e-04
1.13552173913043e+01 1.08020191903614e-02 1.43589917560022e-04
1.14343478260870e+01 1.06408060188609e-02 1.41938930132761e-04
1.15134782608696e+01 1.04819988504704e-02 1.40303565930486e-04
1.15926086956522e+01 1.03255617757908e-02 1.38683768022798e-04
1.16717391304348e+01 1.01714594240473e-02 1.37079476528418e-04
1.17508695652174e+01 1.00196569509827e-02 1.35490629635162e-04
1.18300000000000e+01 9.87012003112309e-03 1.33917161973808e-04
1.19091304347826e+01 9.72281485380684e-03 1.32359005887352e-04
1.19882608695652e+01 9.57770811049577e-03 1.30816091320385e-04
1.20673913043478e+01 9.43476699219111e-03 1.29288345611087e-04
1.21465217391304e+01 9.29395917831566e-03 1.27775694710103e-04
1.22256521739130e+01 9.15525282953428e-03 1.26278061681025e-04
1.23047826086957e+01 9.01861658397010e-03 1.24795367609308e-04
1.23839130434783e+01 8.88401954664803e-03 1.23327532470775e-04
1.24630434782609e+01 8.75143128263012e-03 1.21874473708021e-04
1.25421739130435e+01 8.62082181333340e-03 1.20436107085685e-04
1.26213043478261e+01 8.49216160650416e-03 1.19012347506960e-04
1.27004347826087e+01 8.36542156965442e-03 1.17603107662006e-04
1.27795652173913e+01 8.24057304648228e-03 1.16208298833038e-04
1.28586956521739e+01 8.11758780734823e-03 1.14827831662267e-04
1.29378260869565e+01 7.99643804299962e-03 1.13461614868662e-04
1.30169565217391e+01 7.87709636109339e-03 1.12109556005749e-04
1.30960869565217e+01 7.75953577714903e-03 1.10771562184559e-04
1.31752173913043e+01 7.64372970854616e-03 1.09447538855196e-04
1.32543478260870e+01 7.52965197115115e-03 1.08137390519931e-04
1.33334782608696e+01 7.41727677072067e-03 1.06841021414382e-04
1.34126086956522e+01 7.30657869716079e-03 1.05558334350433e-04
1.34917391304348e+01 7.19753272125673e-03 1.04289231387502e-04
1.35708695652174e+01 7.09011418650307e-03 1.03033614474554e-04
1.36500000000000e+01 6.98429880361312e-03 1.01791384351203e-04
1.37291304347826e+01 6.88006264735079e-03 1.00562441355415e-04
1.38082608695652e+01 6.77738214802855e-03 9.93466853237055e-05
1.38873913043478e+01 6.67623408921289e-03 9.81440154280138e-05
1.39665217391304e+01 6.57659560020549e-03 9.69543309538293e-05
1.40456521739130e+01 6.47844415094768e-03 9.57775302869986e-05
1.41247826086957e+01 6.38175754902813e-03 9.46135114888867e-05
1.42039130434783e+01 6.28651393253356e-03 9.34621728467509e-05
1.42830434782609e+01 6.19269176517698e-03 9.23234119113800e-05
1.43621739130435e+01 6.10026983340249e-03 9.11971260396217e-05
1.44413043478261e+01 6.00922723958612e-03 9.00832129130908e-05
1.45204347826087e+01 5.91954339737824e-03 8.89815696240166e-05
1.45995652173913e+01 5.83119802890369e-03 8.78920931871113e-05
1.46786956521739e+01 5.74417115829477e-03 8.68146810285648e-05
1.47578260869565e+01 5.65844310723836e-03 8.57492301176677e-05
1.48369565217391e+01 5.57399449226949e-03 8.46956374496724e-05
1.49160869565217e+01 5.49080621862011e-03 8.36538005071290e-05
1.49952173913043e+01 5.40885947596084e-03 8.26236164349207e-05
1.50743478260870e+01 5.32813573578680e-03 8.16049824956268e-05
1.51534782608696e+01 5.24861674556590e-03 8.05977965050674e-05
1.52326086956522e+01 5.17028452466658e-03 7.96019560484603e-05
1.53117391304348e+01 5.09312136183405e-03 7.86173589099435e-05
1.53908695652174e+01 5.01710980962262e-03 7.76439034838605e-05
1.54700000000000e+01 4.94223268050148e-03 7.66814880299374e-05
1.55491304347826e+01 4.86847304441915e-03 7.57300111953076e-05
1.56282608695652e+01 4.79581422304513e-03 7.47893719340539e-05
1.57073913043478e+01 4.72423978789398e-03 7.38594693850282e-05
1.57865217391304e+01 4.65373355519341e-03 7.29402033759144e-05
1.58656521739130e+01 4.58427958227081e-03 7.20314737362944e-05
1.59447826086957e+01 4.51586216526447e-03 7.11331806673542e-05
1.60239130434783e+01 4.44846583423891e-03 7.02452250960011e-05
1.61030434782609e+01 4.38207534973036e-03 6.93675080220364e-05
1.61821739130435e+01 4.31667570053951e-03 6.84999308674523e-05
1.62613043478261e+01 4.25225209908165e-03 6.76423958107266e-05
1.63404347826087e+01 4.18878997808410e-03 6.67948051663535e-05
1.64195652173913e+01 4.12627498845834e-03 6.59570617149150e-05
1.64986956521739e+01 4.06469299487316e-03 6.51290690187299e-05
1.65778260869565e+01 4.00403007259742e-03 6.43107308321120e-05
1.66569565217391e+01 3.94427250544919e-03 6.35019514132163e-05
1.67360869565217e+01 3.88540678158127e-03 6.27026358222789e-05
1.68152173913043e+01 3.82741959046221e-03 6.19126893610401e-05
1.68943478260870e+01 3.77029782090069e-03 6.11320178672659e-05
1.69734782608696e+01 3.71402855703279e-03 6.03605279967052e-05
1.70526086956522e+01 3.65859907543512e-03 5.95981266901704e-05
1.71317391304348e+01 3.60399684322235e-03 5.88447214517415e-05
1.72108695652174e+01 3.55020951422604e-03 5.81002206153675e-05
1.72900000000000e+01 3.49722492623426e-03 5.73645328381972e-05
1.73691304347826e+01 3.44503109915999e-03 5.66375674416192e-05
1.74482608695652e+01 3.39361623111037e-03 5.59192343493975e-05
1.75273913043478e+01 3.34296869691828e-03 5.52094439980616e-05
1.76065217391304e+01 3.29307704461631e-03 5.45081076667879e-05
1.76856521739130e+01 3.24392999287564e-03 5.38151370099143e-05
1.77647826086957e+01 3.19551642929023e-03 5.31304442971568e-05
1.78439130434783e+01 3.14782540701814e-03 5.24539426438739e-05
1.79230434782609e+01 3.10084614233317e-03 5.17855455665445e-05
1.80021739130435e+01 3.05456801297367e-03 5.11251672099932e-05
1.80813043478261e+01 3.00898055494302e-03 5.04727225650284e-05
1.81604347826087e+01 2.96407346016902e-03 4.98281270457276e-05
1.82395652173913e+01 2.91983657491529e-03 4.91912967043937e-05
1.83186956521739e+01 2.87625989673308e-03 4.85621484372909e-05
1.83978260869565e+01 2.83333357222376e-03 4.79405995826589e-05
1.84769565217391e+01 2.79104789551055e-03 4.73265681240200e-05
1.85560869565217e+01 2.74939330533469e-03 4.67199728847762e-05
1.86352173913043e+01 2.70836038291596e-03 4.61207331459034e-05
1.87143478260870e+01 2.66793985048319e-03 4.55287688381789e-05
1.87934782608696e+01 2.62812256850747e-03 4.49440007263356e-05
1.88726086956522e+01 2.58889953365659e-03 4.43663500454325e-05
1.89517391304348e+01 2.55026187738221e-03 4.37957386826270e-05
1.90308695652174e+01 2.51220086328353e-03 4.32320893514655e-05
1.91100000000000e+01 2.47470788515152e-03 4.26753252459967e-05
1.91891304347826e+01 2.43777446561076e-03 4.21253702653312e-05
1.92682608695652e+01 2.40139225342048e-03 4.15821489672103e-05
1.93473913043478e+01 2.36555302235473e-03 4.10455865029990e-05
1.94265217391304e+01 2.33024866876762e-03 4.05156088352026e-05
1.95056521739130e+01 2.29547120977875e-03 3.99921424181968e-05
1.95847826086957e+01 2.26121278200376e-03 3.94751143555407e-05
1.96639130434783e+01 2.22746563923385e-03 3.89644525508511e-05
1.97430434782609e+01 2.19422215070113e-03 3.84600854040670e-05
1.98221739130435e+01 2.16147479985870e-03 3.79619419603854e-05
1.99013043478261e+01 2.12921618216896e-03 3.74699520529904e-05
1.99804347826087e+01 2.09743900344534e-03 3.69840460140814e-05
2.00595652173913e+01 2.06613607868017e-03 3.65041548158884e-05
2.01386956521739e+01 2.03530032993655e-03 3.60302102057080e-05
2.02178260869565e+01 2.00492478476310e-03 3.55621444309765e-05
2.02969565217391e+01 1.97500257506789e-03 3.50998903727498e-05
2.03760869565217e+01 1.94552693510904e-03 3.46433816735356e-05
2.04552173913043e+01 1.91649119997902e-03 3.41925524757052e-05
2.05343478260870e+01 1.88788880452321e-03 3.37473375478007e-05
2.06134782608696e+01 1.85971328142436e-03 3.33076724056025e-05
2.06926086956522e+01 1.83195825975351e-03 3.28734930632053e-05
2.07717391304348e+01 1.80461746393143e-03 3.24447361525558e-05
2.08508695652174e+01 1.77768471190255e-03 3.20213390381175e-05
2.09300000000000e+01 1.75115391374949e-03 3.16032395799868e-05
2.10091304347826e+01 1.72501907069588e-03 3.11903762826414e-05
2.10882608695652e+01 1.69927427324466e-03 3.07826882605742e-05
2.11673913043478e+01 1.67391370033841e-03 3.03801151914222e-05
2.12465217391304e+01 1.64893161767183e-03 2.99825974602237e-05
2.13256521739130e+01 1.62432237640640e-03 2.95900759406710e-05
2.14047826086957e+01 1.60008041223962e-03 2.92024920987474e-05
2.14839130434783e+01 1.57620024379597e-03 2.88197880921593e-05
2.15630434782609e+01 1.55267647139822e-03 2.84419065621444e-05
2.16421739130435e+01 1.52950377617386e-03 2.80687907316544e-05
2.17213043478261e+01 1.50667691852090e-03 2.77003844994844e-05
2.18004347826087e+01 1.48419073693323e-03 2.73366322421169e-05
2.18795652173913e+01 1.46204014714298e-03 2.69774789067446e-05
2.19586956521739e+01 1.44022014065747e-03 2.66228701003899e-05
2.20378260869565e+01 1.41872578363637e-03 2.62727519012953e-05
2.21169565217391e+01 1.39755221606848e-03 2.59270709470356e-05
2.21960869565217e+01 1.37669465037670e-03 2.55857745189341e-05
2.22752173913043e+01 1.35614837034441e-03 2.52488103625333e-05
2.23543478260870e+01 1.33590873032567e-03 2.49161267710276e-05
2.24334782608696e+01 1.31597115391470e-03 2.45876726652568e-05
2.25126086956522e+01 1.29633113291962e-03 2.42633974228018e-05
2.25917391304348e+01 1.27698422660446e-03 2.39432509569937e-05
2.26708695652174e+01 1.25792606042045e-03 2.36271837927217e-05
2.27500000000000e+01 1.23915232502473e-03 2.33151469037327e-05
2.28291304347826e+01 1.22065877555323e-03 2.30070918116317e-05
2.29082608695652e+01 1.20244123033192e-03 2.27029705606606e-05
2.29873913043478e+01 1.18449557025457e-03 2.24027356840285e-05
2.30665217391304e+01 1.16681773760963e-03 2.21063403000200e-05
2.31456521739130e+01 1.14940373516994e-03 2.18137379616949e-05
2.32247826086957e+01 1.13224962551474e-03 2.15248827254828e-05
2.33039130434783e+01 1.11535152991077e-03 2.12397292170080e-05
2.33830434782609e+01 1.09870562744204e-03 2.09582324879878e-05
2.34621739130435e+01 1.08230815435953e-03 2.06803480812514e-05
2.35413043478261e+01 1.06615540301383e-03 2.04060320930889e-05
2.36204347826087e+01 1.05024372102335e-03 2.01352410369991e-05
2.36995652173913e+01 1.03456951065047e-03 1.98679319053205e-05
2.37786956521739e+01 1.01912922778347e-03 1.96040622282943e-05
2.38578260869565e+01 1.00391938114133e-03 1.93435899443295e-05
2.39369565217391e+01 9.88936531675431e-04 1.90864734584102e-05
2.40160869565217e+01 9.74177291598398e-04 1.88326716980709e-05
2.40952173913043e+01 9.59638323623889e-04 1.85821439898618e-05
2.41743478260870e+01 9.45316340392835e-04 1.83348501146832e-05
2.42534782608696e+01 9.31208103547025e-04 1.80907503608517e-05
2.43326086956522e+01 9.17310423002330e-04 1.78498054064621e-05
2.44117391304348e+01 9.03620156398518e-04 1.76119763718134e-05
2.44908695652174e+01 8.90134208215495e-04 1.73772248697218e-05
2.45700000000000e+01 8.76849529078482e-04 1.71455128934890e-05
2.46491304347826e+01 8.63763115230493e-04 1.69168028830431e-05
2.47282608695652e+01 8.50872007637650e-04 1.66910577065356e-05
2.48073913043478e+01 8.38173291531961e-04 1.64682406362080e-05
2.48865217391304e+01 8.25664095593830e-04 1.62483154126589e-05
2.49656521739130e+01 8.13341591307485e-04 1.60312461413161e-05
