Energy (eV)          EEDF (eV^-(3/2))     First Anisotropy
7.24000000000000e-03 3.70853174869720e-01 1.95867741764290e-04
2.17200000000000e-02 3.68298628350968e-01 3.23406590514397e-04
3.62000000000000e-02 3.65761678305515e-01 4.26862561868824e-04
5.06800000000000e-02 3.63242203523491e-01 5.05415816938552e-04
6.51600000000000e-02 3.60740083630077e-01 5.70894594153328e-04
7.96400000000000e-02 3.58255199079649e-01 6.27771056764575e-04
9.41200000000000e-02 3.55787431150056e-01 6.78359581811503e-04
1.08600000000000e-01 3.53336661936940e-01 7.24057768927686e-04
1.23080000000000e-01 3.50902774348107e-01 7.65792540086916e-04
1.37560000000000e-01 3.48485652097926e-01 8.04219030515464e-04
1.52040000000000e-01 3.46085179701779e-01 8.39822209368359e-04
1.66520000000000e-01 3.43701242470539e-01 8.72973977896781e-04
1.81000000000000e-01 3.41333726505091e-01 9.03967594604893e-04
1.95480000000000e-01 3.38982518690894e-01 9.33039594995885e-04
2.09960000000000e-01 3.36647506692569e-01 9.60384371178336e-04
2.24440000000000e-01 3.34328578948540e-01 9.86164222239588e-04
2.38920000000000e-01 3.32025624665700e-01 1.01051649246815e-03
2.53400000000000e-01 3.29738533814115e-01 1.03355877142471e-03
2.67880000000000e-01 3.27467197121772e-01 1.05539276563263e-03
2.82360000000000e-01 3.25211506069357e-01 1.07610723644342e-03
2.96840000000000e-01 3.22971352885065e-01 1.09578026677091e-03
3.11320000000000e-01 3.20746630539461e-01 1.11448103601271e-03
3.25800000000000e-01 3.18537232740355e-01 1.13227122828865e-03
3.40280000000000e-01 3.16343053927733e-01 1.14920616303949e-03
3.54760000000000e-01 3.14163989268707e-01 1.16533571246757e-03
3.69240000000000e-01 3.11999934652510e-01 1.18070505325888e-03
3.83720000000000e-01 3.09850786685522e-01 1.19535528798997e-03
3.98200000000000e-01 3.07716442686327e-01 1.20932396298611e-03
4.12680000000000e-01 3.05596800680809e-01 1.22264550311024e-03
4.27160000000000e-01 3.03491759397283e-01 1.23535157932330e-03
4.41640000000000e-01 3.01401218261649e-01 1.24747142139258e-03
4.56120000000000e-01 2.99325077392593e-01 1.25903208550826e-03
4.70600000000000e-01 2.97263237596815e-01 1.27005868457220e-03
4.85080000000000e-01 2.95215600364285e-01 1.28057458738352e-03
4.99560000000000e-01 2.93182067863541e-01 1.29060159175066e-03
5.14040000000000e-01 2.91162542937012e-01 1.30016007562110e-03
5.28520000000000e-01 2.89156929096378e-01 1.30926912957827e-03
5.43000000000000e-01 2.87165130517958e-01 1.31794667346641e-03
5.57480000000000e-01 2.85187052038135e-01 1.32620955943001e-03
5.71960000000000e-01 2.83222599148805e-01 1.33407366327381e-03
5.86440000000000e-01 2.81271677992865e-01 1.34155396573919e-03
6.00920000000000e-01 2.79334195359726e-01 1.34866462504029e-03
6.15400000000000e-01 2.77410058680864e-01 1.35541904179485e-03
6.29880000000000e-01 2.75499176025392e-01 1.36182991731408e-03
6.44360000000000e-01 2.73601456095671e-01 1.36790930607424e-03
6.58840000000000e-01 2.71716808222947e-01 1.37366866307286e-03
6.73320000000000e-01 2.69845142363020e-01 1.37911888667491e-03
6.87800000000000e-01 2.67986369091940e-01 1.38427035746971e-03
7.02280000000000e-01 2.66140399601735e-01 1.38913297359074e-03
7.16760000000000e-01 2.64307145696172e-01 1.39371618288924e-03
7.31240000000000e-01 2.62486519786536e-01 1.39802901230257e-03
7.45720000000000e-01 2.60678434887451e-01 1.40208009471585e-03
7.60200000000000e-01 2.58882804612721e-01 1.40587769357772e-03
7.74680000000000e-01 2.57099543171205e-01 1.40942972549882e-03
7.89160000000000e-01 2.55328565362716e-01 1.41274378103530e-03
8.03640000000000e-01 2.53569786573950e-01 1.41582714383585e-03
8.18120000000000e-01 2.51823122774448e-01 1.41868680830926e-03
8.32600000000000e-01 2.50088490512573e-01 1.42132949595270e-03
8.47080000000000e-01 2.48365806911531e-01 1.42376167046549e-03
8.61560000000000e-01 2.46654989665408e-01 1.42598955175885e-03
8.76040000000000e-01 2.44955957035234e-01 1.42801912896047e-03
8.90520000000000e-01 2.43268627845086e-01 1.42985617250251e-03
9.05000000000000e-01 2.41592921478201e-01 1.43150624537289e-03
9.19480000000000e-01 2.39928757873130e-01 1.43297471360083e-03
9.33960000000000e-01 2.38276057519910e-01 1.43426675604067e-03
9.48440000000000e-01 2.36634741456268e-01 1.43538737351189e-03
9.62920000000000e-01 2.35004731263844e-01 1.43634139734795e-03
9.77400000000000e-01 2.33385949064449e-01 1.43713349740032e-03
9.91880000000000e-01 2.31778317516341e-01 1.43776818954159e-03
1.00636000000000e+00 2.30181759810530e-01 1.43824984270573e-03
1.02084000000000e+00 2.28596199667112e-01 1.43858268550068e-03
1.03532000000000e+00 2.27021561331618e-01 1.43877081242614e-03
1.04980000000000e+00 2.25457769571401e-01 1.43881818972520e-03
1.06428000000000e+00 2.23904749672036e-01 1.43872866089652e-03
1.07876000000000e+00 2.22362427433757e-01 1.43850595189184e-03
1.09324000000000e+00 2.20830729167905e-01 1.43815367602080e-03
1.10772000000000e+00 2.19309581693410e-01 1.43767533858345e-03
1.12220000000000e+00 2.17798912333296e-01 1.43707434124971e-03
1.13668000000000e+00 2.16298648911209e-01 1.43635398620253e-03
1.15116000000000e+00 2.14808719747964e-01 1.43551748006085e-03
1.16564000000000e+00 2.13329053658125e-01 1.43456793759680e-03
1.18012000000000e+00 2.11859579946603e-01 1.43350838526053e-03
1.19460000000000e+00 2.10400228405277e-01 1.43234176452536e-03
1.20908000000000e+00 2.08950929309640e-01 1.43107093506458e-03
1.22356000000000e+00 2.07511613415469e-01 1.42969867777013e-03
1.23804000000000e+00 2.06082211955515e-01 1.42822769762326e-03
1.25252000000000e+00 2.04662656636218e-01 1.42666062642634e-03
1.26700000000000e+00 2.03252879634445e-01 1.42500002540428e-03
1.28148000000000e+00 2.01852813594249e-01 1.42324838768299e-03
1.29596000000000e+00 2.00462391623650e-01 1.42140814065228e-03
1.31044000000000e+00 1.99081547291438e-01 1.41948164822005e-03
1.32492000000000e+00 1.97710214624006e-01 1.41747121296401e-03
1.33940000000000e+00 1.96348328102187e-01 1.41537907818689e-03
1.35388000000000e+00 1.94995822658133e-01 1.41320742988032e-03
1.36836000000000e+00 1.93652633672202e-01 1.41095839860241e-03
1.38284000000000e+00 1.92318696969870e-01 1.40863406127423e-03
1.39732000000000e+00 1.90993948818667e-01 1.40623644289926e-03
1.41180000000000e+00 1.89678325925132e-01 1.40376751820982e-03
1.42628000000000e+00 1.88371765431786e-01 1.40122921324497e-03
1.44076000000000e+00 1.87074204914133e-01 1.39862340686275e-03
1.45524000000000e+00 1.85785582377675e-01 1.39595193219067e-03
1.46972000000000e+00 1.84505836254949e-01 1.39321657801742e-03
1.48420000000000e+00 1.83234905402588e-01 1.39041909012896e-03
1.49868000000000e+00 1.81972729098399e-01 1.38756117259130e-03
1.51316000000000e+00 1.80719247038460e-01 1.38464448898374e-03
1.52764000000000e+00 1.79474399334243e-01 1.38167066358393e-03
1.54212000000000e+00 1.78238126509748e-01 1.37864128250700e-03
1.55660000000000e+00 1.77010369498662e-01 1.37555789480220e-03
1.57108000000000e+00 1.75791069641541e-01 1.37242201350798e-03
1.58556000000000e+00 1.74580168683003e-01 1.36923511666797e-03
1.60004000000000e+00 1.73377608768947e-01 1.36599864830934e-03
1.61452000000000e+00 1.72183332443787e-01 1.36271401938558e-03
1.62900000000000e+00 1.70997282647711e-01 1.35938260868567e-03
1.64348000000000e+00 1.69819402713948e-01 1.35600576371012e-03
1.65796000000000e+00 1.68649636366067e-01 1.35258480151638e-03
1.67244000000000e+00 1.67487927715285e-01 1.34912100953479e-03
1.68692000000000e+00 1.66334221257798e-01 1.34561564635589e-03
1.70140000000000e+00 1.65188461872128e-01 1.34206994249068e-03
1.71588000000000e+00 1.64050594816491e-01 1.33848510110531e-03
1.73036000000000e+00 1.62920565726179e-01 1.33486229873081e-03
1.74484000000000e+00 1.61798320610965e-01 1.33120268594888e-03
1.75932000000000e+00 1.60683805852524e-01 1.32750738805514e-03
1.77380000000000e+00 1.59576968201868e-01 1.32377750570092e-03
1.78828000000000e+00 1.58477754776804e-01 1.32001411551384e-03
1.80276000000000e+00 1.57386113059409e-01 1.31621827069816e-03
1.81724000000000e+00 1.56301990893517e-01 1.31239100161650e-03
1.83172000000000e+00 1.55225336482230e-01 1.30853331635289e-03
1.84620000000000e+00 1.54156098385443e-01 1.30464620125794e-03
1.86068000000000e+00 1.53094225517383e-01 1.30073062147728e-03
1.87516000000000e+00 1.52039667144175e-01 1.29678752146368e-03
1.88964000000000e+00 1.50992372881411e-01 1.29281782547336e-03
1.90412000000000e+00 1.49952292691747e-01 1.28882243804738e-03
1.91860000000000e+00 1.48919376882510e-01 1.28480224447849e-03
1.93308000000000e+00 1.47893576103325e-01 1.28075811126383e-03
1.94756000000000e+00 1.46874841343759e-01 1.27669088654465e-03
1.96204000000000e+00 1.45863123930975e-01 1.27260140053274e-03
1.97652000000000e+00 1.44858375527410e-01 1.26849046592456e-03
1.99100000000000e+00 1.43860548128463e-01 1.26435887830339e-03
2.00548000000000e+00 1.42869594060206e-01 1.26020741652999e-03
2.01996000000000e+00 1.41885465977100e-01 1.25603684312199e-03
2.03444000000000e+00 1.40908116859738e-01 1.25184790462273e-03
2.04892000000000e+00 1.39937500012595e-01 1.24764133195979e-03
2.06340000000000e+00 1.38973569061801e-01 1.24341784079321e-03
2.07788000000000e+00 1.38016277952921e-01 1.23917813185444e-03
2.09236000000000e+00 1.37065580948756e-01 1.23492289127581e-03
2.10684000000000e+00 1.36121432627161e-01 1.23065279091115e-03
2.12132000000000e+00 1.35183787878871e-01 1.22636848864764e-03
2.13580000000000e+00 1.34252601905344e-01 1.22207062870940e-03
2.15028000000000e+00 1.33327830216629e-01 1.21775984195294e-03
2.16476000000000e+00 1.32409428629232e-01 1.21343674615449e-03
2.17924000000000e+00 1.31497353264006e-01 1.20910194629041e-03
2.19372000000000e+00 1.30591560544061e-01 1.20475603480988e-03
2.20820000000000e+00 1.29692007192675e-01 1.20039959190042e-03
2.22268000000000e+00 1.28798650231229e-01 1.19603318574688e-03
2.23716000000000e+00 1.27911446977153e-01 1.19165737278357e-03
2.25164000000000e+00 1.27030355041889e-01 1.18727269794020e-03
2.26612000000000e+00 1.26155332328862e-01 1.18287969488138e-03
2.28060000000000e+00 1.25286337031471e-01 1.17847888624026e-03
2.29508000000000e+00 1.24423327631093e-01 1.17407078384638e-03
2.30956000000000e+00 1.23566262895096e-01 1.16965588894780e-03
2.32404000000000e+00 1.22715101874871e-01 1.16523469242769e-03
2.33852000000000e+00 1.21869803903874e-01 1.16080767501580e-03
2.35300000000000e+00 1.21030328595685e-01 1.15637530749472e-03
2.36748000000000e+00 1.20196635842080e-01 1.15193805090108e-03
2.38196000000000e+00 1.19368685811108e-01 1.14749635672214e-03
2.39644000000000e+00 1.18546438945196e-01 1.14305066708748e-03
2.41092000000000e+00 1.17729855959253e-01 1.13860141495609e-03
2.42540000000000e+00 1.16918897838796e-01 1.13414902429934e-03
2.43988000000000e+00 1.16113525838086e-01 1.12969391027942e-03
2.45436000000000e+00 1.15313701478274e-01 1.12523647942367e-03
2.46884000000000e+00 1.14519386545568e-01 1.12077712979493e-03
2.48332000000000e+00 1.13730543089401e-01 1.11631625115793e-03
2.49780000000000e+00 1.12947133420623e-01 1.11185422514186e-03
2.51228000000000e+00 1.12169120109696e-01 1.10739142539928e-03
2.52676000000000e+00 1.11396465984909e-01 1.10292821776143e-03
2.54124000000000e+00 1.10629134130601e-01 1.09846496038980e-03
2.55572000000000e+00 1.09867087885395e-01 1.09400200392466e-03
2.57020000000000e+00 1.09110290840451e-01 1.08953969163019e-03
2.58468000000000e+00 1.08358706837723e-01 1.08507835953628e-03
2.59916000000000e+00 1.07612299968231e-01 1.08061833657709e-03
2.61364000000000e+00 1.06871034570348e-01 1.07615994472690e-03
2.62812000000000e+00 1.06134875228096e-01 1.07170349913283e-03
2.64260000000000e+00 1.05403786769449e-01 1.06724930824452e-03
2.65708000000000e+00 1.04677734264660e-01 1.06279767394121e-03
2.67156000000000e+00 1.03956683024588e-01 1.05834889165615e-03
2.68604000000000e+00 1.03240598599038e-01 1.05390325049803e-03
2.70052000000000e+00 1.02529446775123e-01 1.04946103337017e-03
2.71500000000000e+00 1.01823193575620e-01 1.04502251708692e-03
2.72948000000000e+00 1.01121805257353e-01 1.04058797248786e-03
2.74396000000000e+00 1.00425248309580e-01 1.03615766454934e-03
2.75844000000000e+00 9.97334894523893e-02 1.03173185249363e-03
2.77292000000000e+00 9.90464956351121e-02 1.02731078989630e-03
2.78740000000000e+00 9.83642340347418e-02 1.02289472479094e-03
2.80188000000000e+00 9.76866720543667e-02 1.01848389977163e-03
2.81636000000000e+00 9.70137773216123e-02 1.01407855209370e-03
2.83084000000000e+00 9.63455176870943e-02 1.00967891377223e-03
2.84532000000000e+00 9.56818612228833e-02 1.00528521167849e-03
2.85980000000000e+00 9.50227762209785e-02 1.00089766763440e-03
2.87428000000000e+00 9.43682311917936e-02 9.96516498505223e-04
2.88876000000000e+00 9.37181948626517e-02 9.92141916290418e-04
2.90324000000000e+00 9.30726361762913e-02 9.87774128212478e-04
2.91772000000000e+00 9.24315242893826e-02 9.83413336804141e-04
2.93220000000000e+00 9.17948285710539e-02 9.79059739993837e-04
2.94668000000000e+00 9.11625186014278e-02 9.74713531189419e-04
2.96116000000000e+00 9.05345641701683e-02 9.70374899360375e-04
2.97564000000000e+00 8.99109352750369e-02 9.66044029118209e-04
2.99012000000000e+00 8.92916021204595e-02 9.61721100795395e-04
3.00460000000000e+00 8.86765351161027e-02 9.57406290522781e-04
3.01908000000000e+00 8.80657048754600e-02 9.53099770305363e-04
3.03356000000000e+00 8.74590822144482e-02 9.48801708096917e-04
3.04804000000000e+00 8.68566381500124e-02 9.44512267872827e-04
3.06252000000000e+00 8.62583438987415e-02 9.40231609701636e-04
3.07700000000000e+00 8.56641708754934e-02 9.35959889815395e-04
3.09148000000000e+00 8.50740906920287e-02 9.31697260678439e-04
3.10596000000000e+00 8.44880751556546e-02 9.27443871055026e-04
3.12044000000000e+00 8.39060962678779e-02 9.23199866075578e-04
3.13492000000000e+00 8.33281262230675e-02 9.18965387301714e-04
3.14940000000000e+00 8.27541374071255e-02 9.14740572790142e-04
3.16388000000000e+00 8.21841023961682e-02 9.10525557155173e-04
3.17836000000000e+00 8.16179939552157e-02 9.06320471630255e-04
3.19284000000000e+00 8.10557850368908e-02 9.02125444128317e-04
3.20732000000000e+00 8.04974487801264e-02 8.97940599300872e-04
3.22180000000000e+00 7.99429585088827e-02 8.93766058596197e-04
3.23628000000000e+00 7.93922877308722e-02 8.89601940316302e-04
3.25076000000000e+00 7.88454101362941e-02 8.85448359672913e-04
3.26524000000000e+00 7.83022995965773e-02 8.81305428842469e-04
3.27972000000000e+00 7.77629301631322e-02 8.77173257020090e-04
3.29420000000000e+00 7.72272760661106e-02 8.73051950472508e-04
3.30868000000000e+00 7.66953117131746e-02 8.68941612590017e-04
3.32316000000000e+00 7.61670116882743e-02 8.64842343937685e-04
3.33764000000000e+00 7.56423507504325e-02 8.60754242305444e-04
3.35212000000000e+00 7.51213038325397e-02 8.56677402757245e-04
3.36660000000000e+00 7.46038460401561e-02 8.52611917679556e-04
3.38108000000000e+00 7.40899526503219e-02 8.48557876828727e-04
3.39556000000000e+00 7.35795991103765e-02 8.44515367377668e-04
3.41004000000000e+00 7.30727610367855e-02 8.40484473961803e-04
3.42452000000000e+00 7.25694142139753e-02 8.36465278723887e-04
3.43900000000000e+00 7.20695345931762e-02 8.32457861358318e-04
3.45348000000000e+00 7.15730982912740e-02 8.28462299154530e-04
3.46796000000000e+00 7.10800815896680e-02 8.24478667039650e-04
3.48244000000000e+00 7.05904609331385e-02 8.20507037620434e-04
3.49692000000000e+00 7.01042129287211e-02 8.16547481224429e-04
3.51140000000000e+00 6.96213143445890e-02 8.12600065940434e-04
3.52588000000000e+00 6.91417421089432e-02 8.08664857658210e-04
3.54036000000000e+00 6.86654733089101e-02 8.04741920107578e-04
3.55484000000000e+00 6.81924851894465e-02 8.00831314896825e-04
3.56932000000000e+00 6.77227551522531e-02 7.96933101550395e-04
3.58380000000000e+00 6.72562607546939e-02 7.93047337545938e-04
3.59828000000000e+00 6.67929797087249e-02 7.89174078350672e-04
3.61276000000000e+00 6.63328898798284e-02 7.85313377457276e-04
3.62724000000000e+00 6.58759692859559e-02 7.81465286419094e-04
3.64172000000000e+00 6.54221960964779e-02 7.77629854884606e-04
3.65620000000000e+00 6.49715486311406e-02 7.73807130631503e-04
3.67068000000000e+00 6.45240053590302e-02 7.69997159600051e-04
3.68516000000000e+00 6.40795448975443e-02 7.66199985925897e-04
3.69964000000000e+00 6.36381460113703e-02 7.62415651972453e-04
3.71412000000000e+00 6.31997876114703e-02 7.58644198362568e-04
3.72860000000000e+00 6.27644487540745e-02 7.54885664009704e-04
3.74308000000000e+00 6.23321086396796e-02 7.51140086148577e-04
3.75756000000000e+00 6.19027466120555e-02 7.47407500365372e-04
3.77204000000000e+00 6.14763421572585e-02 7.43687940627391e-04
3.78652000000000e+00 6.10528749026508e-02 7.39981439312198e-04
3.80100000000000e+00 6.06323246159276e-02 7.36288027236201e-04
3.81548000000000e+00 6.02146712041501e-02 7.32607733682833e-04
3.82996000000000e+00 5.97998947127854e-02 7.28940586430381e-04
3.84444000000000e+00 5.93879753247536e-02 7.25286611779041e-04
3.85892000000000e+00 5.89788933594808e-02 7.21645834577812e-04
3.87340000000000e+00 5.85726292719584e-02 7.18018278250879e-04
3.88788000000000e+00 5.81691636518098e-02 7.14403964823454e-04
3.90236000000000e+00 5.77684772223628e-02 7.10802914947220e-04
3.91684000000000e+00 5.73705508397287e-02 7.07215147925422e-04
3.93132000000000e+00 5.69753654918875e-02 7.03640681737503e-04
3.94580000000000e+00 5.65829022977795e-02 7.00079533063338e-04
3.96028000000000e+00 5.61931425064036e-02 6.96531717307030e-04
3.97476000000000e+00 5.58060674959210e-02 6.92997248620388e-04
3.98924000000000e+00 5.54216587727655e-02 6.89476139925966e-04
4.00372000000000e+00 5.50398979707603e-02 6.85968402939645e-04
4.01820000000000e+00 5.46607668502403e-02 6.82474048193066e-04
4.03268000000000e+00 5.42842472971803e-02 6.78993085055543e-04
4.04716000000000e+00 5.39103213223302e-02 6.75525521755614e-04
4.06164000000000e+00 5.35389710603549e-02 6.72071365402250e-04
4.07612000000000e+00 5.31701787689814e-02 6.68630622005649e-04
4.09060000000000e+00 5.28039268281503e-02 6.65203296497869e-04
4.10508000000000e+00 5.24401977391746e-02 6.61789392753163e-04
4.11956000000000e+00 5.20789741239036e-02 6.58388913607606e-04
4.13404000000000e+00 5.17202387238921e-02 6.55001860878662e-04
4.14852000000000e+00 5.13639743995764e-02 6.51628235384620e-04
4.16300000000000e+00 5.10101641294553e-02 6.48268036963373e-04
4.17748000000000e+00 5.06587910092764e-02 6.44921264490999e-04
4.19196000000000e+00 5.03098382512292e-02 6.41587915900130e-04
4.20644000000000e+00 4.99632891831422e-02 6.38267988197981e-04
4.22092000000000e+00 4.96191272476870e-02 6.34961477483972e-04
4.23540000000000e+00 4.92773360015871e-02 6.31668378967277e-04
4.24988000000000e+00 4.89378991148318e-02 6.28388686983976e-04
4.26436000000000e+00 4.86008003698967e-02 6.25122395013844e-04
4.27884000000000e+00 4.82660236609682e-02 6.21869495696975e-04
4.29332000000000e+00 4.79335529931746e-02 6.18629980850186e-04
4.30780000000000e+00 4.76033724818215e-02 6.15403841483046e-04
4.32228000000000e+00 4.72754663516329e-02 6.12191067813699e-04
4.33676000000000e+00 4.69498189359978e-02 6.08991649284483e-04
4.35124000000000e+00 4.66264146762212e-02 6.05805574577160e-04
4.36572000000000e+00 4.63052381207811e-02 6.02632831627971e-04
4.38020000000000e+00 4.59862739245901e-02 5.99473407642478e-04
4.39468000000000e+00 4.56695068482625e-02 5.96327289110255e-04
4.40916000000000e+00 4.53549217573859e-02 5.93194461819145e-04
4.42364000000000e+00 4.50425036217980e-02 5.90074910869321e-04
4.43812000000000e+00 4.47322375148690e-02 5.86968620687272e-04
4.45260000000000e+00 4.44241086127881e-02 5.83875575039522e-04
4.46708000000000e+00 4.41181021938552e-02 5.80795757045979e-04
4.48156000000000e+00 4.38142036377777e-02 5.77729149193223e-04
4.49604000000000e+00 4.35123984249718e-02 5.74675733347550e-04
4.51052000000000e+00 4.32126721358691e-02 5.71635490767730e-04
4.52500000000000e+00 4.29150104502272e-02 5.68608402117660e-04
4.53948000000000e+00 4.26193991464460e-02 5.65594447478771e-04
4.55396000000000e+00 4.23258241008880e-02 5.62593606362318e-04
4.56844000000000e+00 4.20342712872032e-02 5.59605857721303e-04
