Energy (eV)          EEDF (eV^-(3/2))     First Anisotropy
3.11250000000000e-02 5.80082249549772e-02 3.43586405154216e-05
9.33750000000000e-02 5.75096722326011e-02 5.66826283783211e-05
1.55625000000000e-01 5.70154043303615e-02 7.46865497503364e-05
2.17875000000000e-01 5.65253844223822e-02 8.82787907629614e-05
2.80125000000000e-01 5.60395759992176e-02 9.95443679209947e-05
3.42375000000000e-01 5.55579428651923e-02 1.09273604123102e-04
4.04625000000000e-01 5.50804491357118e-02 1.17876479977716e-04
4.66875000000000e-01 5.46070592345915e-02 1.25601153670534e-04
5.29125000000000e-01 5.41377378914060e-02 1.32612590306054e-04
5.91375000000000e-01 5.36724501388624e-02 1.39027652134172e-04
6.53625000000000e-01 5.32111613101942e-02 1.44933044218162e-04
7.15875000000000e-01 5.27538370365792e-02 1.50395406916045e-04
7.78125000000000e-01 5.23004432445786e-02 1.55467406267696e-04
8.40375000000000e-01 5.18509461535982e-02 1.60191615451994e-04
9.02625000000000e-01 5.14053122733717e-02 1.64603098796538e-04
9.64875000000000e-01 5.09635084014657e-02 1.68731194647292e-04
1.02712500000000e+00 5.05255016208054e-02 1.72600782779428e-04
1.08937500000000e+00 5.00912592972226e-02 1.76233208516994e-04
1.15162500000000e+00 4.96607490770238e-02 1.79646971406504e-04
1.21387500000000e+00 4.92339388845801e-02 1.82858248264643e-04
1.27612500000000e+00 4.88107969199371e-02 1.85881297111558e-04
1.33837500000000e+00 4.83912916564456e-02 1.88728773756497e-04
1.40062500000000e+00 4.79753918384129e-02 1.91411983215186e-04
1.46287500000000e+00 4.75630664787736e-02 1.93941081750224e-04
1.52512500000000e+00 4.71542848567816e-02 1.96325240976359e-04
1.58737500000000e+00 4.67490165157205e-02 1.98572782453117e-04
1.64962500000000e+00 4.63472312606347e-02 2.00691289053592e-04
1.71187500000000e+00 4.59488991560799e-02 2.02687697866719e-04
1.77412500000000e+00 4.55539905238923e-02 2.04568378274982e-04
1.83637500000000e+00 4.51624759409776e-02 2.06339198025997e-04
1.89862500000000e+00 4.47743262371189e-02 2.08005579501317e-04
1.96087500000000e+00 4.43895124928033e-02 2.09572547921024e-04
2.02312500000000e+00 4.40080060370670e-02 2.11044772867811e-04
2.08537500000000e+00 4.36297784453595e-02 2.12426604240556e-04
2.14762500000000e+00 4.32548015374255e-02 2.13722103534800e-04
2.20987500000000e+00 4.28830473752054e-02 2.14935071180424e-04
2.27212500000000e+00 4.25144882607537e-02 2.16069070534948e-04
2.33437500000000e+00 4.21490967341755e-02 2.17127449025738e-04
2.39662500000000e+00 4.17868455715804e-02 2.18113356850091e-04
2.45887500000000e+00 4.14277077830543e-02 2.19029763574241e-04
2.52112500000000e+00 4.10716566106481e-02 2.19879472916961e-04
2.58337500000000e+00 4.07186655263848e-02 2.20665135958369e-04
2.64562500000000e+00 4.03687082302822e-02 2.21389262977443e-04
2.70787500000000e+00 4.00217586483941e-02 2.22054234091151e-04
2.77012500000000e+00 3.96777909308670e-02 2.22662308842732e-04
2.83237500000000e+00 3.93367794500145e-02 2.23215634865514e-04
2.89462500000000e+00 3.89986987984079e-02 2.23716255730896e-04
2.95687500000000e+00 3.86635237869830e-02 2.24166118074148e-04
3.01912500000000e+00 3.83312294431636e-02 2.24567078079320e-04
3.08137500000000e+00 3.80017910090006e-02 2.24920907393659e-04
3.14362500000000e+00 3.76751839393276e-02 2.25229298532988e-04
3.20587500000000e+00 3.73513838999321e-02 2.25493869831747e-04
3.26812500000000e+00 3.70303667657423e-02 2.25716169984693e-04
3.33037500000000e+00 3.67121086190299e-02 2.25897682221667e-04
3.39262500000000e+00 3.63965857476279e-02 2.26039828151846e-04
3.45487500000000e+00 3.60837746431639e-02 2.26143971309661e-04
3.51712500000000e+00 3.57736519993087e-02 2.26211420430886e-04
3.57937500000000e+00 3.54661947100396e-02 2.26243432484234e-04
3.64162500000000e+00 3.51613798679192e-02 2.26241215480947e-04
3.70387500000000e+00 3.48591847623885e-02 2.26205931082484e-04
3.76612500000000e+00 3.45595868780746e-02 2.26138697024199e-04
3.82837500000000e+00 3.42625638931136e-02 2.26040589371085e-04
3.89062500000000e+00 3.39680936774870e-02 2.25912644620031e-04
3.95287500000000e+00 3.36761542913734e-02 2.25755861661475e-04
4.01512500000000e+00 3.33867239835134e-02 2.25571203612179e-04
4.07737500000000e+00 3.30997811895894e-02 2.25359599529580e-04
4.13962500000000e+00 3.28153045306185e-02 2.25121946017244e-04
4.20187500000000e+00 3.25332728113598e-02 2.24859108730065e-04
4.26412500000000e+00 3.22536650187356e-02 2.24571923786899e-04
4.32637500000000e+00 3.19764603202651e-02 2.24261199097851e-04
4.38862500000000e+00 3.17016380625129e-02 2.23927715612552e-04
4.45087500000000e+00 3.14291777695498e-02 2.23572228495288e-04
4.51312500000000e+00 3.11590591414273e-02 2.23195468232390e-04
4.57537500000000e+00 3.08912620526653e-02 2.22798141676712e-04
4.63762500000000e+00 3.06257665507523e-02 2.22380933033708e-04
4.69987500000000e+00 3.03625528546593e-02 2.21944504793125e-04
4.76212500000000e+00 3.01016013533654e-02 2.21489498610131e-04
4.82437500000000e+00 2.98428926043971e-02 2.21016536139291e-04
4.88662500000000e+00 2.95864073323797e-02 2.20526219824515e-04
4.94887500000000e+00 2.93321264276008e-02 2.20019133647960e-04
5.01112500000000e+00 2.90800309445870e-02 2.19495843840552e-04
5.07337500000000e+00 2.88301021006921e-02 2.18956899556510e-04
5.13562500000000e+00 2.85823212746974e-02 2.18402833514221e-04
5.19787500000000e+00 2.83366700054250e-02 2.17834162605645e-04
5.26012500000000e+00 2.80931299903616e-02 2.17251388476081e-04
5.32237500000000e+00 2.78516830842953e-02 2.16654998076125e-04
5.38462500000000e+00 2.76123112979636e-02 2.16045464187564e-04
5.44687500000000e+00 2.73749967967130e-02 2.15423245924688e-04
5.50912500000000e+00 2.71397218991701e-02 2.14788789212498e-04
5.57137500000000e+00 2.69064690759246e-02 2.14142527243133e-04
5.63362500000000e+00 2.66752209482229e-02 2.13484880911777e-04
5.69587500000000e+00 2.64459602866735e-02 2.12816259233227e-04
5.75812500000000e+00 2.62186700099632e-02 2.12137059740149e-04
5.82037500000000e+00 2.59933331835842e-02 2.11447668864072e-04
5.88262500000000e+00 2.57699330185730e-02 2.10748462300087e-04
5.94487500000000e+00 2.55484528702590e-02 2.10039805356093e-04
6.00712500000000e+00 2.53288762370244e-02 2.09322053287399e-04
6.06937500000000e+00 2.51111867590750e-02 2.08595551617494e-04
6.13162500000000e+00 2.48953682172210e-02 2.07860636445725e-04
6.19387500000000e+00 2.46814045316690e-02 2.07117634742500e-04
6.25612500000000e+00 2.44692797608233e-02 2.06366864632676e-04
6.31837500000000e+00 2.42589781000988e-02 2.05608635667730e-04
6.38062500000000e+00 2.40504838807431e-02 2.04843249087298e-04
6.44287500000000e+00 2.38437815686691e-02 2.04070998070574e-04
6.50512500000000e+00 2.36388557632977e-02 2.03292167978052e-04
6.56737500000000e+00 2.34356911964106e-02 2.02507036584120e-04
6.62962500000000e+00 2.32342727310121e-02 2.01715874300943e-04
6.69187500000000e+00 2.30345853602019e-02 2.00918944393978e-04
6.75412500000000e+00 2.28366142060567e-02 2.00116503189592e-04
6.81637500000000e+00 2.26403445185219e-02 1.99308800275117e-04
6.87862500000000e+00 2.24457616743124e-02 1.98496078691688e-04
6.94087500000000e+00 2.22528511758231e-02 1.97678575120191e-04
7.00312500000000e+00 2.20615986500490e-02 1.96856520060630e-04
7.06537500000000e+00 2.18719898475140e-02 1.96030138005232e-04
7.12762500000000e+00 2.16840106412095e-02 1.95199647605505e-04
7.18987500000000e+00 2.14976470255417e-02 1.94365261833585e-04
7.25212500000000e+00 2.13128851152880e-02 1.93527188138061e-04
7.31437500000000e+00 2.11297111445628e-02 1.92685628594547e-04
7.37662500000000e+00 2.09481114657915e-02 1.91840780051254e-04
7.43887500000000e+00 2.07680725486938e-02 1.90992834269649e-04
7.50112500000000e+00 2.05895809792758e-02 1.90141978060553e-04
7.56337500000000e+00 2.04126234588303e-02 1.89288393415799e-04
7.62562500000000e+00 2.02371868029460e-02 1.88432257635590e-04
7.68787500000000e+00 2.00632579405253e-02 1.87573743451831e-04
7.75012500000000e+00 1.98908239128106e-02 1.86713019147518e-04
7.81237500000000e+00 1.97198718724183e-02 1.85850248672346e-04
7.87462500000000e+00 1.95503890823820e-02 1.84985591754692e-04
7.93687500000000e+00 1.93823629152032e-02 1.84119204010189e-04
7.99912500000000e+00 1.92157808519110e-02 1.83251237046924e-04
8.06137500000000e+00 1.90506304811287e-02 1.82381838567379e-04
8.12362500000000e+00 1.88868994981496e-02 1.81511152467325e-04
8.18587500000000e+00 1.87245757040199e-02 1.80639318931781e-04
8.24812500000000e+00 1.85636470046300e-02 1.79766474528026e-04
8.31037500000000e+00 1.84041014098133e-02 1.78892752295912e-04
8.37262500000000e+00 1.82459270324529e-02 1.78018281835515e-04
8.43487500000000e+00 1.80891120875959e-02 1.77143189392208e-04
8.49712500000000e+00 1.79336448915756e-02 1.76267597939283e-04
8.55937500000000e+00 1.77795138611404e-02 1.75391627258179e-04
8.62162500000000e+00 1.76267075125915e-02 1.74515394016462e-04
8.68387500000000e+00 1.74752144609269e-02 1.73639011843538e-04
8.74612500000000e+00 1.73250234189930e-02 1.72762591404265e-04
8.80837500000000e+00 1.71761231966440e-02 1.71886240470482e-04
8.87062500000000e+00 1.70285026999081e-02 1.71010063990542e-04
8.93287500000000e+00 1.68821509301606e-02 1.70134164156996e-04
8.99512500000000e+00 1.67370569833049e-02 1.69258640472336e-04
9.05737500000000e+00 1.65932100489597e-02 1.68383589812955e-04
9.11962500000000e+00 1.64505994096538e-02 1.67509106491427e-04
9.18187500000000e+00 1.63092144400274e-02 1.66635282317043e-04
9.24412500000000e+00 1.61690446060406e-02 1.65762206654769e-04
9.30637500000000e+00 1.60300794641886e-02 1.64889966482640e-04
9.36862500000000e+00 1.58923086607234e-02 1.64018646447604e-04
9.43087500000000e+00 1.57557219308823e-02 1.63148328919904e-04
9.49312500000000e+00 1.56203090981236e-02 1.62279094046073e-04
9.55537500000000e+00 1.54860600733679e-02 1.61411019800501e-04
9.61762500000000e+00 1.53529648542465e-02 1.60544182035700e-04
9.67987500000000e+00 1.52210135243565e-02 1.59678654531301e-04
9.74212500000000e+00 1.50901962525213e-02 1.58814509041735e-04
9.80437500000000e+00 1.49605032920589e-02 1.57951815342728e-04
9.86662500000000e+00 1.48319249800552e-02 1.57090641276659e-04
9.92887500000000e+00 1.47044517366440e-02 1.56231052796736e-04
9.99112500000000e+00 1.45780740642938e-02 1.55373114010061e-04
1.00533750000000e+01 1.44527825470995e-02 1.54516887219654e-04
1.01156250000000e+01 1.43285678500812e-02 1.53662432965426e-04
1.01778750000000e+01 1.42054207184889e-02 1.52809810064127e-04
1.02401250000000e+01 1.40833319771124e-02 1.51959075648313e-04
1.03023750000000e+01 1.39622925295982e-02 1.51110285204389e-04
1.03646250000000e+01 1.38422933577714e-02 1.50263492609714e-04
1.04268750000000e+01 1.37233255209643e-02 1.49418750168799e-04
1.04891250000000e+01 1.36053801553495e-02 1.48576108648651e-04
1.05513750000000e+01 1.34884484732801e-02 1.47735617313252e-04
1.06136250000000e+01 1.33725217626350e-02 1.46897323957219e-04
1.06758750000000e+01 1.32575913861693e-02 1.46061274938688e-04
1.07381250000000e+01 1.31436487808711e-02 1.45227515211399e-04
1.08003750000000e+01 1.30306854573236e-02 1.44396088356031e-04
1.08626250000000e+01 1.29186929990723e-02 1.43567036610797e-04
1.09248750000000e+01 1.28076630619981e-02 1.42740400901329e-04
1.09871250000000e+01 1.26975873736957e-02 1.41916220869880e-04
1.10493750000000e+01 1.25884577328569e-02 1.41094534903838e-04
1.11116250000000e+01 1.24802660086600e-02 1.40275380163574e-04
1.11738750000000e+01 1.23730041401637e-02 1.39458792609668e-04
1.12361250000000e+01 1.22666641357067e-02 1.38644807029511e-04
1.12983750000000e+01 1.21612380723119e-02 1.37833457063288e-04
1.13606250000000e+01 1.20567180950968e-02 1.37024775229372e-04
1.14228750000000e+01 1.19530964166874e-02 1.36218792949165e-04
1.14851250000000e+01 1.18503653166387e-02 1.35415540571354e-04
1.15473750000000e+01 1.17485171408591e-02 1.34615047395626e-04
1.16096250000000e+01 1.16475443010402e-02 1.33817341695865e-04
1.16718750000000e+01 1.15474392740916e-02 1.33022450742829e-04
1.17341250000000e+01 1.14481946015800e-02 1.32230400826313e-04
1.17963750000000e+01 1.13498028891740e-02 1.31441217276817e-04
1.18586250000000e+01 1.12522568060927e-02 1.30654924486761e-04
1.19208750000000e+01 1.11555490845599e-02 1.29871545931205e-04
1.19831250000000e+01 1.10596725192622e-02 1.29091104188138e-04
1.20453750000000e+01 1.09646199668126e-02 1.28313620958293e-04
1.21076250000000e+01 1.08703843452180e-02 1.27539117084551e-04
1.21698750000000e+01 1.07769586333516e-02 1.26767612570956e-04
1.22321250000000e+01 1.06843358704299e-02 1.25999126601230e-04
1.22943750000000e+01 1.05925091554938e-02 1.25233677556952e-04
1.23566250000000e+01 1.05014716468947e-02 1.24471283035360e-04
1.24188750000000e+01 1.04112165617847e-02 1.23711959866721e-04
1.24811250000000e+01 1.03217371756113e-02 1.22955724131348e-04
1.25433750000000e+01 1.02330268216160e-02 1.22202591176257e-04
1.26056250000000e+01 1.01450788903381e-02 1.21452575631473e-04
1.26678750000000e+01 1.00578868291221e-02 1.20705691425983e-04
1.27301250000000e+01 9.97144414162912e-03 1.19961951803341e-04
1.27923750000000e+01 9.88574438735344e-03 1.19221369336967e-04
1.28546250000000e+01 9.80078118114226e-03 1.18483955945091e-04
1.29168750000000e+01 9.71654819272013e-03 1.17749722905397e-04
1.29791250000000e+01 9.63303914621727e-03 1.17018680869391e-04
1.30413750000000e+01 9.55024781970195e-03 1.16290839876409e-04
1.31036250000000e+01 9.46816804471696e-03 1.15566209367362e-04
1.31658750000000e+01 9.38679370581999e-03 1.14844798198205e-04
1.32281250000000e+01 9.30611874012802e-03 1.14126614653112e-04
1.32903750000000e+01 9.22613713686558e-03 1.13411666457362e-04
1.33526250000000e+01 9.14684293691693e-03 1.12699960789977e-04
1.34148750000000e+01 9.06823023238203e-03 1.11991504296114e-04
1.34771250000000e+01 8.99029316613643e-03 1.11286303099168e-04
1.35393750000000e+01 8.91302593139480e-03 1.10584362812632e-04
1.36016250000000e+01 8.83642277127836e-03 1.09885688551727e-04
1.36638750000000e+01 8.76047797838591e-03 1.09190284944773e-04
1.37261250000000e+01 8.68518589436862e-03 1.08498156144362e-04
1.37883750000000e+01 8.61054090950843e-03 1.07809305838254e-04
1.38506250000000e+01 8.53653746230012e-03 1.07123737260085e-04
1.39128750000000e+01 8.46317003903691e-03 1.06441453199849e-04
1.39751250000000e+01 8.39043317339968e-03 1.05762456014152e-04
1.40373750000000e+01 8.31832144604968e-03 1.05086747636277e-04
1.40996250000000e+01 8.24682948422476e-03 1.04414329586031e-04
1.41618750000000e+01 8.17595196133909e-03 1.03745202979396e-04
1.42241250000000e+01 8.10568359658624e-03 1.03079368537981e-04
1.42863750000000e+01 8.03601915454581e-03 1.02416826598285e-04
1.43486250000000e+01 7.96695344479327e-03 1.01757577120784e-04
1.44108750000000e+01 7.89848132151333e-03 1.01101619698813e-04
1.44731250000000e+01 7.83059768311647e-03 1.00448953567282e-04
1.45353750000000e+01 7.76329747185888e-03 9.97995776112114e-05
1.45976250000000e+01 7.69657567346561e-03 9.91534903741003e-05
1.46598750000000e+01 7.63042731675702e-03 9.85106900661239e-05
1.47221250000000e+01 7.56484747327831e-03 9.78711745721585e-05
1.47843750000000e+01 7.49983125693242e-03 9.72349414596575e-05
1.48466250000000e+01 7.43537382361591e-03 9.66019879863645e-05
1.49088750000000e+01 7.37147037085808e-03 9.59723111078756e-05
1.49711250000000e+01 7.30811613746316e-03 9.53459074850375e-05
1.50333750000000e+01 7.24530640315555e-03 9.47227734912114e-05
1.50956250000000e+01 7.18303648822815e-03 9.41029052193832e-05
1.51578750000000e+01 7.12130175319367e-03 9.34862984891325e-05
1.52201250000000e+01 7.06009759843900e-03 9.28729488534702e-05
1.52823750000000e+01 6.99941946388247e-03 9.22628516055291e-05
1.53446250000000e+01 6.93926282863412e-03 9.16560017851261e-05
1.54068750000000e+01 6.87962321065886e-03 9.10523941851949e-05
1.54691250000000e+01 6.82049616644251e-03 9.04520233580888e-05
1.55313750000000e+01 6.76187729066080e-03 8.98548836217513e-05
1.55936250000000e+01 6.70376221585104e-03 8.92609690657743e-05
1.56558750000000e+01 6.64614661208682e-03 8.86702735573325e-05
1.57181250000000e+01 6.58902618665534e-03 8.80827907469939e-05
1.57803750000000e+01 6.53239668373759e-03 8.74985140744260e-05
1.58426250000000e+01 6.47625388409130e-03 8.69174367739732e-05
1.59048750000000e+01 6.42059360473652e-03 8.63395518801339e-05
1.59671250000000e+01 6.36541169864401e-03 8.57648522329313e-05
1.60293750000000e+01 6.31070405442626e-03 8.51933304831578e-05
1.60916250000000e+01 6.25646659603112e-03 8.46249790975449e-05
1.61538750000000e+01 6.20269528243819e-03 8.40597903638076e-05
1.62161250000000e+01 6.14938610735764e-03 8.34977563955947e-05
1.62783750000000e+01 6.09653509893181e-03 8.29388691373492e-05
1.63406250000000e+01 6.04413831943921e-03 8.23831203690450e-05
1.64028750000000e+01 5.99219186500121e-03 8.18305017108622e-05
1.64651250000000e+01 5.94069186529108e-03 8.12810046277577e-05
1.65273750000000e+01 5.88963448324573e-03 8.07346204339350e-05
1.65896250000000e+01 5.83901591477974e-03 8.01913402972349e-05
1.66518750000000e+01 5.78883238850200e-03 7.96511552434306e-05
1.67141250000000e+01 5.73908016543466e-03 7.91140561604459e-05
1.67763750000000e+01 5.68975553873461e-03 7.85800338024885e-05
1.68386250000000e+01 5.64085483341725e-03 7.80490787940946e-05
1.69008750000000e+01 5.59237440608271e-03 7.75211816340941e-05
1.69631250000000e+01 5.54431064464438e-03 7.69963326995019e-05
1.70253750000000e+01 5.49665996805979e-03 7.64745222493269e-05
1.70876250000000e+01 5.44941882606381e-03 7.59557404282998e-05
1.71498750000000e+01 5.40258369890411e-03 7.54399772705394e-05
1.72121250000000e+01 5.35615109707897e-03 7.49272227031311e-05
1.72743750000000e+01 5.31011756107722e-03 7.44174665496424e-05
1.73366250000000e+01 5.26447966112054e-03 7.39106985335709e-05
1.73988750000000e+01 5.21923399690789e-03 7.34069082817132e-05
1.74611250000000e+01 5.17437719736217e-03 7.29060853274671e-05
1.75233750000000e+01 5.12990592037910e-03 7.24082191140697e-05
1.75856250000000e+01 5.08581685257813e-03 7.19132989977804e-05
1.76478750000000e+01 5.04210670905563e-03 7.14213142509834e-05
1.77101250000000e+01 4.99877223314016e-03 7.09322540652320e-05
1.77723750000000e+01 4.95581019614977e-03 7.04461075542348e-05
1.78346250000000e+01 4.91321739715149e-03 6.99628637567814e-05
1.78968750000000e+01 4.87099066272281e-03 6.94825116396110e-05
1.79591250000000e+01 4.82912684671528e-03 6.90050401002103e-05
1.80213750000000e+01 4.78762283002006e-03 6.85304379695656e-05
1.80836250000000e+01 4.74647552033554e-03 6.80586940148584e-05
1.81458750000000e+01 4.70568185193698e-03 6.75897969421016e-05
1.82081250000000e+01 4.66523878544804e-03 6.71237353987222e-05
1.82703750000000e+01 4.62514330761437e-03 6.66604979760982e-05
1.83326250000000e+01 4.58539243107908e-03 6.62000732120329e-05
1.83948750000000e+01 4.54598319416017e-03 6.57424495931828e-05
1.84571250000000e+01 4.50691266062988e-03 6.52876155574339e-05
1.85193750000000e+01 4.46817791949589e-03 6.48355594962338e-05
1.85816250000000e+01 4.42977608478448e-03 6.43862697568757e-05
1.86438750000000e+01 4.39170429532547e-03 6.39397346447249e-05
1.87061250000000e+01 4.35395971453906e-03 6.34959424254090e-05
1.87683750000000e+01 4.31653953022448e-03 6.30548813269585e-05
1.88306250000000e+01 4.27944095435048e-03 6.26165395419030e-05
1.88928750000000e+01 4.24266122284758e-03 6.21809052293245e-05
1.89551250000000e+01 4.20619759540217e-03 6.17479665168698e-05
1.90173750000000e+01 4.17004735525229e-03 6.13177115027172e-05
1.90796250000000e+01 4.13420780898524e-03 6.08901282574963e-05
1.91418750000000e+01 4.09867628633692e-03 6.04652048261801e-05
1.92041250000000e+01 4.06345013999285e-03 6.00429292299263e-05
1.92663750000000e+01 4.02852674539094e-03 5.96232894678850e-05
1.93286250000000e+01 3.99390350052595e-03 5.92062735189738e-05
1.93908750000000e+01 3.95957782575563e-03 5.87918693435938e-05
1.94531250000000e+01 3.92554716360849e-03 5.83800648853272e-05
1.95153750000000e+01 3.89180897859329e-03 5.79708480725988e-05
1.95776250000000e+01 3.85836075701011e-03 5.75642068202907e-05
1.96398750000000e+01 3.82520000676307e-03 5.71601290313345e-05
