Energy (eV)          EEDF (eV^-(3/2))     First Anisotropy
2.31250000000000e-03 2.18852007105775e+00 1.16355392545695e-03
6.93750000000000e-03 2.17279652715885e+00 1.92091393213801e-03
1.15625000000000e-02 2.15718594992833e+00 2.53464727966809e-03
1.61875000000000e-02 2.14168752775494e+00 3.00018972005226e-03
2.08125000000000e-02 2.12630045485521e+00 3.38786615919558e-03
2.54375000000000e-02 2.11102393123437e+00 3.72427744963119e-03
3.00625000000000e-02 2.09585716264511e+00 4.02319540762765e-03
3.46875000000000e-02 2.08079936054638e+00 4.29293986851084e-03
3.93125000000000e-02 2.06584974206241e+00 4.53903094365125e-03
4.39375000000000e-02 2.05100752994204e+00 4.76537171019668e-03
4.85625000000000e-02 2.03627195251831e+00 4.97485258821910e-03
5.31875000000000e-02 2.02164224366832e+00 5.16969097905954e-03
5.78125000000000e-02 2.00711764277345e+00 5.35163606917796e-03
6.24375000000000e-02 1.99269739467976e+00 5.52209925633229e-03
6.70625000000000e-02 1.97838074965876e+00 5.68224091402618e-03
7.16875000000000e-02 1.96416696336843e+00 5.83303021129889e-03
7.63125000000000e-02 1.95005529681452e+00 5.97528760593209e-03
8.09375000000000e-02 1.93604501631211e+00 6.10971580478316e-03
8.55625000000000e-02 1.92213539344749e+00 6.23692281873705e-03
9.01875000000000e-02 1.90832570504027e+00 6.35743945968671e-03
9.48125000000000e-02 1.89461523310581e+00 6.47173284258741e-03
9.94375000000000e-02 1.88100326481786e+00 6.58021695964085e-03
1.04062500000000e-01 1.86748909247148e+00 6.68326107128342e-03
1.08687500000000e-01 1.85407201344632e+00 6.78119644393825e-03
1.13312500000000e-01 1.84075133017003e+00 6.87432181834572e-03
1.17937500000000e-01 1.82752635008199e+00 6.96290789087518e-03
1.22562500000000e-01 1.81439638559733e+00 7.04720101858533e-03
1.27187500000000e-01 1.80136075407119e+00 7.12742630740457e-03
1.31812500000000e-01 1.78841877776319e+00 7.20379020537409e-03
1.36437500000000e-01 1.77556978380221e+00 7.27648269528537e-03
1.41062500000000e-01 1.76281310415142e+00 7.34567916042672e-03
1.45687500000000e-01 1.75014807557355e+00 7.41154198156898e-03
1.50312500000000e-01 1.73757403959636e+00 7.47422191143953e-03
1.54937500000000e-01 1.72509034247847e+00 7.53385926377040e-03
1.59562500000000e-01 1.71269633517533e+00 7.59058494688188e-03
1.64187500000000e-01 1.70039137330549e+00 7.64452136618068e-03
1.68812500000000e-01 1.68817481711710e+00 7.69578321553383e-03
1.73437500000000e-01 1.67604603145462e+00 7.74447817397007e-03
1.78062500000000e-01 1.66400438572585e+00 7.79070752133954e-03
1.82687500000000e-01 1.65204925386909e+00 7.83456668428824e-03
1.87312500000000e-01 1.64018001432063e+00 7.87614572206652e-03
1.91937500000000e-01 1.62839604998242e+00 7.91552976017678e-03
1.96562500000000e-01 1.61669674818997e+00 7.95279937862857e-03
2.01187500000000e-01 1.60508150068052e+00 7.98803096055285e-03
2.05812500000000e-01 1.59354970356142e+00 8.02129700607864e-03
2.10437500000000e-01 1.58210075727870e+00 8.05266641566688e-03
2.15062500000000e-01 1.57073406658594e+00 8.08220474651172e-03
2.19687500000000e-01 1.55944904051328e+00 8.10997444511789e-03
2.24312500000000e-01 1.54824509233672e+00 8.13603505874598e-03
2.28937500000000e-01 1.53712163954762e+00 8.16044342806252e-03
2.33562500000000e-01 1.52607810382240e+00 8.18325386303245e-03
2.38187500000000e-01 1.51511391099249e+00 8.20451830382935e-03
2.42812500000000e-01 1.50422849101444e+00 8.22428646832044e-03
2.47437500000000e-01 1.49342127794034e+00 8.24260598749779e-03
2.52062500000000e-01 1.48269170988833e+00 8.25952253005565e-03
2.56687500000000e-01 1.47203922901346e+00 8.27507991718329e-03
2.61312500000000e-01 1.46146328147861e+00 8.28932022851317e-03
2.65937500000000e-01 1.45096331742576e+00 8.30228390005618e-03
2.70562500000000e-01 1.44053879094737e+00 8.31400981487139e-03
2.75187500000000e-01 1.43018916005799e+00 8.32453538713151e-03
2.79812500000000e-01 1.41991388666611e+00 8.33389664017555e-03
2.84437500000000e-01 1.40971243654616e+00 8.34212827907498e-03
2.89062500000000e-01 1.39958427931075e+00 8.34926375819073e-03
2.93687500000000e-01 1.38952888838308e+00 8.35533534414637e-03
2.98312500000000e-01 1.37954574096958e+00 8.36037417460025e-03
3.02937500000000e-01 1.36963431803270e+00 8.36441031316384e-03
3.07562500000000e-01 1.35979410426397e+00 8.36747280077607e-03
3.12187500000000e-01 1.35002458805717e+00 8.36958970381820e-03
3.16812500000000e-01 1.34032526148173e+00 8.37078815922415e-03
3.21437500000000e-01 1.33069562025636e+00 8.37109441681877e-03
3.26062500000000e-01 1.32113516372280e+00 8.37053387909470e-03
3.30687500000000e-01 1.31164339481977e+00 8.36913113861903e-03
3.35312500000000e-01 1.30221982005720e+00 8.36691001324834e-03
3.39937500000000e-01 1.29286394949048e+00 8.36389357930702e-03
3.44562500000000e-01 1.28357529669508e+00 8.36010420287674e-03
3.49187500000000e-01 1.27435337874118e+00 8.35556356933383e-03
3.53812500000000e-01 1.26519771616862e+00 8.35029271125184e-03
3.58437500000000e-01 1.25610783296191e+00 8.34431203478401e-03
3.63062500000000e-01 1.24708325652557e+00 8.33764134462965e-03
3.67687500000000e-01 1.23812351765947e+00 8.33029986767743e-03
3.72312500000000e-01 1.22922815053450e+00 8.32230627541563e-03
3.76937500000000e-01 1.22039669266830e+00 8.31367870518602e-03
3.81562500000000e-01 1.21162868490127e+00 8.30443478035688e-03
3.86187500000000e-01 1.20292367137263e+00 8.29459162948730e-03
3.90812500000000e-01 1.19428119949680e+00 8.28416590454134e-03
3.95437500000000e-01 1.18570081993979e+00 8.27317379821278e-03
4.00062500000000e-01 1.17718208659589e+00 8.26163106041572e-03
4.04687500000000e-01 1.16872455656447e+00 8.24955301398918e-03
4.09312500000000e-01 1.16032779012693e+00 8.23695456966345e-03
4.13937500000000e-01 1.15199135072386e+00 8.22385024033456e-03
4.18562500000000e-01 1.14371480493232e+00 8.21025415468261e-03
4.23187500000000e-01 1.13549772244335e+00 8.19618007017279e-03
4.27812500000000e-01 1.12733967603955e+00 8.18164138547706e-03
4.32437500000000e-01 1.11924024157288e+00 8.16665115234615e-03
4.37062500000000e-01 1.11119899794264e+00 8.15122208696233e-03
4.41687500000000e-01 1.10321552707352e+00 8.13536658080358e-03
4.46312500000000e-01 1.09528941389392e+00 8.11909671104401e-03
4.50937500000000e-01 1.08742024631434e+00 8.10242425051585e-03
4.55562500000000e-01 1.07960761520595e+00 8.08536067725617e-03
4.60187500000000e-01 1.07185111437933e+00 8.06791718365981e-03
4.64812500000000e-01 1.06415034056337e+00 8.05010468526110e-03
4.69437500000000e-01 1.05650489338426e+00 8.03193382915901e-03
4.74062500000000e-01 1.04891437534471e+00 8.01341500210753e-03
4.78687500000000e-01 1.04137839180327e+00 7.99455833828864e-03
4.83312500000000e-01 1.03389655095380e+00 7.97537372678048e-03
4.87937500000000e-01 1.02646846380514e+00 7.95587081873638e-03
4.92562500000000e-01 1.01909374416084e+00 7.93605903429176e-03
4.97187500000000e-01 1.01177200859910e+00 7.91594756920990e-03
5.01812500000000e-01 1.00450287645283e+00 7.89554540127792e-03
5.06437500000000e-01 9.97285969789891e-01 7.87486129646651e-03
5.11062500000000e-01 9.90120913393386e-01 7.85390381486372e-03
5.15687500000000e-01 9.83007334742202e-01 7.83268131639395e-03
5.20312500000000e-01 9.75944863991621e-01 7.81120196633113e-03
5.24937500000000e-01 9.68933133954095e-01 7.78947374061595e-03
5.29562500000000e-01 9.61971780080155e-01 7.76750443098651e-03
5.34187500000000e-01 9.55060440439457e-01 7.74530164992741e-03
5.38812500000000e-01 9.48198755701968e-01 7.72287283545082e-03
5.43437500000000e-01 9.41386369119280e-01 7.70022525571380e-03
5.48062500000000e-01 9.34622926506063e-01 7.67736601347585e-03
5.52687500000000e-01 9.27908076221653e-01 7.65430205041001e-03
5.57312500000000e-01 9.21241469151766e-01 7.63104015126915e-03
5.61937500000000e-01 9.14622758690350e-01 7.60758694791479e-03
5.66562500000000e-01 9.08051600721564e-01 7.58394892321483e-03
5.71187500000000e-01 9.01527653601886e-01 7.56013241481413e-03
5.75812500000000e-01 8.95050578142349e-01 7.53614361878393e-03
5.80437500000000e-01 8.88620037590910e-01 7.51198859315669e-03
5.85062500000000e-01 8.82235697614941e-01 7.48767326134805e-03
5.89687500000000e-01 8.75897226283841e-01 7.46320341547082e-03
5.94312500000000e-01 8.69604294051787e-01 7.43858471954847e-03
5.98937500000000e-01 8.63356573740594e-01 7.41382271262813e-03
6.03562500000000e-01 8.57153740522709e-01 7.38892281179906e-03
6.08187500000000e-01 8.50995471904316e-01 7.36389031512029e-03
6.12812500000000e-01 8.44881447708579e-01 7.33873040445837e-03
6.17437500000000e-01 8.38811350058988e-01 7.31344814824347e-03
6.22062500000000e-01 8.32784863362832e-01 7.28804850414259e-03
6.26687500000000e-01 8.26801674294798e-01 7.26253632165393e-03
6.31312500000000e-01 8.20861471780672e-01 7.23691634462721e-03
6.35937500000000e-01 8.14963946981174e-01 7.21119321371021e-03
6.40562500000000e-01 8.09108793275894e-01 7.18537146872600e-03
6.45187500000000e-01 8.03295706247354e-01 7.15945555098261e-03
6.49812500000000e-01 7.97524383665180e-01 7.13344980551663e-03
6.54437500000000e-01 7.91794525470390e-01 7.10735848327443e-03
6.59062500000000e-01 7.86105833759790e-01 7.08118574323366e-03
6.63687500000000e-01 7.80458012770492e-01 7.05493565446529e-03
6.68312500000000e-01 7.74850768864529e-01 7.02861219814031e-03
6.72937500000000e-01 7.69283810513595e-01 7.00221926948036e-03
6.77562500000000e-01 7.63756848283884e-01 6.97576067965681e-03
6.82187500000000e-01 7.58269594821042e-01 6.94924015763884e-03
6.86812500000000e-01 7.52821764835231e-01 6.92266135199149e-03
6.91437500000000e-01 7.47413075086293e-01 6.89602783262718e-03
6.96062500000000e-01 7.42043244369022e-01 6.86934309251132e-03
7.00687500000000e-01 7.36711993498550e-01 6.84261054932238e-03
7.05312500000000e-01 7.31419045295826e-01 6.81583354707044e-03
7.09937500000000e-01 7.26164124573208e-01 6.78901535767288e-03
7.14562500000000e-01 7.20946958120156e-01 6.76215918248993e-03
7.19187500000000e-01 7.15767274689023e-01 6.73526815382214e-03
7.23812500000000e-01 7.10624804980959e-01 6.70834533636872e-03
7.28437500000000e-01 7.05519281631905e-01 6.68139372865078e-03
7.33062500000000e-01 7.00450439198695e-01 6.65441626439829e-03
7.37687500000000e-01 6.95418014145252e-01 6.62741581390192e-03
7.42312500000000e-01 6.90421744828891e-01 6.60039518533349e-03
7.46937500000000e-01 6.85461371486712e-01 6.57335712603290e-03
7.51562500000000e-01 6.80536636222096e-01 6.54630432376336e-03
7.56187500000000e-01 6.75647282991298e-01 6.51923940793778e-03
7.60812500000000e-01 6.70793057590132e-01 6.49216495081445e-03
7.65437500000000e-01 6.65973707640755e-01 6.46508346866438e-03
7.70062500000000e-01 6.61188982578551e-01 6.43799742291122e-03
7.74687500000000e-01 6.56438633639094e-01 6.41090922124406e-03
7.79312500000000e-01 6.51722413845224e-01 6.38382121870457e-03
7.83937500000000e-01 6.47040077994200e-01 6.35673571874841e-03
7.88562500000000e-01 6.42391382644954e-01 6.32965497428070e-03
7.93187500000000e-01 6.37776086105433e-01 6.30258118866910e-03
7.97812500000000e-01 6.33193948420037e-01 6.27551651673500e-03
8.02437500000000e-01 6.28644731357137e-01 6.24846306571940e-03
8.07062500000000e-01 6.24128198396694e-01 6.22142289622678e-03
8.11687500000000e-01 6.19644114717960e-01 6.19439802315037e-03
8.16312500000000e-01 6.15192247187270e-01 6.16739041657421e-03
8.20937500000000e-01 6.10772364345921e-01 6.14040200265544e-03
8.25562500000000e-01 6.06384236398136e-01 6.11343466448754e-03
8.30187500000000e-01 6.02027635199121e-01 6.08649024294424e-03
8.34812500000000e-01 5.97702334243200e-01 6.05957053750465e-03
8.39437500000000e-01 5.93408108652038e-01 6.03267730706027e-03
8.44062500000000e-01 5.89144735162953e-01 6.00581227070477e-03
8.48687500000000e-01 5.84911992117305e-01 5.97897710850649e-03
8.53312500000000e-01 5.80709659448975e-01 5.95217346226369e-03
8.57937500000000e-01 5.76537518672917e-01 5.92540293624346e-03
8.62562500000000e-01 5.72395352873807e-01 5.89866709790666e-03
8.67187500000000e-01 5.68282946694760e-01 5.87196747861544e-03
8.71812500000000e-01 5.64200086326133e-01 5.84530557432576e-03
8.76437500000000e-01 5.60146559494411e-01 5.81868284626652e-03
8.81062500000000e-01 5.56122155451171e-01 5.79210072160322e-03
8.85687500000000e-01 5.52126664962123e-01 5.76556059408850e-03
8.90312500000000e-01 5.48159880296232e-01 5.73906382469918e-03
8.94937500000000e-01 5.44221595214919e-01 5.71261174225946e-03
8.99562500000000e-01 5.40311604961336e-01 5.68620564405109e-03
9.04187500000000e-01 5.36429706249723e-01 5.65984679641169e-03
9.08812500000000e-01 5.32575697254839e-01 5.63353643532101e-03
9.13437500000000e-01 5.28749377601465e-01 5.60727576697368e-03
9.18062500000000e-01 5.24950548353991e-01 5.58106596834192e-03
9.22687500000000e-01 5.21179012006069e-01 5.55490818772653e-03
9.27312500000000e-01 5.17434572470349e-01 5.52880354529552e-03
9.31937500000000e-01 5.13717035068279e-01 5.50275313361356e-03
9.36562500000000e-01 5.10026206519987e-01 5.47675801816031e-03
9.41187500000000e-01 5.06361894934231e-01 5.45081923783752e-03
9.45812500000000e-01 5.02723909798422e-01 5.42493780546740e-03
9.50437500000000e-01 4.99112061968719e-01 5.39911470827973e-03
9.55062500000000e-01 4.95526163660196e-01 5.37335090839065e-03
9.59687500000000e-01 4.91966028437077e-01 5.34764734327176e-03
9.64312500000000e-01 4.88431471203046e-01 5.32200492620830e-03
9.68937500000000e-01 4.84922308191621e-01 5.29642454675132e-03
9.73562500000000e-01 4.81438356956600e-01 5.27090707115916e-03
9.78187500000000e-01 4.77979436362577e-01 5.24545334283018e-03
9.82812500000000e-01 4.74545366575522e-01 5.22006418272813e-03
9.87437500000000e-01 4.71135969053433e-01 5.19474038979914e-03
9.92062500000000e-01 4.67751066537054e-01 5.16948274137994e-03
9.96687500000000e-01 4.64390483040656e-01 5.14429199359859e-03
1.00131250000000e+00 4.61054043842891e-01 5.11916888176833e-03
1.00593750000000e+00 4.57741575477705e-01 5.09411412077318e-03
1.01056250000000e+00 4.54452905725322e-01 5.06912840544617e-03
1.01518750000000e+00 4.51187863603286e-01 5.04421241094075e-03
1.01981250000000e+00 4.47946279357577e-01 5.01936679309491e-03
1.02443750000000e+00 4.44727984453780e-01 4.99459218878893e-03
1.02906250000000e+00 4.41532811568325e-01 4.96988921629618e-03
1.03368750000000e+00 4.38360594579789e-01 4.94525847562684e-03
1.03831250000000e+00 4.35211168560257e-01 4.92070054886630e-03
1.04293750000000e+00 4.32084369766746e-01 4.89621600050622e-03
1.04756250000000e+00 4.28980035632695e-01 4.87180537776960e-03
1.05218750000000e+00 4.25898004759513e-01 4.84746921093086e-03
1.05681250000000e+00 4.22838116908183e-01 4.82320801362899e-03
1.06143750000000e+00 4.19800212990936e-01 4.79902228317542e-03
1.06606250000000e+00 4.16784135062977e-01 4.77491250085580e-03
1.07068750000000e+00 4.13789726314276e-01 4.75087913222631e-03
1.07531250000000e+00 4.10816831061410e-01 4.72692262740522e-03
1.07993750000000e+00 4.07865294739476e-01 4.70304342135854e-03
1.08456250000000e+00 4.04934963894049e-01 4.67924193418081e-03
1.08918750000000e+00 4.02025686173207e-01 4.65551857137086e-03
1.09381250000000e+00 3.99137310319606e-01 4.63187372410201e-03
1.09843750000000e+00 3.96269686162622e-01 4.60830776948747e-03
1.10306250000000e+00 3.93422664610539e-01 4.58482107084175e-03
1.10768750000000e+00 3.90596097642799e-01 4.56141397793730e-03
1.11231250000000e+00 3.87789838302304e-01 4.53808682725530e-03
1.11693750000000e+00 3.85003740687781e-01 4.51483994223289e-03
1.12156250000000e+00 3.82237659946190e-01 4.49167363350651e-03
1.12618750000000e+00 3.79491452265197e-01 4.46858819915056e-03
1.13081250000000e+00 3.76764974865694e-01 4.44558392491063e-03
1.13543750000000e+00 3.74058085994380e-01 4.42266108443377e-03
1.14006250000000e+00 3.71370644916387e-01 4.39981993949561e-03
1.14468750000000e+00 3.68702511907963e-01 4.37706074022087e-03
1.14931250000000e+00 3.66053548249213e-01 4.35438372530183e-03
1.15393750000000e+00 3.63423616216878e-01 4.33178912221352e-03
1.15856250000000e+00 3.60812579077184e-01 4.30927714742352e-03
1.16318750000000e+00 3.58220301078725e-01 4.28684800659845e-03
1.16781250000000e+00 3.55646647445411e-01 4.26450189480759e-03
1.17243750000000e+00 3.53091484369455e-01 4.24223899672275e-03
1.17706250000000e+00 3.50554679004422e-01 4.22005948681402e-03
1.18168750000000e+00 3.48036099458321e-01 4.19796352954264e-03
1.18631250000000e+00 3.45535614786742e-01 4.17595127955069e-03
1.19093750000000e+00 3.43053094986056e-01 4.15402288184683e-03
1.19556250000000e+00 3.40588410986651e-01 4.13217847198949e-03
1.20018750000000e+00 3.38141434646223e-01 4.11041817626683e-03
1.20481250000000e+00 3.35712038743113e-01 4.08874211187258e-03
1.20943750000000e+00 3.33300096969693e-01 4.06715038708040e-03
1.21406250000000e+00 3.30905483925801e-01 4.04564310141450e-03
1.21868750000000e+00 3.28528075112216e-01 4.02422034581672e-03
1.22331250000000e+00 3.26167746924193e-01 4.00288220281194e-03
1.22793750000000e+00 3.23824376645027e-01 3.98162874667013e-03
1.23256250000000e+00 3.21497842439683e-01 3.96046004356515e-03
1.23718750000000e+00 3.19188023348454e-01 3.93937615173144e-03
1.24181250000000e+00 3.16894799280674e-01 3.91837712161769e-03
1.24643750000000e+00 3.14618051008476e-01 3.89746299603836e-03
1.25106250000000e+00 3.12357660160592e-01 3.87663381032190e-03
1.25568750000000e+00 3.10113509216201e-01 3.85588959245725e-03
1.26031250000000e+00 3.07885481498814e-01 3.83523036323750e-03
1.26493750000000e+00 3.05673461170211e-01 3.81465613640065e-03
1.26956250000000e+00 3.03477333224420e-01 3.79416691876898e-03
1.27418750000000e+00 3.01296983481735e-01 3.77376271038517e-03
1.27881250000000e+00 2.99132298582779e-01 3.75344350464615e-03
1.28343750000000e+00 2.96983165982613e-01 3.73320928843509e-03
1.28806250000000e+00 2.94849473944884e-01 3.71306004225165e-03
1.29268750000000e+00 2.92731111536015e-01 3.69299574033915e-03
1.29731250000000e+00 2.90627968619434e-01 3.67301635080943e-03
1.30193750000000e+00 2.88539935849857e-01 3.65312183576616e-03
1.30656250000000e+00 2.86466904667592e-01 3.63331215142668e-03
1.31118750000000e+00 2.84408767292904e-01 3.61358724824062e-03
1.31581250000000e+00 2.82365416720405e-01 3.59394707100647e-03
1.32043750000000e+00 2.80336746713494e-01 3.57439155898734e-03
1.32506250000000e+00 2.78322651798833e-01 3.55492064602411e-03
1.32968750000000e+00 2.76323027260863e-01 3.53553426064688e-03
1.33431250000000e+00 2.74337769136360e-01 3.51623232618384e-03
1.33893750000000e+00 2.72366774209028e-01 3.49701476086920e-03
1.34356250000000e+00 2.70409940004136e-01 3.47788147794891e-03
1.34818750000000e+00 2.68467164783188e-01 3.45883238578489e-03
1.35281250000000e+00 2.66538347538634e-01 3.43986738795732e-03
1.35743750000000e+00 2.64623387988617e-01 3.42098638336471e-03
1.36206250000000e+00 2.62722186571762e-01 3.40218926632361e-03
1.36668750000000e+00 2.60834644441998e-01 3.38347592666538e-03
1.37131250000000e+00 2.58960663463418e-01 3.36484624983143e-03
1.37593750000000e+00 2.57100146205180e-01 3.34630011696805e-03
1.38056250000000e+00 2.55252995936436e-01 3.32783740501843e-03
1.38518750000000e+00 2.53419116621311e-01 3.30945798681357e-03
1.38981250000000e+00 2.51598412913900e-01 3.29116173116200e-03
1.39443750000000e+00 2.49790790153319e-01 3.27294850293729e-03
1.39906250000000e+00 2.47996154358779e-01 3.25481816316480e-03
1.40368750000000e+00 2.46214412224702e-01 3.23677056910654e-03
1.40831250000000e+00 2.44445471115869e-01 3.21880557434463e-03
1.41293750000000e+00 2.42689239062604e-01 3.20092302886399e-03
1.41756250000000e+00 2.40945624755992e-01 3.18312277913278e-03
1.42218750000000e+00 2.39214537543131e-01 3.16540466818181e-03
1.42681250000000e+00 2.37495887422421e-01 3.14776853568292e-03
1.43143750000000e+00 2.35789585038884e-01 3.13021421802581e-03
1.43606250000000e+00 2.34095541679517e-01 3.11274154839363e-03
1.44068750000000e+00 2.32413669268679e-01 3.09535035683729e-03
1.44531250000000e+00 2.30743880363516e-01 3.07804047034846e-03
1.44993750000000e+00 2.29086088149411e-01 3.06081171293141e-03
1.45456250000000e+00 2.27440206435471e-01 3.04366390567409e-03
1.45918750000000e+00 2.25806149650047e-01 3.02659686681701e-03
