Energy (eV)          EEDF (eV^-(3/2))     First Anisotropy
4.93939393939394e-04 3.87913171447489e+01 2.15877781954305e-02
1.48181818181818e-03 3.83868445646360e+01 3.55813286869034e-02
2.46969696969697e-03 3.79865893724016e+01 4.67962605118167e-02
3.45757575757576e-03 3.75905075961036e+01 5.52105025474302e-02
4.44545454545454e-03 3.71985557185149e+01 6.21410503795093e-02
5.43333333333333e-03 3.68106906777170e+01 6.80884951898532e-02
6.42121212121212e-03 3.64268698607615e+01 7.33132038550665e-02
7.40909090909091e-03 3.60470510990297e+01 7.79731789822953e-02
8.39696969696970e-03 3.56711926639348e+01 8.21737189552449e-02
9.38484848484848e-03 3.52992532612280e+01 8.59896031636745e-02
1.03727272727273e-02 3.49311920276208e+01 8.94764494958208e-02
1.13606060606061e-02 3.45669685251221e+01 9.26771080575854e-02
1.23484848484848e-02 3.42065427387853e+01 9.56255233391880e-02
1.33363636363636e-02 3.38498750723308e+01 9.83491984029902e-02
1.43242424242424e-02 3.34969263381334e+01 1.00870836517491e-01
1.53121212121212e-02 3.31476577593554e+01 1.03209474998098e-01
1.63000000000000e-02 3.28020309634737e+01 1.05381292400546e-01
1.72878787878788e-02 3.24600079780575e+01 1.07400197389910e-01
1.82757575757576e-02 3.21215512266089e+01 1.09278268091708e-01
1.92636363636364e-02 3.17866235244403e+01 1.11026086123583e-01
2.02515151515151e-02 3.14551880745810e+01 1.12652994763909e-01
2.12393939393939e-02 3.11272084648822e+01 1.14167301741019e-01
2.22272727272727e-02 3.08026486605097e+01 1.15576440169997e-01
2.32151515151515e-02 3.04814730035641e+01 1.16887098007560e-01
2.42030303030303e-02 3.01636462079450e+01 1.18105323602077e-01
2.51909090909091e-02 2.98491333554727e+01 1.19236612137145e-01
2.61787878787879e-02 2.95378998920513e+01 1.20285977292272e-01
2.71666666666667e-02 2.92299116238807e+01 1.21258011089734e-01
2.81545454545455e-02 2.89251347136943e+01 1.22156934201998e-01
2.91424242424242e-02 2.86235356778030e+01 1.22986638757417e-01
3.01303030303030e-02 2.83250813800963e+01 1.23750724614449e-01
3.11181818181818e-02 2.80297390307609e+01 1.24452530464464e-01
3.21060606060606e-02 2.77374761818780e+01 1.25095160887027e-01
3.30939393939394e-02 2.74482607238592e+01 1.25681509625642e-01
3.40818181818182e-02 2.71620608819150e+01 1.26214279906273e-01
3.50696969696970e-02 2.68788452125712e+01 1.26696002217361e-01
3.60575757575758e-02 2.65985826002103e+01 1.27129049934754e-01
3.70454545454545e-02 2.63212422536536e+01 1.27515653068991e-01
3.80333333333333e-02 2.60467937033081e+01 1.27857910589047e-01
3.90212121212121e-02 2.57752067962063e+01 1.28157801194669e-01
4.00090909090909e-02 2.55064516943294e+01 1.28417192915971e-01
4.09969696969697e-02 2.52404988707760e+01 1.28637851889402e-01
4.19848484848485e-02 2.49773191065161e+01 1.28821450086233e-01
4.29727272727273e-02 2.47168834871845e+01 1.28969572304139e-01
4.39606060606061e-02 2.44591633999028e+01 1.29083722476969e-01
4.49484848484848e-02 2.42041305301354e+01 1.29165329352050e-01
4.59363636363636e-02 2.39517568589811e+01 1.29215751764157e-01
4.69242424242424e-02 2.37020146588728e+01 1.29236283278741e-01
4.79121212121212e-02 2.34548764917694e+01 1.29228156417624e-01
4.89000000000000e-02 2.32103152057224e+01 1.29192546676542e-01
4.98878787878788e-02 2.29683039318931e+01 1.29130576077770e-01
5.08757575757576e-02 2.27288160816008e+01 1.29043316458579e-01
5.18636363636364e-02 2.24918253434023e+01 1.28931792492823e-01
5.28515151515151e-02 2.22573056802010e+01 1.28796984445483e-01
5.38393939393939e-02 2.20252313267000e+01 1.28639830818124e-01
5.48272727272727e-02 2.17955767856174e+01 1.28461230662917e-01
5.58151515151515e-02 2.15683168258511e+01 1.28262045718912e-01
5.68030303030303e-02 2.13434264793804e+01 1.28043102526817e-01
5.77909090909091e-02 2.11208810385232e+01 1.27805194285273e-01
5.87787878787879e-02 2.09006560532209e+01 1.27549082602296e-01
5.97666666666667e-02 2.06827273283534e+01 1.27275499125517e-01
6.07545454545454e-02 2.04670709210804e+01 1.26985147038755e-01
6.17424242424242e-02 2.02536631384622e+01 1.26678702549102e-01
6.27303030303030e-02 2.00424805340934e+01 1.26356816164976e-01
6.37181818181818e-02 1.98334999062993e+01 1.26020113887963e-01
6.47060606060606e-02 1.96266982953261e+01 1.25669198445706e-01
6.56939393939394e-02 1.94220529808189e+01 1.25304650356177e-01
6.66818181818182e-02 1.92195414793242e+01 1.24927028949420e-01
6.76696969696970e-02 1.90191415418220e+01 1.24536873327829e-01
6.86575757575758e-02 1.88208311512799e+01 1.24134703269659e-01
6.96454545454545e-02 1.86245885202343e+01 1.23721020060182e-01
7.06333333333333e-02 1.84303920885976e+01 1.23296307352541e-01
7.16212121212121e-02 1.82382205206814e+01 1.22861031884641e-01
7.26090909090909e-02 1.80480527034671e+01 1.22415644152949e-01
7.35969696969697e-02 1.78598677440786e+01 1.21960579149242e-01
7.45848484848485e-02 1.76736449674875e+01 1.21496256978640e-01
7.55727272727273e-02 1.74893639142414e+01 1.21023083464411e-01
7.65606060606061e-02 1.73070043382165e+01 1.20541450721145e-01
7.75484848484848e-02 1.71265462043927e+01 1.20051737681305e-01
7.85363636363636e-02 1.69479696868185e+01 1.19554310662332e-01
7.95242424242424e-02 1.67712551659308e+01 1.19049523822075e-01
8.05121212121212e-02 1.65963832269061e+01 1.18537719588893e-01
8.15000000000000e-02 1.64233346573573e+01 1.18019229158014e-01
8.24878787878788e-02 1.62520904452224e+01 1.17494372894941e-01
8.34757575757576e-02 1.60826317766757e+01 1.16963460736767e-01
8.44636363636364e-02 1.59149400340614e+01 1.16426792574724e-01
8.54515151515151e-02 1.57489967938479e+01 1.15884658604144e-01
8.64393939393939e-02 1.55847838247415e+01 1.15337339717393e-01
8.74272727272727e-02 1.54222830852653e+01 1.14785107806048e-01
8.84151515151515e-02 1.52614767221996e+01 1.14228226047238e-01
8.94030303030303e-02 1.51023470684781e+01 1.13666949253947e-01
9.03909090909091e-02 1.49448766412469e+01 1.13101524149376e-01
9.13787878787879e-02 1.47890481399437e+01 1.12532189644568e-01
9.23666666666667e-02 1.46348444443972e+01 1.11959177104229e-01
9.33545454545454e-02 1.44822486129462e+01 1.11382710588331e-01
9.43424242424242e-02 1.43312438806944e+01 1.10803007135586e-01
9.53303030303030e-02 1.41818136573166e+01 1.10220276970953e-01
9.63181818181818e-02 1.40339415255913e+01 1.09634723702636e-01
9.73060606060606e-02 1.38876112394775e+01 1.09046544578691e-01
9.82939393939394e-02 1.37428067223298e+01 1.08455930679914e-01
9.92818181818182e-02 1.35995120651320e+01 1.07863067118370e-01
1.00269696969697e-01 1.34577115247492e+01 1.07268133181804e-01
1.01257575757576e-01 1.33173895225985e+01 1.06671302680712e-01
1.02245454545455e-01 1.31785306415300e+01 1.06072743983922e-01
1.03233333333333e-01 1.30411196257567e+01 1.05472620090890e-01
1.04221212121212e-01 1.29051413785607e+01 1.04871088990144e-01
1.05209090909091e-01 1.27705809606378e+01 1.04268303633953e-01
1.06196969696970e-01 1.26374235893655e+01 1.03664412418721e-01
1.07184848484848e-01 1.25056546344189e+01 1.03059559111538e-01
1.08172727272727e-01 1.23752596189474e+01 1.02453882762008e-01
1.09160606060606e-01 1.22462242170490e+01 1.01847518079171e-01
1.10148484848485e-01 1.21185342530385e+01 1.01240595755692e-01
1.11136363636364e-01 1.19921756973423e+01 1.00633242388241e-01
1.12124242424242e-01 1.18671346675265e+01 1.00025580384472e-01
1.13112121212121e-01 1.17433974259058e+01 9.94177284028781e-02
1.14100000000000e-01 1.16209503780376e+01 9.88098012630233e-02
1.15087878787879e-01 1.14997800719913e+01 9.82019103423173e-02
1.16075757575758e-01 1.13798731945568e+01 9.75941634906845e-02
1.17063636363636e-01 1.12612165721158e+01 9.69866649333201e-02
1.18051515151515e-01 1.11437971684081e+01 9.63795156691300e-02
1.19039393939394e-01 1.10276020831028e+01 9.57728133776903e-02
1.20027272727273e-01 1.09126185510750e+01 9.51666527786562e-02
1.21015151515152e-01 1.07988339388968e+01 9.45611255436223e-02
1.22003030303030e-01 1.06862357455744e+01 9.39563201969548e-02
1.22990909090909e-01 1.05748116004597e+01 9.33523223954249e-02
1.23978787878788e-01 1.04645492625376e+01 9.27492151667222e-02
1.24966666666667e-01 1.03554366171289e+01 9.21470788211396e-02
1.25954545454545e-01 1.02474616765276e+01 9.15459908527505e-02
1.26942424242424e-01 1.01406125780209e+01 9.09460262756173e-02
1.27930303030303e-01 1.00348775825877e+01 9.03472575297922e-02
1.28918181818182e-01 9.93024507419734e+00 8.97497547845037e-02
1.29906060606061e-01 9.82670355675138e+00 8.91535858497962e-02
1.30893939393939e-01 9.72424165461780e+00 8.85588160787840e-02
1.31881818181818e-01 9.62284811077552e+00 8.79655086750595e-02
1.32869696969697e-01 9.52251178558036e+00 8.73737245999415e-02
1.33857575757576e-01 9.42322165607812e+00 8.67835228499199e-02
1.34845454545455e-01 9.32496681316460e+00 8.61949603693746e-02
1.35833333333333e-01 9.22773646202986e+00 8.56080919546406e-02
1.36821212121212e-01 9.13151992041959e+00 8.50229705360650e-02
1.37809090909091e-01 9.03630661746288e+00 8.44396470873002e-02
1.38796969696970e-01 8.94208609300281e+00 8.38581708796101e-02
1.39784848484848e-01 8.84884799495594e+00 8.32785893966175e-02
1.40772727272727e-01 8.75658207967861e+00 8.27009482408012e-02
1.41760606060606e-01 8.66527821033651e+00 8.21252913296368e-02
1.42748484848485e-01 8.57492635625007e+00 8.15516610614293e-02
1.43736363636364e-01 8.48551659040390e+00 8.09800982323231e-02
1.44724242424242e-01 8.39703908975616e+00 8.04106419456133e-02
1.45712121212121e-01 8.30948413368780e+00 7.98433298540785e-02
1.46700000000000e-01 8.22284210293619e+00 7.92781980742293e-02
1.47687878787879e-01 8.13710347895863e+00 7.87152814048666e-02
1.48675757575758e-01 8.05225884161285e+00 7.81546132466803e-02
1.49663636363636e-01 7.96829886940646e+00 7.75962255147792e-02
1.50651515151515e-01 7.88521433804054e+00 7.70401488622233e-02
1.51639393939394e-01 7.80299611939749e+00 7.64864125974447e-02
1.52627272727273e-01 7.72163518092422e+00 7.59350448858170e-02
1.53615151515152e-01 7.64112258346975e+00 7.53860726721825e-02
1.54603030303030e-01 7.56144948148273e+00 7.48395215967090e-02
1.55590909090909e-01 7.48260712164320e+00 7.42954161493858e-02
1.56578787878788e-01 7.40458684226233e+00 7.37537797999780e-02
1.57566666666667e-01 7.32738007123852e+00 7.32146349233586e-02
1.58554545454545e-01 7.25097832621669e+00 7.26780027184212e-02
1.59542424242424e-01 7.17537321328576e+00 7.21439034018953e-02
1.60530303030303e-01 7.10055642605723e+00 7.16123561318105e-02
1.61518181818182e-01 7.02651974508466e+00 7.10833791821450e-02
1.62506060606061e-01 6.95325503595557e+00 7.05569898711807e-02
1.63493939393939e-01 6.88075424941109e+00 7.00332044839976e-02
1.64481818181818e-01 6.80900942012036e+00 6.95120384519117e-02
1.65469696969697e-01 6.73801266580668e+00 6.89935062793498e-02
1.66457575757576e-01 6.66775618668686e+00 6.84776217056371e-02
1.67445454545455e-01 6.59823226368871e+00 6.79643976364362e-02
1.68433333333333e-01 6.52943325853615e+00 6.74538460697189e-02
1.69421212121212e-01 6.46135161259625e+00 6.69459782622084e-02
1.70409090909091e-01 6.39397984604943e+00 6.64408046596350e-02
1.71396969696970e-01 6.32731055734936e+00 6.59383350466646e-02
1.72384848484848e-01 6.26133642155648e+00 6.54385784815142e-02
1.73372727272727e-01 6.19605019039340e+00 6.49415432253383e-02
1.74360606060606e-01 6.13144469115972e+00 6.44472368564266e-02
1.75348484848485e-01 6.06751282620818e+00 6.39556663657430e-02
1.76336363636364e-01 6.00424757136593e+00 6.34668380941998e-02
1.77324242424242e-01 5.94164197596820e+00 6.29807576649933e-02
1.78312121212121e-01 5.87968916182358e+00 6.24974301290512e-02
1.79300000000000e-01 5.81838232245902e+00 6.20168599012130e-02
1.80287878787879e-01 5.75771472261564e+00 6.15390508912595e-02
1.81275757575758e-01 5.69767969677121e+00 6.10640064441433e-02
1.82263636363636e-01 5.63827064915132e+00 6.05917292756347e-02
1.83251515151515e-01 5.57948105275461e+00 6.01222216075526e-02
1.84239393939394e-01 5.52130444863635e+00 5.96554851071290e-02
1.85227272727273e-01 5.46373444542370e+00 5.91915210087933e-02
1.86215151515152e-01 5.40676471793218e+00 5.87303300573382e-02
1.87203030303030e-01 5.35038900715753e+00 5.82719124467406e-02
1.88190909090909e-01 5.29460111935737e+00 5.78162679125035e-02
1.89178787878788e-01 5.23939492558216e+00 5.73633958086533e-02
1.90166666666667e-01 5.18476436036273e+00 5.69132950533475e-02
1.91154545454545e-01 5.13070342168806e+00 5.64659640703267e-02
1.92142424242424e-01 5.07720617012912e+00 5.60214009076372e-02
1.93130303030303e-01 5.02426672818675e+00 5.55796031824163e-02
1.94118181818182e-01 4.97187927984131e+00 5.51405681877551e-02
1.95106060606061e-01 4.92003806932247e+00 5.47042928410058e-02
1.96093939393939e-01 4.86873740107284e+00 5.42707736282515e-02
1.97081818181818e-01 4.81797163892159e+00 5.38400067148818e-02
1.98069696969697e-01 4.76773520546588e+00 5.34119878932384e-02
1.99057575757576e-01 4.71802258163872e+00 5.29867126821912e-02
2.00045454545455e-01 4.66882830555538e+00 5.25641762780514e-02
2.01033333333333e-01 4.62014697246496e+00 5.21443735018895e-02
2.02021212121212e-01 4.57197323397110e+00 5.17272989026559e-02
2.03009090909091e-01 4.52430179744473e+00 5.13129467075562e-02
2.03996969696970e-01 4.47712742560998e+00 5.09013109148288e-02
2.04984848484848e-01 4.43044493546194e+00 5.04923852472184e-02
2.05972727272727e-01 4.38424919820806e+00 5.00861631020070e-02
2.06960606060606e-01 4.33853513853310e+00 4.96826376210324e-02
2.07948484848485e-01 4.29329773419913e+00 4.92818017488296e-02
2.08936363636364e-01 4.24853201501739e+00 4.88836481881538e-02
2.09924242424242e-01 4.20423306278232e+00 4.84881693522385e-02
2.10912121212121e-01 4.16039601056971e+00 4.80953574556979e-02
2.11900000000000e-01 4.11701604220234e+00 4.77052044695173e-02
2.12887878787879e-01 4.07408839186676e+00 4.73177022028423e-02
2.13875757575758e-01 4.03160834314805e+00 4.69328422607945e-02
2.14863636363636e-01 3.98957122895679e+00 4.65506159992503e-02
2.15851515151515e-01 3.94797243086657e+00 4.61710146097168e-02
2.16839393939394e-01 3.90680737860698e+00 4.57940290767163e-02
2.17827272727273e-01 3.86607154969670e+00 4.54196502541362e-02
2.18815151515151e-01 3.82576046853703e+00 4.50478688252615e-02
2.19803030303030e-01 3.78586970633304e+00 4.46786752599332e-02
2.20790909090909e-01 3.74639488046829e+00 4.43120598719553e-02
2.21778787878788e-01 3.70733165415092e+00 4.39480128666449e-02
2.22766666666667e-01 3.66867573555164e+00 4.35865243026600e-02
2.23754545454545e-01 3.63042287772077e+00 4.32275840510710e-02
2.24742424242424e-01 3.59256887799092e+00 4.28711818703934e-02
2.25730303030303e-01 3.55510957751549e+00 4.25173073679816e-02
2.26718181818182e-01 3.51804086093009e+00 4.21659500674950e-02
2.27706060606061e-01 3.48135865554243e+00 4.18170993727232e-02
2.28693939393939e-01 3.44505893124567e+00 4.14707445288532e-02
2.29681818181818e-01 3.40913769995424e+00 4.11268746925972e-02
2.30669696969697e-01 3.37359101516604e+00 4.07854788956694e-02
2.31657575757576e-01 3.33841497163862e+00 4.04465461078589e-02
2.32645454545455e-01 3.30360570462765e+00 4.01100652027615e-02
2.33633333333333e-01 3.26915938979741e+00 3.97760249211160e-02
2.34621212121212e-01 3.23507224268805e+00 3.94444139364023e-02
2.35609090909091e-01 3.20134051829990e+00 3.91152208202876e-02
2.36596969696970e-01 3.16796051078416e+00 3.87884341015826e-02
2.37584848484848e-01 3.13492855272672e+00 3.84640422338249e-02
2.38572727272727e-01 3.10224101505668e+00 3.81420335605578e-02
2.39560606060606e-01 3.06989430654301e+00 3.78223963594883e-02
2.40548484848485e-01 3.03788487349639e+00 3.75051188789526e-02
2.41536363636364e-01 3.00620919908753e+00 3.71901893069450e-02
2.42524242424242e-01 2.97486380325430e+00 3.68775957379691e-02
2.43512121212121e-01 2.94384524222062e+00 3.65673262311805e-02
2.44500000000000e-01 2.91315010811838e+00 3.62593687791223e-02
2.45487878787879e-01 2.88277502870246e+00 3.59537113599741e-02
2.46475757575758e-01 2.85271666670944e+00 3.56503419082272e-02
2.47463636363636e-01 2.82297171976389e+00 3.53492482833263e-02
2.48451515151515e-01 2.79353691992377e+00 3.50504183240942e-02
2.49439393939394e-01 2.76440903332160e+00 3.47538398191639e-02
2.50427272727273e-01 2.73558485989236e+00 3.44595005558843e-02
2.51415151515151e-01 2.70706123276998e+00 3.41673882925656e-02
2.52403030303030e-01 2.67883501819331e+00 3.38774907288026e-02
2.53390909090909e-01 2.65090311507655e+00 3.35897955419908e-02
2.54378787878788e-01 2.62326245474721e+00 3.33042904174013e-02
2.55366666666667e-01 2.59591000037127e+00 3.30209630216912e-02
2.56354545454545e-01 2.56884274685902e+00 3.27398009745598e-02
2.57342424242424e-01 2.54205772045442e+00 3.24607918970709e-02
2.58330303030303e-01 2.51555197840849e+00 3.21839233849127e-02
2.59318181818182e-01 2.48932260872913e+00 3.19091830517991e-02
2.60306060606061e-01 2.46336672963991e+00 3.16365585043854e-02
2.61293939393939e-01 2.43768148948650e+00 3.13660373154648e-02
2.62281818181818e-01 2.41226406634834e+00 3.10976070692345e-02
2.63269696969697e-01 2.38711166772880e+00 3.08312553360087e-02
2.64257575757576e-01 2.36222153031644e+00 3.05669697128845e-02
2.65245454545455e-01 2.33759091947532e+00 3.03047377999987e-02
2.66233333333333e-01 2.31321712915225e+00 3.00445471751686e-02
2.67221212121212e-01 2.28909748150972e+00 2.97863854363224e-02
2.68209090909091e-01 2.26522932663177e+00 2.95302401775902e-02
2.69196969696970e-01 2.24161004229633e+00 2.92760990273930e-02
2.70184848484848e-01 2.21823703349503e+00 2.90239496259884e-02
2.71172727272727e-01 2.19510773234168e+00 2.87737796014762e-02
2.72160606060606e-01 2.17221959772516e+00 2.85255765981427e-02
2.73148484848485e-01 2.14957011509019e+00 2.82793282997477e-02
2.74136363636364e-01 2.12715679597975e+00 2.80350224080742e-02
2.75124242424242e-01 2.10497717794442e+00 2.77926466200234e-02
2.76112121212121e-01 2.08302882421039e+00 2.75521886653502e-02
2.77100000000000e-01 2.06130932341187e+00 2.73136362850382e-02
2.78087878787879e-01 2.03981628938201e+00 2.70769772651811e-02
2.79075757575758e-01 2.01854736072166e+00 2.68421994166811e-02
2.80063636363636e-01 1.99750020071037e+00 2.66092905535798e-02
2.81051515151515e-01 1.97667249699233e+00 2.63782385284515e-02
2.82039393939394e-01 1.95606196132246e+00 2.61490312119536e-02
2.83027272727273e-01 1.93566632936710e+00 2.59216565245907e-02
2.84015151515151e-01 1.91548336029752e+00 2.56961024175153e-02
2.85003030303030e-01 1.89551083670268e+00 2.54723568520198e-02
2.85990909090909e-01 1.87574656429221e+00 2.52504078231094e-02
2.86978787878788e-01 1.85618837170466e+00 2.50302433788250e-02
2.87966666666667e-01 1.83683411011991e+00 2.48118516019054e-02
2.88954545454545e-01 1.81768165317325e+00 2.45952205902032e-02
2.89942424242424e-01 1.79872889667129e+00 2.43803384882048e-02
2.90930303030303e-01 1.77997375836085e+00 2.41671934685466e-02
2.91918181818182e-01 1.76141417774615e+00 2.39557737602849e-02
2.92906060606061e-01 1.74304811572338e+00 2.37460676315448e-02
2.93893939393939e-01 1.72487355449682e+00 2.35380633710009e-02
2.94881818181818e-01 1.70688849731003e+00 2.33317493174468e-02
2.95869696969697e-01 1.68909096822654e+00 2.31271138423150e-02
2.96857575757576e-01 1.67147901195568e+00 2.29241453762090e-02
2.97845454545455e-01 1.65405069350795e+00 2.27228323924810e-02
2.98833333333333e-01 1.63680409811324e+00 2.25231633897114e-02
2.99821212121212e-01 1.61973733096648e+00 2.23251269194666e-02
3.00809090909091e-01 1.60284851701956e+00 2.21287115697692e-02
3.01796969696970e-01 1.58613580081535e+00 2.19339059899879e-02
3.02784848484848e-01 1.56959734616269e+00 2.17406988753062e-02
3.03772727272727e-01 1.55323133605672e+00 2.15490789501461e-02
3.04760606060606e-01 1.53703597243830e+00 2.13590349865789e-02
3.05748484848485e-01 1.52100947603436e+00 2.11705558193825e-02
3.06736363636364e-01 1.50515008604780e+00 2.09836303312018e-02
3.07724242424242e-01 1.48945606007954e+00 2.07982474367177e-02
3.08712121212121e-01 1.47392567389826e+00 2.06143961073977e-02
3.09700000000000e-01 1.45855722125103e+00 2.04320653565461e-02
3.10687878787879e-01 1.44334901371121e+00 2.02512442614986e-02
3.11675757575758e-01 1.42829938038594e+00 2.00719219495777e-02
