Energy (eV)          EEDF (eV^-(3/2))     First Anisotropy
4.72727272727273e-04 2.12372676820531e+02 8.94982326135121e-02
1.41818181818182e-03 2.05810860256655e+02 1.45994689911321e-01
2.36363636363636e-03 1.99451788402103e+02 1.88038945612109e-01
3.30909090909091e-03 1.93289196920024e+02 2.17260170762535e-01
4.25454545454545e-03 1.87317015032336e+02 2.39474218744728e-01
5.20000000000000e-03 1.81529359527384e+02 2.56966003419314e-01
6.14545454545455e-03 1.75920528975419e+02 2.70960441849985e-01
7.09090909090909e-03 1.70484998104239e+02 2.82221887822879e-01
8.03636363636364e-03 1.65217412362149e+02 2.91272949121385e-01
8.98181818181818e-03 1.60112582638425e+02 2.98493524624292e-01
9.92727272727273e-03 1.55165480155432e+02 3.04172166260514e-01
1.08727272727273e-02 1.50371231511444e+02 3.08535371735255e-01
1.18181818181818e-02 1.45725113884852e+02 3.11765512041338e-01
1.27636363636364e-02 1.41222550369989e+02 3.14012422855317e-01
1.37090909090909e-02 1.36859105487229e+02 3.15401232741722e-01
1.46545454545455e-02 1.32630480793347e+02 3.16037844875708e-01
1.56000000000000e-02 1.28532510665551e+02 3.16012893123811e-01
1.65454545454545e-02 1.24561158181079e+02 3.15404670252281e-01
1.74909090909091e-02 1.20712511155855e+02 3.14281344479704e-01
1.84363636363636e-02 1.16982778276402e+02 3.12702669004617e-01
1.93818181818182e-02 1.13368285378088e+02 3.10721323583352e-01
2.03272727272727e-02 1.09865471813621e+02 3.08383982496567e-01
2.12727272727273e-02 1.06470886956629e+02 3.05732176897847e-01
2.22181818181818e-02 1.03181186794194e+02 3.02802997500022e-01
2.31636363636364e-02 9.99931306337239e+01 2.99629677099809e-01
2.41090909090909e-02 9.69035779164015e+01 2.96242073683551e-01
2.50545454545455e-02 9.39094851155582e+01 2.92667077610032e-01
2.60000000000000e-02 9.10079027458422e+01 2.88928956608132e-01
2.69454545454545e-02 8.81959724507859e+01 2.85049650121049e-01
2.78909090909091e-02 8.54709241934952e+01 2.81049022391887e-01
2.88363636363636e-02 8.28300735218129e+01 2.76945081150844e-01
2.97818181818182e-02 8.02708189295620e+01 2.72754167880374e-01
3.07272727272727e-02 7.77906392884323e+01 2.68491123991823e-01
3.16727272727273e-02 7.53870913694624e+01 2.64169437006405e-01
3.26181818181818e-02 7.30578074324658e+01 2.59801368675372e-01
3.35636363636364e-02 7.08004928939567e+01 2.55398069936805e-01
3.45090909090909e-02 6.86129240696221e+01 2.50969681694093e-01
3.54545454545455e-02 6.64929459799353e+01 2.46525425374228e-01
3.64000000000000e-02 6.44384702309053e+01 2.42073683898347e-01
3.73454545454545e-02 6.24474729533646e+01 2.37622074308182e-01
3.82909090909091e-02 6.05179928125013e+01 2.33177513199030e-01
3.92363636363636e-02 5.86481290726648e+01 2.28746275724121e-01
4.01818181818182e-02 5.68360397278660e+01 2.24334049024529e-01
4.11272727272727e-02 5.50799396844456e+01 2.19945980632809e-01
4.20727272727273e-02 5.33780990052005e+01 2.15586722587606e-01
4.30181818181818e-02 5.17288412032690e+01 2.11260471109540e-01
4.39636363636364e-02 5.01305415907985e+01 2.06971003704280e-01
4.49090909090909e-02 4.85816256800155e+01 2.02721712176460e-01
4.58545454545455e-02 4.70805676301252e+01 1.98515633258878e-01
4.68000000000000e-02 4.56258887461715e+01 1.94355476619878e-01
4.77454545454545e-02 4.42161560204978e+01 1.90243650539358e-01
4.86909090909091e-02 4.28499807228717e+01 1.86182285523852e-01
4.96363636363636e-02 4.15260170307458e+01 1.82173256008245e-01
5.05818181818182e-02 4.02429607051024e+01 1.78218200361586e-01
5.15272727272727e-02 3.89995478041042e+01 1.74318539310317e-01
5.24727272727273e-02 3.77945534394512e+01 1.70475493013613e-01
5.34181818181818e-02 3.66267905686485e+01 1.66690096529450e-01
5.43636363636364e-02 3.54951088257397e+01 1.62963214689234e-01
5.53090909090909e-02 3.43983933889687e+01 1.59295555290863e-01
5.62545454545455e-02 3.33355638813821e+01 1.55687681581779e-01
5.72000000000000e-02 3.23055733076784e+01 1.52140023775935e-01
5.81454545454545e-02 3.13074070217313e+01 1.48652889715014e-01
5.90909090909091e-02 3.03400817280903e+01 1.45226474763486e-01
6.00363636363636e-02 2.94026445123498e+01 1.41860870977154e-01
6.09818181818182e-02 2.84941719033722e+01 1.38556075620380e-01
6.19272727272727e-02 2.76137689626746e+01 1.35311999063932e-01
6.28727272727273e-02 2.67605684036837e+01 1.32128472164543e-01
6.38181818181818e-02 2.59337297367297e+01 1.29005252925589e-01
6.47636363636364e-02 2.51324384411283e+01 1.25942033059605e-01
6.57090909090909e-02 2.43559051633238e+01 1.22938443719450e-01
6.66545454545455e-02 2.36033649385913e+01 1.19994061002536e-01
6.76000000000000e-02 2.28740764381420e+01 1.17108411035768e-01
6.85454545454545e-02 2.21673212381942e+01 1.14280974696710e-01
6.94909090909091e-02 2.14824031128693e+01 1.11511192006633e-01
7.04363636363636e-02 2.08186473477477e+01 1.08798466209092e-01
7.13818181818182e-02 2.01754000757716e+01 1.06142167564663e-01
7.23272727272727e-02 1.95520276325778e+01 1.03541636873239e-01
7.32727272727273e-02 1.89479159327925e+01 1.00996188775015e-01
7.42181818181818e-02 1.83624698647079e+01 9.85051146908924e-02
7.51636363636364e-02 1.77951127040658e+01 9.60676857979671e-02
7.61090909090909e-02 1.72452855462472e+01 9.36831555512018e-02
7.70545454545455e-02 1.67124467552659e+01 9.13507621409165e-02
7.80000000000000e-02 1.61960714306125e+01 8.90697307511434e-02
7.89454545454545e-02 1.56956508897798e+01 8.68392756511034e-02
7.98909090909091e-02 1.52106921675364e+01 8.46586021354362e-02
8.08363636363636e-02 1.47407175299435e+01 8.25269083189420e-02
8.17818181818182e-02 1.42852640040854e+01 8.04433867994136e-02
8.27272727272727e-02 1.38438829216608e+01 7.84072261935168e-02
8.36727272727273e-02 1.34161394773186e+01 7.64176125739513e-02
8.46181818181818e-02 1.30016123000917e+01 7.44737307134200e-02
8.55636363636364e-02 1.25998930383212e+01 7.25747653932783e-02
8.65090909090909e-02 1.22105859575883e+01 7.07199024501546e-02
8.74545454545455e-02 1.18333075506091e+01 6.89083298164157e-02
8.84000000000000e-02 1.14676861596971e+01 6.71392384615757e-02
8.93454545454545e-02 1.11133616103958e+01 6.54118232547797e-02
9.02909090909091e-02 1.07699848569071e+01 6.37252837555312e-02
9.12363636363636e-02 1.04372176380180e+01 6.20788249355029e-02
9.21818181818182e-02 1.01147321440971e+01 6.04716578376931e-02
9.31272727272727e-02 9.80221069395943e+00 5.89030001754303e-02
9.40727272727273e-02 9.49934542211851e+00 5.73720768876579e-02
9.50181818181818e-02 9.20583797535838e+00 5.58781205866945e-02
9.59636363636364e-02 8.92139921883524e+00 5.44203720688242e-02
9.69090909090909e-02 8.64574895137693e+00 5.29980806684407e-02
9.78545454545455e-02 8.37861562928771e+00 5.16105046257102e-02
9.88000000000000e-02 8.11973609901186e+00 5.02569114041545e-02
9.97454545454545e-02 7.86885533774500e+00 4.89365779534282e-02
1.00690909090909e-01 7.62572620229191e+00 4.76487910612844e-02
1.01636363636364e-01 7.39010918586590e+00 4.63928473329617e-02
1.02581818181818e-01 7.16177218131947e+00 4.51680536276837e-02
1.03527272727273e-01 6.94049025370622e+00 4.39737270882086e-02
1.04472727272727e-01 6.72604541743134e+00 4.28091952223052e-02
1.05418181818182e-01 6.51822642245084e+00 4.16737963096132e-02
1.06363636363636e-01 6.31682854611897e+00 4.05668790394212e-02
1.07309090909091e-01 6.12165339069331e+00 3.94878028751491e-02
1.08254545454545e-01 5.93250868897855e+00 3.84359380271934e-02
1.09200000000000e-01 5.74920811388205e+00 3.74106654795524e-02
1.10145454545455e-01 5.57157109586193e+00 3.64113770040716e-02
1.11090909090909e-01 5.39942264408880e+00 3.54374751558991e-02
1.12036363636364e-01 5.23259317498202e+00 3.44883732583727e-02
1.12981818181818e-01 5.07091834426955e+00 3.35634953718977e-02
1.13927272727273e-01 4.91423888593956e+00 3.26622762538533e-02
1.14872727272727e-01 4.76240045453362e+00 3.17841612551550e-02
1.15818181818182e-01 4.61525347370352e+00 3.09286064591423e-02
1.16763636363636e-01 4.47265298883151e+00 3.00950783074574e-02
1.17709090909091e-01 4.33445852370562e+00 2.92830537223164e-02
1.18654545454545e-01 4.20053394283594e+00 2.84920199687678e-02
1.19600000000000e-01 4.07074731667544e+00 2.77214745592517e-02
1.20545454545455e-01 3.94497079230106e+00 2.69709251535031e-02
1.21490909090909e-01 3.82308046684587e+00 2.62398894512322e-02
1.22436363636364e-01 3.70495626603728e+00 2.55278950810361e-02
1.23381818181818e-01 3.59048182533992e+00 2.48344794834478e-02
1.24327272727273e-01 3.47954437587383e+00 2.41591897909971e-02
1.25272727272727e-01 3.37203463279812e+00 2.35015826698272e-02
1.26218181818182e-01 3.26784668804527e+00 2.28612243285742e-02
1.27163636363636e-01 3.16687790597037e+00 2.22376901831073e-02
1.28109090909091e-01 3.06902882190063e+00 2.16305648612007e-02
1.29054545454545e-01 2.97420304460707e+00 2.10394420335686e-02
1.30000000000000e-01 2.88230716091254e+00 2.04639242771200e-02
1.30945454545455e-01 2.79325064408994e+00 1.99036229373038e-02
1.31890909090909e-01 2.70694576428075e+00 1.93581579888125e-02
1.32836363636364e-01 2.62330750245990e+00 1.88271578957935e-02
1.33781818181818e-01 2.54225346631064e+00 1.83102594710518e-02
1.34727272727273e-01 2.46370380941794e+00 1.78071077351231e-02
1.35672727272727e-01 2.38758115226728e+00 1.73173557518969e-02
1.36618181818182e-01 2.31381050627328e+00 1.68406645798673e-02
1.37563636363636e-01 2.24231919989500e+00 1.63767029914909e-02
1.38509090909091e-01 2.17303680682218e+00 1.59251474258838e-02
1.39454545454545e-01 2.10589507689544e+00 1.54856818250331e-02
1.40400000000000e-01 2.04082786858702e+00 1.50579974940927e-02
1.41345454545455e-01 1.97777108411954e+00 1.46417929624757e-02
1.42290909090909e-01 1.91666260605878e+00 1.42367738458280e-02
1.43236363636364e-01 1.85744223637590e+00 1.38426527089743e-02
1.44181818181818e-01 1.80005163690170e+00 1.34591489300104e-02
1.45127272727273e-01 1.74443427209278e+00 1.30859885655127e-02
1.46072727272727e-01 1.69053535311203e+00 1.27229042014232e-02
1.47018181818182e-01 1.63830178402384e+00 1.23696348839953e-02
1.47963636363636e-01 1.58768210948052e+00 1.20259258939096e-02
1.48909090909091e-01 1.53862646388555e+00 1.16915286809096e-02
1.49854545454545e-01 1.49108652246655e+00 1.13662007200060e-02
1.50800000000000e-01 1.44501545348224e+00 1.10497053854705e-02
1.51745454545455e-01 1.40036787226944e+00 1.07418118262873e-02
1.52690909090909e-01 1.35709979636034e+00 1.04422948434624e-02
1.53636363636364e-01 1.31516860232290e+00 1.01509347688430e-02
1.54581818181818e-01 1.27453298361113e+00 9.86751734587735e-03
1.55527272727273e-01 1.23515291002915e+00 9.59183361192192e-03
1.56472727272727e-01 1.19698958814793e+00 9.32367977180828e-03
1.57418181818182e-01 1.16000542320074e+00 9.06285712693579e-03
1.58363636363636e-01 1.12416398204268e+00 8.80917189797170e-03
1.59309090909091e-01 1.08942995716252e+00 8.56243515819794e-03
1.60254545454545e-01 1.05576913203062e+00 8.32246271388941e-03
1.61200000000000e-01 1.02314834726755e+00 8.08907499772654e-03
1.62145454545455e-01 9.91535468098672e-01 7.86209696380667e-03
1.63090909090909e-01 9.60899352582629e-01 7.64135798473111e-03
1.64036363636364e-01 9.31209821044499e-01 7.42669175028389e-03
1.64981818181818e-01 9.02437626238766e-01 7.21793616818085e-03
1.65927272727273e-01 8.74554424640757e-01 7.01493326639759e-03
1.66872727272727e-01 8.47532748426254e-01 6.81752909018625e-03
1.67818181818182e-01 8.21345978486469e-01 6.62557363765961e-03
1.68763636363636e-01 7.95968318201697e-01 6.43892072301228e-03
1.69709090909091e-01 7.71374767964081e-01 6.25742791614708e-03
1.70654545454545e-01 7.47541100636371e-01 6.08095644643895e-03
1.71600000000000e-01 7.24443837602978e-01 5.90937111599612e-03
1.72545454545455e-01 7.02060225720820e-01 5.74254021441806e-03
1.73490909090909e-01 6.80368214828418e-01 5.58033543549835e-03
1.74436363636364e-01 6.59346436098137e-01 5.42263179539308e-03
1.75381818181818e-01 6.38974180914536e-01 5.26930755269220e-03
1.76327272727273e-01 6.19231380542812e-01 5.12024412992108e-03
1.77272727272727e-01 6.00098586293031e-01 4.97532603183764e-03
1.78218181818182e-01 5.81556950410200e-01 4.83444079055620e-03
1.79163636363636e-01 5.63588207504782e-01 4.69747886134321e-03
1.80109090909091e-01 5.46174656516133e-01 4.56433357125875e-03
1.81054545454545e-01 5.29299143332444e-01 4.43490104346563e-03
1.82000000000000e-01 5.12945043836999e-01 4.30908012842965e-03
1.82945454545455e-01 4.97096247584888e-01 4.18677233641789e-03
1.83890909090909e-01 4.81737141881354e-01 4.06788177167634e-03
1.84836363636364e-01 4.66852596451043e-01 3.95231506786566e-03
1.85781818181818e-01 4.52427948485595e-01 3.83998132512259e-03
1.86727272727273e-01 4.38448988245083e-01 3.73079204833878e-03
1.87672727272727e-01 4.24901945015839e-01 3.62466108352694e-03
1.88618181818182e-01 4.11773473577670e-01 3.52150457287145e-03
1.89563636363636e-01 3.99050641055768e-01 3.42124087608793e-03
1.90509090909091e-01 3.86720914151555e-01 3.32379052838689e-03
1.91454545454545e-01 3.74772146834429e-01 3.22907618189780e-03
1.92400000000000e-01 3.63192568339755e-01 3.13702255207806e-03
1.93345454545455e-01 3.51970771609048e-01 3.04755636519833e-03
1.94290909090909e-01 3.41095702018558e-01 2.96060630721072e-03
1.95236363636364e-01 3.30556646522390e-01 2.87610297365329e-03
1.96181818181818e-01 3.20343223067205e-01 2.79397882088462e-03
1.97127272727273e-01 3.10445370395540e-01 2.71416811831596e-03
1.98072727272727e-01 3.00853338104850e-01 2.63660689951923e-03
1.99018181818182e-01 2.91557677064349e-01 2.56123292636404e-03
1.99963636363636e-01 2.82549230105520e-01 2.48798563010456e-03
2.00909090909091e-01 2.73819122981944e-01 2.41680607785421e-03
2.01854545454545e-01 2.65358755652985e-01 2.34763692779970e-03
2.02800000000000e-01 2.57159793787074e-01 2.28042238801293e-03
2.03745454545455e-01 2.49214160575443e-01 2.21510817612928e-03
2.04690909090909e-01 2.41514028752606e-01 2.15164148013052e-03
2.05636363636364e-01 2.34051812907910e-01 2.08997091995860e-03
2.06581818181818e-01 2.26820161991726e-01 2.03004651018749e-03
2.07527272727273e-01 2.19811952094548e-01 1.97181962349119e-03
2.08472727272727e-01 2.13020279409322e-01 1.91524295346609e-03
2.09418181818182e-01 2.06438453445270e-01 1.86027048654878e-03
2.10363636363636e-01 2.00059990436320e-01 1.80685745813972e-03
2.11309090909091e-01 1.93878606940862e-01 1.75496032635663e-03
2.12254545454545e-01 1.87888213669225e-01 1.70453673811070e-03
2.13200000000000e-01 1.82082909468415e-01 1.65554549777468e-03
2.14145454545455e-01 1.76456975524971e-01 1.60794653653412e-03
2.15090909090909e-01 1.71004869715832e-01 1.56170088260306e-03
2.16036363636364e-01 1.65721221163739e-01 1.51677063209274e-03
2.16981818181818e-01 1.60600824931953e-01 1.47311892070555e-03
2.17927272727273e-01 1.55638636910764e-01 1.43070989605320e-03
2.18872727272727e-01 1.50829768835119e-01 1.38950868961615e-03
2.19818181818182e-01 1.46169483479146e-01 1.34948139505878e-03
2.20763636363636e-01 1.41653189988995e-01 1.31059503570801e-03
2.21709090909091e-01 1.37276439351562e-01 1.27281754428743e-03
2.22654545454545e-01 1.33034920023433e-01 1.23611773741107e-03
2.23600000000000e-01 1.28924453672310e-01 1.20046529194162e-03
2.24545454545455e-01 1.24940991071791e-01 1.16583072187925e-03
2.25490909090909e-01 1.21080608101994e-01 1.13218535591651e-03
2.26436363636364e-01 1.17339501893998e-01 1.09950131549937e-03
2.27381818181818e-01 1.13713987073887e-01 1.06775149352277e-03
2.28327272727273e-01 1.10200492141677e-01 1.03690953350857e-03
2.29272727272727e-01 1.06795555943962e-01 1.00694980859475e-03
2.30218181818182e-01 1.03495824271057e-01 9.77847404969947e-04
2.31163636363636e-01 1.00298046552420e-01 9.49578097863630e-04
2.32109090909091e-01 9.71990726485415e-02 9.22118336064741e-04
2.33054545454545e-01 9.41958497556360e-02 8.95445222859235e-04
2.34000000000000e-01 9.12854193907002e-02 8.69536498307269e-04
2.34945454545455e-01 8.84649144844512e-02 8.44370521927741e-04
2.35890909090909e-01 8.57315565498855e-02 8.19926255890309e-04
2.36836363636364e-01 8.30826529520201e-02 7.96183248595219e-04
2.37781818181818e-01 8.05155942487791e-02 7.73121618735713e-04
2.38727272727273e-01 7.80278516267869e-02 7.50722039729549e-04
2.39672727272727e-01 7.56169744040932e-02 7.28965724059846e-04
2.40618181818182e-01 7.32805876205615e-02 7.07834410727871e-04
2.41563636363636e-01 7.10163896980585e-02 6.87310347586336e-04
2.42509090909091e-01 6.88221501691279e-02 6.67376279612737e-04
2.43454545454545e-01 6.66957074850991e-02 6.48015434733348e-04
2.44400000000000e-01 6.46349668815829e-02 6.29211510608743e-04
2.45345454545455e-01 6.26378983198913e-02 6.10948661729175e-04
2.46290909090909e-01 6.07025344824403e-02 5.93211486893222e-04
2.47236363636364e-01 5.88269688393743e-02 5.75985016980984e-04
2.48181818181818e-01 5.70093537659694e-02 5.59254703091158e-04
2.49127272727273e-01 5.52478987268475e-02 5.43006404958129e-04
2.50072727272727e-01 5.35408685079542e-02 5.27226379333608e-04
2.51018181818182e-01 5.18865815102899e-02 5.11901270548342e-04
2.51963636363636e-01 5.02834080932052e-02 4.97018097549656e-04
2.52909090909091e-01 4.87297689662993e-02 4.82564245079844e-04
2.53854545454545e-01 4.72241336372869e-02 4.68527453177725e-04
2.54800000000000e-01 4.57650189008048e-02 4.54895807369823e-04
2.55745454545455e-01 4.43509873806829e-02 4.41657729095549e-04
2.56690909090909e-01 4.29806461107205e-02 4.28801966419704e-04
2.57636363636364e-01 4.16526451656194e-02 4.16317584967189e-04
2.58581818181818e-01 4.03656763281330e-02 4.04193959130213e-04
2.59527272727273e-01 3.91184718032692e-02 3.92420763486435e-04
2.60472727272727e-01 3.79098029665546e-02 3.80987964211276e-04
2.61418181818182e-01 3.67384791558168e-02 3.69885812018524e-04
2.62363636363636e-01 3.56033464981534e-02 3.59104832672850e-04
2.63309090909091e-01 3.45032867713873e-02 3.48635820391127e-04
2.64254545454545e-01 3.34372163049712e-02 3.38469830094925e-04
2.65200000000000e-01 3.24040849100797e-02 3.28598170157285e-04
2.66145454545455e-01 3.14028748473648e-02 3.19012395325101e-04
2.67090909090909e-01 3.04325998221601e-02 3.09704299855702e-04
2.68036363636364e-01 2.94923040150215e-02 3.00665910820047e-04
2.68981818181818e-01 2.85810611380802e-02 2.91889481608872e-04
2.69927272727273e-01 2.76979735245497e-02 2.83367485596829e-04
2.70872727272727e-01 2.68421712425068e-02 2.75092609815422e-04
2.71818181818182e-01 2.60128112393516e-02 2.67057749698068e-04
2.72763636363636e-01 2.52090765112416e-02 2.59256002150829e-04
2.73709090909091e-01 2.44301752969916e-02 2.51680660639950e-04
2.74654545454545e-01 2.36753402997882e-02 2.44325209491771e-04
2.75600000000000e-01 2.29438279297025e-02 2.37183318546694e-04
2.76545454545455e-01 2.22349175727433e-02 2.30248837944284e-04
2.77490909090909e-01 2.15479108794676e-02 2.23515793067299e-04
2.78436363636364e-01 2.08821310784941e-02 2.16978379610009e-04
2.79381818181818e-01 2.02369223084060e-02 2.10630958796982e-04
2.80327272727273e-01 1.96116489730196e-02 2.04468052719675e-04
2.81272727272727e-01 1.90056951139454e-02 1.98484339687939e-04
2.82218181818182e-01 1.84184638047818e-02 1.92674650334077e-04
2.83163636363636e-01 1.78493765630318e-02 1.87033962561487e-04
2.84109090909091e-01 1.72978727793746e-02 1.81557397902278e-04
2.85054545454545e-01 1.67634091665533e-02 1.76240217334558e-04
2.86000000000000e-01 1.62454592230761e-02 1.71077817353199e-04
2.86945454545455e-01 1.57435127156258e-02 1.66065726138106e-04
2.87890909090909e-01 1.52570751753973e-02 1.61199599839913e-04
2.88836363636364e-01 1.47856674119904e-02 1.56475218958060e-04
2.89781818181818e-01 1.43288250403978e-02 1.51888484829956e-04
2.90727272727273e-01 1.38860980244657e-02 1.47435416207624e-04
2.91672727272727e-01 1.34570502326670e-02 1.43112145850777e-04
2.92618181818182e-01 1.30412590091327e-02 1.38914917648435e-04
2.93563636363636e-01 1.26383147572598e-02 1.34840082942674e-04
2.94509090909091e-01 1.22478205356257e-02 1.30884097837288e-04
2.95454545454545e-01 1.18693916677430e-02 1.27043520135582e-04
2.96400000000000e-01 1.15026553623587e-02 1.23315006459565e-04
2.97345454545455e-01 1.11472503469458e-02 1.19695309441357e-04
2.98290909090909e-01 1.08028265111089e-02 1.16181275001092e-04
