Energy (eV)          EEDF (eV^-(3/2))     First Anisotropy
3.46511627906977e-03 1.40002031797266e+00 7.89104437140808e-04
1.03953488372093e-02 1.38883187498004e+00 1.30220678742380e-03
1.73255813953488e-02 1.37773284588666e+00 1.71686596921256e-03
2.42558139534884e-02 1.36672251608919e+00 2.03055329008975e-03
3.11860465116279e-02 1.35580017679081e+00 2.29107195978859e-03
3.81162790697674e-02 1.34496512476223e+00 2.51652543956455e-03
4.50465116279070e-02 1.33421666246393e+00 2.71629689297728e-03
5.19767441860465e-02 1.32355409787922e+00 2.89606115120759e-03
5.89069767441860e-02 1.31297674454653e+00 3.05958750291642e-03
6.58372093023256e-02 1.30248392150818e+00 3.20954396814475e-03
7.27674418604651e-02 1.29207495321241e+00 3.34790847032480e-03
7.96976744186047e-02 1.28174916953740e+00 3.47620000359178e-03
8.66279069767442e-02 1.27150590568962e+00 3.59561808898797e-03
9.35581395348837e-02 1.26134450220155e+00 3.70713161713927e-03
1.00488372093023e-01 1.25126430488683e+00 3.81153798047031e-03
1.07418604651163e-01 1.24126466480101e+00 3.90950386763021e-03
1.14348837209302e-01 1.23134493808972e+00 4.00159422357439e-03
1.21279069767442e-01 1.22150448619828e+00 4.08829339564478e-03
1.28209302325581e-01 1.21174267551327e+00 4.17002087247655e-03
1.35139534883721e-01 1.20205887756510e+00 4.24714320278219e-03
1.42069767441860e-01 1.19245246897730e+00 4.31998326703815e-03
1.49000000000000e-01 1.18292283121424e+00 4.38882747582305e-03
1.55930232558140e-01 1.17346935081526e+00 4.45393151318589e-03
1.62860465116279e-01 1.16409141909876e+00 4.51552494896246e-03
1.69790697674419e-01 1.15478843236371e+00 4.57381497909060e-03
1.76720930232558e-01 1.14555979162414e+00 4.62898950258869e-03
1.83651162790698e-01 1.13640490273542e+00 4.68121963359538e-03
1.90581395348837e-01 1.12732317635020e+00 4.73066185569530e-03
1.97511627906977e-01 1.11831402773269e+00 4.77745977597117e-03
2.04441860465116e-01 1.10937687691358e+00 4.82174563387755e-03
2.11372093023256e-01 1.10051114846962e+00 4.86364158369137e-03
2.18302325581395e-01 1.09171627166078e+00 4.90326078939767e-03
2.25232558139535e-01 1.08299168022748e+00 4.94070837068142e-03
2.32162790697674e-01 1.07433681251258e+00 4.97608221866525e-03
2.39093023255814e-01 1.06575111127379e+00 5.00947371304372e-03
2.46023255813954e-01 1.05723402375881e+00 5.04096832237379e-03
2.52953488372093e-01 1.04878500166660e+00 5.07064617884064e-03
2.59883720930233e-01 1.04040350101023e+00 5.09858253879808e-03
2.66813953488372e-01 1.03208898221517e+00 5.12484821089511e-03
2.73744186046512e-01 1.02384090995646e+00 5.14950993380488e-03
2.80674418604651e-01 1.01565875324740e+00 5.17263071013173e-03
2.87604651162791e-01 1.00754198528688e+00 5.19427010690842e-03
2.94534883720930e-01 9.99490083539544e-01 5.21448452259029e-03
3.01465116279070e-01 9.91502529592195e-01 5.23332743301746e-03
3.08395348837209e-01 9.83578809201408e-01 5.25084959140273e-03
3.15325581395349e-01 9.75718412258440e-01 5.26709924906746e-03
3.22255813953488e-01 9.67920832681108e-01 5.28212231689376e-03
3.29186046511628e-01 9.60185568480013e-01 5.29596252965831e-03
3.36116279069767e-01 9.52512121630719e-01 5.30866159350313e-03
3.43046511627907e-01 9.44899998134058e-01 5.32025931857374e-03
3.49976744186047e-01 9.37348707894935e-01 5.33079374193195e-03
3.56906976744186e-01 9.29857764777329e-01 5.34030123837794e-03
3.63837209302326e-01 9.22426686489127e-01 5.34881662708616e-03
3.70767441860465e-01 9.15054994613062e-01 5.35637325139303e-03
3.77697674418605e-01 9.07742214574484e-01 5.36300308632384e-03
3.84627906976744e-01 9.00487875552774e-01 5.36873680489016e-03
3.91558139534884e-01 8.93291510527401e-01 5.37360385466425e-03
3.98488372093023e-01 8.86152656173721e-01 5.37763252674969e-03
4.05418604651163e-01 8.79070852905141e-01 5.38085001824567e-03
4.12348837209302e-01 8.72045644773583e-01 5.38328249158183e-03
4.19279069767442e-01 8.65076579508117e-01 5.38495512829669e-03
4.26209302325581e-01 8.58163208419718e-01 5.38589218326651e-03
4.33139534883721e-01 8.51305086421373e-01 5.38611701964079e-03
4.40069767441860e-01 8.44501771998340e-01 5.38565217080523e-03
4.47000000000000e-01 8.37752827133644e-01 5.38451936982508e-03
4.53930232558140e-01 8.31057817340634e-01 5.38273959034110e-03
4.60860465116279e-01 8.24416311575839e-01 5.38033308315798e-03
4.67790697674419e-01 8.17827882268857e-01 5.37731940936718e-03
4.74720930232558e-01 8.11292105238669e-01 5.37371747516530e-03
4.81651162790698e-01 8.04808559707964e-01 5.36954555054523e-03
4.88581395348837e-01 7.98376828275166e-01 5.36482131334243e-03
4.95511627906977e-01 7.91996496848278e-01 5.35956186501370e-03
5.02441860465116e-01 7.85667154670086e-01 5.35378375762104e-03
5.09372093023256e-01 7.79388394241107e-01 5.34750301769260e-03
5.16302325581395e-01 7.73159811342734e-01 5.34073516772594e-03
5.23232558139535e-01 7.66981004963016e-01 5.33349524749179e-03
5.30162790697674e-01 7.60851577317892e-01 5.32579783319907e-03
5.37093023255814e-01 7.54771133779635e-01 5.31765705885805e-03
5.44023255813953e-01 7.48739282885551e-01 5.30908662428227e-03
5.50953488372093e-01 7.42755636312096e-01 5.30009982585694e-03
5.57883720930233e-01 7.36819808817570e-01 5.29070956318928e-03
5.64813953488372e-01 7.30931418259995e-01 5.28092835609028e-03
5.71744186046512e-01 7.25090085530792e-01 5.27076835928195e-03
5.78674418604651e-01 7.19295434571160e-01 5.26024137551956e-03
5.85604651162791e-01 7.13547092307982e-01 5.24935886891092e-03
5.92534883720930e-01 7.07844688668813e-01 5.23813197676955e-03
5.99465116279070e-01 7.02187856519900e-01 5.22657152371745e-03
6.06395348837209e-01 6.96576231670888e-01 5.21468802437489e-03
6.13325581395349e-01 6.91009452850840e-01 5.20249170636406e-03
6.20255813953488e-01 6.85487161658049e-01 5.18999251236468e-03
6.27186046511628e-01 6.80009002572556e-01 5.17720011152109e-03
6.34116279069767e-01 6.74574622898420e-01 5.16412390905990e-03
6.41046511627907e-01 6.69183672775127e-01 5.15077305474954e-03
6.47976744186047e-01 6.63835805121654e-01 5.13715645170907e-03
6.54906976744186e-01 6.58530675646848e-01 5.12328276413234e-03
6.61837209302326e-01 6.53267942795204e-01 5.10916042714870e-03
6.68767441860465e-01 6.48047267748716e-01 5.09479764677020e-03
6.75697674418605e-01 6.42868314404613e-01 5.08020241794782e-03
6.82627906976744e-01 6.37730749331041e-01 5.06538252422928e-03
6.89558139534884e-01 6.32634241775604e-01 5.05034554583331e-03
6.96488372093023e-01 6.27578463614656e-01 5.03509886624290e-03
7.03418604651163e-01 6.22563089361008e-01 5.01964967790348e-03
7.10348837209302e-01 6.17587796114709e-01 5.00400498831642e-03
7.17279069767442e-01 6.12652263569970e-01 4.98817162528818e-03
7.24209302325581e-01 6.07756173967362e-01 4.97215624415000e-03
7.31139534883721e-01 6.02899212093590e-01 4.95596532626761e-03
7.38069767441860e-01 5.98081065260822e-01 4.93960519372143e-03
7.45000000000000e-01 5.93301423267287e-01 4.92308200770559e-03
7.51930232558140e-01 5.88559978402812e-01 4.90640177448770e-03
7.58860465116279e-01 5.83856425403987e-01 4.88957035010591e-03
7.65790697674419e-01 5.79190461459067e-01 4.87259344434488e-03
7.72720930232558e-01 5.74561786164378e-01 4.85547662655910e-03
7.79651162790698e-01 5.69970101522916e-01 4.83822532355185e-03
7.86581395348837e-01 5.65415111924841e-01 4.82084483231971e-03
7.93511627906977e-01 5.60896524111322e-01 4.80334031790103e-03
8.00441860465116e-01 5.56414047178335e-01 4.78571681820155e-03
8.07372093023256e-01 5.51967392535663e-01 4.76797924768177e-03
8.14302325581395e-01 5.47556273910189e-01 4.75013240042386e-03
8.21232558139535e-01 5.43180407305986e-01 4.73218095358446e-03
8.28162790697674e-01 5.38839511007126e-01 4.71412947025071e-03
8.35093023255814e-01 5.34533305538826e-01 4.69598240397309e-03
8.42023255813954e-01 5.30261513664885e-01 4.67774409623138e-03
8.48953488372093e-01 5.26023860369563e-01 4.65941878722551e-03
8.55883720930233e-01 5.21820072825132e-01 4.64101061337082e-03
8.62813953488372e-01 5.17649880393844e-01 4.62252361106331e-03
8.69744186046512e-01 5.13513014591313e-01 4.60396171944951e-03
8.76674418604651e-01 5.09409209088091e-01 4.58532878267015e-03
8.83604651162791e-01 5.05338199673991e-01 4.56662855246695e-03
8.90534883720930e-01 5.01299724259281e-01 4.54786469028375e-03
8.97465116279070e-01 4.97293522839922e-01 4.52904077088386e-03
9.04395348837209e-01 4.93319337494153e-01 4.51016027965672e-03
9.11325581395349e-01 4.89376912365666e-01 4.49122662188939e-03
9.18255813953488e-01 4.85465993634370e-01 4.47224312013316e-03
9.25186046511628e-01 4.81586329516958e-01 4.45321301721289e-03
9.32116279069767e-01 4.77737670234075e-01 4.43413947835337e-03
9.39046511627907e-01 4.73919768010578e-01 4.41502559285701e-03
9.45976744186047e-01 4.70132377043519e-01 4.39587437611325e-03
9.52906976744186e-01 4.66375253502119e-01 4.37668877117591e-03
9.59837209302326e-01 4.62648155496527e-01 4.35747165171078e-03
9.66767441860465e-01 4.58950843073833e-01 4.33822581928585e-03
9.73697674418605e-01 4.55283078202426e-01 4.31895401142957e-03
9.80627906976744e-01 4.51644624745568e-01 4.29965889899467e-03
9.87558139534884e-01 4.48035248460904e-01 4.28034308861167e-03
9.94488372093023e-01 4.44454716970913e-01 4.26100912435270e-03
1.00141860465116e+00 4.40902799762175e-01 4.24165948803331e-03
1.00834883720930e+00 4.37379268159908e-01 4.22229660180850e-03
1.01527906976744e+00 4.33883895323462e-01 4.20292283990468e-03
1.02220930232558e+00 4.30416456185327e-01 4.18354050212012e-03
1.02913953488372e+00 4.26976727542923e-01 4.16415183051672e-03
1.03606976744186e+00 4.23564487943965e-01 4.14475903226089e-03
1.04300000000000e+00 4.20179517705931e-01 4.12536426039883e-03
1.04993023255814e+00 4.16821598871009e-01 4.10596959744765e-03
1.05686046511628e+00 4.13490515285687e-01 4.08657707507757e-03
1.06379069767442e+00 4.10186052492333e-01 4.06718869391497e-03
1.07072093023256e+00 4.06907997747197e-01 4.04780640512025e-03
1.07765116279070e+00 4.03656139977532e-01 4.02843209464135e-03
1.08458139534884e+00 4.00430269856315e-01 4.00906760195198e-03
1.09151162790698e+00 3.97230179699641e-01 3.98971473891293e-03
1.09844186046512e+00 3.94055663483367e-01 3.97037527211768e-03
1.10537209302326e+00 3.90906516802277e-01 3.95105090778253e-03
1.11230232558140e+00 3.87782536940287e-01 3.93174330959724e-03
1.11923255813954e+00 3.84683522773269e-01 3.91245411670100e-03
1.12616279069767e+00 3.81609274784438e-01 3.89318492676287e-03
1.13309302325581e+00 3.78559595025461e-01 3.87393728148231e-03
1.14002325581395e+00 3.75534287182440e-01 3.85471268360520e-03
1.14695348837209e+00 3.72533156483828e-01 3.83551261406572e-03
1.15388372093023e+00 3.69556009714666e-01 3.81633851576914e-03
1.16081395348837e+00 3.66602655179503e-01 3.79719177967839e-03
1.16774418604651e+00 3.63672902764465e-01 3.77807376104369e-03
1.17467441860465e+00 3.60766563849940e-01 3.75898579575689e-03
1.18160465116279e+00 3.57883451323745e-01 3.73992918480671e-03
1.18853488372093e+00 3.55023379545766e-01 3.72090518092711e-03
1.19546511627907e+00 3.52186164406372e-01 3.70191500408398e-03
1.20239534883721e+00 3.49371623243573e-01 3.68295986415722e-03
1.20932558139535e+00 3.46579574832831e-01 3.66404091769828e-03
1.21625581395349e+00 3.43809839442986e-01 3.64515929052655e-03
1.22318604651163e+00 3.41062238756492e-01 3.62631609286961e-03
1.23011627906977e+00 3.38336595880816e-01 3.60751240486147e-03
1.23704651162791e+00 3.35632735315959e-01 3.58874926406099e-03
1.24397674418605e+00 3.32950483007134e-01 3.57002767979670e-03
1.25090697674419e+00 3.30289666269019e-01 3.55134864762994e-03
1.25783720930233e+00 3.27650113796307e-01 3.53271313545017e-03
1.26476744186047e+00 3.25031655632690e-01 3.51412207149712e-03
1.27169767441860e+00 3.22434123220498e-01 3.49557635806519e-03
1.27862790697674e+00 3.19857349328741e-01 3.47707688532421e-03
1.28555813953488e+00 3.17301168062861e-01 3.45862451798663e-03
1.29248837209302e+00 3.14765414835107e-01 3.44022008381170e-03
1.29941860465116e+00 3.12249926411334e-01 3.42186438670326e-03
1.30634883720930e+00 3.09754540842604e-01 3.40355821992148e-03
1.31327906976744e+00 3.07279097474208e-01 3.38530235329680e-03
1.32020930232558e+00 3.04823436917352e-01 3.36709752219594e-03
1.32713953488372e+00 3.02387401093303e-01 3.34894444004347e-03
1.33406976744186e+00 2.99970833168339e-01 3.33084381095752e-03
1.34100000000000e+00 2.97573577562097e-01 3.31279631748555e-03
1.34793023255814e+00 2.95195479920501e-01 3.29480261001212e-03
1.35486046511628e+00 2.92836387157423e-01 3.27686331873515e-03
1.36179069767442e+00 2.90496147392791e-01 3.25897906575381e-03
1.36872093023256e+00 2.88174609960311e-01 3.24115045330302e-03
1.37565116279070e+00 2.85871625381577e-01 3.22337805358453e-03
1.38258139534884e+00 2.83587045405396e-01 3.20566242022529e-03
1.38951162790698e+00 2.81320722948886e-01 3.18800409984486e-03
1.39644186046512e+00 2.79072512104608e-01 3.17040362076720e-03
1.40337209302326e+00 2.76842268115802e-01 3.15286148325741e-03
1.41030232558140e+00 2.74629847413523e-01 3.13537817048720e-03
1.41723255813953e+00 2.72435107560556e-01 3.11795415960815e-03
1.42416279069767e+00 2.70257907258007e-01 3.10058991091923e-03
1.43109302325581e+00 2.68098106321604e-01 3.08328585849226e-03
1.43802325581395e+00 2.65955565716783e-01 3.06604242066963e-03
1.44495348837209e+00 2.63830147505260e-01 3.04886001066585e-03
1.45188372093023e+00 2.61721714851124e-01 3.03173902617272e-03
1.45881395348837e+00 2.59630131998145e-01 3.01467984035642e-03
1.46574418604651e+00 2.57555264302942e-01 2.99768281190918e-03
1.47267441860465e+00 2.55496978184061e-01 2.98074829520401e-03
1.47960465116279e+00 2.53455141127607e-01 2.96387663031676e-03
1.48653488372093e+00 2.51429621665516e-01 2.94706813437930e-03
1.49346511627907e+00 2.49420289406908e-01 2.93032311120768e-03
1.50039534883721e+00 2.47427014989549e-01 2.91364186551418e-03
1.50732558139535e+00 2.45449670072344e-01 2.89702467535691e-03
1.51425581395349e+00 2.43488127365442e-01 2.88047180628834e-03
1.52118604651163e+00 2.41542260583356e-01 2.86398352080699e-03
1.52811627906977e+00 2.39611944449811e-01 2.84756006903567e-03
1.53504651162791e+00 2.37697054677639e-01 2.83120168063313e-03
1.54197674418605e+00 2.35797467997255e-01 2.81490857375892e-03
1.54890697674419e+00 2.33913062111945e-01 2.79868096413139e-03
1.55583720930233e+00 2.32043715702335e-01 2.78251905607771e-03
1.56276744186047e+00 2.30189308407123e-01 2.76642303476373e-03
1.56969767441860e+00 2.28349720850024e-01 2.75039307478592e-03
1.57662790697674e+00 2.26524834597112e-01 2.73442934885436e-03
1.58355813953488e+00 2.24714532160933e-01 2.71853201919823e-03
1.59048837209302e+00 2.22918696982036e-01 2.70270123010080e-03
1.59741860465116e+00 2.21137213454481e-01 2.68693711613551e-03
1.60434883720930e+00 2.19369966885120e-01 2.67123981049116e-03
1.61127906976744e+00 2.17616843497385e-01 2.65560943671807e-03
1.61820930232558e+00 2.15877730413585e-01 2.64004610155499e-03
1.62513953488372e+00 2.14152515679045e-01 2.62454990282634e-03
1.63206976744186e+00 2.12441088223244e-01 2.60912093742557e-03
1.63900000000000e+00 2.10743337863291e-01 2.59375929338728e-03
1.64593023255814e+00 2.09059155286949e-01 2.57846504299455e-03
1.65286046511628e+00 2.07388432075499e-01 2.56323825035196e-03
1.65979069767442e+00 2.05731060666621e-01 2.54807897904329e-03
1.66672093023256e+00 2.04086934357595e-01 2.53298728451609e-03
1.67365116279070e+00 2.02455947289011e-01 2.51796320745661e-03
1.68058139534884e+00 2.00837994466432e-01 2.50300678105457e-03
1.68751162790698e+00 1.99232971724932e-01 2.48811803834898e-03
1.69444186046512e+00 1.97640775732038e-01 2.47329700491192e-03
1.70137209302326e+00 1.96061303972099e-01 2.45854369248120e-03
1.70830232558140e+00 1.94494454766812e-01 2.44385810592915e-03
1.71523255813953e+00 1.92940127241338e-01 2.42924025031154e-03
1.72216279069767e+00 1.91398221326999e-01 2.41469012383779e-03
1.72909302325581e+00 1.89868637746282e-01 2.40020771175033e-03
1.73602325581395e+00 1.88351278032284e-01 2.38579299301137e-03
1.74295348837209e+00 1.86846044496336e-01 2.37144594706738e-03
1.74988372093023e+00 1.85352840230468e-01 2.35716654709420e-03
1.75681395348837e+00 1.83871569093014e-01 2.34295475411239e-03
1.76374418604651e+00 1.82402135727050e-01 2.32881052340510e-03
1.77067441860465e+00 1.80944445529440e-01 2.31473381101060e-03
1.77760465116279e+00 1.79498404653088e-01 2.30072456723005e-03
1.78453488372093e+00 1.78063919993122e-01 2.28678273097065e-03
1.79146511627907e+00 1.76640899204376e-01 2.27290823590496e-03
1.79839534883721e+00 1.75229250671787e-01 2.25910101960497e-03
1.80532558139535e+00 1.73828883504948e-01 2.24536100567454e-03
1.81225581395349e+00 1.72439707554931e-01 2.23168811283687e-03
1.81918604651163e+00 1.71061633385638e-01 2.21808226099629e-03
1.82611627906977e+00 1.69694572275702e-01 2.20454336516305e-03
1.83304651162791e+00 1.68338436205634e-01 2.19107133015517e-03
1.83997674418605e+00 1.66993137873780e-01 2.17766605635135e-03
1.84690697674419e+00 1.65658590668914e-01 2.16432744551114e-03
1.85383720930233e+00 1.64334708671965e-01 2.15105539493500e-03
1.86076744186047e+00 1.63021406643678e-01 2.13784979236929e-03
1.86769767441860e+00 1.61718600039748e-01 2.12471052153008e-03
1.87462790697674e+00 1.60426204984592e-01 2.11163746769270e-03
1.88155813953488e+00 1.59144138272930e-01 2.09863051207729e-03
1.88848837209302e+00 1.57872317357916e-01 2.08568952694868e-03
1.89541860465116e+00 1.56610660365508e-01 2.07281438092101e-03
1.90234883720930e+00 1.55359086069363e-01 2.06000494432652e-03
1.90927906976744e+00 1.54117513892272e-01 2.04726108381712e-03
1.91620930232558e+00 1.52885863894754e-01 2.03458265765149e-03
1.92313953488372e+00 1.51664056788692e-01 2.02196952079012e-03
1.93006976744186e+00 1.50452013913310e-01 2.00942153005211e-03
1.93700000000000e+00 1.49249657236458e-01 1.99693853892465e-03
1.94393023255814e+00 1.48056909343660e-01 1.98452039302918e-03
1.95086046511628e+00 1.46873693451056e-01 1.97216693501585e-03
1.95779069767442e+00 1.45699933382397e-01 1.95987800951828e-03
1.96472093023256e+00 1.44535553570208e-01 1.94765345816114e-03
1.97165116279070e+00 1.43380479045260e-01 1.93549311519895e-03
1.97858139534884e+00 1.42234635448856e-01 1.92339681221839e-03
1.98551162790698e+00 1.41097949010800e-01 1.91136438289885e-03
1.99244186046512e+00 1.39970346550447e-01 1.89939565821110e-03
1.99937209302326e+00 1.38851755466573e-01 1.88749046222150e-03
2.00630232558140e+00 1.37742103749049e-01 1.87564861661000e-03
2.01323255813953e+00 1.36641319957739e-01 1.86386994524479e-03
2.02016279069767e+00 1.35549333223434e-01 1.85215426956426e-03
2.02709302325581e+00 1.34466073238120e-01 1.84050140453987e-03
2.03402325581395e+00 1.33391470266060e-01 1.82891116301776e-03
2.04095348837209e+00 1.32325455123580e-01 1.81738336011542e-03
2.04788372093023e+00 1.31267959179902e-01 1.80591780877943e-03
2.05481395348837e+00 1.30218914347784e-01 1.79451431590050e-03
2.06174418604651e+00 1.29178253094049e-01 1.78317268648625e-03
2.06867441860465e+00 1.28145908420214e-01 1.77189272788736e-03
2.07560465116279e+00 1.27121813863228e-01 1.76067424552359e-03
2.08253488372093e+00 1.26105903486477e-01 1.74951703914550e-03
2.08946511627907e+00 1.25098111889776e-01 1.73842090684540e-03
2.09639534883721e+00 1.24098374190813e-01 1.72738565102236e-03
2.10332558139535e+00 1.23106626021236e-01 1.71641106664279e-03
2.11025581395349e+00 1.22122803536285e-01 1.70549694717266e-03
2.11718604651163e+00 1.21146843396801e-01 1.69464308853064e-03
2.12411627906977e+00 1.20178682769805e-01 1.68384928508370e-03
2.13104651162791e+00 1.19218259320101e-01 1.67311532614221e-03
2.13797674418605e+00 1.18265511219429e-01 1.66244099971285e-03
2.14490697674419e+00 1.17320377129221e-01 1.65182609629916e-03
2.15183720930233e+00 1.16382796201101e-01 1.64127040504854e-03
2.15876744186047e+00 1.15452708068807e-01 1.63077371037886e-03
2.16569767441860e+00 1.14530052856891e-01 1.62033579558625e-03
2.17262790697674e+00 1.13614771164186e-01 1.60995644649980e-03
2.17955813953488e+00 1.12706804064236e-01 1.59963544777365e-03
2.18648837209302e+00 1.11806093097519e-01 1.58937257963993e-03
