Energy (eV)          EEDF (eV^-(3/2))     First Anisotropy
2.32432432432432e-02 1.01434251887529e-01 6.24836193334368e-05
6.97297297297297e-02 1.00489451806894e-01 1.03044107298037e-04
1.16216216216216e-01 9.95534519803368e-02 1.35675086761129e-04
1.62702702702703e-01 9.86261704415953e-02 1.60250213578145e-04
2.09189189189189e-01 9.77075259793412e-02 1.80569113239174e-04
2.55675675675676e-01 9.67974381488626e-02 1.98073588568406e-04
3.02162162162162e-01 9.58958272466487e-02 2.13512345516035e-04
3.48648648648649e-01 9.50026143181767e-02 2.27339024411616e-04
3.95135135135135e-01 9.41177211387159e-02 2.39855483780659e-04
4.41621621621622e-01 9.32410702170078e-02 2.51275770294785e-04
4.88108108108108e-01 9.23725847792929e-02 2.61758847173343e-04
5.34594594594595e-01 9.15121887707303e-02 2.71427007439672e-04
5.81081081081081e-01 9.06598068414418e-02 2.80376989971758e-04
6.27567567567567e-01 8.98153643465140e-02 2.88687066493142e-04
6.74054054054054e-01 8.89787873334450e-02 2.96421761523166e-04
7.20540540540541e-01 8.81500025411889e-02 3.03635110138313e-04
7.67027027027027e-01 8.73289373886469e-02 3.10372974837737e-04
8.13513513513513e-01 8.65155199730329e-02 3.16674735448240e-04
8.60000000000000e-01 8.57096790591814e-02 3.22574549043318e-04
9.06486486486486e-01 8.49113440774160e-02 3.28102307167268e-04
9.52972972972973e-01 8.41204451135198e-02 3.33284375427658e-04
9.99459459459459e-01 8.33369129062315e-02 3.38144173096445e-04
1.04594594594595e+00 8.25606788399654e-02 3.42702634866243e-04
1.09243243243243e+00 8.17916749324930e-02 3.46978579996214e-04
1.13891891891892e+00 8.10298338393001e-02 3.50989012276744e-04
1.18540540540541e+00 8.02750888497970e-02 3.54749370394366e-04
1.23189189189189e+00 7.95273738614027e-02 3.58273730344299e-04
1.27837837837838e+00 7.87866233939441e-02 3.61574973748070e-04
1.32486486486486e+00 7.80527725829046e-02 3.64664935739147e-04
1.37135135135135e+00 7.73257571563394e-02 3.67554523569910e-04
1.41783783783784e+00 7.66055134519321e-02 3.70253820582609e-04
1.46432432432432e+00 7.58919783899904e-02 3.72772175748827e-04
1.51081081081081e+00 7.51850894835618e-02 3.75118277431660e-04
1.55729729729730e+00 7.44847848322908e-02 3.77300223393107e-04
1.60378378378378e+00 7.37910031032079e-02 3.79325576556422e-04
1.65027027027027e+00 7.31036835392112e-02 3.81201413577580e-04
1.69675675675676e+00 7.24227659532119e-02 3.82934372635481e-04
1.74324324324324e+00 7.17481907105263e-02 3.84530690703941e-04
1.78972972972973e+00 7.10798987360204e-02 3.85996236368339e-04
1.83621621621622e+00 7.04178315085064e-02 3.87336543797603e-04
1.88270270270270e+00 6.97619310445022e-02 3.88556838437050e-04
1.92918918918919e+00 6.91121399042973e-02 3.89662059834355e-04
1.97567567567568e+00 6.84684011865289e-02 3.90656886646449e-04
2.02216216216216e+00 6.78306585131585e-02 3.91545754799353e-04
2.06864864864865e+00 6.71988560346238e-02 3.92332873750525e-04
2.11513513513514e+00 6.65729384245851e-02 3.93022245464200e-04
2.16162162162162e+00 6.59528508659664e-02 3.93617677075114e-04
2.20810810810811e+00 6.53385390581170e-02 3.94122794468622e-04
2.25459459459459e+00 6.47299492005532e-02 3.94541054864351e-04
2.30108108108108e+00 6.41270279967306e-02 3.94875755992739e-04
2.34756756756757e+00 6.35297226490856e-02 3.95130048744043e-04
2.39405405405405e+00 6.29379808466922e-02 3.95306945080842e-04
2.44054054054054e+00 6.23517507684468e-02 3.95409325229473e-04
2.48702702702703e+00 6.17709810782832e-02 3.95439947914698e-04
2.53351351351351e+00 6.11956209135753e-02 3.95401456300689e-04
2.58000000000000e+00 6.06256198878162e-02 3.95296383405806e-04
2.62648648648649e+00 6.00609280859947e-02 3.95127160545316e-04
2.67297297297297e+00 5.95014960536712e-02 3.94896121833877e-04
2.71945945945946e+00 5.89472747992246e-02 3.94605508298471e-04
2.76594594594595e+00 5.83982157893721e-02 3.94257474963416e-04
2.81243243243243e+00 5.78542709388610e-02 3.93854094284496e-04
2.85891891891892e+00 5.73153926123432e-02 3.93397359294499e-04
2.90540540540541e+00 5.67815336200244e-02 3.92889189639429e-04
2.95189189189189e+00 5.62526472079222e-02 3.92331434208313e-04
2.99837837837838e+00 5.57286870594146e-02 3.91725873549341e-04
3.04486486486486e+00 5.52096072910141e-02 3.91074225081915e-04
3.09135135135135e+00 5.46953624431442e-02 3.90378144808409e-04
3.13783783783784e+00 5.41859074830228e-02 3.89639230399176e-04
3.18432432432432e+00 5.36811977940572e-02 3.88859024214800e-04
3.23081081081081e+00 5.31811891768708e-02 3.88039014543880e-04
3.27729729729730e+00 5.26858378452923e-02 3.87180639769097e-04
3.32378378378378e+00 5.21951004179500e-02 3.86285289674461e-04
3.37027027027027e+00 5.17089339190691e-02 3.85354306646124e-04
3.41675675675676e+00 5.12272957745853e-02 3.84388989373725e-04
3.46324324324324e+00 5.07501438041455e-02 3.83390593848463e-04
3.50972972972973e+00 5.02774362217032e-02 3.82360334275726e-04
3.55621621621622e+00 4.98091316317514e-02 3.81299386392176e-04
3.60270270270270e+00 4.93451890216993e-02 3.80208888219308e-04
3.64918918918919e+00 4.88855677622958e-02 3.79089940749941e-04
3.69567567567568e+00 4.84302276039681e-02 3.77943610943487e-04
3.74216216216216e+00 4.79791286695547e-02 3.76770932284342e-04
3.78864864864865e+00 4.75322314545754e-02 3.75572905289990e-04
3.83513513513513e+00 4.70894968236726e-02 3.74350500233398e-04
3.88162162162162e+00 4.66508860036766e-02 3.73104657313080e-04
3.92810810810811e+00 4.62163605848423e-02 3.71836287952052e-04
3.97459459459459e+00 4.57858825129712e-02 3.70546276120948e-04
4.02108108108108e+00 4.53594140894314e-02 3.69235478380385e-04
4.06756756756757e+00 4.49369179677684e-02 3.67904726219802e-04
4.11405405405405e+00 4.45183571473029e-02 3.66554826274681e-04
4.16054054054054e+00 4.41036949730412e-02 3.65186560518446e-04
4.20702702702703e+00 4.36928951323865e-02 3.63800688418763e-04
4.25351351351351e+00 4.32859216490102e-02 3.62397947069254e-04
4.30000000000000e+00 4.28827388826653e-02 3.60979051299985e-04
4.34648648648649e+00 4.24833115259944e-02 3.59544695674052e-04
4.39297297297297e+00 4.20876045986584e-02 3.58095554550027e-04
4.43945945945946e+00 4.16955834470661e-02 3.56632282127047e-04
4.48594594594595e+00 4.13072137412727e-02 3.55155514300682e-04
4.53243243243243e+00 4.09224614693532e-02 3.53665868668679e-04
4.57891891891892e+00 4.05412929370582e-02 3.52163944523926e-04
4.62540540540541e+00 4.01636747647993e-02 3.50650324585216e-04
4.67189189189189e+00 3.97895738822539e-02 3.49125574956841e-04
4.71837837837838e+00 3.94189575279564e-02 3.47590245079858e-04
4.76486486486486e+00 3.90517932463674e-02 3.46044869350890e-04
4.81135135135135e+00 3.86880488826975e-02 3.44489966870918e-04
4.85783783783784e+00 3.83276925831803e-02 3.42926042058680e-04
4.90432432432432e+00 3.79706927892626e-02 3.41353585299651e-04
4.95081081081081e+00 3.76170182370863e-02 3.39773072661980e-04
4.99729729729730e+00 3.72666379546975e-02 3.38184967345318e-04
5.04378378378378e+00 3.69195212572222e-02 3.36589719561970e-04
5.09027027027027e+00 3.65756377463026e-02 3.34987766414419e-04
5.13675675675676e+00 3.62349573073869e-02 3.33379533259431e-04
5.18324324324324e+00 3.58974501050919e-02 3.31765433569240e-04
5.22972972972973e+00 3.55630865825999e-02 3.30145868789412e-04
5.27621621621622e+00 3.52318374590266e-02 3.28521229625937e-04
5.32270270270270e+00 3.49036737249605e-02 3.26891895890243e-04
5.36918918918919e+00 3.45785666418280e-02 3.25258236342005e-04
5.41567567567568e+00 3.42564877393341e-02 3.23620609905723e-04
5.46216216216216e+00 3.39374088111718e-02 3.21979365502541e-04
5.50864864864865e+00 3.36213019143595e-02 3.20334841881818e-04
5.55513513513514e+00 3.33081393667525e-02 3.18687368772799e-04
5.60162162162162e+00 3.29978937429142e-02 3.17037266569046e-04
5.64810810810811e+00 3.26905378739713e-02 3.15384846701376e-04
5.69459459459459e+00 3.23860448430239e-02 3.13730412042679e-04
5.74108108108108e+00 3.20843879844339e-02 3.12074256582087e-04
5.78756756756757e+00 3.17855408814521e-02 3.10416666474231e-04
5.83405405405405e+00 3.14894773623522e-02 3.08757919852477e-04
5.88054054054054e+00 3.11961714997006e-02 3.07098286643927e-04
5.92702702702703e+00 3.09055976080516e-02 3.05438029566363e-04
5.97351351351351e+00 3.06177302402223e-02 3.03777403937582e-04
6.02000000000000e+00 3.03325441865475e-02 3.02116657486145e-04
6.06648648648649e+00 3.00500144726405e-02 3.00456031299764e-04
6.11297297297297e+00 2.97701163558027e-02 2.98795759632000e-04
6.15945945945946e+00 2.94928253242670e-02 2.97136069710402e-04
6.20594594594595e+00 2.92181170950218e-02 2.95477182639687e-04
6.25243243243243e+00 2.89459676103489e-02 2.93819313206691e-04
6.29891891891892e+00 2.86763530370594e-02 2.92162669687448e-04
6.34540540540540e+00 2.84092497643771e-02 2.90507454708086e-04
6.39189189189189e+00 2.81446344006010e-02 2.88853865048911e-04
6.43837837837838e+00 2.78824837723346e-02 2.87202091451503e-04
6.48486486486486e+00 2.76227749224281e-02 2.85552319439989e-04
6.53135135135135e+00 2.73654851067590e-02 2.83904729019831e-04
6.57783783783784e+00 2.71105917938429e-02 2.82259494908213e-04
6.62432432432432e+00 2.68580726612879e-02 2.80616786790211e-04
6.67081081081081e+00 2.66079055950111e-02 2.78976769016292e-04
6.71729729729730e+00 2.63600686872768e-02 2.77339601359412e-04
6.76378378378378e+00 2.61145402336684e-02 2.75705438823322e-04
6.81027027027027e+00 2.58712987323038e-02 2.74074431453855e-04
6.85675675675676e+00 2.56303228819286e-02 2.72446725062719e-04
6.90324324324324e+00 2.53915915789932e-02 2.70822461037907e-04
6.94972972972973e+00 2.51550839168681e-02 2.69201776156754e-04
6.99621621621622e+00 2.49207791839912e-02 2.67584803278317e-04
7.04270270270270e+00 2.46886568610449e-02 2.65971671156135e-04
7.08918918918919e+00 2.44586966201741e-02 2.64362504253672e-04
7.13567567567568e+00 2.42308783231839e-02 2.62757423407094e-04
7.18216216216216e+00 2.40051820188151e-02 2.61156545640487e-04
7.22864864864865e+00 2.37815879419637e-02 2.59559983984221e-04
7.27513513513513e+00 2.35600765119301e-02 2.57967848109655e-04
7.32162162162162e+00 2.33406283297865e-02 2.56380244062230e-04
7.36810810810811e+00 2.31232241778945e-02 2.54797274423387e-04
7.41459459459459e+00 2.29078450170275e-02 2.53219038493464e-04
7.46108108108108e+00 2.26944719855939e-02 2.51645632026033e-04
7.50756756756757e+00 2.24830863979669e-02 2.50077147816580e-04
7.55405405405405e+00 2.22736697420024e-02 2.48513675527238e-04
7.60054054054054e+00 2.20662036782683e-02 2.46955301514762e-04
7.64702702702703e+00 2.18606700384214e-02 2.45402109395079e-04
7.69351351351351e+00 2.16570508228082e-02 2.43854179871621e-04
7.74000000000000e+00 2.14553281997010e-02 2.42311590566478e-04
7.78648648648649e+00 2.12554845037200e-02 2.40774416562048e-04
7.83297297297297e+00 2.10575022335142e-02 2.39242730232960e-04
7.87945945945946e+00 2.08613640510053e-02 2.37716601080703e-04
7.92594594594595e+00 2.06670527798532e-02 2.36196096253500e-04
7.97243243243243e+00 2.04745514032144e-02 2.34681280381756e-04
8.01891891891892e+00 2.02838430629936e-02 2.33172215416355e-04
8.06540540540541e+00 2.00949110583525e-02 2.31668961127837e-04
8.11189189189189e+00 1.99077388435416e-02 2.30171574945361e-04
8.15837837837838e+00 1.97223100271613e-02 2.28680111798790e-04
8.20486486486486e+00 1.95386083707112e-02 2.27194624598112e-04
8.25135135135135e+00 1.93566177864943e-02 2.25715164009663e-04
8.29783783783784e+00 1.91763223371022e-02 2.24241778567976e-04
8.34432432432432e+00 1.89977062331402e-02 2.22774514804104e-04
8.39081081081081e+00 1.88207538325004e-02 2.21313417023968e-04
8.43729729729730e+00 1.86454496389784e-02 2.19858527755168e-04
8.48378378378378e+00 1.84717783002928e-02 2.18409887596832e-04
8.53027027027027e+00 1.82997246073679e-02 2.16967535072168e-04
8.57675675675676e+00 1.81292734929894e-02 2.15531507058027e-04
8.62324324324324e+00 1.79604100298879e-02 2.14101838638541e-04
8.66972972972973e+00 1.77931194300319e-02 2.12678562961200e-04
8.71621621621622e+00 1.76273870433214e-02 2.11261711649932e-04
8.76270270270270e+00 1.74631983557328e-02 2.09851314662403e-04
8.80918918918919e+00 1.73005389886229e-02 2.08447400149745e-04
8.85567567567568e+00 1.71393946974588e-02 2.07049994853898e-04
8.90216216216216e+00 1.69797513700223e-02 2.05659123968433e-04
8.94864864864865e+00 1.68215950257253e-02 2.04274811001970e-04
8.99513513513513e+00 1.66649118143741e-02 2.02897078160436e-04
9.04162162162162e+00 1.65096880144327e-02 2.01525946157370e-04
9.08810810810811e+00 1.63559100325160e-02 2.00161434297686e-04
9.13459459459459e+00 1.62035644015159e-02 1.98803560574781e-04
9.18108108108108e+00 1.60526377799318e-02 1.97452341483049e-04
9.22756756756757e+00 1.59031169506925e-02 1.96107792375201e-04
9.27405405405405e+00 1.57549888195124e-02 1.94769927333138e-04
9.32054054054054e+00 1.56082404142337e-02 1.93438759041358e-04
9.36702702702703e+00 1.54628588836811e-02 1.92114299130963e-04
9.41351351351351e+00 1.53188314960705e-02 1.90796558054080e-04
9.46000000000000e+00 1.51761456383620e-02 1.89485544960560e-04
9.50648648648649e+00 1.50347888151471e-02 1.88181268029224e-04
9.55297297297297e+00 1.48947486471073e-02 1.86883734345719e-04
9.59945945945946e+00 1.47560128703793e-02 1.85592949782517e-04
9.64594594594594e+00 1.46185693354723e-02 1.84308919317949e-04
9.69243243243243e+00 1.44824060057758e-02 1.83031646917355e-04
9.73891891891892e+00 1.43475109569364e-02 1.81761135416391e-04
9.78540540540540e+00 1.42138723758050e-02 1.80497386828356e-04
9.83189189189189e+00 1.40814785589916e-02 1.79240402228529e-04
9.87837837837838e+00 1.39503179122538e-02 1.77990181640752e-04
9.92486486486486e+00 1.38203789494729e-02 1.76746724333547e-04
9.97135135135135e+00 1.36916502912547e-02 1.75510028664859e-04
1.00178378378378e+01 1.35641206644551e-02 1.74280092227666e-04
1.00643243243243e+01 1.34377789004291e-02 1.73056911707667e-04
1.01108108108108e+01 1.33126139350682e-02 1.71840482857401e-04
1.01572972972973e+01 1.31886148071933e-02 1.70630800416385e-04
1.02037837837838e+01 1.30657706589176e-02 1.69427859142854e-04
1.02502702702703e+01 1.29440707310824e-02 1.68231653053763e-04
1.02967567567568e+01 1.28235043659553e-02 1.67042174605792e-04
1.03432432432432e+01 1.27040610050743e-02 1.65859415977863e-04
1.03897297297297e+01 1.25857301883222e-02 1.64683368665356e-04
1.04362162162162e+01 1.24685015530124e-02 1.63514023498456e-04
1.04827027027027e+01 1.23523648329805e-02 1.62351370285206e-04
1.05291891891892e+01 1.22373098587702e-02 1.61195398963266e-04
1.05756756756757e+01 1.21233265534640e-02 1.60046098857773e-04
1.06221621621622e+01 1.20104049351038e-02 1.58903457925303e-04
1.06686486486486e+01 1.18985351147075e-02 1.57767463934439e-04
1.07151351351351e+01 1.17877072954021e-02 1.56638104091030e-04
1.07616216216216e+01 1.16779117715672e-02 1.55515365053714e-04
1.08081081081081e+01 1.15691389279843e-02 1.54399232949726e-04
1.08545945945946e+01 1.14613792389955e-02 1.53289693047280e-04
1.09010810810811e+01 1.13546232686406e-02 1.52186730805316e-04
1.09475675675676e+01 1.12488616668928e-02 1.51090331195200e-04
1.09940540540541e+01 1.11440851718000e-02 1.50000478009782e-04
1.10405405405405e+01 1.10402846076795e-02 1.48917154939201e-04
1.10870270270270e+01 1.09374508843141e-02 1.47840345227614e-04
1.11335135135135e+01 1.08355749961572e-02 1.46770031686572e-04
1.11800000000000e+01 1.07346480215435e-02 1.45706196392163e-04
1.12264864864865e+01 1.06346611227917e-02 1.44648821652359e-04
1.12729729729730e+01 1.05356055427589e-02 1.43597889380368e-04
1.13194594594595e+01 1.04374726067651e-02 1.42553380456249e-04
1.13659459459459e+01 1.03402537209299e-02 1.41515275718560e-04
1.14124324324324e+01 1.02439403714188e-02 1.40483555646908e-04
1.14589189189189e+01 1.01485241236995e-02 1.39458200373221e-04
1.15054054054054e+01 1.00539966218022e-02 1.38439189401410e-04
1.15518918918919e+01 9.96034958839221e-03 1.37426502499507e-04
1.15983783783784e+01 9.86757482161469e-03 1.36420119120444e-04
1.16448648648649e+01 9.77566419682459e-03 1.35420017812029e-04
1.16913513513514e+01 9.68460966505312e-03 1.34426177131367e-04
1.17378378378378e+01 9.59440325230252e-03 1.33438575351376e-04
1.17843243243243e+01 9.50503705884798e-03 1.32457190470265e-04
1.18308108108108e+01 9.41650325854625e-03 1.31482000221257e-04
1.18772972972973e+01 9.32879409814990e-03 1.30512981815446e-04
1.19237837837838e+01 9.24190189735179e-03 1.29550112756053e-04
1.19702702702703e+01 9.15581904592647e-03 1.28593370308470e-04
1.20167567567568e+01 9.07053800526568e-03 1.27642730960396e-04
1.20632432432432e+01 8.98605130697876e-03 1.26698171256653e-04
1.21097297297297e+01 8.90235155223811e-03 1.25759667529937e-04
1.21562162162162e+01 8.81943141113235e-03 1.24827195908995e-04
1.22027027027027e+01 8.73728362202382e-03 1.23900732080703e-04
1.22491891891892e+01 8.65590099157195e-03 1.22980252041540e-04
1.22956756756757e+01 8.57527639211117e-03 1.22065731607445e-04
1.23421621621622e+01 8.49540276303337e-03 1.21157145914549e-04
1.23886486486486e+01 8.41627310949574e-03 1.20254470189654e-04
1.24351351351351e+01 8.33788050180800e-03 1.19357679501184e-04
1.24816216216216e+01 8.26021807482587e-03 1.18466748766043e-04
1.25281081081081e+01 8.18327902734999e-03 1.17581652756660e-04
1.25745945945946e+01 8.10705662153009e-03 1.16702365882466e-04
1.26210810810811e+01 8.03154418286888e-03 1.15828862876596e-04
1.26675675675676e+01 7.95673509784293e-03 1.14961118347075e-04
1.27140540540541e+01 7.88262281513108e-03 1.14099106319691e-04
1.27605405405405e+01 7.80920084443374e-03 1.13242800941956e-04
1.28070270270270e+01 7.73646275590432e-03 1.12392176254666e-04
1.28535135135135e+01 7.66440217958676e-03 1.11547206197811e-04
1.29000000000000e+01 7.59301280485734e-03 1.10707864408286e-04
1.29464864864865e+01 7.52228838041411e-03 1.09874124854149e-04
1.29929729729730e+01 7.45222271209150e-03 1.09045961419293e-04
1.30394594594595e+01 7.38280966396765e-03 1.08223347480376e-04
1.30859459459459e+01 7.31404315727315e-03 1.07406256557192e-04
1.31324324324324e+01 7.24591716985837e-03 1.06594662101101e-04
1.31789189189189e+01 7.17842573566669e-03 1.05788537499952e-04
1.32254054054054e+01 7.11156294421178e-03 1.04987855890612e-04
1.32718918918919e+01 7.04532294055506e-03 1.04192590745149e-04
1.33183783783784e+01 6.97969992329705e-03 1.03402715486332e-04
1.33648648648649e+01 6.91468814557597e-03 1.02618203095989e-04
1.34113513513514e+01 6.85028191405863e-03 1.01839026715994e-04
1.34578378378378e+01 6.78647558844173e-03 1.01065159452401e-04
1.35043243243243e+01 6.72326358095792e-03 1.00296574379498e-04
1.35508108108108e+01 6.66064035588682e-03 9.95332445440517e-05
1.35972972972973e+01 6.59860042906995e-03 9.87751427931455e-05
1.36437837837838e+01 6.53713836787752e-03 9.80222423103638e-05
1.36902702702703e+01 6.47624878938203e-03 9.72745162634267e-05
1.37367567567568e+01 6.41592636124719e-03 9.65319374452500e-05
1.37832432432432e+01 6.35616580080425e-03 9.57944788237901e-05
1.38297297297297e+01 6.29696187458905e-03 9.50621133621478e-05
1.38762162162162e+01 6.23830939788436e-03 9.43348140220493e-05
1.39227027027027e+01 6.18020323426546e-03 9.36125536043455e-05
1.39691891891892e+01 6.12263829555918e-03 9.28953052448102e-05
1.40156756756757e+01 6.06560954016317e-03 9.21830420877821e-05
1.40621621621622e+01 6.00911197384832e-03 9.14757369536932e-05
1.41086486486486e+01 5.95314064890380e-03 9.07733628475128e-05
1.41551351351351e+01 5.89769066370360e-03 9.00758927921162e-05
1.42016216216216e+01 5.84275716227746e-03 8.93832998311231e-05
1.42481081081081e+01 5.78833533388574e-03 8.86955570318866e-05
1.42945945945946e+01 5.73442041259791e-03 8.80126373388559e-05
1.43410810810811e+01 5.68100767724489e-03 8.73345140275019e-05
1.43875675675676e+01 5.62809244988886e-03 8.66611604050134e-05
1.44340540540541e+01 5.57567009653825e-03 8.59925495054472e-05
1.44805405405405e+01 5.52373602636429e-03 8.53286545551708e-05
1.45270270270270e+01 5.47228569129895e-03 8.46694488198364e-05
1.45735135135135e+01 5.42131458563688e-03 8.40149056067924e-05
1.46200000000000e+01 5.37081824564073e-03 8.33649981291785e-05
1.46664864864865e+01 5.32079224948855e-03 8.27196999259255e-05
