Energy (eV)          EEDF (eV^-(3/2))     First Anisotropy
8.27777777777778e-03 1.39210954474935e+00 1.20605739426200e-03
2.48333333333333e-02 1.36567930399515e+00 1.97929207073581e-03
4.13888888888889e-02 1.33975086124363e+00 2.58063332970762e-03
5.79444444444444e-02 1.31431468933717e+00 3.01831304908832e-03
7.45000000000000e-02 1.28936144220288e+00 3.36781789111538e-03
9.10555555555556e-02 1.26488195110970e+00 3.65823141309237e-03
1.07611111111111e-01 1.24086722147352e+00 3.90487437489700e-03
1.24166666666667e-01 1.21730842940500e+00 4.11715803137386e-03
1.40722222222222e-01 1.19419691871225e+00 4.30142809578363e-03
1.57277777777778e-01 1.17152419726318e+00 4.46224179114605e-03
1.73833333333333e-01 1.14928193432203e+00 4.60302491675072e-03
1.90388888888889e-01 1.12746195744826e+00 4.72644365774427e-03
2.06944444444444e-01 1.10605624910228e+00 4.83463025975779e-03
2.23500000000000e-01 1.08505694419166e+00 4.92932774262382e-03
2.40055555555556e-01 1.06445632674699e+00 5.01198683149386e-03
2.56611111111111e-01 1.04424682747329e+00 5.08383324114809e-03
2.73166666666667e-01 1.02442102062150e+00 5.14591581241710e-03
2.89722222222222e-01 1.00497162157398e+00 5.19914182716048e-03
3.06277777777778e-01 9.85891483882168e-01 5.24430350403223e-03
3.22833333333333e-01 9.67173596844935e-01 5.28209823061582e-03
3.39388888888889e-01 9.48811082921363e-01 5.31314433047845e-03
3.55944444444444e-01 9.30797195032073e-01 5.33799346898180e-03
3.72500000000000e-01 9.13125314301276e-01 5.35714058738286e-03
3.89055555555556e-01 8.95788947420032e-01 5.37103194161513e-03
4.05611111111111e-01 8.78781724450448e-01 5.38007167405279e-03
4.22166666666667e-01 8.62097396308168e-01 5.38462724521235e-03
4.38722222222222e-01 8.45729832631411e-01 5.38503395749952e-03
4.55277777777778e-01 8.29673019373933e-01 5.38159876199682e-03
4.71833333333333e-01 8.13921056707538e-01 5.37460346574033e-03
4.88388888888889e-01 7.98468156848979e-01 5.36430749332032e-03
5.04944444444444e-01 7.83308641835590e-01 5.35095023104649e-03
5.21500000000000e-01 7.68436941566155e-01 5.33475306126557e-03
5.38055555555556e-01 7.53847591634420e-01 5.31592112780249e-03
5.54611111111111e-01 7.39535231434386e-01 5.29464487392450e-03
5.71166666666667e-01 7.25494602083729e-01 5.27110139278263e-03
5.87722222222222e-01 7.11720544592679e-01 5.24545561460024e-03
6.04277777777778e-01 6.98207997872554e-01 5.21786136048309e-03
6.20833333333333e-01 6.84951996946333e-01 5.18846226674264e-03
6.37388888888889e-01 6.71947671121318e-01 5.15739262887168e-03
6.53944444444444e-01 6.59190242137314e-01 5.12477813742715e-03
6.70500000000000e-01 6.46675022492209e-01 5.09073654673745e-03
6.87055555555556e-01 6.34397413642285e-01 5.05537827651522e-03
7.03611111111111e-01 6.22352904386206e-01 5.01880695344791e-03
7.20166666666667e-01 6.10537069137246e-01 4.98111990305071e-03
7.36722222222222e-01 5.98945566364131e-01 4.94240859472320e-03
7.53277777777778e-01 5.87574136931897e-01 4.90275904963089e-03
7.69833333333333e-01 5.76418602583933e-01 4.86225220427194e-03
7.86388888888889e-01 5.65474864404827e-01 4.82096425821884e-03
8.02944444444444e-01 5.54738901272235e-01 4.77896697827100e-03
8.19500000000000e-01 5.44206768434537e-01 4.73632798418772e-03
8.36055555555556e-01 5.33874596008611e-01 4.69311101121834e-03
8.52611111111111e-01 5.23738587608452e-01 4.64937615093084e-03
8.69166666666667e-01 5.13795018901815e-01 4.60518007466720e-03
8.85722222222222e-01 5.04040236288199e-01 4.56057623915271e-03
9.02277777777778e-01 4.94470655511849e-01 4.51561507910263e-03
9.18833333333333e-01 4.85082760377621e-01 4.47034417937650e-03
9.35388888888889e-01 4.75873101457720e-01 4.42480844676073e-03
9.51944444444444e-01 4.66838294794679e-01 4.37905025856084e-03
9.68500000000000e-01 4.57975020696863e-01 4.33310960609261e-03
9.85055555555556e-01 4.49280022481337e-01 4.28702422823524e-03
1.00161111111111e+00 4.40750105313161e-01 4.24082973627943e-03
1.01816666666667e+00 4.32382134988900e-01 4.19455972304567e-03
1.03472222222222e+00 4.24173036881002e-01 4.14824589086237e-03
1.05127777777778e+00 4.16119794605198e-01 4.10191814008353e-03
1.06783333333333e+00 4.08219449123502e-01 4.05560464015618e-03
1.08438888888889e+00 4.00469097647991e-01 4.00933197221140e-03
1.10094444444444e+00 3.92865892360337e-01 3.96312517785056e-03
1.11750000000000e+00 3.85407039647022e-01 3.91700784488247e-03
1.13405555555556e+00 3.78089798801510e-01 3.87100218546245e-03
1.15061111111111e+00 3.70911481278779e-01 3.82512910323381e-03
1.16716666666667e+00 3.63869449455254e-01 3.77940826291540e-03
1.18372222222222e+00 3.56961115902894e-01 3.73385814988941e-03
1.20027777777778e+00 3.50183942203817e-01 3.68849613927219e-03
1.21683333333333e+00 3.43535438191235e-01 3.64333852118052e-03
1.23338888888889e+00 3.37013161028041e-01 3.59840059758083e-03
1.24994444444444e+00 3.30614714151451e-01 3.55369670425219e-03
1.26650000000000e+00 3.24337746600399e-01 3.50924026320511e-03
1.28305555555556e+00 3.18179951950872e-01 3.46504383016896e-03
1.29961111111111e+00 3.12139067662445e-01 3.42111913458879e-03
1.31616666666667e+00 3.06212874059512e-01 3.37747712241752e-03
1.33272222222222e+00 3.00399193696830e-01 3.33412799200007e-03
1.34927777777778e+00 2.94695890384377e-01 3.29108123820168e-03
1.36583333333333e+00 2.89100868532129e-01 3.24834566261308e-03
1.38238888888889e+00 2.83612072375349e-01 3.20592944121332e-03
1.39894444444444e+00 2.78227485101053e-01 3.16384013323406e-03
1.41550000000000e+00 2.72945128262881e-01 3.12208471482731e-03
1.43205555555556e+00 2.67763060903320e-01 3.08066960928667e-03
1.44861111111111e+00 2.62679378986461e-01 3.03960071188796e-03
1.46516666666667e+00 2.57692214557165e-01 2.99888341734207e-03
1.48172222222222e+00 2.52799735191403e-01 2.95852264224026e-03
1.49827777777778e+00 2.48000143190635e-01 2.91852285441222e-03
1.51483333333333e+00 2.43291675019384e-01 2.87888807561540e-03
1.53138888888889e+00 2.38672600653739e-01 2.83962193041771e-03
1.54794444444444e+00 2.34141222856071e-01 2.80072764844042e-03
1.56450000000000e+00 2.29695876669733e-01 2.76220808673077e-03
1.58105555555556e+00 2.25334928692682e-01 2.72406574960859e-03
1.59761111111111e+00 2.21056776588347e-01 2.68630280451222e-03
1.61416666666667e+00 2.16859848389286e-01 2.64892110012490e-03
1.63072222222222e+00 2.12742602023858e-01 2.61192218075544e-03
1.64727777777778e+00 2.08703524648546e-01 2.57530730642891e-03
1.66383333333333e+00 2.04741132167082e-01 2.53907745180346e-03
1.68038888888889e+00 2.00853968682474e-01 2.50323334231931e-03
1.69694444444444e+00 1.97040605893455e-01 2.46777545308501e-03
1.71350000000000e+00 1.93299642660321e-01 2.43270402409595e-03
1.73005555555556e+00 1.89629704402196e-01 2.39801907354292e-03
1.74661111111111e+00 1.86029442677228e-01 2.36372040807702e-03
1.76316666666667e+00 1.82497534604413e-01 2.32980763500685e-03
1.77972222222222e+00 1.79032682457764e-01 2.29628017163402e-03
1.79627777777778e+00 1.75633613111628e-01 2.26313725927585e-03
1.81283333333333e+00 1.72299077630699e-01 2.23037796035664e-03
1.82938888888889e+00 1.69027850809087e-01 2.19800118559113e-03
1.84594444444444e+00 1.65818730667170e-01 2.16600569123503e-03
1.86250000000000e+00 1.62670538079964e-01 2.13439008960032e-03
1.87905555555556e+00 1.59582116275902e-01 2.10315285809585e-03
1.89561111111111e+00 1.56552330477779e-01 2.07229234591497e-03
1.91216666666667e+00 1.53580067421735e-01 2.04180678233721e-03
1.92872222222222e+00 1.50664235010408e-01 2.01169428281103e-03
1.94527777777778e+00 1.47803761851247e-01 1.98195285887411e-03
1.96183333333333e+00 1.44997596907727e-01 1.95258041446262e-03
1.97838888888889e+00 1.42244709111593e-01 1.92357476660592e-03
1.99494444444444e+00 1.39544086942847e-01 1.89493364197302e-03
2.01150000000000e+00 1.36894738112521e-01 1.86665468420907e-03
2.02805555555556e+00 1.34295689145189e-01 1.83873546011664e-03
2.04461111111111e+00 1.31745985072662e-01 1.81117346399673e-03
2.06116666666667e+00 1.29244689033170e-01 1.78396612332859e-03
2.07772222222222e+00 1.26790881975646e-01 1.75711080270937e-03
2.09427777777778e+00 1.24383662274882e-01 1.73060481093459e-03
2.11083333333333e+00 1.22022145435283e-01 1.70444539709051e-03
2.12738888888889e+00 1.19705463764668e-01 1.67862976645513e-03
2.14394444444444e+00 1.17432766023252e-01 1.65315507685006e-03
2.16050000000000e+00 1.15203217153470e-01 1.62801844378392e-03
2.17705555555556e+00 1.13015997931735e-01 1.60321694468164e-03
2.19361111111111e+00 1.10870304707686e-01 1.57874762166173e-03
2.21016666666667e+00 1.08765349069760e-01 1.55460748541986e-03
2.22672222222222e+00 1.06700357593557e-01 1.53079351773706e-03
2.24327777777778e+00 1.04674571520651e-01 1.50730267655859e-03
2.25983333333333e+00 1.02687246507307e-01 1.48413189217214e-03
2.27638888888889e+00 1.00737652350044e-01 1.46127807951238e-03
2.29294444444444e+00 9.88250726920356e-02 1.43873813459325e-03
2.30950000000000e+00 9.69488047933718e-02 1.41650893811576e-03
2.32605555555556e+00 9.51081592402859e-02 1.39458735834687e-03
2.34261111111111e+00 9.33024597235167e-02 1.37297025284467e-03
2.35916666666667e+00 9.15310427589916e-02 1.35165447109659e-03
2.37572222222222e+00 8.97932574740223e-02 1.33063685606331e-03
2.39227777777778e+00 8.80884653389793e-02 1.30991424782849e-03
2.40883333333333e+00 8.64160399543685e-02 1.28948348001798e-03
2.42538888888889e+00 8.47753668199335e-02 1.26934138937379e-03
2.44194444444444e+00 8.31658430889005e-02 1.24948481240940e-03
2.45850000000000e+00 8.15868773729027e-02 1.22991058793058e-03
2.47505555555556e+00 8.00378894989603e-02 1.21061555897178e-03
2.49161111111111e+00 7.85183103213406e-02 1.19159657381127e-03
2.50816666666667e+00 7.70275814880664e-02 1.17285048773892e-03
2.52472222222222e+00 7.55651552594771e-02 1.15437416394893e-03
2.54127777777778e+00 7.41304942838807e-02 1.13616447615931e-03
2.55783333333333e+00 7.27230714172887e-02 1.11821830534364e-03
2.57438888888889e+00 7.13423695291441e-02 1.10053254721236e-03
2.59094444444444e+00 6.99878812964908e-02 1.08310410915722e-03
2.60750000000000e+00 6.86591090385121e-02 1.06592991199741e-03
2.62405555555556e+00 6.73555645132700e-02 1.04900689125527e-03
2.64061111111111e+00 6.60767687581683e-02 1.03233199769284e-03
2.65716666666667e+00 6.48222518946256e-02 1.01590219846900e-03
2.67372222222222e+00 6.35915529742588e-02 9.99714477594132e-04
2.69027777777778e+00 6.23842197911739e-02 9.83765837801983e-04
2.70683333333333e+00 6.11998087294566e-02 9.68053297617254e-04
2.72338888888889e+00 6.00378845997138e-02 9.52573897221632e-04
2.73994444444444e+00 5.88980204665926e-02 9.37324695709350e-04
2.75650000000000e+00 5.77797975085668e-02 9.22302772279286e-04
2.77305555555556e+00 5.66828048478218e-02 9.07505227046790e-04
2.78961111111111e+00 5.56066394150897e-02 8.92929181260652e-04
2.80616666666667e+00 5.45509057861502e-02 8.78571778031752e-04
2.82272222222222e+00 5.35152160515384e-02 8.64430182495773e-04
2.83927777777778e+00 5.24991896593989e-02 8.50501583140479e-04
2.85583333333333e+00 5.15024532865351e-02 8.36783189205586e-04
2.87238888888889e+00 5.05246407008728e-02 8.23272235294575e-04
2.88894444444444e+00 4.95653926168636e-02 8.09965978938736e-04
2.90550000000000e+00 4.86243565767581e-02 7.96861701392562e-04
2.92205555555556e+00 4.77011868081530e-02 7.83956708120953e-04
2.93861111111111e+00 4.67955441095599e-02 7.71248328806048e-04
2.95516666666667e+00 4.59070957134747e-02 7.58733917776396e-04
2.97172222222222e+00 4.50355151760905e-02 7.46410853978786e-04
2.98827777777778e+00 4.41804822456724e-02 7.34276541907987e-04
3.00483333333333e+00 4.33416827535791e-02 7.22328409320911e-04
3.02138888888889e+00 4.25188084985369e-02 7.10563910869963e-04
3.03794444444444e+00 4.17115571253743e-02 6.98980525959335e-04
3.05450000000000e+00 4.09196320245541e-02 6.87575759256888e-04
3.07105555555556e+00 4.01427422128293e-02 6.76347140955699e-04
3.08761111111111e+00 3.93806022364242e-02 6.65292226646688e-04
3.10416666666667e+00 3.86329320563043e-02 6.54408597540072e-04
3.12072222222222e+00 3.78994569548772e-02 6.43693860316335e-04
3.13727777777778e+00 3.71799074256961e-02 6.33145647765862e-04
3.15383333333333e+00 3.64740190813994e-02 6.22761616792092e-04
3.17038888888889e+00 3.57815325563343e-02 6.12539451278702e-04
3.18694444444444e+00 3.51021934048264e-02 6.02476860215145e-04
3.20350000000000e+00 3.44357520162090e-02 5.92571578006874e-04
3.22005555555556e+00 3.37819635147985e-02 5.82821364581875e-04
3.23661111111111e+00 3.31405876780206e-02 5.73224005181701e-04
3.25316666666667e+00 3.25113888402437e-02 5.63777310440734e-04
3.26972222222222e+00 3.18941358138914e-02 5.54479116164662e-04
3.28627777777778e+00 3.12886017969832e-02 5.45327283758972e-04
3.30283333333333e+00 3.06945642953944e-02 5.36319698493016e-04
3.31938888888889e+00 3.01118050409182e-02 5.27454271765348e-04
3.33594444444444e+00 2.95401099059004e-02 5.18728939472672e-04
3.35250000000000e+00 2.89792688314086e-02 5.10141662177953e-04
3.36905555555556e+00 2.84290757433710e-02 5.01690425112480e-04
3.38561111111111e+00 2.78893284833714e-02 4.93373237921410e-04
3.40216666666667e+00 2.73598287280156e-02 4.85188134647719e-04
3.41872222222222e+00 2.68403819222580e-02 4.77133173471543e-04
3.43527777777778e+00 2.63307972018702e-02 4.69206436985645e-04
3.45183333333333e+00 2.58308873278129e-02 4.61406030692001e-04
3.46838888888889e+00 2.53404686172897e-02 4.53730084793270e-04
3.48494444444444e+00 2.48593608720951e-02 4.46176752778952e-04
3.50150000000000e+00 2.43873873179183e-02 4.38744211494601e-04
3.51805555555556e+00 2.39243745340103e-02 4.31430661075492e-04
3.53461111111111e+00 2.34701523947112e-02 4.24234324671408e-04
3.55116666666667e+00 2.30245540018203e-02 4.17153448368725e-04
3.56772222222222e+00 2.25874156282670e-02 4.10186300913239e-04
3.58427777777778e+00 2.21585766530783e-02 4.03331173875586e-04
3.60083333333333e+00 2.17378795059913e-02 3.96586380353114e-04
3.61738888888889e+00 2.13251696094368e-02 3.89950256387446e-04
3.63394444444444e+00 2.09202953183870e-02 3.83421159742676e-04
3.65050000000000e+00 2.05231078690839e-02 3.76997469907104e-04
3.66705555555556e+00 2.01334613200380e-02 3.70677587984193e-04
3.68361111111111e+00 1.97512125026398e-02 3.64459936413152e-04
3.70016666666667e+00 1.93762209644213e-02 3.58342958852914e-04
3.71672222222222e+00 1.90083489214826e-02 3.52325119903583e-04
3.73327777777778e+00 1.86474612039291e-02 3.46404905193574e-04
3.74983333333333e+00 1.82934252091377e-02 3.40580820261423e-04
3.76638888888889e+00 1.79461108529376e-02 3.34851391677853e-04
3.78294444444444e+00 1.76053905191019e-02 3.29215165992608e-04
3.79950000000000e+00 1.72711390160516e-02 3.23670709691424e-04
3.81605555555556e+00 1.69432335273474e-02 3.18216609062383e-04
3.83261111111111e+00 1.66215535699869e-02 3.12851469923170e-04
3.84916666666667e+00 1.63059809467930e-02 3.07573917483712e-04
3.86572222222222e+00 1.59963997062458e-02 3.02382596076040e-04
3.88227777777778e+00 1.56926960966947e-02 2.97276169186549e-04
3.89883333333333e+00 1.53947585269339e-02 2.92253318494783e-04
3.91538888888889e+00 1.51024775251221e-02 2.87312744761646e-04
3.93194444444444e+00 1.48157456963651e-02 2.82453166923433e-04
3.94850000000000e+00 1.45344576861643e-02 2.77673322020482e-04
3.96505555555556e+00 1.42585101388658e-02 2.72971965051601e-04
3.98161111111111e+00 1.39878016624563e-02 2.68347868714766e-04
3.99816666666667e+00 1.37222327886019e-02 2.63799823260116e-04
4.01472222222222e+00 1.34617059387418e-02 2.59326636234335e-04
4.03127777777778e+00 1.32061253856556e-02 2.54927132475252e-04
4.04783333333333e+00 1.29553972202113e-02 2.50600153286930e-04
4.06438888888889e+00 1.27094293167975e-02 2.46344557142667e-04
4.08094444444444e+00 1.24681312976949e-02 2.42159218906976e-04
4.09750000000000e+00 1.22314145022264e-02 2.38043029747642e-04
4.11405555555556e+00 1.19991919518778e-02 2.33994896986938e-04
4.13061111111111e+00 1.17713783205871e-02 2.30013743859758e-04
4.14716666666667e+00 1.15478899011971e-02 2.26098509364922e-04
4.16372222222222e+00 1.13286445768427e-02 2.22248148027590e-04
4.18027777777778e+00 1.11135617886848e-02 2.18461629868799e-04
4.19683333333333e+00 1.09025625078700e-02 2.14737939698530e-04
4.21338888888889e+00 1.06955692064419e-02 2.11076077671916e-04
4.22994444444444e+00 1.04925058274115e-02 2.07475058622074e-04
4.24650000000000e+00 1.02932977587249e-02 2.03933911963849e-04
4.26305555555556e+00 1.00978718039795e-02 2.00451681547652e-04
4.27961111111111e+00 9.90615615735422e-03 1.97027425437054e-04
4.29616666666667e+00 9.71808037544301e-03 1.93660215763728e-04
4.31272222222222e+00 9.53357535311242e-03 1.90349138509543e-04
4.32927777777778e+00 9.35257329640981e-03 1.87093293460261e-04
4.34583333333333e+00 9.17500769892064e-03 1.83891793600425e-04
4.36238888888889e+00 9.00081331729038e-03 1.80743765553166e-04
4.37894444444444e+00 8.82992614607909e-03 1.77648349008774e-04
4.39550000000000e+00 8.66228339579915e-03 1.74604696625921e-04
4.41205555555556e+00 8.49782346832493e-03 1.71611973891907e-04
4.42861111111111e+00 8.33648593574341e-03 1.68669358920369e-04
4.44516666666667e+00 8.17821151670151e-03 1.65776042313265e-04
4.46172222222222e+00 8.02294205603970e-03 1.62931226963103e-04
4.47827777777778e+00 7.87062050204107e-03 1.60134127997424e-04
4.49483333333333e+00 7.72119088649921e-03 1.57383972261365e-04
4.51138888888889e+00 7.57459830412001e-03 1.54679998665145e-04
4.52794444444444e+00 7.43078889139339e-03 1.52021457695177e-04
4.54450000000000e+00 7.28970980806767e-03 1.49407611316663e-04
4.56105555555556e+00 7.15130921649787e-03 1.46837732842535e-04
4.57761111111111e+00 7.01553626380651e-03 1.44311106751082e-04
4.59416666666667e+00 6.88234106201869e-03 1.41827028557000e-04
4.61072222222222e+00 6.75167467088404e-03 1.39384804633386e-04
4.62727777777778e+00 6.62348907876849e-03 1.36983752151713e-04
4.64383333333333e+00 6.49773718585243e-03 1.34623198639781e-04
4.66038888888889e+00 6.37437278679733e-03 1.32302482255955e-04
4.67694444444444e+00 6.25335055299116e-03 1.30020951371288e-04
4.69350000000000e+00 6.13462601692402e-03 1.27777964476058e-04
4.71005555555556e+00 6.01815555484206e-03 1.25572890058659e-04
4.72661111111111e+00 5.90389637170259e-03 1.23405106442348e-04
4.74316666666667e+00 5.79180648448834e-03 1.21274001666409e-04
4.75972222222222e+00 5.68184470772073e-03 1.19178973327028e-04
4.77627777777778e+00 5.57397063740915e-03 1.17119428516068e-04
4.79283333333333e+00 5.46814463688937e-03 1.15094783443716e-04
4.80938888888889e+00 5.36432782223738e-03 1.13104463654633e-04
4.82594444444444e+00 5.26248204734850e-03 1.11147903671058e-04
4.84250000000000e+00 5.16256989076183e-03 1.09224546904890e-04
4.85905555555556e+00 5.06455464108887e-03 1.07333845547039e-04
4.87561111111111e+00 4.96840028432712e-03 1.05475260422142e-04
4.89216666666667e+00 4.87407148984304e-03 1.03648260880229e-04
4.90872222222222e+00 4.78153359815665e-03 1.01852324655275e-04
4.92527777777778e+00 4.69075260745766e-03 1.00086937805032e-04
4.94183333333333e+00 4.60169516167027e-03 9.83515943891164e-05
4.95838888888889e+00 4.51432853817894e-03 9.66457966391215e-05
4.97494444444444e+00 4.42862063528779e-03 9.49690546540137e-05
4.99150000000000e+00 4.34453996111150e-03 9.33208863186537e-05
5.00805555555556e+00 4.26205562133357e-03 9.17008172036259e-05
5.02461111111111e+00 4.18113730850991e-03 9.01083804365706e-05
5.04116666666667e+00 4.10175529029256e-03 8.85431166042866e-05
5.05772222222222e+00 4.02388039913065e-03 8.70045736275892e-05
5.07427777777778e+00 3.94748402094182e-03 8.54923067036760e-05
5.09083333333333e+00 3.87253808505432e-03 8.40058780316896e-05
5.10738888888889e+00 3.79901505387810e-03 8.25448569463354e-05
5.12394444444444e+00 3.72688791236416e-03 8.11088196580843e-05
5.14050000000000e+00 3.65613015863875e-03 7.96973491785386e-05
5.15705555555556e+00 3.58671579371792e-03 7.83100352304031e-05
5.17361111111111e+00 3.51861931248990e-03 7.69464741340225e-05
5.19016666666667e+00 3.45181569382045e-03 7.56062687195311e-05
5.20672222222222e+00 3.38628039187060e-03 7.42890282165838e-05
5.22327777777778e+00 3.32198932657784e-03 7.29943682001861e-05
