Energy (eV)          EEDF (eV^-(3/2))     First Anisotropy
2.37000000000000e-01 6.05574033499265e-02 9.84712916151901e-05
7.11000000000000e-01 5.65160380022725e-02 1.57708494018049e-04
1.18500000000000e+00 5.27443776447551e-02 1.95614322119784e-04
1.65900000000000e+00 4.92244232163030e-02 2.17654562416550e-04
2.13300000000000e+00 4.59393768431100e-02 2.31036842466478e-04
2.60700000000000e+00 4.28735616760727e-02 2.38744272903510e-04
3.08100000000000e+00 4.00123470779663e-02 2.42436497472014e-04
3.55500000000000e+00 3.73420788033371e-02 2.43174268828860e-04
4.02900000000000e+00 3.48500138379163e-02 2.41691788829791e-04
4.50300000000000e+00 3.25242595865987e-02 2.38523665172739e-04
4.97700000000000e+00 3.03537171197778e-02 2.34072744677199e-04
5.45100000000000e+00 2.83280282072010e-02 2.28649972763995e-04
5.92500000000000e+00 2.64375258865774e-02 2.22499521668802e-04
6.39900000000000e+00 2.46731883310459e-02 2.15815512190944e-04
6.87300000000000e+00 2.30265957953477e-02 2.08753627455635e-04
7.34700000000000e+00 2.14898904352443e-02 2.01439462061313e-04
7.82100000000000e+00 2.00557388084308e-02 1.93974696153990e-04
8.29500000000000e+00 1.87172968779924e-02 1.86441769027642e-04
8.76900000000000e+00 1.74681773513940e-02 1.78907486634713e-04
9.24300000000000e+00 1.63024191991382e-02 1.71425852263789e-04
9.71700000000000e+00 1.52144592076301e-02 1.64040318687373e-04
1.01910000000000e+01 1.41991054304919e-02 1.56785601232536e-04
1.06650000000000e+01 1.32515124116350e-02 1.49689152066856e-04
1.11390000000000e+01 1.23671580618466e-02 1.42772369278243e-04
1.16130000000000e+01 1.15418220785431e-02 1.36051595695096e-04
1.20870000000000e+01 1.07715658057057e-02 1.29538949136087e-04
1.25610000000000e+01 1.00527134378850e-02 1.23243016174594e-04
1.30350000000000e+01 9.38183447857734e-03 1.17169434430256e-04
1.35090000000000e+01 8.75572736926048e-03 1.11321383113674e-04
1.39830000000000e+01 8.17140421096431e-03 1.05699997544817e-04
1.44570000000000e+01 7.62607650546398e-03 1.00304720292672e-04
1.49310000000000e+01 7.11714184805045e-03 9.51335991988957e-05
1.54050000000000e+01 6.64217150837371e-03 9.01835406780167e-05
1.58790000000000e+01 6.19889884009217e-03 8.54505252057333e-05
1.63530000000000e+01 5.78520846401700e-03 8.09297907235631e-05
1.68270000000000e+01 5.39912617313114e-03 7.66159887348802e-05
1.73010000000000e+01 5.03880951130822e-03 7.25033170936090e-05
1.77750000000000e+01 4.70253898077102e-03 6.85856328543563e-05
1.82490000000000e+01 4.38870983632987e-03 6.48565480323870e-05
1.87230000000000e+01 4.09582442724177e-03 6.13095106911610e-05
1.91970000000000e+01 3.82248505014389e-03 5.79378734167229e-05
1.96710000000000e+01 3.56738727895454e-03 5.47349509384218e-05
2.01450000000000e+01 3.32931373991054e-03 5.16940684034935e-05
2.06190000000000e+01 3.10712830203439e-03 4.88086016003892e-05
2.10930000000000e+01 2.89977065530703e-03 4.60720102455407e-05
2.15670000000000e+01 2.70625125067227e-03 4.34778652950182e-05
2.20410000000000e+01 2.52564657772557e-03 4.10198711117769e-05
2.25150000000000e+01 2.35709475755153e-03 3.86918832072647e-05
2.29890000000000e+01 2.19979142967825e-03 3.64879221801037e-05
2.34630000000000e+01 2.05298591352032e-03 3.44021843918927e-05
2.39370000000000e+01 1.91597762599217e-03 3.24290498488711e-05
2.44110000000000e+01 1.78811273819598e-03 3.05630876965566e-05
2.48850000000000e+01 1.66878105522918e-03 2.87990596810878e-05
2.53590000000000e+01 1.55741310422151e-03 2.71319218847013e-05
2.58330000000000e+01 1.45347741670508e-03 2.55568250025314e-05
2.63070000000000e+01 1.35647799234851e-03 2.40691133929197e-05
2.67810000000000e+01 1.26595193195163e-03 2.26643231029188e-05
2.72550000000000e+01 1.18146722840477e-03 2.13381790440808e-05
2.77290000000000e+01 1.10262070507096e-03 2.00865914704094e-05
2.82030000000000e+01 1.02903609175239e-03 1.89056518900733e-05
2.86770000000000e+01 9.60362229059443e-04 1.77916285247590e-05
2.91510000000000e+01 8.96271392613065e-04 1.67409614150383e-05
2.96250000000000e+01 8.36457729083429e-04 1.57502572565734e-05
3.00990000000000e+01 7.80635796601245e-04 1.48162840401177e-05
3.05730000000000e+01 7.28539202576344e-04 1.39359655578958e-05
3.10470000000000e+01 6.79919332422947e-04 1.31063758298663e-05
3.15210000000000e+01 6.34544163124871e-04 1.23247334954289e-05
3.19950000000000e+01 5.92197155978755e-04 1.15883962091996e-05
3.24690000000000e+01 5.52676223231309e-04 1.08948550734077e-05
3.29430000000000e+01 5.15792763679166e-04 1.02417291341767e-05
3.34170000000000e+01 4.81370762629038e-04 9.62675996432861e-06
3.38910000000000e+01 4.49245951923038e-04 9.04780635132833e-06
3.43650000000000e+01 4.19265026020636e-04 8.50283910548233e-06
3.48390000000000e+01 3.91284910396251e-04 7.98993600046388e-06
3.53130000000000e+01 3.65172078761147e-04 7.50727685559936e-06
3.57870000000000e+01 3.40801915851276e-04 7.05313876706866e-06
3.62610000000000e+01 3.18058122740183e-04 6.62589149320332e-06
3.67350000000000e+01 2.96832161839005e-04 6.22399299737188e-06
3.72090000000000e+01 2.77022738935024e-04 5.84598515048965e-06
3.76830000000000e+01 2.58535319796933e-04 5.49048959395008e-06
3.81570000000000e+01 2.41281679040002e-04 5.15620376272099e-06
3.86310000000000e+01 2.25179479098210e-04 4.84189706745827e-06
3.91050000000000e+01 2.10151877294150e-04 4.54640723374255e-06
3.95790000000000e+01 1.96127159131557e-04 4.26863679592263e-06
4.00530000000000e+01 1.83038396060456e-04 4.00754974253686e-06
4.05270000000000e+01 1.70823126081744e-04 3.76216830986679e-06
4.10010000000000e+01 1.59423055666973e-04 3.53156991984447e-06
4.14750000000000e+01 1.48783781570843e-04 3.31488425827315e-06
4.19490000000000e+01 1.38854531208852e-04 3.11129048912307e-06
4.24230000000000e+01 1.29587920361129e-04 2.92001460052071e-06
4.28970000000000e+01 1.20939727046170e-04 2.74032687795228e-06
4.33710000000000e+01 1.12868680485356e-04 2.57153950014585e-06
4.38450000000000e+01 1.05336264151167e-04 2.41300425307466e-06
4.43190000000000e+01 9.83065319591825e-05 2.26411035753093e-06
4.47930000000000e+01 9.17459367267177e-05 2.12428240575195e-06
4.52670000000000e+01 8.56231700794594e-05 1.99297840263324e-06
4.57410000000000e+01 7.99090130421115e-05 1.86968790713425e-06
4.62150000000000e+01 7.45761966000391e-05 1.75393026956687e-06
4.66890000000000e+01 6.95992715664846e-05 1.64525296055393e-06
4.71630000000000e+01 6.49544871343404e-05 1.54322998755134e-06
4.76370000000000e+01 6.06196775329022e-05 1.44746039494063e-06
4.81110000000000e+01 5.65741562487108e-05 1.35756684381870e-06
4.85850000000000e+01 5.27986173056818e-05 1.27319426773465e-06
4.90590000000000e+01 4.92750431334160e-05 1.19400860075003e-06
4.95330000000000e+01 4.59866185840196e-05 1.11969557432690e-06
5.00070000000000e+01 4.29176506871074e-05 1.04995957967693e-06
5.04810000000000e+01 4.00534937600444e-05 9.84522592333126e-07
5.09550000000000e+01 3.73804795160385e-05 9.23123155834036e-07
5.14290000000000e+01 3.48858518365472e-05 8.65515421536143e-07
5.19030000000000e+01 3.25577058967193e-05 8.11468241695165e-07
5.23770000000000e+01 3.03849313533685e-05 7.60764313078727e-07
5.28510000000000e+01 2.83571593243597e-05 7.13199368492507e-07
5.33250000000000e+01 2.64647129063853e-05 6.68581413718495e-07
5.37990000000000e+01 2.46985609949917e-05 6.26730007477252e-07
5.42730000000000e+01 2.30502751864783e-05 5.87475582136221e-07
5.47470000000000e+01 2.15119895559954e-05 5.50658802992579e-07
5.52210000000000e+01 2.00763631198956e-05 5.16129964062224e-07
5.56950000000000e+01 1.87365448032011e-05 4.83748418405926e-07
5.61690000000000e+01 1.74861407450071e-05 4.53382041119439e-07
5.66430000000000e+01 1.63191837857937e-05 4.24906723206639e-07
5.71170000000000e+01 1.52301049910372e-05 3.98205894643283e-07
5.75910000000000e+01 1.42137070752240e-05 3.73170075024030e-07
5.80650000000000e+01 1.32651395994424e-05 3.49696450266932e-07
5.85390000000000e+01 1.23798758241907e-05 3.27688473927584e-07
5.90130000000000e+01 1.15536911069390e-05 3.07055491749882e-07
5.94870000000000e+01 1.07826427413530e-05 2.87712388151672e-07
5.99610000000000e+01 1.00630511419701e-05 2.69579253411788e-07
6.04350000000000e+01 9.39148228453683e-06 2.52581070390005e-07
6.09090000000000e+01 8.76473131820945e-06 2.36647419673470e-07
6.13830000000000e+01 8.17980727141310e-06 2.21712202102327e-07
6.18570000000000e+01 7.63391877837181e-06 2.07713377683475e-07
6.23310000000000e+01 7.12446075819463e-06 1.94592719954992e-07
6.28050000000000e+01 6.64900198294762e-06 1.82295584914728e-07
6.32790000000000e+01 6.20527347538429e-06 1.70770693674921e-07
6.37530000000000e+01 5.79115768096638e-06 1.59969928050777e-07
6.42270000000000e+01 5.40467836250181e-06 1.49848138334555e-07
6.47010000000000e+01 5.04399116917515e-06 1.40362962548226e-07
6.51750000000000e+01 4.70737483496427e-06 1.31474656507045e-07
6.56490000000000e+01 4.39322296444040e-06 1.23145934063707e-07
6.61230000000000e+01 4.10003636675196e-06 1.15341816938090e-07
6.65970000000000e+01 3.82641590120839e-06 1.08029493571078e-07
6.70710000000000e+01 3.57105580032193e-06 1.01178186472693e-07
6.75450000000000e+01 3.33273743844354e-06 9.47590275647848e-08
6.80190000000000e+01 3.11032351625586e-06 8.87449410469439e-08
6.84930000000000e+01 2.90275263337044e-06 8.31105333412351e-08
6.89670000000000e+01 2.70903422312867e-06 7.78319896967434e-08
6.94410000000000e+01 2.52824382543443e-06 7.28869770590050e-08
6.99150000000000e+01 2.35951867505947e-06 6.82545528321317e-08
7.03890000000000e+01 2.20205358436810e-06 6.39150791829161e-08
7.08630000000000e+01 2.05509710081281e-06 5.98501425565151e-08
7.13370000000000e+01 1.91794792086368e-06 5.60424780924852e-08
7.18110000000000e+01 1.78995154325818e-06 5.24758986480469e-08
7.22850000000000e+01 1.67049714560006e-06 4.91352281525559e-08
7.27590000000000e+01 1.55901466940184e-06 4.60062390332949e-08
7.32330000000000e+01 1.45497209966021e-06 4.30755934679236e-08
7.37070000000000e+01 1.35787292598208e-06 4.03307882332934e-08
7.41810000000000e+01 1.26725377314501e-06 3.77601029338887e-08
7.46550000000000e+01 1.18268218978502e-06 3.53525514059286e-08
7.51290000000000e+01 1.10375458465857e-06 3.30978361052199e-08
7.56030000000000e+01 1.03009430063056e-06 3.09863052982115e-08
7.60770000000000e+01 9.61349817196723e-07 2.90089128864056e-08
7.65510000000000e+01 8.97193072962775e-07 2.71571807043755e-08
7.70250000000000e+01 8.37317900074731e-07 2.54231631411467e-08
7.74990000000000e+01 7.81438563129262e-07 2.37994139436558e-08
7.79730000000000e+01 7.29288395591477e-07 2.22789550694387e-08
7.84470000000000e+01 6.80618527212884e-07 2.08552474636485e-08
7.89210000000000e+01 6.35196696376515e-07 1.95221636429839e-08
7.93950000000000e+01 5.92806141701517e-07 1.82739619761556e-08
7.98690000000000e+01 5.53244567617736e-07 1.71052625571510e-08
8.03430000000000e+01 5.16323178973825e-07 1.60110245737999e-08
8.08170000000000e+01 4.81865780071855e-07 1.49865250800208e-08
8.12910000000000e+01 4.49707933828841e-07 1.40273390856539e-08
8.17650000000000e+01 4.19696177052555e-07 1.31293208829927e-08
8.22390000000000e+01 3.91687288086785e-07 1.22885865340184e-08
8.27130000000000e+01 3.65547603331084e-07 1.15014974469451e-08
8.31870000000000e+01 3.41152379373345e-07 1.07646449750167e-08
8.36610000000000e+01 3.18385197691155e-07 1.00748359745668e-08
8.41350000000000e+01 2.97137409081063e-07 9.42907926318404e-09
8.46090000000000e+01 2.77307615164484e-07 8.82457292242672e-09
8.50830000000000e+01 2.58801184495872e-07 8.25869239291531e-09
8.55570000000000e+01 2.41529800963953e-07 7.72897931281651e-09
8.60310000000000e+01 2.25411042330903e-07 7.23313105372195e-09
8.65050000000000e+01 2.10367986898177e-07 6.76899091073883e-09
8.69790000000000e+01 1.96328846421932e-07 6.33453890625207e-09
8.74530000000000e+01 1.83226623526247e-07 5.92788316930105e-09
8.79270000000000e+01 1.70998791979244e-07 5.54725185484837e-09
8.84010000000000e+01 1.59586998306347e-07 5.19098556941060e-09
8.88750000000000e+01 1.48936783316699e-07 4.85753027158108e-09
8.93490000000000e+01 1.38997322213830e-07 4.54543061791032e-09
8.98230000000000e+01 1.29721182050326e-07 4.25332372642758e-09
9.02970000000000e+01 1.21064095369021e-07 3.97993333179461e-09
9.07710000000000e+01 1.12984748950510e-07 3.72406430768636e-09
9.12450000000000e+01 1.05444586658815e-07 3.48459753349959e-09
9.17190000000000e+01 9.84076254443732e-08 3.26048508390467e-09
9.21930000000000e+01 9.18402836262669e-08 3.05074572108385e-09
9.26670000000000e+01 8.57112206342281e-08 2.85446067074651e-09
9.31410000000000e+01 7.99911874456386e-08 2.67076966418224e-09
9.36150000000000e+01 7.46528870037823e-08 2.49886722971186e-09
9.40890000000000e+01 6.96708439512402e-08 2.33799921792856e-09
9.45630000000000e+01 6.50212830567709e-08 2.18745954608926e-09
9.50370000000000e+01 6.06820157555084e-08 2.04658714792572e-09
9.55110000000000e+01 5.66323342610249e-08 1.91476311599819e-09
9.59850000000000e+01 5.28529127439430e-08 1.79140802451493e-09
9.64590000000000e+01 4.93257151055016e-08 1.67597942129234e-09
9.69330000000000e+01 4.60339089059559e-08 1.56796947823599e-09
9.74070000000000e+01 4.29617850370604e-08 1.46690279038406e-09
9.78810000000000e+01 4.00946827552980e-08 1.37233431417603e-09
9.83550000000000e+01 3.74189197180991e-08 1.28384743619148e-09
9.88290000000000e+01 3.49217266891712e-08 1.20105216415099e-09
9.93030000000000e+01 3.25911866013412e-08 1.12358343248319e-09
9.97770000000000e+01 3.04161776861054e-08 1.05109951524361e-09
1.00251000000000e+02 2.83863203984928e-08 9.83280539621646e-10
1.00725000000000e+02 2.64919278839558e-08 9.19827093695600e-10
1.01199000000000e+02 2.47239597509079e-08 8.60458922492324e-10
1.01673000000000e+02 2.30739789283029e-08 8.04913706780646e-10
1.02147000000000e+02 2.15341114023701e-08 7.52945919376671e-10
1.02621000000000e+02 2.00970086403643e-08 7.04325754066705e-10
1.03095000000000e+02 1.87558125220074e-08 6.58838122560550e-10
1.03569000000000e+02 1.75041226112701e-08 6.16281715175894e-10
1.04043000000000e+02 1.63359656123062e-08 5.76468121224615e-10
1.04517000000000e+02 1.52457668637805e-08 5.39221005324979e-10
1.04991000000000e+02 1.42283237355526e-08 5.04375336101120e-10
1.05465000000000e+02 1.32787808007638e-08 4.71776663953815e-10
1.05939000000000e+02 1.23926066648416e-08 4.41280444795208e-10
1.06413000000000e+02 1.15655723408464e-08 4.12751406835844e-10
1.06887000000000e+02 1.07937310679634e-08 3.86062957695749e-10
1.07361000000000e+02 1.00733994768298e-08 3.61096629283236e-10
1.07835000000000e+02 9.40114001181434e-09 3.37741558046315e-10
1.08309000000000e+02 8.77374452636631e-09 3.15893998352648e-10
1.08783000000000e+02 8.18821897314627e-09 2.95456866895609e-10
1.09257000000000e+02 7.64176911587832e-09 2.76339316156756e-10
1.09731000000000e+02 7.13178719473756e-09 2.58456335079411e-10
1.10205000000000e+02 6.65583948163772e-09 2.41728375224648e-10
1.10679000000000e+02 6.21165466603040e-09 2.26081000790270e-10
1.11153000000000e+02 5.79711301579093e-09 2.11444560975772e-10
1.11627000000000e+02 5.41023626146447e-09 1.97753883272238e-10
1.12101000000000e+02 5.04917815559811e-09 1.84947986346079e-10
1.12575000000000e+02 4.71221566210645e-09 1.72969811269776e-10
1.13049000000000e+02 4.39774073362460e-09 1.61765969931783e-10
1.13523000000000e+02 4.10425263760861e-09 1.51286509531730e-10
1.13997000000000e+02 3.83035079456214e-09 1.41484692136394e-10
1.14471000000000e+02 3.57472809421190e-09 1.32316788336896e-10
1.14945000000000e+02 3.33616465773565e-09 1.23741884108410e-10
1.15419000000000e+02 3.11352201627468e-09 1.15721700030742e-10
1.15893000000000e+02 2.90573767794986e-09 1.08220422081515e-10
1.16367000000000e+02 2.71182005745373e-09 1.01204543263784e-10
1.16841000000000e+02 2.53084374402197e-09 9.46427153767857e-11
1.17315000000000e+02 2.36194508520204e-09 8.85056102824389e-11
1.17789000000000e+02 2.20431806534384e-09 8.27657900613888e-11
1.18263000000000e+02 2.05721045914392e-09 7.73975854909038e-11
1.18737000000000e+02 1.91992024188714e-09 7.23769823130658e-11
1.19211000000000e+02 1.79179223925484e-09 6.76815147955025e-11
1.19685000000000e+02 1.67221500071179e-09 6.32901661185917e-11
1.20159000000000e+02 1.56061788155107e-09 5.91832751527433e-11
1.20633000000000e+02 1.45646831967196e-09 5.53424492171531e-11
1.21107000000000e+02 1.35926929409506e-09 5.17504824374544e-11
1.21581000000000e+02 1.26855695308624e-09 4.83912793440734e-11
1.22055000000000e+02 1.18389840057028e-09 4.52497833759216e-11
1.22529000000000e+02 1.10488963027077e-09 4.23119099754479e-11
1.23003000000000e+02 1.03115359771737e-09 3.95644839810948e-11
1.23477000000000e+02 9.62338420919831e-10 3.69951810419572e-11
1.23951000000000e+02 8.98115701122065e-10 3.45924727970065e-11
1.24425000000000e+02 8.38178955622489e-10 3.23455755776847e-11
1.24899000000000e+02 7.82242155181877e-10 3.02444024080788e-11
1.25373000000000e+02 7.30038359038908e-10 2.82795180913026e-11
1.25847000000000e+02 6.81318441019463e-10 2.64420971842180e-11
1.26321000000000e+02 6.35849900660429e-10 2.47238846752731e-11
1.26795000000000e+02 5.93415753674466e-10 2.31171591920731e-11
1.27269000000000e+02 5.53813496460848e-10 2.16146985763852e-11
1.27743000000000e+02 5.16854139720805e-10 2.02097476746579e-11
1.28217000000000e+02 4.82361306565629e-10 1.88959882018542e-11
1.28691000000000e+02 4.50170390813520e-10 1.76675105454962e-11
1.29165000000000e+02 4.20127771458437e-10 1.65187873853373e-11
1.29639000000000e+02 3.92090079562228e-10 1.54446490120528e-11
1.30113000000000e+02 3.65923514071536e-10 1.44402602358090e-11
1.30587000000000e+02 3.41503203294411e-10 1.35010987825569e-11
1.31061000000000e+02 3.18712608989497e-10 1.26229350824451e-11
1.31535000000000e+02 2.97442970223976e-10 1.18018133608692e-11
1.32009000000000e+02 2.77592784346278e-10 1.10340339484114e-11
1.32483000000000e+02 2.59067322596646e-10 1.03161367312936e-11
1.32957000000000e+02 2.41778178043965e-10 9.64488566899248e-12
1.33431000000000e+02 2.25642843691535e-10 9.01725431036668e-12
1.33905000000000e+02 2.10584318738410e-10 8.43041224405487e-12
1.34379000000000e+02 1.96530741117335e-10 7.88171242302199e-12
1.34853000000000e+02 1.83415044555661e-10 7.36867930699022e-12
1.35327000000000e+02 1.71174638522684e-10 6.88899777010356e-12
1.35801000000000e+02 1.59751109536054e-10 6.44050272455453e-12
1.36275000000000e+02 1.49089942401826e-10 6.02116941406609e-12
1.36749000000000e+02 1.39140260057869e-10 5.62910433408346e-12
1.37223000000000e+02 1.29854580779115e-10 5.26253673830188e-12
1.37697000000000e+02 1.21188591585977e-10 4.91981069375100e-12
1.38171000000000e+02 1.13100936774614e-10 4.59937764908509e-12
1.38645000000000e+02 1.05553020559861e-10 4.29978948299981e-12
1.39119000000000e+02 9.85088228890000e-11 4.01969200182392e-12
1.39593000000000e+02 9.19347275474042e-11 3.75781885732441e-12
1.40067000000000e+02 8.57993617357419e-11 3.51298585762648e-12
1.40541000000000e+02 8.00734463531735e-11 3.28408564589315e-12
1.41015000000000e+02 7.47296562720650e-11 3.07008272304052e-12
1.41489000000000e+02 6.97424899374230e-11 2.87000879229186e-12
1.41963000000000e+02 6.50881476687560e-11 2.68295840480230e-12
1.42437000000000e+02 6.07444180835958e-11 2.50808488692305e-12
1.42911000000000e+02 5.66905721006701e-11 2.34459653092512e-12
1.43385000000000e+02 5.29072640168921e-11 2.19175303217365e-12
1.43859000000000e+02 4.93764391860853e-11 2.04886215683945e-12
1.44333000000000e+02 4.60812478588720e-11 1.91527662525951e-12
1.44807000000000e+02 4.30059647725510e-11 1.79039119701780e-12
1.45281000000000e+02 4.01359141072352e-11 1.67363994471521e-12
1.45755000000000e+02 3.74573994501230e-11 1.56449370423766e-12
1.46229000000000e+02 3.49576384336827e-11 1.46245769011715e-12
1.46703000000000e+02 3.26247017358296e-11 1.36706926531608e-12
1.47177000000000e+02 3.04474561509936e-11 1.27789585545328e-12
1.47651000000000e+02 2.84155114604024e-11 1.19453299813407e-12
1.48125000000000e+02 2.65191708480353e-11 1.11660251864889e-12
1.48599000000000e+02 2.47493846256225e-11 1.04375082386897e-12
1.49073000000000e+02 2.30977070458589e-11 9.75647306694561e-13
1.49547000000000e+02 2.15562559977347e-11 9.11982853904993e-13
