Energy (eV)          EEDF (eV^-(3/2))     First Anisotropy
5.45000000000000e-02 7.62298403386437e-01 1.36368480174606e-03
1.63500000000000e-01 6.99149236224048e-01 2.16584094959100e-03
2.72500000000000e-01 6.41231376507133e-01 2.64005235000381e-03
3.81500000000000e-01 5.88111460205426e-01 2.88682247947288e-03
4.90500000000000e-01 5.39392023373814e-01 3.01143821618063e-03
5.99500000000000e-01 4.94708528171975e-01 3.05820147122674e-03
7.08500000000000e-01 4.53726635249986e-01 3.05190875604503e-03
8.17500000000000e-01 4.16139702090820e-01 3.00837226766131e-03
9.26500000000000e-01 3.81666488591363e-01 2.93843621244384e-03
1.03550000000000e+00 3.50049052714200e-01 2.84987793718123e-03
1.14450000000000e+00 3.21050820464623e-01 2.74843864420773e-03
1.25350000000000e+00 2.94454815751674e-01 2.63843722869488e-03
1.36250000000000e+00 2.70062036888351e-01 2.52316183877073e-03
1.47150000000000e+00 2.47689967583321e-01 2.40513299829316e-03
1.58050000000000e+00 2.27171211282799e-01 2.28628772177342e-03
1.68950000000000e+00 2.08352238644200e-01 2.16811253239061e-03
1.79850000000000e+00 1.91092238769677e-01 2.05174205651412e-03
1.90750000000000e+00 1.75262065604036e-01 1.93803363068789e-03
2.01650000000000e+00 1.60743271613538e-01 1.82762471460172e-03
2.12550000000000e+00 1.47427221515234e-01 1.72097768304465e-03
2.23450000000000e+00 1.35214279425375e-01 1.61841516513933e-03
2.34350000000000e+00 1.24013063344846e-01 1.52014818151700e-03
2.45250000000000e+00 1.13739761403386e-01 1.42629871347216e-03
2.56150000000000e+00 1.04317504746460e-01 1.33691791332223e-03
2.67050000000000e+00 9.56757923724978e-02 1.25200086595885e-03
2.77950000000000e+00 8.77499636168772e-02 1.17149859657380e-03
2.88850000000000e+00 8.04807143356011e-02 1.09532786228952e-03
2.99750000000000e+00 7.38136531685451e-02 1.02337914855769e-03
3.10650000000000e+00 6.76988945620741e-02 9.55523203076552e-04
3.21550000000000e+00 6.20906855058610e-02 8.91616372675719e-04
3.32450000000000e+00 5.69470631910067e-02 8.31504956604188e-04
3.43350000000000e+00 5.22295410279275e-02 7.75028749032586e-04
3.54250000000000e+00 4.79028206746712e-02 7.22023911545017e-04
3.65150000000000e+00 4.39345279209466e-02 6.72325290914653e-04
3.76050000000000e+00 4.02949704516473e-02 6.25768277030475e-04
3.86950000000000e+00 3.69569156773620e-02 5.82190279352173e-04
3.97850000000000e+00 3.38953869695122e-02 5.41431886873072e-04
4.08750000000000e+00 3.10874767754695e-02 5.03337765624441e-04
4.19650000000000e+00 2.85121752153068e-02 4.67757338764746e-04
4.30550000000000e+00 2.61502128776765e-02 4.34545286880352e-04
4.41450000000000e+00 2.39839166385553e-02 4.03561899979892e-04
4.52350000000000e+00 2.19970774240320e-02 3.74673307555780e-04
4.63250000000000e+00 2.01748289276911e-02 3.47751608825060e-04
4.74150000000000e+00 1.85035363751062e-02 3.22674921697208e-04
4.85050000000000e+00 1.69706945031360e-02 2.99327366027330e-04
4.95950000000000e+00 1.55648339906657e-02 2.77598994201248e-04
5.06850000000000e+00 1.42754356406694e-02 2.57385679984098e-04
5.17750000000000e+00 1.30928516714736e-02 2.38588974781008e-04
5.28650000000000e+00 1.20082335282883e-02 2.21115938953088e-04
5.39550000000000e+00 1.10134656748676e-02 2.04878954560061e-04
5.50450000000000e+00 1.01011048698998e-02 1.89795524825454e-04
5.61350000000000e+00 9.26432447377103e-03 1.75788064710627e-04
5.72250000000000e+00 8.49686336898356e-03 1.62783686214508e-04
5.83150000000000e+00 7.79297911203094e-03 1.50713981365135e-04
5.94050000000000e+00 7.14740496619466e-03 1.39514805319072e-04
6.04950000000000e+00 6.55531049376451e-03 1.29126061520155e-04
6.15850000000000e+00 6.01226541281847e-03 1.19491490477093e-04
6.26750000000000e+00 5.51420644812432e-03 1.10558463389311e-04
6.37650000000000e+00 5.05740692812855e-03 1.02277781572842e-04
6.48550000000000e+00 4.63844890054541e-03 9.46034824053136e-05
6.59450000000000e+00 4.25419755790393e-03 8.74926523143985e-05
6.70350000000000e+00 3.90177778169503e-03 8.09052471719022e-05
6.81250000000000e+00 3.57855262961268e-03 7.48039203210924e-05
6.92150000000000e+00 3.28210360492252e-03 6.91538583538017e-05
7.03050000000000e+00 3.01021256032535e-03 6.39226246627501e-05
7.13950000000000e+00 2.76084510091338e-03 5.90800107204184e-05
7.24850000000000e+00 2.53213536203357e-03 5.45978949760720e-05
7.35750000000000e+00 2.32237204816006e-03 5.04501092149899e-05
7.46650000000000e+00 2.12998562831320e-03 4.66123121867028e-05
7.57550000000000e+00 1.95353659221621e-03 4.30618702804723e-05
7.68450000000000e+00 1.79170467931747e-03 3.97777450049676e-05
7.79350000000000e+00 1.64327900008582e-03 3.67403870139221e-05
7.90250000000000e+00 1.50714897566251e-03 3.39316364094879e-05
8.01150000000000e+00 1.38229602807675e-03 3.13346290491657e-05
8.12050000000000e+00 1.26778595884778e-03 2.89337085798402e-05
8.22950000000000e+00 1.16276195894730e-03 2.67143439229674e-05
8.33850000000000e+00 1.06643819781987e-03 2.46630519378069e-05
8.44750000000000e+00 9.78093943492036e-04 2.27673249942957e-05
8.55650000000000e+00 8.97068169774421e-04 2.10155631933584e-05
8.66550000000000e+00 8.22754610205785e-04 1.93970109797917e-05
8.77450000000000e+00 7.54597221730758e-04 1.79016979010824e-05
8.88350000000000e+00 6.92086024168685e-04 1.65203832743843e-05
8.99250000000000e+00 6.34753284342889e-04 1.52445045331916e-05
9.10150000000000e+00 5.82170016318493e-04 1.40661290348423e-05
9.21050000000000e+00 5.33942771562236e-04 1.29779091197331e-05
9.31950000000000e+00 4.89710695006994e-04 1.19730402229083e-05
9.42850000000000e+00 4.49142824993334e-04 1.10452218484140e-05
9.53750000000000e+00 4.11935616885214e-04 1.01886212264112e-05
9.64650000000000e+00 3.77810671830547e-04 9.39783948244806e-06
9.75550000000000e+00 3.46512653672344e-04 8.66788015747473e-06
9.86450000000000e+00 3.17807378423930e-04 7.99411992608368e-06
9.97350000000000e+00 2.91480062012963e-04 7.37228136906743e-06
1.00825000000000e+01 2.67333713183178e-04 6.79840766467323e-06
1.01915000000000e+01 2.45187659528930e-04 6.26883907088891e-06
1.03005000000000e+01 2.24876195633740e-04 5.78019107871024e-06
1.04095000000000e+01 2.06247343197700e-04 5.32933412361082e-06
1.05185000000000e+01 1.89161713876520e-04 4.91337474936345e-06
1.06275000000000e+01 1.73491466323535e-04 4.52963812494740e-06
1.07365000000000e+01 1.59119349630859e-04 4.17565182152621e-06
1.08455000000000e+01 1.45937826012326e-04 3.84913076240175e-06
1.09545000000000e+01 1.33848266163813e-04 3.54796326445126e-06
1.10635000000000e+01 1.22760211280287e-04 3.27019809484445e-06
1.11725000000000e+01 1.12590696207725e-04 3.01403247182937e-06
1.12815000000000e+01 1.03263628665455e-04 2.77780094307803e-06
1.13905000000000e+01 9.47092198940085e-05 2.55996507950923e-06
1.14995000000000e+01 8.68634624683914e-05 2.35910392666763e-06
1.16085000000000e+01 7.96676513695471e-05 2.17390515964765e-06
1.17175000000000e+01 7.30679447304933e-05 2.00315689121922e-06
1.18265000000000e+01 6.70149609704601e-05 1.84574008625286e-06
1.19355000000000e+01 6.14634093026305e-05 1.70062153876544e-06
1.20445000000000e+01 5.63717508507973e-05 1.56684737092557e-06
1.21535000000000e+01 5.17018878392801e-05 1.44353701618216e-06
1.22625000000000e+01 4.74188785304988e-05 1.32987765132029e-06
1.23715000000000e+01 4.34906757772563e-05 1.22511904471582e-06
1.24805000000000e+01 3.98878872334759e-05 1.12856879036541e-06
1.25895000000000e+01 3.65835554291969e-05 1.03958789941969e-06
1.26985000000000e+01 3.35529560642638e-05 9.57586722954466e-07
1.28075000000000e+01 3.07734130114627e-05 8.82021181586739e-07
1.29165000000000e+01 2.82241286448882e-05 8.12389279286752e-07
1.30255000000000e+01 2.58860282239892e-05 7.48227880362846e-07
1.31345000000000e+01 2.37416171689157e-05 6.89109730109623e-07
1.32435000000000e+01 2.17748501592451e-05 6.34640701019092e-07
1.33525000000000e+01 1.99710110766321e-05 5.84457247765932e-07
1.34615000000000e+01 1.83166028930686e-05 5.38224055397807e-07
1.35705000000000e+01 1.67992466808519e-05 4.95631866296163e-07
1.36795000000000e+01 1.54075889886169e-05 4.56395472527475e-07
1.37885000000000e+01 1.41312168903821e-05 4.20251861184925e-07
1.38975000000000e+01 1.29605800719731e-05 3.86958501231039e-07
1.40065000000000e+01 1.18869193718450e-05 3.56291761197434e-07
1.41155000000000e+01 1.09022012416172e-05 3.28045447883027e-07
1.42245000000000e+01 9.99905763592903e-06 3.02029456920973e-07
1.43335000000000e+01 9.17073088184892e-06 2.78068526761003e-07
1.44425000000000e+01 8.41102311532814e-06 2.56001088241459e-07
1.45515000000000e+01 7.71424990636311e-06 2.35678202507477e-07
1.46605000000000e+01 7.07519772587162e-06 2.16962580571639e-07
1.47695000000000e+01 6.48908493603353e-06 1.99727678314017e-07
1.48785000000000e+01 5.95152601221047e-06 1.83856861182541e-07
1.49875000000000e+01 5.45849872873892e-06 1.69242633284660e-07
1.50965000000000e+01 5.00631406306801e-06 1.55785925959784e-07
1.52055000000000e+01 4.59158859305311e-06 1.43395441291176e-07
1.53145000000000e+01 4.21121918087085e-06 1.31987046357920e-07
1.54235000000000e+01 3.86235975413083e-06 1.21483214344281e-07
1.55325000000000e+01 3.54240001045129e-06 1.11812508917041e-07
1.56415000000000e+01 3.24894588615792e-06 1.02909108552855e-07
1.57505000000000e+01 2.97980164296515e-06 9.47123677489918e-08
1.58595000000000e+01 2.73295343860528e-06 8.71664122834059e-08
1.59685000000000e+01 2.50655425847478e-06 8.02197659052959e-08
1.60775000000000e+01 2.29891009555010e-06 7.38250060364562e-08
1.61865000000000e+01 2.10846727516605e-06 6.79384462479380e-08
1.62955000000000e+01 1.93380082981556e-06 6.25198434469455e-08
1.64045000000000e+01 1.77360383698667e-06 5.75321278664780e-08
1.65135000000000e+01 1.62667764025827e-06 5.29411540959692e-08
1.66225000000000e+01 1.49192288048489e-06 4.87154715259285e-08
1.67315000000000e+01 1.36833126996258e-06 4.48261127041620e-08
1.68405000000000e+01 1.25497804802677e-06 4.12463982163134e-08
1.69495000000000e+01 1.15101506163208e-06 3.79517568099100e-08
1.70585000000000e+01 1.05566441914022e-06 3.49195595794710e-08
1.71675000000000e+01 9.68212669831140e-07 3.21289671211409e-08
1.72765000000000e+01 8.88005465586343e-07 2.95607886493115e-08
1.73855000000000e+01 8.14442664800849e-07 2.71973521453023e-08
1.74945000000000e+01 7.46973841889503e-07 2.50223846798580e-08
1.76035000000000e+01 6.85094168787931e-07 2.30209021174510e-08
1.77125000000000e+01 6.28340637631933e-07 2.11791074715419e-08
1.78215000000000e+01 5.76288596351953e-07 1.94842972364408e-08
1.79305000000000e+01 5.28548571260555e-07 1.79247750735837e-08
1.80395000000000e+01 4.84763352858296e-07 1.64897722782017e-08
1.81485000000000e+01 4.44605323052842e-07 1.51693744968457e-08
1.82575000000000e+01 4.07774003792537e-07 1.39544542072827e-08
1.83665000000000e+01 3.73993808772355e-07 1.28366085101913e-08
1.84755000000000e+01 3.43011981389612e-07 1.18081018170718e-08
1.85845000000000e+01 3.14596703520414e-07 1.08618130510822e-08
1.86935000000000e+01 2.88535360965992e-07 9.99118700732148e-09
1.88025000000000e+01 2.64632952590276e-07 9.19018954658633e-09
1.89115000000000e+01 2.42710631245304e-07 8.45326632201519e-09
1.90205000000000e+01 2.22604365567051e-07 7.77530476145500e-09
1.91295000000000e+01 2.04163712628752e-07 7.15159904999857e-09
1.92385000000000e+01 1.87250692268208e-07 6.57781787708059e-09
1.93475000000000e+01 1.71738754666364e-07 6.04997473091450e-09
1.94565000000000e+01 1.57511833452170e-07 5.56440054002214e-09
1.95655000000000e+01 1.44463477248699e-07 5.11771847726134e-09
1.96745000000000e+01 1.32496053162397e-07 4.70682075619391e-09
1.97835000000000e+01 1.21520016255671e-07 4.32884726295274e-09
1.98925000000000e+01 1.11453239536720e-07 3.98116587904830e-09
2.00015000000000e+01 1.02220399453327e-07 3.66135436187985e-09
2.01105000000000e+01 9.37524122926471e-08 3.36718366016094e-09
2.02195000000000e+01 8.59859172699056e-08 3.09660255109913e-09
2.03285000000000e+01 7.88628024382784e-08 2.84772349504953e-09
2.04375000000000e+01 7.23297698726260e-08 2.61880961154896e-09
2.05465000000000e+01 6.63379368736169e-08 2.40826268818547e-09
2.06555000000000e+01 6.08424702082936e-08 2.21461214071683e-09
2.07645000000000e+01 5.58022506503263e-08 2.03650484926633e-09
2.08735000000000e+01 5.11795653099137e-08 1.87269580133759e-09
2.09825000000000e+01 4.69398254512232e-08 1.72203947784066e-09
2.10915000000000e+01 4.30513076859702e-08 1.58348192334594e-09
2.12005000000000e+01 3.94849166066462e-08 1.45605344641273e-09
2.13095000000000e+01 3.62139670833246e-08 1.33886190010697e-09
2.14185000000000e+01 3.32139845951041e-08 1.23108649675589e-09
2.15275000000000e+01 3.04625221021916e-08 1.13197211461163e-09
2.16365000000000e+01 2.79389920883897e-08 1.04082405743596e-09
2.17455000000000e+01 2.56245125172660e-08 9.57003231096137e-10
2.18545000000000e+01 2.35017655493874e-08 8.79921704097587e-10
2.19635000000000e+01 2.15548679634863e-08 8.09038621592472e-10
2.20725000000000e+01 1.97692523120008e-08 7.43856444810393e-10
2.21815000000000e+01 1.81315579217465e-08 6.83917490075815e-10
2.22905000000000e+01 1.66295309241453e-08 6.28800743620207e-10
2.23995000000000e+01 1.52519325669985e-08 5.78118930279503e-10
2.25085000000000e+01 1.39884551217566e-08 5.31515815901703e-10
2.26175000000000e+01 1.28296447570713e-08 4.88663724887054e-10
2.27265000000000e+01 1.17668308015401e-08 4.49261255754787e-10
2.28355000000000e+01 1.07920608663587e-08 4.13031178985876e-10
2.29445000000000e+01 9.89804134244430e-09 3.79718502639833e-10
2.30535000000000e+01 9.07808282680605e-09 3.49088692393475e-10
2.31625000000000e+01 8.32605006982114e-09 3.20926033708701e-10
2.32715000000000e+01 7.63631606890269e-09 2.95032124811753e-10
2.33805000000000e+01 7.00371996507032e-09 2.71224490064756e-10
2.34895000000000e+01 6.42352842738910e-09 2.49335304137600e-10
2.35985000000000e+01 5.89140023634021e-09 2.29210218150072e-10
2.37075000000000e+01 5.40335380112221e-09 2.10707279655701e-10
2.38165000000000e+01 4.95573736783478e-09 1.93695938984758e-10
2.39255000000000e+01 4.54520169563083e-09 1.78056135058745e-10
2.40345000000000e+01 4.16867499638939e-09 1.63677454336372e-10
2.41435000000000e+01 3.82333995039799e-09 1.50458357055405e-10
2.42525000000000e+01 3.50661262606712e-09 1.38305465399026e-10
2.43615000000000e+01 3.21612314594556e-09 1.27132908642921e-10
2.44705000000000e+01 2.94969795437244e-09 1.16861720732860e-10
2.45795000000000e+01 2.70534355408549e-09 1.07419286104924e-10
2.46885000000000e+01 2.48123159009650e-09 9.87388298941064e-11
2.47975000000000e+01 2.27568516922574e-09 9.07589489841436e-11
2.49065000000000e+01 2.08716631293275e-09 8.34231806341115e-11
2.50155000000000e+01 1.91426444956067e-09 7.66796056776013e-11
2.51245000000000e+01 1.75568585988858e-09 7.04804835298270e-11
2.52335000000000e+01 1.61024399701940e-09 6.47819164585453e-11
2.53425000000000e+01 1.47685060817289e-09 5.95435407776392e-11
2.54515000000000e+01 1.35450759195370e-09 5.47282428090507e-11
2.55605000000000e+01 1.24229953016712e-09 5.03018976307087e-11
2.56695000000000e+01 1.13938683830294e-09 4.62331287863758e-11
2.57785000000000e+01 1.04499948343644e-09 4.24930872790070e-11
2.58875000000000e+01 9.58431222541531e-10 3.90552483032886e-11
2.59965000000000e+01 8.79034318104838e-10 3.58952242964131e-11
2.61055000000000e+01 8.06214691500781e-10 3.29905929997049e-11
2.62145000000000e+01 7.39427477863474e-10 3.03207393282187e-11
2.63235000000000e+01 6.78172949195145e-10 2.78667099416059e-11
2.64325000000000e+01 6.21992775206224e-10 2.56110794980504e-11
2.65415000000000e+01 5.70466593909242e-10 2.35378276545179e-11
2.66505000000000e+01 5.23208866306388e-10 2.16322259515121e-11
2.67595000000000e+01 4.79865991636255e-10 1.98807337894926e-11
2.68685000000000e+01 4.40113661594949e-10 1.82709027675724e-11
2.69775000000000e+01 4.03654433734785e-10 1.67912887135032e-11
2.70865000000000e+01 3.70215505883809e-10 1.54313707876853e-11
2.71955000000000e+01 3.39546674933485e-10 1.41814770933784e-11
2.73045000000000e+01 3.11418464721382e-10 1.30327162707718e-11
2.74135000000000e+01 2.85620409000974e-10 1.19769145944279e-11
2.75225000000000e+01 2.61959476651040e-10 1.10065581321151e-11
2.76315000000000e+01 2.40258627341482e-10 1.01147395584751e-11
2.77405000000000e+01 2.20355486848481e-10 9.29510924956087e-12
2.78495000000000e+01 2.02101132107182e-10 8.54183031426945e-12
2.79585000000000e+01 1.85358976911203e-10 7.84953724627971e-12
2.80675000000000e+01 1.70003749921335e-10 7.21329790548414e-12
2.81765000000000e+01 1.55920557336487e-10 6.62857856125167e-12
2.82855000000000e+01 1.43004023213429e-10 6.09121175133702e-12
2.83945000000000e+01 1.31157501002862e-10 5.59736673001009e-12
2.85035000000000e+01 1.20292350402211e-10 5.14352229715513e-12
2.86125000000000e+01 1.10327274114292e-10 4.72644181680897e-12
2.87215000000000e+01 1.01187709549205e-10 4.34315024898773e-12
2.88305000000000e+01 9.28052709179367e-11 3.99091303279912e-12
2.89395000000000e+01 8.51172375431960e-11 3.66721667185054e-12
2.90485000000000e+01 7.80660845588307e-11 3.36975088493358e-12
2.91575000000000e+01 7.15990524863277e-11 3.09639219597562e-12
2.92665000000000e+01 6.56677524678034e-11 2.84518884737654e-12
2.93755000000000e+01 6.02278042016849e-11 2.61434693016324e-12
2.94845000000000e+01 5.52385038719725e-11 2.40221763296206e-12
2.95935000000000e+01 5.06625195864032e-11 2.20728551966929e-12
2.97025000000000e+01 4.64656120446631e-11 2.02815775294748e-12
2.98115000000000e+01 4.26163783465792e-11 1.86355418734039e-12
2.99205000000000e+01 3.90860170233652e-11 1.71229826193059e-12
3.00295000000000e+01 3.58481125337912e-11 1.57330862810157e-12
3.01385000000000e+01 3.28784376127950e-11 1.44559145315136e-12
3.02475000000000e+01 3.01547719936297e-11 1.32823334527374e-12
3.03565000000000e+01 2.76567361471559e-11 1.22039484980867e-12
3.04655000000000e+01 2.53656387942506e-11 1.12130447069665e-12
3.05745000000000e+01 2.32643370503631e-11 1.03025317478086e-12
3.06835000000000e+01 2.13371081557611e-11 9.46589340011851e-13
3.07925000000000e+01 1.95695318317072e-11 8.69714111746222e-13
3.09015000000000e+01 1.79483823823052e-11 7.99077134215004e-13
3.10105000000000e+01 1.64615297346815e-11 7.34172626890220e-13
3.11195000000000e+01 1.50978486770460e-11 6.74535777916954e-13
3.12285000000000e+01 1.38471356155157e-11 6.19739429021326e-13
3.13375000000000e+01 1.27000322268430e-11 5.69391028367082e-13
3.14465000000000e+01 1.16479554357889e-11 5.23129829730043e-13
3.15555000000000e+01 1.06830331932039e-11 4.80624318103467e-13
3.16645000000000e+01 9.79804557428473e-12 4.41569843450790e-13
3.17735000000000e+01 8.98637075627853e-12 4.05686445796638e-13
3.18825000000000e+01 8.24193547142111e-12 3.72716856202580e-13
3.19915000000000e+01 7.55916956437714e-12 3.42424659420638e-13
3.21005000000000e+01 6.93296431416408e-12 3.14592605163579e-13
3.22095000000000e+01 6.35863420870798e-12 2.89021055984815e-13
3.23185000000000e+01 5.83188188601348e-12 2.65526560729587e-13
3.24275000000000e+01 5.34876597962423e-12 2.43940543409885e-13
3.25365000000000e+01 4.90567162778088e-12 2.24108098174605e-13
3.26455000000000e+01 4.49928342561456e-12 2.05886881799394e-13
3.27545000000000e+01 4.12656061799375e-12 1.89146095812932e-13
3.28635000000000e+01 3.78471434740767e-12 1.73765551012947e-13
3.29725000000000e+01 3.47118678664596e-12 1.59634807710325e-13
3.30815000000000e+01 3.18363200013721e-12 1.46652385577743e-13
3.31905000000000e+01 2.91989839074350e-12 1.34725037473778e-13
3.32995000000000e+01 2.67801260067089e-12 1.23767082068167e-13
3.34085000000000e+01 2.45616474603621e-12 1.13699790511905e-13
3.35175000000000e+01 2.25269487460955e-12 1.04450822780138e-13
3.36265000000000e+01 2.06608054540383e-12 9.59537096690943e-14
3.37355000000000e+01 1.89492543717713e-12 8.81473767530709e-14
3.38445000000000e+01 1.73794890061224e-12 8.09757069060280e-14
3.39535000000000e+01 1.59397637599868e-12 7.43871382668172e-14
3.40625000000000e+01 1.46193060471848e-12 6.83342947793557e-14
3.41715000000000e+01 1.34082356877685e-12 6.27736466709857e-14
3.42805000000000e+01 1.22974909806591e-12 5.76651984454609e-14
3.43895000000000e+01 1.12787609004626e-12 5.29722021629810e-14
