Energy (eV)          EEDF (eV^-(3/2))     First Anisotropy
1.80952380952381e-02 1.21614564749664e-01 7.02238880477961e-05
5.42857142857143e-02 1.20619110417443e-01 1.15874563161863e-04
9.04761904761905e-02 1.19631804199191e-01 1.52742446458171e-04
1.26666666666667e-01 1.18652579395195e-01 1.80614634335423e-04
1.62857142857143e-01 1.17681369864413e-01 2.03747584433793e-04
1.99047619047619e-01 1.16718109997708e-01 2.23753716558576e-04
2.35238095238095e-01 1.15762734723711e-01 2.41468989011835e-04
2.71428571428571e-01 1.14815179504208e-01 2.57399114967494e-04
3.07619047619048e-01 1.13875380326166e-01 2.71880083368099e-04
3.43809523809524e-01 1.12943273707504e-01 2.85149779363832e-04
3.80000000000000e-01 1.12018796681967e-01 2.97384604014272e-04
4.16190476190476e-01 1.11101886798721e-01 3.08720063320460e-04
4.52380952380952e-01 1.10192482118162e-01 3.19263190818281e-04
4.88571428571429e-01 1.09290521207735e-01 3.29100462885681e-04
5.24761904761905e-01 1.08395943136019e-01 3.38303066476099e-04
5.60952380952381e-01 1.07508687473948e-01 3.46930533536117e-04
5.97142857142857e-01 1.06628694285183e-01 3.55033324171134e-04
6.33333333333333e-01 1.05755904123984e-01 3.62654708975023e-04
6.69523809523810e-01 1.04890258031221e-01 3.69832172159125e-04
7.05714285714286e-01 1.04031697529145e-01 3.76598476359974e-04
7.41904761904762e-01 1.03180164621208e-01 3.82982485353691e-04
7.78095238095238e-01 1.02335601784262e-01 3.89009808773888e-04
8.14285714285714e-01 1.01497951965995e-01 3.94703313364388e-04
8.50476190476190e-01 1.00667158581107e-01 4.00083534321509e-04
8.86666666666667e-01 9.98431655065312e-02 4.05169008777318e-04
9.22857142857143e-01 9.90259170805175e-02 4.09976549756529e-04
9.59047619047619e-01 9.82153580959293e-02 4.14521472846865e-04
9.95238095238095e-01 9.74114337975140e-02 4.18817784392498e-04
1.03142857142857e+00 9.66140898804922e-02 4.22878341573042e-04
1.06761904761905e+00 9.58232724770154e-02 4.26714985256479e-04
1.10380952380952e+00 9.50389281655856e-02 4.30338652715288e-04
1.14000000000000e+00 9.42610039690625e-02 4.33759480138842e-04
1.17619047619048e+00 9.34894473297560e-02 4.36986883408201e-04
1.21238095238095e+00 9.27242061336707e-02 4.40029631790932e-04
1.24857142857143e+00 9.19652286805532e-02 4.42895912573502e-04
1.28476190476190e+00 9.12124636997377e-02 4.45593382827384e-04
1.32095238095238e+00 9.04658603460212e-02 4.48129223378939e-04
1.35714285714286e+00 8.97253681787913e-02 4.50510179074766e-04
1.39333333333333e+00 8.89909371761047e-02 4.52742594128485e-04
1.42952380952381e+00 8.82625177307012e-02 4.54832450771954e-04
1.46571428571429e+00 8.75400606308507e-02 4.56785395978413e-04
1.50190476190476e+00 8.68235170777399e-02 4.58606768845000e-04
1.53809523809524e+00 8.61128386623100e-02 4.60301625512921e-04
1.57428571428571e+00 8.54079773765726e-02 4.61874757595252e-04
1.61047619047619e+00 8.47088856099450e-02 4.63330716066328e-04
1.64666666666667e+00 8.40155161326712e-02 4.64673825902359e-04
1.68285714285714e+00 8.33278221101307e-02 4.65908202523043e-04
1.71904761904762e+00 8.26457570828282e-02 4.67037767040876e-04
1.75523809523810e+00 8.19692749756798e-02 4.68066256578590e-04
1.79142857142857e+00 8.12983300945285e-02 4.68997240269223e-04
1.82761904761905e+00 8.06328771116436e-02 4.69834128181237e-04
1.86380952380952e+00 7.99728710741130e-02 4.70580179353756e-04
1.90000000000000e+00 7.93182674004875e-02 4.71238514824086e-04
1.93619047619048e+00 7.86690218672000e-02 4.71812123559903e-04
1.97238095238095e+00 7.80250906194691e-02 4.72303870720028e-04
2.00857142857143e+00 7.73864301549016e-02 4.72716505527040e-04
2.04476190476190e+00 7.67529973304771e-02 4.73052665455580e-04
2.08095238095238e+00 7.61247493593700e-02 4.73314885857881e-04
2.11714285714286e+00 7.55016437988583e-02 4.73505603893011e-04
2.15333333333333e+00 7.48836385566925e-02 4.73627162076010e-04
2.18952380952381e+00 7.42706918880014e-02 4.73681816518986e-04
2.22571428571429e+00 7.36627623839060e-02 4.73671739294416e-04
2.26190476190476e+00 7.30598089800102e-02 4.73599023114966e-04
2.29809523809524e+00 7.24617909426734e-02 4.73465685905624e-04
2.33428571428571e+00 7.18686678743568e-02 4.73273672373438e-04
2.37047619047619e+00 7.12803997107017e-02 4.73024860535907e-04
2.40666666666667e+00 7.06969467102597e-02 4.72721062952383e-04
2.44285714285714e+00 7.01182694617652e-02 4.72364030161254e-04
2.47904761904762e+00 6.95443288717951e-02 4.71955454087307e-04
2.51523809523810e+00 6.89750861693015e-02 4.71496968764632e-04
2.55142857142857e+00 6.84105029028133e-02 4.70990155679075e-04
2.58761904761905e+00 6.78505409311369e-02 4.70436544725755e-04
2.62380952380952e+00 6.72951624275092e-02 4.69837615052903e-04
2.66000000000000e+00 6.67443298768829e-02 4.69194799879088e-04
2.69619047619048e+00 6.61980060670897e-02 4.68509486703210e-04
2.73238095238095e+00 6.56561540946406e-02 4.67783019542084e-04
2.76857142857143e+00 6.51187373541337e-02 4.67016701198349e-04
2.80476190476190e+00 6.45857195417878e-02 4.66211793208585e-04
2.84095238095238e+00 6.40570646528516e-02 4.65369519942381e-04
2.87714285714286e+00 6.35327369735322e-02 4.64491068858115e-04
2.91333333333333e+00 6.30127010842460e-02 4.63577590701696e-04
2.94952380952381e+00 6.24969218570928e-02 4.62630203276075e-04
2.98571428571429e+00 6.19853644481656e-02 4.61649991149656e-04
3.02190476190476e+00 6.14779943022224e-02 4.60638007207497e-04
3.05809523809524e+00 6.09747771434960e-02 4.59595274256320e-04
3.09428571428571e+00 6.04756789784641e-02 4.58522784591828e-04
3.13047619047619e+00 5.99806660934448e-02 4.57421503294721e-04
3.16666666666667e+00 5.94897050475240e-02 4.56292367773270e-04
3.20285714285714e+00 5.90027626766265e-02 4.55136289026889e-04
3.23904761904762e+00 5.85198060850930e-02 4.53954152969171e-04
3.27523809523810e+00 5.80408026480520e-02 4.52746819872769e-04
3.31142857142857e+00 5.75657200091138e-02 4.51515127288351e-04
3.34761904761905e+00 5.70945260738538e-02 4.50259889806429e-04
3.38380952380952e+00 5.66271890119941e-02 4.48981898801299e-04
3.42000000000000e+00 5.61636772551609e-02 4.47681925169668e-04
3.45619047619048e+00 5.57039594906441e-02 4.46360718717868e-04
3.49238095238095e+00 5.52480046647120e-02 4.45019009107819e-04
3.52857142857143e+00 5.47957819752030e-02 4.43657506864739e-04
3.56476190476190e+00 5.43472608733912e-02 4.42276902710214e-04
3.60095238095238e+00 5.39024110618408e-02 4.40877870025421e-04
3.63714285714286e+00 5.34612024886265e-02 4.39461064487610e-04
3.67333333333333e+00 5.30236053490527e-02 4.38027123699329e-04
3.70952380952381e+00 5.25895900835601e-02 4.36576669517383e-04
3.74571428571429e+00 5.21591273721840e-02 4.35110307374733e-04
3.78190476190476e+00 5.17321881372647e-02 4.33628627014282e-04
3.81809523809524e+00 5.13087435368901e-02 4.32132203282712e-04
3.85428571428571e+00 5.08887649663613e-02 4.30621595422658e-04
3.89047619047619e+00 5.04722240561927e-02 4.29097349191068e-04
3.92666666666667e+00 5.00590926669583e-02 4.27559996171776e-04
3.96285714285714e+00 4.96493428916720e-02 4.26010054409176e-04
3.99904761904762e+00 4.92429470497081e-02 4.24448029099756e-04
4.03523809523810e+00 4.88398776880529e-02 4.22874411884438e-04
4.07142857142857e+00 4.84401075793855e-02 4.21289682785983e-04
4.10761904761905e+00 4.80436097172805e-02 4.19694309769977e-04
4.14380952380952e+00 4.76503573173555e-02 4.18088748306575e-04
4.18000000000000e+00 4.72603238154025e-02 4.16473443217677e-04
4.21619047619048e+00 4.68734828627728e-02 4.14848827991203e-04
4.25238095238095e+00 4.64898083283308e-02 4.13215325294619e-04
4.28857142857143e+00 4.61092742930279e-02 4.11573347542326e-04
4.32476190476191e+00 4.57318550508759e-02 4.09923296200076e-04
4.36095238095238e+00 4.53575251071571e-02 4.08265563486005e-04
4.39714285714286e+00 4.49862591741140e-02 4.06600531923320e-04
4.43333333333333e+00 4.46180321718411e-02 4.04928573895967e-04
4.46952380952381e+00 4.42528192265389e-02 4.03250053276102e-04
4.50571428571429e+00 4.38905956663637e-02 4.01565324758722e-04
4.54190476190476e+00 4.35313370230326e-02 3.99874734286460e-04
4.57809523809524e+00 4.31750190269606e-02 3.98178619523931e-04
4.61428571428571e+00 4.28216176080100e-02 3.96477309188724e-04
4.65047619047619e+00 4.24711088938197e-02 3.94771124558097e-04
4.68666666666667e+00 4.21234692059183e-02 3.93060378824908e-04
4.72285714285714e+00 4.17786750611357e-02 3.91345377476951e-04
4.75904761904762e+00 4.14367031670607e-02 3.89626418723262e-04
4.79523809523810e+00 4.10975304226697e-02 3.87903792848812e-04
4.83142857142857e+00 4.07611339167232e-02 3.86177783613017e-04
4.86761904761905e+00 4.04274909241231e-02 3.84448667819343e-04
4.90380952380952e+00 4.00965789064825e-02 3.82716714889581e-04
4.94000000000000e+00 3.97683755105635e-02 3.80982188207249e-04
4.97619047619048e+00 3.94428585647622e-02 3.79245344506951e-04
5.01238095238095e+00 3.91200060802673e-02 3.77506434196241e-04
5.04857142857143e+00 3.87997962469656e-02 3.75765701720242e-04
5.08476190476190e+00 3.84822074339122e-02 3.74023384952570e-04
5.12095238095238e+00 3.81672181878327e-02 3.72279716446830e-04
5.15714285714286e+00 3.78548072298223e-02 3.70534923024681e-04
5.19333333333333e+00 3.75449534557690e-02 3.68789225369092e-04
5.22952380952381e+00 3.72376359348923e-02 3.67042839228568e-04
5.26571428571429e+00 3.69328339065570e-02 3.65295974842773e-04
5.30190476190476e+00 3.66305267812202e-02 3.63548837218940e-04
5.33809523809524e+00 3.63306941367315e-02 3.61801626447156e-04
5.37428571428571e+00 3.60333157186734e-02 3.60054537129273e-04
5.41047619047619e+00 3.57383714389622e-02 3.58307759503887e-04
5.44666666666667e+00 3.54458413728491e-02 3.56561478897239e-04
5.48285714285714e+00 3.51557057597496e-02 3.54815875974982e-04
5.51904761904762e+00 3.48679449997701e-02 3.53071127030594e-04
5.55523809523809e+00 3.45825396539782e-02 3.51327403440084e-04
5.59142857142857e+00 3.42994704430600e-02 3.49584872714606e-04
5.62761904761905e+00 3.40187182444963e-02 3.47843698125256e-04
5.66380952380952e+00 3.37402640927996e-02 3.46104038333085e-04
5.70000000000000e+00 3.34640891782052e-02 3.44366048404185e-04
5.73619047619048e+00 3.31901748439408e-02 3.42629879297064e-04
5.77238095238095e+00 3.29185025869013e-02 3.40895678082085e-04
5.80857142857143e+00 3.26490540544959e-02 3.39163588194428e-04
5.84476190476190e+00 3.23818110448265e-02 3.37433748925847e-04
5.88095238095238e+00 3.21167555054337e-02 3.35706296376366e-04
5.91714285714286e+00 3.18538695307204e-02 3.33981363102248e-04
5.95333333333333e+00 3.15931353621058e-02 3.32259077768978e-04
5.98952380952381e+00 3.13345353867996e-02 3.30539566070012e-04
6.02571428571429e+00 3.10780521353119e-02 3.28822950249579e-04
6.06190476190476e+00 3.08236682819987e-02 3.27109349295366e-04
6.09809523809524e+00 3.05713666421934e-02 3.25398879161729e-04
6.13428571428571e+00 3.03211301723116e-02 3.23691652297217e-04
6.17047619047619e+00 3.00729419686780e-02 3.21987778507456e-04
6.20666666666667e+00 2.98267852651736e-02 3.20287364500740e-04
6.24285714285714e+00 2.95826434337082e-02 3.18590514065731e-04
6.27904761904762e+00 2.93404999815176e-02 3.16897328277917e-04
6.31523809523809e+00 2.91003385512277e-02 3.15207905049947e-04
6.35142857142857e+00 2.88621429197285e-02 3.13522339942846e-04
6.38761904761905e+00 2.86258969959512e-02 3.11840725851391e-04
6.42380952380952e+00 2.83915848209140e-02 3.10163152694171e-04
6.46000000000000e+00 2.81591905666233e-02 3.08489708197729e-04
6.49619047619048e+00 2.79286985339221e-02 3.06820477474733e-04
6.53238095238095e+00 2.77000931528656e-02 3.05155543181530e-04
6.56857142857143e+00 2.74733589802555e-02 3.03494985701837e-04
6.60476190476190e+00 2.72484806996514e-02 3.01838882729653e-04
6.64095238095238e+00 2.70254431203177e-02 3.00187310007470e-04
6.67714285714286e+00 2.68042311751881e-02 2.98540341033138e-04
6.71333333333333e+00 2.65848299208620e-02 2.96898046771325e-04
6.74952380952381e+00 2.63672245365770e-02 2.95260496367518e-04
6.78571428571429e+00 2.61514003222377e-02 2.93627756756741e-04
6.82190476190476e+00 2.59373426987096e-02 2.91999892803938e-04
6.85809523809524e+00 2.57250372055669e-02 2.90376967468208e-04
6.89428571428571e+00 2.55144695010610e-02 2.88759041416166e-04
6.93047619047619e+00 2.53056253611357e-02 2.87146173694905e-04
6.96666666666667e+00 2.50984906775605e-02 2.85538421359981e-04
7.00285714285714e+00 2.48930514581790e-02 2.83935839605772e-04
7.03904761904762e+00 2.46892938247800e-02 2.82338481918489e-04
7.07523809523810e+00 2.44872040130436e-02 2.80746399708604e-04
7.11142857142857e+00 2.42867683715958e-02 2.79159642945527e-04
7.14761904761905e+00 2.40879733602405e-02 2.77578259897651e-04
7.18380952380952e+00 2.38908055498946e-02 2.76002296876397e-04
7.22000000000000e+00 2.36952516216668e-02 2.74431798850656e-04
7.25619047619048e+00 2.35012983651428e-02 2.72866809102069e-04
7.29238095238095e+00 2.33089326785740e-02 2.71307369341918e-04
7.32857142857143e+00 2.31181415669278e-02 2.69753519848639e-04
7.36476190476190e+00 2.29289121418037e-02 2.68205299127416e-04
7.40095238095238e+00 2.27412316205498e-02 2.66662744490148e-04
7.43714285714286e+00 2.25550873246375e-02 2.65125891814069e-04
7.47333333333333e+00 2.23704666795699e-02 2.63594775304153e-04
7.50952380952381e+00 2.21873572140200e-02 2.62069428054814e-04
7.54571428571429e+00 2.20057465582542e-02 2.60549881730645e-04
7.58190476190476e+00 2.18256224442702e-02 2.59036166671535e-04
7.61809523809524e+00 2.16469727040095e-02 2.57528312016596e-04
7.65428571428571e+00 2.14697852692505e-02 2.56026345389017e-04
7.69047619047619e+00 2.12940481707817e-02 2.54530293426752e-04
7.72666666666667e+00 2.11197495369067e-02 2.53040181478983e-04
7.76285714285714e+00 2.09468775935527e-02 2.51556033704323e-04
7.79904761904762e+00 2.07754206625779e-02 2.50077873186817e-04
7.83523809523810e+00 2.06053671616525e-02 2.48605721636329e-04
7.87142857142857e+00 2.04367056034650e-02 2.47139599890150e-04
7.90761904761905e+00 2.02694245943031e-02 2.45679527699542e-04
7.94380952380952e+00 2.01035128339308e-02 2.44225523519662e-04
7.98000000000000e+00 1.99389591148131e-02 2.42777604995632e-04
8.01619047619048e+00 1.97757523207403e-02 2.41335788681540e-04
8.05238095238095e+00 1.96138814268988e-02 2.39900090129076e-04
8.08857142857143e+00 1.94533354983159e-02 2.38470523992483e-04
8.12476190476190e+00 1.92941036897262e-02 2.37047103751234e-04
8.16095238095238e+00 1.91361752448289e-02 2.35629842169776e-04
8.19714285714286e+00 1.89795394949804e-02 2.34218751099631e-04
8.23333333333333e+00 1.88241858590575e-02 2.32813841284492e-04
8.26952380952381e+00 1.86701038427323e-02 2.31415122805939e-04
8.30571428571429e+00 1.85172830372037e-02 2.30022604823299e-04
8.34190476190476e+00 1.83657131192376e-02 2.28636295653811e-04
8.37809523809524e+00 1.82153838497364e-02 2.27256202867781e-04
8.41428571428571e+00 1.80662850735947e-02 2.25882333031884e-04
8.45047619047619e+00 1.79184067190041e-02 2.24514692130997e-04
8.48666666666667e+00 1.77717387962474e-02 2.23153285320790e-04
8.52285714285714e+00 1.76262713977215e-02 2.21798117002904e-04
8.55904761904762e+00 1.74819946965799e-02 2.20449190914339e-04
8.59523809523809e+00 1.73388989465828e-02 2.19106509883364e-04
8.63142857142857e+00 1.71969744814299e-02 2.17770076228887e-04
8.66761904761905e+00 1.70562117136147e-02 2.16439891585554e-04
8.70380952380952e+00 1.69166011342718e-02 2.15115956731642e-04
8.74000000000000e+00 1.67781333125271e-02 2.13798271976420e-04
8.77619047619048e+00 1.66407988943842e-02 2.12486836931060e-04
8.81238095238095e+00 1.65045886027247e-02 2.11181650576903e-04
8.84857142857143e+00 1.63694932360584e-02 2.09882711346688e-04
8.88476190476190e+00 1.62355036683665e-02 2.08590016898529e-04
8.92095238095238e+00 1.61026108484782e-02 2.07303564482886e-04
8.95714285714286e+00 1.59708057990117e-02 2.06023350780407e-04
8.99333333333333e+00 1.58400796162173e-02 2.04749371742329e-04
9.02952380952381e+00 1.57104234693683e-02 2.03481622946475e-04
9.06571428571429e+00 1.55818285997334e-02 2.02220099385113e-04
9.10190476190476e+00 1.54542863205574e-02 2.00964795526991e-04
9.13809523809524e+00 1.53277880159096e-02 1.99715705391298e-04
9.17428571428571e+00 1.52023251405237e-02 1.98472822338386e-04
9.21047619047619e+00 1.50778892192136e-02 1.97236139407150e-04
9.24666666666667e+00 1.49544718458954e-02 1.96005649113242e-04
9.28285714285714e+00 1.48320646835581e-02 1.94781343507400e-04
9.31904761904762e+00 1.47106594631688e-02 1.93563214245049e-04
9.35523809523809e+00 1.45902479835114e-02 1.92351252387260e-04
9.39142857142857e+00 1.44708221106258e-02 1.91145448720602e-04
9.42761904761905e+00 1.43523737768770e-02 1.89945793613877e-04
9.46380952380952e+00 1.42348949807939e-02 1.88752276877157e-04
9.50000000000000e+00 1.41183777865215e-02 1.87564888072205e-04
9.53619047619048e+00 1.40028143229178e-02 1.86383616325523e-04
9.57238095238095e+00 1.38881967835103e-02 1.85208450381512e-04
9.60857142857143e+00 1.37745174254861e-02 1.84039378665995e-04
9.64476190476191e+00 1.36617685695298e-02 1.82876389101812e-04
9.68095238095238e+00 1.35499425992983e-02 1.81719469403258e-04
9.71714285714286e+00 1.34390319605603e-02 1.80568606943232e-04
9.75333333333333e+00 1.33290291610340e-02 1.79423788622532e-04
9.78952380952381e+00 1.32199267698750e-02 1.78285001155607e-04
9.82571428571429e+00 1.31117174168403e-02 1.77152230897398e-04
9.86190476190476e+00 1.30043937922346e-02 1.76025463891824e-04
9.89809523809524e+00 1.28979486459776e-02 1.74904685929763e-04
9.93428571428571e+00 1.27923747874422e-02 1.73789882378260e-04
9.97047619047619e+00 1.26876650849634e-02 1.72681038451658e-04
1.00066666666667e+01 1.25838124650414e-02 1.71578139046798e-04
1.00428571428571e+01 1.24808099122824e-02 1.70481168871323e-04
1.00790476190476e+01 1.23786504683098e-02 1.69390112330836e-04
1.01152380952381e+01 1.22773272320123e-02 1.68304953003360e-04
1.01514285714286e+01 1.21768333597495e-02 1.67225675164936e-04
1.01876190476190e+01 1.20771620619224e-02 1.66152262851985e-04
1.02238095238095e+01 1.19783066054992e-02 1.65084699038643e-04
1.02600000000000e+01 1.18802603125607e-02 1.64022966501937e-04
1.02961904761905e+01 1.17830165607859e-02 1.62967048582560e-04
1.03323809523810e+01 1.16865687801754e-02 1.61916928408116e-04
1.03685714285714e+01 1.15909104554539e-02 1.60872588102821e-04
1.04047619047619e+01 1.14960351246753e-02 1.59834009618097e-04
1.04409523809524e+01 1.14019363796816e-02 1.58801175463057e-04
1.04771428571429e+01 1.13086078629698e-02 1.57774067958289e-04
1.05133333333333e+01 1.12160432699783e-02 1.56752668476550e-04
1.05495238095238e+01 1.11242363477498e-02 1.55736958240310e-04
1.05857142857143e+01 1.10331808953633e-02 1.54726919023213e-04
1.06219047619048e+01 1.09428707609390e-02 1.53722532433059e-04
1.06580952380952e+01 1.08532998438144e-02 1.52723779182331e-04
1.06942857142857e+01 1.07644620932618e-02 1.51730640198423e-04
1.07304761904762e+01 1.06763515080813e-02 1.50743095916718e-04
1.07666666666667e+01 1.05889621370009e-02 1.49761127316701e-04
1.08028571428571e+01 1.05022880758413e-02 1.48784715238014e-04
1.08390476190476e+01 1.04163234695644e-02 1.47813839684740e-04
1.08752380952381e+01 1.03310625110579e-02 1.46848480555245e-04
1.09114285714286e+01 1.02464994415119e-02 1.45888618284358e-04
1.09476190476190e+01 1.01626285477078e-02 1.44934233186186e-04
1.09838095238095e+01 1.00794441639681e-02 1.43985304785465e-04
1.10200000000000e+01 9.99694067099095e-03 1.43041812518562e-04
1.10561904761905e+01 9.91511249620479e-03 1.42103736350394e-04
1.10923809523810e+01 9.83395411117504e-03 1.41171056142766e-04
1.11285714285714e+01 9.75346003346076e-03 1.40243751011781e-04
1.11647619047619e+01 9.67362482549629e-03 1.39321800001208e-04
1.12009523809524e+01 9.59444309492591e-03 1.38405182675108e-04
1.12371428571429e+01 9.51590949212228e-03 1.37493878510743e-04
1.12733333333333e+01 9.43801871195476e-03 1.36587866280924e-04
1.13095238095238e+01 9.36076549271641e-03 1.35687124700887e-04
1.13457142857143e+01 9.28414461643938e-03 1.34791632997690e-04
1.13819047619048e+01 9.20815090652011e-03 1.33901370326658e-04
1.14180952380952e+01 9.13277922940384e-03 1.33016315177643e-04
