################################
# DATA CONSIDERED FOR THE TESTS#
################################

# elastic momentum transfer constant rate coefficient = 1.000000e-12 (m3s-1)
#                                     gas temperature = 300.000000 (K)
#                           mass of the heavy species = 40.000000 (uam)
#               decades of decay ensured for the eedf = 15 
#                 number of cells for the energy grid = 2000 

E/N(Td)              Te_th(eV)            Te_sim(eV)           RelError(Te)         RelError(EEDF)
0.00000000000000e+00 2.58519910116516e-02 2.58473489122296e-02 1.79564483831961e-04 3.93587111416316e-04 
1.00000000000000e+00 3.01268347033801e-02 3.01214303936177e-02 1.79385249581472e-04 3.92811480208595e-04 
2.00000000000000e+00 4.29513657785653e-02 4.29436829414769e-02 1.78872940340263e-04 3.90598515372094e-04 
3.00000000000000e+00 6.43255842372075e-02 6.43140497659657e-02 1.79313897861242e-04 3.92502911454583e-04 
4.00000000000000e+00 9.42494900793065e-02 9.42325308033436e-02 1.79940241041135e-04 3.95215566165563e-04 
5.00000000000000e+00 1.32723083304862e-01 1.32699288510229e-01 1.79281508843801e-04 3.92362879354528e-04 
6.00000000000000e+00 1.79746363913875e-01 1.79714079255325e-01 1.79612303954492e-04 3.93794174506878e-04 
7.00000000000000e+00 2.35319331906345e-01 2.35277065438269e-01 1.79613241857909e-04 3.93798236217547e-04 
8.00000000000000e+00 2.99441987282271e-01 2.99388571475308e-01 1.78384492595037e-04 3.88494197611716e-04 
9.00000000000000e+00 3.72114330041654e-01 3.72047136508569e-01 1.80572280238943e-04 3.97961955845426e-04 
1.00000000000000e+01 4.53336360184494e-01 4.53254627970102e-01 1.80290445617388e-04 3.96736180072190e-04 
1.10000000000000e+01 5.43108077710791e-01 5.43010233578853e-01 1.80155913626702e-04 3.96151701895250e-04 
1.20000000000000e+01 6.41429482620545e-01 6.41313953374387e-01 1.80112154630163e-04 3.95961678690688e-04 
1.30000000000000e+01 7.48300574913756e-01 7.48166599485727e-01 1.79039589865574e-04 3.91317715567720e-04 
1.40000000000000e+01 8.63721354590423e-01 8.63566547876754e-01 1.79232240636908e-04 3.92149917163148e-04 
1.50000000000000e+01 9.87691821650547e-01 9.87514610470001e-01 1.79419507848447e-04 3.92959675006322e-04 
1.60000000000000e+01 1.12021197609413e+00 1.12001078724562e+00 1.79598908780337e-04 3.93736168028481e-04 
1.70000000000000e+01 1.26128181792117e+00 1.26105507818759e+00 1.79769287367378e-04 3.94474288114609e-04 
1.80000000000000e+01 1.41090134713166e+00 1.41064829550168e+00 1.79354588112468e-04 3.92678866446181e-04 
1.90000000000000e+01 1.56907056372561e+00 1.56878881503931e+00 1.79564063476426e-04 3.93585290660903e-04 
2.00000000000000e+01 1.73578946770302e+00 1.73547744868721e+00 1.79756255938701e-04 3.94417809531867e-04 
2.10000000000000e+01 1.91105805906389e+00 1.91071500878818e+00 1.79508034348410e-04 3.93342747677885e-04 
2.20000000000000e+01 2.09487633780821e+00 2.09449987094245e+00 1.79708395653284e-04 3.94210415145364e-04 
2.30000000000000e+01 2.28724430393599e+00 2.28683365950595e+00 1.79536759292602e-04 3.93467084983194e-04 
2.40000000000000e+01 2.48816195744723e+00 2.48771556220408e+00 1.79407631327956e-04 3.92908295551158e-04 
2.50000000000000e+01 2.69762929834192e+00 2.69714476717143e+00 1.79613696657862e-04 3.93800205850191e-04 
2.60000000000000e+01 2.91564632662007e+00 2.91512046025475e+00 1.80360135081221e-04 3.97039109421223e-04 
2.70000000000000e+01 3.14221304228167e+00 3.14164507890038e+00 1.80752664969695e-04 3.98747462275993e-04 
2.80000000000000e+01 3.37732944532674e+00 3.37672025296924e+00 1.80376942007000e-04 3.97112184034918e-04 
2.90000000000000e+01 3.62099553575526e+00 3.62034597745231e+00 1.79386662185818e-04 3.92817589940168e-04 
3.00000000000000e+01 3.87321131356724e+00 3.87251412873871e+00 1.80001753605070e-04 3.95482456015668e-04 
3.10000000000000e+01 4.13397677876267e+00 4.13323283127371e+00 1.79959281044123e-04 3.95298167296734e-04 
3.20000000000000e+01 4.40329193134156e+00 4.40250208471856e+00 1.79376392779968e-04 3.92773171131796e-04 
3.30000000000000e+01 4.68115677130391e+00 4.68031376613606e+00 1.80084797205830e-04 3.95842900836986e-04 
3.40000000000000e+01 4.96757129864971e+00 4.96667599825006e+00 1.80228998403470e-04 3.96469169188438e-04 
3.50000000000000e+01 5.26253551337897e+00 5.26158878346666e+00 1.79899956951685e-04 3.95040829794430e-04 
3.60000000000000e+01 5.56604941549169e+00 5.56505211728506e+00 1.79175234028090e-04 3.91903576328985e-04 
3.70000000000000e+01 5.87811300498787e+00 5.87705788182238e+00 1.79500320016203e-04 3.93309359812624e-04 
3.80000000000000e+01 6.19872628186750e+00 6.19761419588801e+00 1.79405563162610e-04 3.92899349233681e-04 
3.90000000000000e+01 6.52788924613059e+00 6.52672105824240e+00 1.78953386637454e-04 3.90945613317652e-04 
4.00000000000000e+01 6.86560189777713e+00 6.86437035483607e+00 1.79378728828154e-04 3.92783274625697e-04 
4.10000000000000e+01 7.21186423680714e+00 7.21057019978171e+00 1.79431695181306e-04 3.93012402049786e-04 
4.20000000000000e+01 7.56667626322060e+00 7.56532059399095e+00 1.79163107088039e-04 3.91851180157026e-04 
4.30000000000000e+01 7.93003797701751e+00 7.92861342015402e+00 1.79640610501712e-04 3.93916768355005e-04 
4.40000000000000e+01 8.30194937819788e+00 8.30045679523793e+00 1.79787046626996e-04 3.94551264003794e-04 
4.50000000000000e+01 8.68241046676172e+00 8.68085072157081e+00 1.79644258570758e-04 3.93932569084885e-04 
4.60000000000000e+01 9.07142124270900e+00 9.06979519717072e+00 1.79249259269876e-04 3.92223474029567e-04 
4.70000000000000e+01 9.46898170603975e+00 9.46728210413633e+00 1.79491518325616e-04 3.93271266601092e-04 
4.80000000000000e+01 9.87509185675395e+00 9.87331956069533e+00 1.79471349160613e-04 3.93183981562518e-04 
4.90000000000000e+01 1.02897516948516e+01 1.02879075666254e+01 1.79219895765229e-04 3.92096565370607e-04 
5.00000000000000e+01 1.07129612203327e+01 1.07110380045840e+01 1.79522328995849e-04 3.93404621071785e-04 
