Energy (eV)          EEDF (eV^-(3/2))     First Anisotropy
6.75000000000000e-04 1.47508707972980e+01 7.55889882570676e-03
2.02500000000000e-03 1.46404976400889e+01 1.24771383514365e-02
3.37500000000000e-03 1.45309503482344e+01 1.64586523283413e-02
4.72500000000000e-03 1.44222227422457e+01 1.94757913711793e-02
6.07500000000000e-03 1.43143086888430e+01 2.19858011217896e-02
7.42500000000000e-03 1.42072021006344e+01 2.41617136526433e-02
8.77500000000000e-03 1.41008969357754e+01 2.60931486187453e-02
1.01250000000000e-02 1.39953871976289e+01 2.78342691012699e-02
1.14750000000000e-02 1.38906669344275e+01 2.94210260883722e-02
1.28250000000000e-02 1.37867302389376e+01 3.08788493933510e-02
1.41750000000000e-02 1.36835712481264e+01 3.22265785009421e-02
1.55250000000000e-02 1.35811841428309e+01 3.34786719144537e-02
1.68750000000000e-02 1.34795631474300e+01 3.46465396141066e-02
1.82250000000000e-02 1.33787025295187e+01 3.57393917449722e-02
1.95750000000000e-02 1.32785965995845e+01 3.67648032841572e-02
2.09250000000000e-02 1.31792397106865e+01 3.77291034112824e-02
2.22750000000000e-02 1.30806262581371e+01 3.86376521422368e-02
2.36250000000000e-02 1.29827506791856e+01 3.94950419145687e-02
2.49750000000000e-02 1.28856074527044e+01 4.03052477237849e-02
2.63250000000000e-02 1.27891910988779e+01 4.10717410835419e-02
2.76750000000000e-02 1.26934961788928e+01 4.17975779802995e-02
2.90250000000000e-02 1.25985172946319e+01 4.24854677663727e-02
3.03750000000000e-02 1.25042490883692e+01 4.31378278378308e-02
3.17250000000000e-02 1.24106862424679e+01 4.37568275466138e-02
3.30750000000000e-02 1.23178234790802e+01 4.43444238452872e-02
3.44250000000000e-02 1.22256555598498e+01 4.49023905028668e-02
3.57750000000000e-02 1.21341772856163e+01 4.54323422639369e-02
3.71250000000000e-02 1.20433834961219e+01 4.59357549887630e-02
3.84750000000000e-02 1.19532690697204e+01 4.64139825684815e-02
3.98250000000000e-02 1.18638289230882e+01 4.68682712297046e-02
4.11750000000000e-02 1.17750580109376e+01 4.72997717086258e-02
4.25250000000000e-02 1.16869513257322e+01 4.77095496732913e-02
4.38750000000000e-02 1.15995038974044e+01 4.80985946953122e-02
4.52250000000000e-02 1.15127107930750e+01 4.84678280126325e-02
4.65750000000000e-02 1.14265671167751e+01 4.88181092785630e-02
4.79250000000000e-02 1.13410680091697e+01 4.91502424559489e-02
4.92750000000000e-02 1.12562086472838e+01 4.94649809865587e-02
5.06250000000000e-02 1.11719842442301e+01 4.97630323428906e-02
5.19750000000000e-02 1.10883900489393e+01 5.00450620512747e-02
5.33250000000000e-02 1.10054213458917e+01 5.03116972603093e-02
5.46750000000000e-02 1.09230734548515e+01 5.05635299166527e-02
5.60250000000000e-02 1.08413417306027e+01 5.08011196003788e-02
5.73750000000000e-02 1.07602215626871e+01 5.10249960640559e-02
5.87250000000000e-02 1.06797083751440e+01 5.12356615130367e-02
6.00750000000000e-02 1.05997976262524e+01 5.14335926589285e-02
6.14250000000000e-02 1.05204848082746e+01 5.16192425736282e-02
6.27750000000000e-02 1.04417654472021e+01 5.17930423674547e-02
6.41250000000000e-02 1.03636351025030e+01 5.19554027116702e-02
6.54750000000000e-02 1.02860893668715e+01 5.21067152229505e-02
6.68250000000000e-02 1.02091238659795e+01 5.22473537250597e-02
6.81750000000000e-02 1.01327342582299e+01 5.23776754010019e-02
6.95250000000000e-02 1.00569162345112e+01 5.24980218472753e-02
7.08750000000000e-02 9.98166551795507e+00 5.26087200403628e-02
7.22250000000000e-02 9.90697786369456e+00 5.27100832244156e-02
7.35750000000000e-02 9.83284905862500e+00 5.28024117279996e-02
7.49250000000000e-02 9.75927492116615e+00 5.28859937168181e-02
7.62750000000000e-02 9.68625130102639e+00 5.29611058886010e-02
7.76250000000000e-02 9.61377407896859e+00 5.30280141155901e-02
7.89750000000000e-02 9.54183916657775e+00 5.30869740394834e-02
8.03250000000000e-02 9.47044250603037e+00 5.31382316231674e-02
8.16750000000000e-02 9.39958006986556e+00 5.31820236630897e-02
8.30250000000000e-02 9.32924786075783e+00 5.32185782657383e-02
8.43750000000000e-02 9.25944191129161e+00 5.32481152913109e-02
8.57250000000000e-02 9.19015828373747e+00 5.32708467673848e-02
8.70750000000000e-02 9.12139306982997e+00 5.32869772750765e-02
8.84250000000000e-02 9.05314239054720e+00 5.32967043099473e-02
8.97750000000000e-02 8.98540239589197e+00 5.33002186197096e-02
9.11250000000000e-02 8.91816926467464e+00 5.32977045205666e-02
9.24750000000000e-02 8.85143920429756e+00 5.32893401938756e-02
9.38250000000000e-02 8.78520845054113e+00 5.32752979646387e-02
9.51750000000000e-02 8.71947326735146e+00 5.32557445631950e-02
9.65250000000000e-02 8.65422994662963e+00 5.32308413713856e-02
9.78750000000000e-02 8.58947480802250e+00 5.32007446543426e-02
9.92250000000000e-02 8.52520419871514e+00 5.31656057789271e-02
1.00575000000000e-01 8.46141449322471e+00 5.31255714197714e-02
1.01925000000000e-01 8.39810209319603e+00 5.30807837538203e-02
1.03275000000000e-01 8.33526342719854e+00 5.30313806441657e-02
1.04625000000000e-01 8.27289495052484e+00 5.29774958138886e-02
1.05975000000000e-01 8.21099314499076e+00 5.29192590106067e-02
1.07325000000000e-01 8.14955451873688e+00 5.28567961623459e-02
1.08675000000000e-01 8.08857560603156e+00 5.27902295252968e-02
1.10025000000000e-01 8.02805296707547e+00 5.27196778239982e-02
1.11375000000000e-01 7.96798318780748e+00 5.26452563844206e-02
1.12725000000000e-01 7.90836287971215e+00 5.25670772603984e-02
1.14075000000000e-01 7.84918867962856e+00 5.24852493538427e-02
1.15425000000000e-01 7.79045724956055e+00 5.23998785291023e-02
1.16775000000000e-01 7.73216527648849e+00 5.23110677218256e-02
1.18125000000000e-01 7.67430947218237e+00 5.22189170426845e-02
1.19475000000000e-01 7.61688657301631e+00 5.21235238762361e-02
1.20825000000000e-01 7.55989333978444e+00 5.20249829752037e-02
1.22175000000000e-01 7.50332655751820e+00 5.19233865504656e-02
1.23525000000000e-01 7.44718303530500e+00 5.18188243570017e-02
1.24875000000000e-01 7.39145960610819e+00 5.17113837759893e-02
1.26225000000000e-01 7.33615312658842e+00 5.16011498932980e-02
1.27575000000000e-01 7.28126047692633e+00 5.14882055745806e-02
1.28925000000000e-01 7.22677856064656e+00 5.13726315371183e-02
1.30275000000000e-01 7.17270430444309e+00 5.12545064186330e-02
1.31625000000000e-01 7.11903465800583e+00 5.11339068432075e-02
1.32975000000000e-01 7.06576659384862e+00 5.10109074844620e-02
1.34325000000000e-01 7.01289710713841e+00 5.08855811261438e-02
1.35675000000000e-01 6.96042321552575e+00 5.07579987202648e-02
1.37025000000000e-01 6.90834195897659e+00 5.06282294428942e-02
1.38375000000000e-01 6.85665039960528e+00 5.04963407477438e-02
1.39725000000000e-01 6.80534562150885e+00 5.03623984176527e-02
1.41075000000000e-01 6.75442473060254e+00 5.02264666140643e-02
1.42425000000000e-01 6.70388485445652e+00 5.00886079246071e-02
1.43775000000000e-01 6.65372314213389e+00 4.99488834088678e-02
1.45125000000000e-01 6.60393676402981e+00 4.98073526424351e-02
1.46475000000000e-01 6.55452291171194e+00 4.96640737593120e-02
1.47825000000000e-01 6.50547879776197e+00 4.95191034927563e-02
1.49175000000000e-01 6.45680165561843e+00 4.93724972146272e-02
1.50525000000000e-01 6.40848873942057e+00 4.92243089733292e-02
1.51875000000000e-01 6.36053732385352e+00 4.90745915303809e-02
1.53225000000000e-01 6.31294470399455e+00 4.89233963956933e-02
1.54575000000000e-01 6.26570819516043e+00 4.87707738616121e-02
1.55925000000000e-01 6.21882513275607e+00 4.86167730357694e-02
1.57275000000000e-01 6.17229287212413e+00 4.84614418728150e-02
1.58625000000000e-01 6.12610878839592e+00 4.83048272050613e-02
1.59975000000000e-01 6.08027027634326e+00 4.81469747720878e-02
1.61325000000000e-01 6.03477475023155e+00 4.79879292493679e-02
1.62675000000000e-01 5.98961964367393e+00 4.78277342759350e-02
1.64025000000000e-01 5.94480240948647e+00 4.76664324811359e-02
1.65375000000000e-01 5.90032051954451e+00 4.75040655105227e-02
1.66725000000000e-01 5.85617146464003e+00 4.73406740509040e-02
1.68075000000000e-01 5.81235275434013e+00 4.71762978545981e-02
1.69425000000000e-01 5.76886191684655e+00 4.70109757629097e-02
1.70775000000000e-01 5.72569649885620e+00 4.68447457288712e-02
1.72125000000000e-01 5.68285406542278e+00 4.66776448392742e-02
1.73475000000000e-01 5.64033219981948e+00 4.65097093360211e-02
1.74825000000000e-01 5.59812850340256e+00 4.63409746368217e-02
1.76175000000000e-01 5.55624059547614e+00 4.61714753552559e-02
1.77525000000000e-01 5.51466611315782e+00 4.60012453202381e-02
1.78875000000000e-01 5.47340271124546e+00 4.58303175948922e-02
1.80225000000000e-01 5.43244806208485e+00 4.56587244948688e-02
1.81575000000000e-01 5.39179985543839e+00 4.54864976061202e-02
1.82925000000000e-01 5.35145579835484e+00 4.53136678021606e-02
1.84275000000000e-01 5.31141361503991e+00 4.51402652608240e-02
1.85625000000000e-01 5.27167104672789e+00 4.49663194805371e-02
1.86975000000000e-01 5.23222585155426e+00 4.47918592961291e-02
1.88325000000000e-01 5.19307580442923e+00 4.46169128941860e-02
1.89675000000000e-01 5.15421869691219e+00 4.44415078279893e-02
1.91025000000000e-01 5.11565233708717e+00 4.42656710320269e-02
1.92375000000000e-01 5.07737454943916e+00 4.40894288360961e-02
1.93725000000000e-01 5.03938317473141e+00 4.39128069790251e-02
1.95075000000000e-01 5.00167606988362e+00 4.37358306220209e-02
1.96425000000000e-01 4.96425110785108e+00 4.35585243616525e-02
1.97775000000000e-01 4.92710617750464e+00 4.33809122424816e-02
1.99125000000000e-01 4.89023918351162e+00 4.32030177693566e-02
2.00475000000000e-01 4.85364804621767e+00 4.30248639193817e-02
2.01825000000000e-01 4.81733070152941e+00 4.28464731535687e-02
2.03175000000000e-01 4.78128510079799e+00 4.26678674281775e-02
2.04525000000000e-01 4.74550921070356e+00 4.24890682057718e-02
2.05875000000000e-01 4.71000101314054e+00 4.23100964659814e-02
2.07225000000000e-01 4.67475850510380e+00 4.21309727159831e-02
2.08575000000000e-01 4.63977969857568e+00 4.19517170007270e-02
2.09925000000000e-01 4.60506262041380e+00 4.17723489128908e-02
2.11275000000000e-01 4.57060531223981e+00 4.15928876025863e-02
2.12625000000000e-01 4.53640583032889e+00 4.14133517868256e-02
2.13975000000000e-01 4.50246224550009e+00 4.12337597587435e-02
2.15325000000000e-01 4.46877264300755e+00 4.10541293966017e-02
2.16675000000000e-01 4.43533512243247e+00 4.08744781725653e-02
2.18025000000000e-01 4.40214779757588e+00 4.06948231612591e-02
2.19375000000000e-01 4.36920879635228e+00 4.05151810481276e-02
2.20725000000000e-01 4.33651626068402e+00 4.03355681375844e-02
2.22075000000000e-01 4.30406834639648e+00 4.01560003609643e-02
2.23425000000000e-01 4.27186322311405e+00 3.99764932842899e-02
2.24775000000000e-01 4.23989907415689e+00 3.97970621158491e-02
2.26125000000000e-01 4.20817409643840e+00 3.96177217135944e-02
2.27475000000000e-01 4.17668650036359e+00 3.94384865923741e-02
2.28825000000000e-01 4.14543450972806e+00 3.92593709309840e-02
2.30175000000000e-01 4.11441636161784e+00 3.90803885790559e-02
2.31525000000000e-01 4.08363030630995e+00 3.89015530637992e-02
2.32875000000000e-01 4.05307460717365e+00 3.87228775965707e-02
2.34225000000000e-01 4.02274754057254e+00 3.85443750793034e-02
2.35575000000000e-01 3.99264739576729e+00 3.83660581107865e-02
2.36925000000000e-01 3.96277247481916e+00 3.81879389927993e-02
2.38275000000000e-01 3.93312109249421e+00 3.80100297361121e-02
2.39625000000000e-01 3.90369157616821e+00 3.78323420663484e-02
2.40975000000000e-01 3.87448226573234e+00 3.76548874297193e-02
2.42325000000000e-01 3.84549151349953e+00 3.74776769986246e-02
2.43675000000000e-01 3.81671768411147e+00 3.73007216771363e-02
2.45025000000000e-01 3.78815915444640e+00 3.71240321063566e-02
2.46375000000000e-01 3.75981431352757e+00 3.69476186696583e-02
2.47725000000000e-01 3.73168156243230e+00 3.67714914978158e-02
2.49075000000000e-01 3.70375931420186e+00 3.65956604740168e-02
2.50425000000000e-01 3.67604599375188e+00 3.64201352387699e-02
2.51775000000000e-01 3.64854003778355e+00 3.62449251947083e-02
2.53125000000000e-01 3.62123989469543e+00 3.60700395112847e-02
2.54475000000000e-01 3.59414402449589e+00 3.58954871293715e-02
2.55825000000000e-01 3.56725089871628e+00 3.57212767657586e-02
2.57175000000000e-01 3.54055900032469e+00 3.55474169175581e-02
2.58525000000000e-01 3.51406682364036e+00 3.53739158665167e-02
2.59875000000000e-01 3.48777287424880e+00 3.52007816832356e-02
2.61225000000000e-01 3.46167566891740e+00 3.50280222313025e-02
2.62575000000000e-01 3.43577373551186e+00 3.48556451713359e-02
2.63925000000000e-01 3.41006561291309e+00 3.46836579649497e-02
2.65275000000000e-01 3.38454985093478e+00 3.45120678786331e-02
2.66625000000000e-01 3.35922501024164e+00 3.43408819875504e-02
2.67975000000000e-01 3.33408966226818e+00 3.41701071792603e-02
2.69325000000000e-01 3.30914238913812e+00 3.39997501573640e-02
2.70675000000000e-01 3.28438178358442e+00 3.38298174450744e-02
2.72025000000000e-01 3.25980644886990e+00 3.36603153887169e-02
2.73375000000000e-01 3.23541499870842e+00 3.34912501611604e-02
2.74725000000000e-01 3.21120605718675e+00 3.33226277651698e-02
2.76075000000000e-01 3.18717825868686e+00 3.31544540366977e-02
2.77425000000000e-01 3.16333024780896e+00 3.29867346481143e-02
2.78775000000000e-01 3.13966067929502e+00 3.28194751113663e-02
2.80125000000000e-01 3.11616821795288e+00 3.26526807810741e-02
2.81475000000000e-01 3.09285153858091e+00 3.24863568575696e-02
2.82825000000000e-01 3.06970932589332e+00 3.23205083898673e-02
2.84175000000000e-01 3.04674027444590e+00 3.21551402785902e-02
2.85525000000000e-01 3.02394308856240e+00 3.19902572788261e-02
2.86875000000000e-01 3.00131648226147e+00 3.18258640029327e-02
2.88225000000000e-01 2.97885917918409e+00 3.16619649232888e-02
2.89575000000000e-01 2.95656991252155e+00 3.14985643749865e-02
2.90925000000000e-01 2.93444742494405e+00 3.13356665584787e-02
2.92275000000000e-01 2.91249046852972e+00 3.11732755421705e-02
2.93625000000000e-01 2.89069780469426e+00 3.10113952649610e-02
2.94975000000000e-01 2.86906820412103e+00 3.08500295387393e-02
2.96325000000000e-01 2.84760044669177e+00 3.06891820508283e-02
2.97675000000000e-01 2.82629332141771e+00 3.05288563663840e-02
2.99025000000000e-01 2.80514562637128e+00 3.03690559307507e-02
3.00375000000000e-01 2.78415616861834e+00 3.02097840717644e-02
3.01725000000000e-01 2.76332376415084e+00 3.00510440020236e-02
3.03075000000000e-01 2.74264723782006e+00 2.98928388211095e-02
3.04425000000000e-01 2.72212542327031e+00 2.97351715177633e-02
3.05775000000000e-01 2.70175716287313e+00 2.95780449720260e-02
3.07125000000000e-01 2.68154130766201e+00 2.94214619573374e-02
3.08475000000000e-01 2.66147671726755e+00 2.92654251425963e-02
3.09825000000000e-01 2.64156225985317e+00 2.91099370941792e-02
3.11175000000000e-01 2.62179681205120e+00 2.89550002779226e-02
3.12525000000000e-01 2.60217925889959e+00 2.88006170610727e-02
3.13875000000000e-01 2.58270849377896e+00 2.86467897141949e-02
3.15225000000000e-01 2.56338341835018e+00 2.84935204130438e-02
3.16575000000000e-01 2.54420294249245e+00 2.83408112404052e-02
3.17925000000000e-01 2.52516598424175e+00 2.81886641879026e-02
3.19275000000000e-01 2.50627146972987e+00 2.80370811577705e-02
3.20625000000000e-01 2.48751833312379e+00 2.78860639645941e-02
3.21975000000000e-01 2.46890551656556e+00 2.77356143370172e-02
3.23325000000000e-01 2.45043197011264e+00 2.75857339194177e-02
3.24675000000000e-01 2.43209665167868e+00 2.74364242735554e-02
3.26025000000000e-01 2.41389852697472e+00 2.72876868801867e-02
3.27375000000000e-01 2.39583656945084e+00 2.71395231406536e-02
3.28725000000000e-01 2.37790976023826e+00 2.69919343784405e-02
3.30075000000000e-01 2.36011708809190e+00 2.68449218407035e-02
3.31425000000000e-01 2.34245754933327e+00 2.66984866997720e-02
3.32775000000000e-01 2.32493014779391e+00 2.65526300546245e-02
3.34125000000000e-01 2.30753389475916e+00 2.64073529323378e-02
3.35475000000000e-01 2.29026780891242e+00 2.62626562895056e-02
3.36825000000000e-01 2.27313091627977e+00 2.61185410136385e-02
3.38175000000000e-01 2.25612225017501e+00 2.59750079245344e-02
3.39525000000000e-01 2.23924085114519e+00 2.58320577756262e-02
3.40875000000000e-01 2.22248576691644e+00 2.56896912553034e-02
3.42225000000000e-01 2.20585605234024e+00 2.55479089882101e-02
3.43575000000000e-01 2.18935076934017e+00 2.54067115365227e-02
3.44925000000000e-01 2.17296898685892e+00 2.52660994012039e-02
3.46275000000000e-01 2.15670978080582e+00 2.51260730232334e-02
3.47625000000000e-01 2.14057223400468e+00 2.49866327848160e-02
3.48975000000000e-01 2.12455543614207e+00 2.48477790105662e-02
3.50325000000000e-01 2.10865848371597e+00 2.47095119686803e-02
3.51675000000000e-01 2.09288047998481e+00 2.45718318720800e-02
3.53025000000000e-01 2.07722053491685e+00 2.44347388795363e-02
3.54375000000000e-01 2.06167776514001e+00 2.42982330967772e-02
3.55725000000000e-01 2.04625129389204e+00 2.41623145775730e-02
3.57075000000000e-01 2.03094025097103e+00 2.40269833248042e-02
3.58425000000000e-01 2.01574377268635e+00 2.38922392915072e-02
3.59775000000000e-01 2.00066100180992e+00 2.37580823819088e-02
3.61125000000000e-01 1.98569108752787e+00 2.36245124524337e-02
3.62475000000000e-01 1.97083318539250e+00 2.34915293126985e-02
3.63825000000000e-01 1.95608645727472e+00 2.33591327264897e-02
3.65175000000000e-01 1.94145007131668e+00 2.32273224127244e-02
3.66525000000000e-01 1.92692320188492e+00 2.30960980463905e-02
3.67875000000000e-01 1.91250502952378e+00 2.29654592594715e-02
3.69225000000000e-01 1.89819474090913e+00 2.28354056418606e-02
3.70575000000000e-01 1.88399152880256e+00 2.27059367422517e-02
3.71925000000000e-01 1.86989459200578e+00 2.25770520690169e-02
3.73275000000000e-01 1.85590313531548e+00 2.24487510910731e-02
3.74625000000000e-01 1.84201636947842e+00 2.23210332387275e-02
3.75975000000000e-01 1.82823351114696e+00 2.21938979045098e-02
3.77325000000000e-01 1.81455378283482e+00 2.20673444439933e-02
3.78675000000000e-01 1.80097641287328e+00 2.19413721765972e-02
3.80025000000000e-01 1.78750063536758e+00 2.18159803863788e-02
3.81375000000000e-01 1.77412569015380e+00 2.16911683228109e-02
3.82725000000000e-01 1.76085082275589e+00 2.15669352015402e-02
3.84075000000000e-01 1.74767528434319e+00 2.14432802051426e-02
3.85425000000000e-01 1.73459833168813e+00 2.13202024838579e-02
3.86775000000000e-01 1.72161922712436e+00 2.11977011563122e-02
3.88125000000000e-01 1.70873723850506e+00 2.10757753102331e-02
3.89475000000000e-01 1.69595163916172e+00 2.09544240031451e-02
3.90825000000000e-01 1.68326170786312e+00 2.08336462630598e-02
3.92175000000000e-01 1.67066672877462e+00 2.07134410891499e-02
3.93525000000000e-01 1.65816599141781e+00 2.05938074524114e-02
3.94875000000000e-01 1.64575879063043e+00 2.04747442963156e-02
3.96225000000000e-01 1.63344442652657e+00 2.03562505374512e-02
3.97575000000000e-01 1.62122220445723e+00 2.02383250661544e-02
3.98925000000000e-01 1.60909143497108e+00 2.01209667471238e-02
4.00275000000000e-01 1.59705143377562e+00 2.00041744200315e-02
4.01625000000000e-01 1.58510152169855e+00 1.98879469001194e-02
4.02975000000000e-01 1.57324102464946e+00 1.97722829787853e-02
4.04325000000000e-01 1.56146927358184e+00 1.96571814241615e-02
4.05675000000000e-01 1.54978560445527e+00 1.95426409816799e-02
4.07025000000000e-01 1.53818935819802e+00 1.94286603746288e-02
4.08375000000000e-01 1.52667988066987e+00 1.93152383047019e-02
4.09725000000000e-01 1.51525652262516e+00 1.92023734525344e-02
4.11075000000000e-01 1.50391863967622e+00 1.90900644782321e-02
4.12425000000000e-01 1.49266559225701e+00 1.89783100218918e-02
4.13775000000000e-01 1.48149674558702e+00 1.88671087041081e-02
4.15125000000000e-01 1.47041146963546e+00 1.87564591264777e-02
4.16475000000000e-01 1.45940913908577e+00 1.86463598720912e-02
4.17825000000000e-01 1.44848913330029e+00 1.85368095060162e-02
4.19175000000000e-01 1.43765083628527e+00 1.84278065757749e-02
4.20525000000000e-01 1.42689363665612e+00 1.83193496118089e-02
4.21875000000000e-01 1.41621692760295e+00 1.82114371279417e-02
4.23225000000000e-01 1.40562010685630e+00 1.81040676218278e-02
4.24575000000000e-01 1.39510257665316e+00 1.79972395753943e-02
4.25925000000000e-01 1.38466374370331e+00 1.78909514552802e-02
