Energy (eV)          EEDF (eV^-(3/2))     First Anisotropy
2.55357142857143e-02 1.33409813220534e-01 9.42338079051818e-05
7.66071428571429e-02 1.31771777570037e-01 1.55173174996908e-04
1.27678571428571e-01 1.30153854092196e-01 2.03700631570024e-04
1.78750000000000e-01 1.28555795836552e-01 2.39877584098248e-04
2.29821428571429e-01 1.26977358904880e-01 2.69484192975669e-04
2.80892857142857e-01 1.25418302373492e-01 2.94723782592777e-04
3.31964285714286e-01 1.23878388291250e-01 3.16745450485063e-04
3.83035714285714e-01 1.22357381618063e-01 3.36248354903333e-04
4.34107142857143e-01 1.20855050204691e-01 3.53699633762898e-04
4.85178571428571e-01 1.19371164755959e-01 3.69431865303562e-04
5.36250000000000e-01 1.17905498784733e-01 3.83693012963810e-04
5.87321428571429e-01 1.16457828591031e-01 3.96674571929976e-04
6.38392857142857e-01 1.15027933216067e-01 4.08528588975438e-04
6.89464285714286e-01 1.13615594418857e-01 4.19378531097017e-04
7.40535714285714e-01 1.12220596633744e-01 4.29326536121705e-04
7.91607142857143e-01 1.10842726943936e-01 4.38458424743681e-04
8.42678571428571e-01 1.09481775048660e-01 4.46847272154326e-04
8.93750000000000e-01 1.08137533225728e-01 4.54556016463808e-04
9.44821428571429e-01 1.06809796306648e-01 4.61639407115089e-04
9.95892857142857e-01 1.05498361639067e-01 4.68145487742703e-04
1.04696428571429e+00 1.04203029062791e-01 4.74116744193463e-04
1.09803571428571e+00 1.02923600869079e-01 4.79591005691173e-04
1.14910714285714e+00 1.01659881780433e-01 4.84602161693826e-04
1.20017857142857e+00 1.00411678917117e-01 4.89180740644759e-04
1.25125000000000e+00 9.91788017675951e-02 4.93354379106203e-04
1.30232142857143e+00 9.79610621689209e-02 4.97148211310072e-04
1.35339285714286e+00 9.67582742490952e-02 5.00585187934291e-04
1.40446428571429e+00 9.55702544281805e-02 5.03686342306947e-04
1.45553571428571e+00 9.43968213802606e-02 5.06471019301569e-04
1.50660714285714e+00 9.32377960057099e-02 5.08957065953864e-04
1.55767857142857e+00 9.20930014039835e-02 5.11160995064614e-04
1.60875000000000e+00 9.09622628465500e-02 5.13098124950306e-04
1.65982142857143e+00 8.98454077570011e-02 5.14782703091096e-04
1.71089285714286e+00 8.87422656640550e-02 5.16228009889744e-04
1.76196428571429e+00 8.76526681965400e-02 5.17446448951415e-04
1.81303571428571e+00 8.65764490505767e-02 5.18449629989889e-04
1.86410714285714e+00 8.55134439641616e-02 5.19248438839696e-04
1.91517857142857e+00 8.44634906921698e-02 5.19853100035922e-04
1.96625000000000e+00 8.34264289815525e-02 5.20273231685607e-04
2.01732142857143e+00 8.24021005519744e-02 5.20517896782606e-04
2.06839285714286e+00 8.13903490561438e-02 5.20595646021518e-04
2.11946428571429e+00 8.03910200716970e-02 5.20514555997091e-04
2.17053571428571e+00 7.94039610722984e-02 5.20282266713906e-04
2.22160714285714e+00 7.84290214043397e-02 5.19906012911358e-04
2.27267857142857e+00 7.74660522639924e-02 5.19392652985296e-04
2.32375000000000e+00 7.65149066744715e-02 5.18748694662805e-04
2.37482142857143e+00 7.55754394675630e-02 5.17980320426374e-04
2.42589285714286e+00 7.46475072494233e-02 5.17093408093461e-04
2.47696428571429e+00 7.37309683909071e-02 5.16093549480924e-04
2.52803571428571e+00 7.28256830018212e-02 5.14986070177312e-04
2.57910714285714e+00 7.19315129095583e-02 5.13776045547682e-04
2.63017857142857e+00 7.10483216380395e-02 5.12468315955212e-04
2.68125000000000e+00 7.01759743868682e-02 5.11067500312170e-04
2.73232142857143e+00 6.93143380139059e-02 5.09578010373188e-04
2.78339285714286e+00 6.84632810053754e-02 5.08004061721651e-04
2.83446428571429e+00 6.76226734654916e-02 5.06349683843011e-04
2.88553571428571e+00 6.67923870933573e-02 5.04618731775366e-04
2.93660714285714e+00 6.59722951633707e-02 5.02814895097856e-04
2.98767857142857e+00 6.51622725059053e-02 5.00941706735881e-04
3.03875000000000e+00 6.43621954881939e-02 4.99002550763714e-04
3.08982142857143e+00 6.35719419980113e-02 4.97000671233870e-04
3.14089285714286e+00 6.27913914172838e-02 4.94939178499472e-04
3.19196428571429e+00 6.20204246115308e-02 4.92821055052504e-04
3.24303571428571e+00 6.12589239090302e-02 4.90649162990539e-04
3.29410714285714e+00 6.05067730828512e-02 4.88426249430809e-04
3.34517857142857e+00 5.97638573331307e-02 4.86154951980166e-04
3.39625000000000e+00 5.90300632695430e-02 4.83837803530294e-04
3.44732142857143e+00 5.83052788960889e-02 4.81477238119193e-04
3.49839285714286e+00 5.75893935876397e-02 4.79075594774880e-04
3.54946428571429e+00 5.68822980794924e-02 4.76635121080041e-04
3.60053571428571e+00 5.61838844485201e-02 4.74157978276597e-04
3.65160714285714e+00 5.54940460966938e-02 4.71646244704919e-04
3.70267857142857e+00 5.48126777348243e-02 4.69101919394884e-04
3.75375000000000e+00 5.41396753664863e-02 4.66526925163608e-04
3.80482142857143e+00 5.34749362738848e-02 4.63923112730348e-04
3.85589285714286e+00 5.28183589968974e-02 4.61292263149770e-04
3.90696428571429e+00 5.21698433229316e-02 4.58636090072962e-04
3.95803571428571e+00 5.15292902698269e-02 4.55956243416826e-04
4.00910714285714e+00 5.08966020707433e-02 4.53254311640389e-04
4.06017857142857e+00 5.02716821592480e-02 4.50531824207416e-04
4.11125000000000e+00 4.96544351545721e-02 4.47790253666711e-04
4.16232142857143e+00 4.90447668485103e-02 4.45031018670199e-04
4.21339285714286e+00 4.84425841866192e-02 4.42255485559326e-04
4.26446428571429e+00 4.78477952584886e-02 4.39464969838913e-04
4.31553571428571e+00 4.72603092822047e-02 4.36660738920788e-04
4.36660714285714e+00 4.66800365904903e-02 4.33844013679357e-04
4.41767857142857e+00 4.61068886170266e-02 4.31015970200338e-04
4.46875000000000e+00 4.55407778829315e-02 4.28177741221047e-04
4.51982142857143e+00 4.49816179846381e-02 4.25330418421676e-04
4.57089285714286e+00 4.44293235769751e-02 4.22475053481059e-04
4.62196428571429e+00 4.38838103639148e-02 4.19612659055382e-04
4.67303571428571e+00 4.33449950844348e-02 4.16744210894135e-04
4.72410714285714e+00 4.28127954998072e-02 4.13870648930086e-04
4.77517857142857e+00 4.22871303810523e-02 4.10992878556637e-04
4.82625000000000e+00 4.17679194965376e-02 4.08111771649136e-04
4.87732142857143e+00 4.12550836007775e-02 4.05228168352743e-04
4.92839285714286e+00 4.07485444191684e-02 4.02342877794096e-04
4.97946428571429e+00 4.02482246392464e-02 3.99456678737940e-04
5.03053571428571e+00 3.97540478978073e-02 3.96570321259780e-04
5.08160714285714e+00 3.92659387692492e-02 3.93684527524612e-04
5.13267857142857e+00 3.87838227540644e-02 3.90799992741517e-04
5.18375000000000e+00 3.83076262674668e-02 3.87917385901687e-04
5.23482142857143e+00 3.78372766290534e-02 3.85037351204331e-04
5.28589285714286e+00 3.73727020490039e-02 3.82160508538940e-04
5.33696428571429e+00 3.69138316198603e-02 3.79287453926902e-04
5.38803571428571e+00 3.64605953047820e-02 3.76418760869993e-04
5.43910714285714e+00 3.60129239268548e-02 3.73554980915029e-04
5.49017857142857e+00 3.55707491585355e-02 3.70696644380777e-04
5.54125000000000e+00 3.51340035112217e-02 3.67844260899102e-04
5.59232142857143e+00 3.47026203257173e-02 3.64998320572316e-04
5.64339285714286e+00 3.42765337597353e-02 3.62159294299132e-04
5.69446428571429e+00 3.38556787801964e-02 3.59327634069755e-04
5.74553571428571e+00 3.34399911525118e-02 3.56503774070334e-04
5.79660714285714e+00 3.30294074307778e-02 3.53688131096833e-04
5.84767857142857e+00 3.26238649480951e-02 3.50881105117134e-04
5.89875000000000e+00 3.22233018070026e-02 3.48083079672225e-04
5.94982142857143e+00 3.18276568706900e-02 3.45294422829090e-04
6.00089285714286e+00 3.14368697516655e-02 3.42515487398176e-04
6.05196428571429e+00 3.10508808045615e-02 3.39746611127002e-04
6.10303571428571e+00 3.06696311163492e-02 3.36988117616378e-04
6.15410714285714e+00 3.02930624973461e-02 3.34240316626002e-04
6.20517857142857e+00 2.99211174723367e-02 3.31503504514719e-04
6.25625000000000e+00 2.95537392717990e-02 3.28777964540152e-04
6.30732142857143e+00 2.91908718238108e-02 3.26063967652454e-04
6.35839285714286e+00 2.88324597437609e-02 3.23361772635587e-04
6.40946428571429e+00 2.84784483276444e-02 3.20671626229665e-04
6.46053571428571e+00 2.81287835431243e-02 3.17993763899119e-04
6.51160714285714e+00 2.77834120212839e-02 3.15328410059176e-04
6.56267857142857e+00 2.74422810484829e-02 3.12675778424286e-04
6.61375000000000e+00 2.71053385583106e-02 3.10036072233003e-04
6.66482142857143e+00 2.67725331241351e-02 3.07409484915474e-04
6.71589285714286e+00 2.64438139497518e-02 3.04796200180687e-04
6.76696428571429e+00 2.61191308631480e-02 3.02196392088417e-04
6.81803571428571e+00 2.57984343083344e-02 2.99610225698819e-04
6.86910714285714e+00 2.54816753377801e-02 2.97037857240385e-04
6.92017857142857e+00 2.51688056049438e-02 2.94479434388017e-04
6.97125000000000e+00 2.48597773568938e-02 2.91935096432102e-04
7.02232142857143e+00 2.45545434274508e-02 2.89404974844311e-04
7.07339285714286e+00 2.42530572286822e-02 2.86889193326278e-04
7.12446428571429e+00 2.39552727451115e-02 2.84387867845732e-04
7.17553571428571e+00 2.36611445262503e-02 2.81901107189777e-04
7.22660714285714e+00 2.33706276796612e-02 2.79429013089041e-04
7.27767857142857e+00 2.30836778641064e-02 2.76971680441153e-04
7.32875000000000e+00 2.28002512827799e-02 2.74529197437688e-04
7.37982142857143e+00 2.25203046769990e-02 2.72101646046937e-04
7.43089285714286e+00 2.22437953184614e-02 2.69689102034977e-04
7.48196428571429e+00 2.19706810038755e-02 2.67291634976392e-04
7.53303571428571e+00 2.17009200481312e-02 2.64909308728367e-04
7.58410714285714e+00 2.14344712779370e-02 2.62542181521701e-04
7.63517857142857e+00 2.11712940255366e-02 2.60190306141424e-04
7.68625000000000e+00 2.09113481225018e-02 2.57853730021656e-04
7.73732142857143e+00 2.06545938939300e-02 2.55532495659793e-04
7.78839285714286e+00 2.04009921513924e-02 2.53226640617917e-04
7.83946428571429e+00 2.01505041879592e-02 2.50936197515526e-04
7.89053571428571e+00 1.99030917719529e-02 2.48661194437822e-04
7.94160714285714e+00 1.96587171411127e-02 2.46401655001541e-04
7.99267857142857e+00 1.94173429968318e-02 2.44157598501550e-04
8.04375000000000e+00 1.91789324984638e-02 2.41929039981048e-04
8.09482142857143e+00 1.89434492579886e-02 2.39715990588658e-04
8.14589285714286e+00 1.87108573335845e-02 2.37518457565880e-04
8.19696428571429e+00 1.84811212250249e-02 2.35336444227183e-04
8.24803571428571e+00 1.82542058679630e-02 2.33169950313185e-04
8.29910714285714e+00 1.80300766285794e-02 2.31018972037209e-04
8.35017857142857e+00 1.78086992982970e-02 2.28883502204649e-04
8.40125000000000e+00 1.75900400885591e-02 2.26763530264176e-04
8.45232142857143e+00 1.73740656259260e-02 2.24659042616798e-04
8.50339285714286e+00 1.71607429462132e-02 2.22570022593567e-04
8.55446428571429e+00 1.69500394902360e-02 2.20496450427022e-04
8.60553571428571e+00 1.67419230985783e-02 2.18438303557801e-04
8.65660714285714e+00 1.65363620066843e-02 2.16395556666389e-04
8.70767857142857e+00 1.63333248400109e-02 2.14368181770552e-04
8.75875000000000e+00 1.61327806092385e-02 2.12356148261828e-04
8.80982142857143e+00 1.59346987057642e-02 2.10359423173935e-04
8.86089285714286e+00 1.57390488963551e-02 2.08377971153823e-04
8.91196428571429e+00 1.55458013192151e-02 2.06411754427368e-04
8.96303571428571e+00 1.53549264791979e-02 2.04460733066383e-04
9.01410714285714e+00 1.51663952433053e-02 2.02524865009025e-04
9.06517857142857e+00 1.49801788362403e-02 2.00604106139404e-04
9.11625000000000e+00 1.47962488360159e-02 1.98698410312635e-04
9.16732142857143e+00 1.46145771698127e-02 1.96807729588648e-04
9.21839285714286e+00 1.44351361090997e-02 1.94932014198878e-04
9.26946428571429e+00 1.42578982660028e-02 1.93071212508350e-04
9.32053571428571e+00 1.40828365889222e-02 1.91225271248834e-04
9.37160714285714e+00 1.39099243584036e-02 1.89394135530528e-04
9.42267857142857e+00 1.37391351830602e-02 1.87577748907134e-04
9.47375000000000e+00 1.35704429955447e-02 1.85776053392036e-04
9.52482142857143e+00 1.34038220487438e-02 1.83988989662480e-04
9.57589285714286e+00 1.32392469113235e-02 1.82216497023603e-04
9.62696428571429e+00 1.30766924643776e-02 1.80458513368480e-04
9.67803571428571e+00 1.29161338974155e-02 1.78714975382199e-04
9.72910714285714e+00 1.27575467045751e-02 1.76985818546854e-04
9.78017857142857e+00 1.26009066808831e-02 1.75270977194728e-04
9.83125000000000e+00 1.24461899185600e-02 1.73570384517569e-04
9.88232142857143e+00 1.22933728035249e-02 1.71883972745301e-04
9.93339285714286e+00 1.21424320113268e-02 1.70211673108633e-04
9.98446428571429e+00 1.19933445040531e-02 1.68553415798249e-04
1.00355357142857e+01 1.18460875266562e-02 1.66909130024222e-04
1.00866071428571e+01 1.17006386039064e-02 1.65278744653884e-04
1.01376785714286e+01 1.15569755346864e-02 1.63662187060058e-04
1.01887500000000e+01 1.14150763933014e-02 1.62059383714403e-04
1.02398214285714e+01 1.12749195218340e-02 1.60470261173310e-04
1.02908928571429e+01 1.11364835282879e-02 1.58894745252291e-04
1.03419642857143e+01 1.09997472820178e-02 1.57332760358314e-04
1.03930357142857e+01 1.08646899144642e-02 1.55784230282363e-04
1.04441071428571e+01 1.07312908119619e-02 1.54249079358447e-04
1.04951785714286e+01 1.05995296127055e-02 1.52727230260912e-04
1.05462500000000e+01 1.04693862074052e-02 1.51218605153984e-04
1.05973214285714e+01 1.03408407324101e-02 1.49723126460804e-04
1.06483928571429e+01 1.02138735679600e-02 1.48240716116000e-04
1.06994642857143e+01 1.00884653340337e-02 1.46771294960001e-04
1.07505357142857e+01 9.96459689090165e-03 1.45314783450201e-04
1.08016071428571e+01 9.84224933265311e-03 1.43871102702886e-04
1.08526785714286e+01 9.72140398440934e-03 1.42440172503790e-04
1.09037500000000e+01 9.60204240281063e-03 1.41021912341440e-04
1.09548214285714e+01 9.48414636982513e-03 1.39616242097731e-04
1.10058928571429e+01 9.36769789110648e-03 1.38223081371047e-04
1.10569642857143e+01 9.25267919222003e-03 1.36842348926721e-04
1.11080357142857e+01 9.13907271904572e-03 1.35473963335686e-04
1.11591071428571e+01 9.02686113194726e-03 1.34117843911816e-04
1.12101785714286e+01 8.91602730321240e-03 1.32773908914243e-04
1.12612500000000e+01 8.80655431740177e-03 1.31442076476938e-04
1.13123214285714e+01 8.69842546577004e-03 1.30122265229291e-04
1.13633928571429e+01 8.59162424472589e-03 1.28814393682939e-04
1.14144642857143e+01 8.48613435240049e-03 1.27518379733072e-04
1.14655357142857e+01 8.38193968892722e-03 1.26234141232371e-04
1.15166071428571e+01 8.27902435118496e-03 1.24961596834855e-04
1.15676785714286e+01 8.17737263044726e-03 1.23700664370751e-04
1.16187500000000e+01 8.07696901261810e-03 1.22451261683267e-04
1.16698214285714e+01 7.97779817320058e-03 1.21213307186681e-04
1.17208928571429e+01 7.87984497585572e-03 1.19986719310690e-04
1.17719642857143e+01 7.78309446928055e-03 1.18771416047775e-04
1.18230357142857e+01 7.68753188738742e-03 1.17567315469360e-04
1.18741071428571e+01 7.59314264456118e-03 1.16374336485925e-04
1.19251785714286e+01 7.49991233350039e-03 1.15192397377256e-04
1.19762500000000e+01 7.40782672536097e-03 1.14021416546160e-04
1.20273214285714e+01 7.31687176521537e-03 1.12861313020643e-04
1.20783928571429e+01 7.22703357070586e-03 1.11712005950259e-04
1.21294642857143e+01 7.13829842920320e-03 1.10573414195195e-04
1.21805357142857e+01 7.05065279790439e-03 1.09445456790738e-04
1.22316071428571e+01 6.96408329955044e-03 1.08328053632371e-04
1.22826785714286e+01 6.87857672044415e-03 1.07221124146020e-04
1.23337500000000e+01 6.79412001051907e-03 1.06124587967312e-04
1.23848214285714e+01 6.71070027923858e-03 1.05038365393754e-04
1.24358928571429e+01 6.62830479433914e-03 1.03962376928059e-04
1.24869642857143e+01 6.54692097924342e-03 1.02896542905011e-04
1.25380357142857e+01 6.46653641309223e-03 1.01840783909690e-04
1.25891071428571e+01 6.38713882687554e-03 1.00795021395259e-04
1.26401785714286e+01 6.30871610161253e-03 9.97591764794275e-05
1.26912500000000e+01 6.23125626836060e-03 9.87331705569362e-05
1.27423214285714e+01 6.15474750450916e-03 9.77169257069237e-05
1.27933928571429e+01 6.07917813260847e-03 9.67103642787298e-05
1.28444642857143e+01 6.00453661801347e-03 9.57134085530146e-05
1.28955357142857e+01 5.93081156886315e-03 9.47259811185273e-05
1.29466071428571e+01 5.85799173258272e-03 9.37480054294885e-05
1.29976785714286e+01 5.78606599421274e-03 9.27794047158834e-05
1.30487500000000e+01 5.71502337637041e-03 9.18201025360079e-05
1.30998214285714e+01 5.64485303589805e-03 9.08700231436644e-05
1.31508928571429e+01 5.57554426277287e-03 8.99290911123866e-05
1.32019642857143e+01 5.50708647796024e-03 8.89972310275825e-05
1.32530357142857e+01 5.43946923335144e-03 8.80743678261510e-05
1.33041071428571e+01 5.37268220859959e-03 8.71604272995777e-05
1.33551785714286e+01 5.30671520958569e-03 8.62553351069600e-05
1.34062500000000e+01 5.24155816834233e-03 8.53590172737213e-05
1.34573214285714e+01 5.17720114002124e-03 8.44714005227356e-05
1.35083928571429e+01 5.11363430187936e-03 8.35924119333281e-05
1.35594642857143e+01 5.05084795132234e-03 8.27219786615486e-05
1.36105357142857e+01 4.98883250580988e-03 8.18600282464254e-05
1.36616071428571e+01 4.92757849999183e-03 8.10064890642712e-05
1.37126785714286e+01 4.86707658430016e-03 8.01612894344565e-05
1.37637500000000e+01 4.80731752484352e-03 7.93243580697336e-05
1.38148214285714e+01 4.74829220066191e-03 7.84956243749745e-05
1.38658928571429e+01 4.68999160278463e-03 7.76750181376259e-05
1.39169642857143e+01 4.63240683244667e-03 7.68624692735035e-05
1.39680357142857e+01 4.57552910096913e-03 7.60579081030881e-05
1.40191071428571e+01 4.51934972716578e-03 7.52612657619279e-05
1.40701785714286e+01 4.46386013605060e-03 7.44724733901989e-05
1.41212500000000e+01 4.40905185871018e-03 7.36914625394913e-05
1.41723214285714e+01 4.35491652981715e-03 7.29181654424378e-05
1.42233928571429e+01 4.30144588675561e-03 7.21525147316692e-05
1.42744642857143e+01 4.24863176799466e-03 7.13944432087322e-05
1.43255357142857e+01 4.19646611295021e-03 7.06438840934696e-05
1.43766071428571e+01 4.14494095963529e-03 6.99007713949110e-05
1.44276785714286e+01 4.09404844347374e-03 6.91650391765344e-05
1.44787500000000e+01 4.04378079715631e-03 6.84366219238761e-05
1.45298214285714e+01 3.99413034838731e-03 6.77154547879821e-05
1.45808928571429e+01 3.94508951907332e-03 6.70014733301669e-05
1.46319642857143e+01 3.89665082383962e-03 6.62946133119209e-05
1.46830357142857e+01 3.84880686987864e-03 6.55948109200737e-05
1.47341071428571e+01 3.80155035482005e-03 6.49020031020993e-05
1.47851785714286e+01 3.75487406564203e-03 6.42161268998270e-05
1.48362500000000e+01 3.70877087851570e-03 6.35371197817571e-05
1.48873214285714e+01 3.66323375676234e-03 6.28649198629621e-05
1.49383928571429e+01 3.61825575010124e-03 6.21994656732250e-05
1.49894642857143e+01 3.57382999329616e-03 6.15406959659897e-05
1.50405357142857e+01 3.52994970599468e-03 6.08885499217366e-05
1.50916071428571e+01 3.48660819079670e-03 6.02429674512186e-05
1.51426785714286e+01 3.44379883225522e-03 5.96038885910778e-05
1.51937500000000e+01 3.40151509671317e-03 5.89712538043548e-05
1.52448214285714e+01 3.35975053045063e-03 5.83450041791971e-05
1.52958928571429e+01 3.31849875898797e-03 5.77250812181778e-05
1.53469642857143e+01 3.27775348585075e-03 5.71114266645316e-05
1.53980357142857e+01 3.23750849240328e-03 5.65039826859164e-05
1.54491071428571e+01 3.19775763609651e-03 5.59026921487323e-05
1.55001785714286e+01 3.15849484955087e-03 5.53074980697493e-05
1.55512500000000e+01 3.11971414038878e-03 5.47183438879482e-05
1.56023214285714e+01 3.08140958955344e-03 5.41351736441265e-05
1.56533928571429e+01 3.04357535066366e-03 5.35579317894279e-05
1.57044642857143e+01 3.00620564888649e-03 5.29865630272718e-05
1.57555357142857e+01 2.96929478076800e-03 5.24210124794436e-05
1.58066071428571e+01 2.93283711264308e-03 5.18612259343287e-05
1.58576785714286e+01 2.89682707979386e-03 5.13071493492352e-05
1.59087500000000e+01 2.86125918628027e-03 5.07587290963803e-05
1.59598214285714e+01 2.82612800341410e-03 5.02159121252807e-05
1.60108928571429e+01 2.79142816916188e-03 4.96786457887015e-05
1.60619642857143e+01 2.75715438711571e-03 4.91468776988330e-05
1.61130357142857e+01 2.72330142632347e-03 4.86205558774559e-05
