Energy (eV)          EEDF (eV^-(3/2))     First Anisotropy
1.78571428571429e-02 1.62947402707546e-01 1.02923051048077e-04
5.35714285714286e-02 1.61348121118329e-01 1.69691650609744e-04
8.92857142857143e-02 1.59764536014959e-01 2.23315076699106e-04
1.25000000000000e-01 1.58196493342160e-01 2.63631425079764e-04
1.60714285714286e-01 1.56643840550728e-01 2.96908512558292e-04
1.96428571428571e-01 1.55106426594593e-01 3.25526521204407e-04
2.32142857142857e-01 1.53584101917492e-01 3.50722333262250e-04
2.67857142857143e-01 1.52076718414647e-01 3.73245900058236e-04
3.03571428571429e-01 1.50584129442915e-01 3.93596591945935e-04
3.39285714285714e-01 1.49106189803313e-01 4.12128751552308e-04
3.75000000000000e-01 1.47642755712198e-01 4.29105709762321e-04
4.10714285714286e-01 1.46193684801973e-01 4.44730183992701e-04
4.46428571428571e-01 1.44758836102321e-01 4.59162635504866e-04
4.82142857142857e-01 1.43338070029645e-01 4.72532976365757e-04
5.17857142857143e-01 1.41931248363890e-01 4.84948367465071e-04
5.53571428571428e-01 1.40538234244783e-01 4.96498601993028e-04
5.89285714285714e-01 1.39158892157774e-01 5.07259936965449e-04
6.25000000000000e-01 1.37793087913403e-01 5.17297887072722e-04
6.60714285714286e-01 1.36440688641721e-01 5.26669308170271e-04
6.96428571428571e-01 1.35101562776856e-01 5.35423981589016e-04
7.32142857142857e-01 1.33775580046097e-01 5.43605838463068e-04
7.67857142857143e-01 1.32462611451508e-01 5.51253919325956e-04
8.03571428571428e-01 1.31162529263130e-01 5.58403136446878e-04
8.39285714285714e-01 1.29875207006227e-01 5.65084888421526e-04
8.75000000000000e-01 1.28600519444200e-01 5.71327558317923e-04
9.10714285714286e-01 1.27338342571205e-01 5.77156922614126e-04
9.46428571428571e-01 1.26088553598479e-01 5.82596490480670e-04
9.82142857142857e-01 1.24851030943688e-01 5.87667786989897e-04
1.01785714285714e+00 1.23625654215179e-01 5.92390591350193e-04
1.05357142857143e+00 1.22412304199463e-01 5.96783135551429e-04
1.08928571428571e+00 1.21210862869563e-01 6.00862280803853e-04
1.12500000000000e+00 1.20021213333886e-01 6.04643661733428e-04
1.16071428571429e+00 1.18843239869990e-01 6.08141813775927e-04
1.19642857142857e+00 1.17676827870385e-01 6.11370283647473e-04
1.23214285714286e+00 1.16521863872290e-01 6.14341724692066e-04
1.26785714285714e+00 1.15378235507571e-01 6.17067982244750e-04
1.30357142857143e+00 1.14245831520401e-01 6.19560162163167e-04
1.33928571428571e+00 1.13124541755555e-01 6.21828703023463e-04
1.37500000000000e+00 1.12014257121644e-01 6.23883428894459e-04
1.41071428571429e+00 1.10914869614568e-01 6.25733601279401e-04
1.44642857142857e+00 1.09826272274355e-01 6.27387964965530e-04
1.48214285714286e+00 1.08748359206081e-01 6.28854788375475e-04
1.51785714285714e+00 1.07681025539491e-01 6.30141901379008e-04
1.55357142857143e+00 1.06624167440915e-01 6.31256723827977e-04
1.58928571428571e+00 1.05577682102542e-01 6.32206301381543e-04
1.62500000000000e+00 1.04541467712068e-01 6.32997328287982e-04
1.66071428571429e+00 1.03515423469472e-01 6.33636172453400e-04
1.69642857142857e+00 1.02499449551508e-01 6.34128897786343e-04
1.73214285714286e+00 1.01493447126774e-01 6.34481284030471e-04
1.76785714285714e+00 1.00497318322188e-01 6.34698846232517e-04
1.80357142857143e+00 9.95109662310982e-02 6.34786847827219e-04
1.83928571428571e+00 9.85342949033869e-02 6.34750321389086e-04
1.87500000000000e+00 9.75672093198059e-02 6.34594079297138e-04
1.91071428571429e+00 9.66096154041884e-02 6.34322727427393e-04
1.94642857142857e+00 9.56614199935494e-02 6.33940677360344e-04
1.98214285714286e+00 9.47225308490952e-02 6.33452157223036e-04
2.01785714285714e+00 9.37928566278201e-02 6.32861222883415e-04
2.05357142857143e+00 9.28723068879768e-02 6.32171764201620e-04
2.08928571428571e+00 9.19607920799152e-02 6.31387518503390e-04
2.12500000000000e+00 9.10582235240038e-02 6.30512075715068e-04
2.16071428571429e+00 9.01645134195926e-02 6.29548886572939e-04
2.19642857142857e+00 8.92795748194138e-02 6.28501269887520e-04
2.23214285714286e+00 8.84033216376716e-02 6.27372418960135e-04
2.26785714285714e+00 8.75356686256066e-02 6.26165408588545e-04
2.30357142857143e+00 8.66765313750880e-02 6.24883197999930e-04
2.33928571428571e+00 8.58258263101135e-02 6.23528640369455e-04
2.37500000000000e+00 8.49834706675693e-02 6.22104485209533e-04
2.41071428571429e+00 8.41493825038163e-02 6.20613383662632e-04
2.44642857142857e+00 8.33234806724914e-02 6.19057893119922e-04
2.48214285714286e+00 8.25056848304454e-02 6.17440481258524e-04
2.51785714285714e+00 8.16959154164745e-02 6.15763530727573e-04
2.55357142857143e+00 8.08940936535472e-02 6.14029340363414e-04
2.58928571428571e+00 8.01001415409069e-02 6.12240132346039e-04
2.62500000000000e+00 7.93139818371382e-02 6.10398053143918e-04
2.66071428571429e+00 7.85355380649782e-02 6.08505177130089e-04
2.69642857142857e+00 7.77647344918751e-02 6.06563509677295e-04
2.73214285714286e+00 7.70014961343094e-02 6.04574989824049e-04
2.76785714285714e+00 7.62457487391122e-02 6.02541493580540e-04
2.80357142857143e+00 7.54974187846868e-02 6.00464834217358e-04
2.83928571428571e+00 7.47564334736631e-02 5.98346767897787e-04
2.87500000000000e+00 7.40227207178778e-02 5.96188993835119e-04
2.91071428571429e+00 7.32962091418393e-02 5.93993156881644e-04
2.94642857142857e+00 7.25768280655665e-02 5.91760849692993e-04
2.98214285714286e+00 7.18645075076788e-02 5.89493614558695e-04
3.01785714285714e+00 7.11591781688653e-02 5.87192945836765e-04
3.05357142857143e+00 7.04607714323601e-02 5.84860289732667e-04
3.08928571428571e+00 6.97692193571062e-02 5.82497048883910e-04
3.12500000000000e+00 6.90844546643471e-02 5.80104582081347e-04
3.16071428571429e+00 6.84064107400623e-02 5.77684206195004e-04
3.19642857142857e+00 6.77350216197188e-02 5.75237197741370e-04
3.23214285714286e+00 6.70702219904159e-02 5.72764794180964e-04
3.26785714285714e+00 6.64119471761688e-02 5.70268195774745e-04
3.30357142857143e+00 6.57601331378281e-02 5.67748565083515e-04
3.33928571428571e+00 6.51147164667142e-02 5.65207030794188e-04
3.37500000000000e+00 6.44756343725870e-02 5.62644687201911e-04
3.41071428571429e+00 6.38428246852848e-02 5.60062595688211e-04
3.44642857142857e+00 6.32162258411039e-02 5.57461785889156e-04
3.48214285714286e+00 6.25957768842117e-02 5.54843256639615e-04
3.51785714285714e+00 6.19814174534795e-02 5.52207977429623e-04
3.55357142857143e+00 6.13730877819895e-02 5.49556887756262e-04
3.58928571428571e+00 6.07707286911044e-02 5.46890900377320e-04
3.62500000000000e+00 6.01742815796269e-02 5.44210900668044e-04
3.66071428571429e+00 5.95836884248216e-02 5.41517747785402e-04
3.69642857142857e+00 5.89988917701935e-02 5.38812275560139e-04
3.73214285714286e+00 5.84198347263328e-02 5.36095293198997e-04
3.76785714285714e+00 5.78464609590846e-02 5.33367586454193e-04
3.80357142857143e+00 5.72787146887498e-02 5.30629916905329e-04
3.83928571428571e+00 5.67165406845605e-02 5.27883024765606e-04
3.87500000000000e+00 5.61598842548752e-02 5.25127628180871e-04
3.91071428571429e+00 5.56086912477211e-02 5.22364424166433e-04
3.94642857142857e+00 5.50629080397858e-02 5.19594089302177e-04
3.98214285714286e+00 5.45224815368212e-02 5.16817280264523e-04
4.01785714285714e+00 5.39873591629744e-02 5.14034634783563e-04
4.05357142857143e+00 5.34574888597672e-02 5.11246770901268e-04
4.08928571428571e+00 5.29328190809466e-02 5.08454289418574e-04
4.12500000000000e+00 5.24132987835906e-02 5.05657773177075e-04
4.16071428571429e+00 5.18988774282771e-02 5.02857787826376e-04
4.19642857142857e+00 5.13895049691368e-02 5.00054882375192e-04
4.23214285714286e+00 5.08851318539133e-02 4.97249589600402e-04
4.26785714285714e+00 5.03857090143129e-02 4.94442426842951e-04
4.30357142857143e+00 4.98911878648254e-02 4.91633895270166e-04
4.33928571428571e+00 4.94015202979234e-02 4.88824482027945e-04
4.37500000000000e+00 4.89166586759730e-02 4.86014659529574e-04
4.41071428571429e+00 4.84365558311136e-02 4.83204886093565e-04
4.44642857142857e+00 4.79611650562436e-02 4.80395606386991e-04
4.48214285714286e+00 4.74904401048155e-02 4.77587251744206e-04
4.51785714285714e+00 4.70243351820826e-02 4.74780240837329e-04
4.55357142857143e+00 4.65628049438112e-02 4.71974978959144e-04
4.58928571428571e+00 4.61058044918045e-02 4.69171859928827e-04
4.62500000000000e+00 4.56532893665287e-02 4.66371265402364e-04
4.66071428571429e+00 4.52052155467693e-02 4.63573565409467e-04
4.69642857142857e+00 4.47615394414428e-02 4.60779118714590e-04
4.73214285714286e+00 4.43222178891878e-02 4.57988273067983e-04
4.76785714285714e+00 4.38872081504068e-02 4.55201365776690e-04
4.80357142857143e+00 4.34564679059080e-02 4.52418723017518e-04
4.83928571428571e+00 4.30299552527314e-02 4.49640661533920e-04
4.87500000000000e+00 4.26076286974136e-02 4.46867487976315e-04
4.91071428571429e+00 4.21894471554736e-02 4.44099499358670e-04
4.94642857142857e+00 4.17753699439589e-02 4.41336983355744e-04
4.98214285714286e+00 4.13653567808808e-02 4.38580218502560e-04
5.01785714285714e+00 4.09593677779654e-02 4.35829474685202e-04
5.05357142857143e+00 4.05573634392535e-02 4.33085012489062e-04
5.08928571428571e+00 4.01593046572093e-02 4.30347084716333e-04
5.12500000000000e+00 3.97651527065569e-02 4.27615935760814e-04
5.16071428571429e+00 3.93748692436385e-02 4.24891801999651e-04
5.19642857142857e+00 3.89884162996156e-02 4.22174912040277e-04
5.23214285714286e+00 3.86057562797881e-02 4.19465486880063e-04
5.26785714285714e+00 3.82268519569787e-02 4.16763740331436e-04
5.30357142857143e+00 3.78516664701155e-02 4.14069878407779e-04
5.33928571428571e+00 3.74801633206024e-02 4.11384100685554e-04
5.37500000000000e+00 3.71123063666711e-02 4.08706599715516e-04
5.41071428571429e+00 3.67480598226448e-02 4.06037561361311e-04
5.44642857142857e+00 3.63873882527271e-02 4.03377165006260e-04
5.48214285714286e+00 3.60302565702353e-02 4.00725583682010e-04
5.51785714285714e+00 3.56766300315542e-02 3.98082984439079e-04
5.55357142857143e+00 3.53264742347180e-02 3.95449527770948e-04
5.58928571428571e+00 3.49797551160258e-02 3.92825368840589e-04
5.62500000000000e+00 3.46364389448590e-02 3.90210656928483e-04
5.66071428571429e+00 3.42964923228765e-02 3.87605535727161e-04
5.69642857142857e+00 3.39598821783323e-02 3.85010143515512e-04
5.73214285714286e+00 3.36265757652492e-02 3.82424613262904e-04
5.76785714285714e+00 3.32965406578837e-02 3.79849072954066e-04
5.80357142857143e+00 3.29697447493225e-02 3.77283645050869e-04
5.83928571428571e+00 3.26461562483258e-02 3.74728447599602e-04
5.87500000000000e+00 3.23257436745650e-02 3.72183593715171e-04
5.91071428571429e+00 3.20084758577734e-02 3.69649191838745e-04
5.94642857142857e+00 3.16943219325387e-02 3.67125345885616e-04
5.98214285714286e+00 3.13832513374382e-02 3.64612155329702e-04
6.01785714285714e+00 3.10752338099641e-02 3.62109715489752e-04
6.05357142857143e+00 3.07702393851465e-02 3.59618117027644e-04
6.08928571428571e+00 3.04682383926076e-02 3.57137446950263e-04
6.12500000000000e+00 3.01692014521826e-02 3.54667788128682e-04
6.16071428571429e+00 2.98730994730409e-02 3.52209219524532e-04
6.19642857142857e+00 2.95799036489101e-02 3.49761816316095e-04
6.23214285714286e+00 2.92895854571870e-02 3.47325649967142e-04
6.26785714285714e+00 2.90021166542812e-02 3.44900788480006e-04
6.30357142857143e+00 2.87174692742708e-02 3.42487295928796e-04
6.33928571428571e+00 2.84356156261545e-02 3.40085233367709e-04
6.37500000000000e+00 2.81565282898202e-02 3.37694658383588e-04
6.41071428571429e+00 2.78801801151514e-02 3.35315625295667e-04
6.44642857142857e+00 2.76065442176417e-02 3.32948185263542e-04
6.48214285714286e+00 2.73355939774946e-02 3.30592386343313e-04
6.51785714285714e+00 2.70673030353468e-02 3.28248273712240e-04
6.55357142857143e+00 2.68016452909621e-02 3.25915889235015e-04
6.58928571428571e+00 2.65385949006685e-02 3.23595272288553e-04
6.62500000000000e+00 2.62781262736434e-02 3.21286459346248e-04
6.66071428571429e+00 2.60202140710165e-02 3.18989484154880e-04
6.69642857142857e+00 2.57648332018380e-02 3.16704377827359e-04
6.73214285714286e+00 2.55119588221793e-02 3.14431168888529e-04
6.76785714285714e+00 2.52615663311995e-02 3.12169883475239e-04
6.80357142857143e+00 2.50136313698830e-02 3.09920544933758e-04
6.83928571428571e+00 2.47681298186489e-02 3.07683174569874e-04
6.87500000000000e+00 2.45250377939246e-02 3.05457791262916e-04
6.91071428571429e+00 2.42843316472546e-02 3.03244411622885e-04
6.94642857142857e+00 2.40459879615909e-02 3.01043050070475e-04
6.98214285714286e+00 2.38099835504010e-02 2.98853718874437e-04
7.01785714285714e+00 2.35762954540487e-02 2.96676428330141e-04
7.05357142857143e+00 2.33449009385774e-02 2.94511186386215e-04
7.08928571428571e+00 2.31157774934798e-02 2.92357999327622e-04
7.12500000000000e+00 2.28889028285362e-02 2.90216871417582e-04
7.16071428571429e+00 2.26642548729354e-02 2.88087805037570e-04
7.19642857142857e+00 2.24418117718583e-02 2.85970800756475e-04
7.23214285714286e+00 2.22215518856011e-02 2.83865857361028e-04
7.26785714285714e+00 2.20034537862409e-02 2.81772972015629e-04
7.30357142857143e+00 2.17874962564677e-02 2.79692139916213e-04
7.33928571428571e+00 2.15736582875039e-02 2.77623354913027e-04
7.37500000000000e+00 2.13619190761839e-02 2.75566609178680e-04
7.41071428571429e+00 2.11522580240928e-02 2.73521893333082e-04
7.44642857142857e+00 2.09446547344189e-02 2.71489196503433e-04
7.48214285714286e+00 2.07390890110946e-02 2.69468506348894e-04
7.51785714285714e+00 2.05355408557241e-02 2.67459809203934e-04
7.55357142857143e+00 2.03339904664646e-02 2.65463089757616e-04
7.58928571428571e+00 2.01344182360842e-02 2.63478331621967e-04
7.62500000000000e+00 1.99368047492649e-02 2.61505517024337e-04
7.66071428571429e+00 1.97411307817618e-02 2.59544626919200e-04
7.69642857142857e+00 1.95473772975009e-02 2.57595641040243e-04
7.73214285714286e+00 1.93555254477436e-02 2.55658537920308e-04
7.76785714285714e+00 1.91655565682519e-02 2.53733295020194e-04
7.80357142857143e+00 1.89774521782202e-02 2.51819888431555e-04
7.83928571428571e+00 1.87911939784629e-02 2.49918293396158e-04
7.87500000000000e+00 1.86067638489207e-02 2.48028484020791e-04
7.91071428571429e+00 1.84241438478451e-02 2.46150433377511e-04
7.94642857142857e+00 1.82433162091204e-02 2.44284113549015e-04
7.98214285714286e+00 1.80642633414533e-02 2.42429495644589e-04
8.01785714285714e+00 1.78869678257577e-02 2.40586549916033e-04
8.05357142857143e+00 1.77114124141347e-02 2.38755245482530e-04
8.08928571428571e+00 1.75375800281824e-02 2.36935550805381e-04
8.12500000000000e+00 1.73654537566892e-02 2.35127433423963e-04
8.16071428571428e+00 1.71950168548449e-02 2.33330860045685e-04
8.19642857142857e+00 1.70262527417683e-02 2.31545796585545e-04
8.23214285714286e+00 1.68591449997251e-02 2.29772208178852e-04
8.26785714285714e+00 1.66936773717120e-02 2.28010059285671e-04
8.30357142857143e+00 1.65298337604866e-02 2.26259313436065e-04
8.33928571428571e+00 1.63675982269895e-02 2.24519933664484e-04
8.37500000000000e+00 1.62069549882100e-02 2.22791882265177e-04
8.41071428571428e+00 1.60478884164261e-02 2.21075120873134e-04
8.44642857142857e+00 1.58903830369200e-02 2.19369610498596e-04
8.48214285714286e+00 1.57344235272255e-02 2.17675311536989e-04
8.51785714285714e+00 1.55799947148957e-02 2.15992183863265e-04
8.55357142857143e+00 1.54270815765809e-02 2.14320186595995e-04
8.58928571428571e+00 1.52756692365564e-02 2.12659278495090e-04
8.62500000000000e+00 1.51257429647462e-02 2.11009417735301e-04
8.66071428571428e+00 1.49772881759928e-02 2.09370561979104e-04
8.69642857142857e+00 1.48302904279461e-02 2.07742668406840e-04
8.73214285714286e+00 1.46847354203399e-02 2.06125693724405e-04
8.76785714285714e+00 1.45406089929296e-02 2.04519594248456e-04
8.80357142857143e+00 1.43978971246156e-02 2.02924325688002e-04
8.83928571428571e+00 1.42565859320703e-02 2.01339843508821e-04
8.87500000000000e+00 1.41166616679077e-02 1.99766102723713e-04
8.91071428571428e+00 1.39781107199830e-02 1.98203057958190e-04
8.94642857142857e+00 1.38409196094407e-02 1.96650663476808e-04
8.98214285714286e+00 1.37050749900219e-02 1.95108873188998e-04
9.01785714285714e+00 1.35705636461562e-02 1.93577640726132e-04
9.05357142857143e+00 1.34373724921314e-02 1.92056919239272e-04
9.08928571428571e+00 1.33054885708120e-02 1.90546661733315e-04
9.12500000000000e+00 1.31748990519434e-02 1.89046820872693e-04
9.16071428571428e+00 1.30455912314815e-02 1.87557349040697e-04
9.19642857142857e+00 1.29175525297877e-02 1.86078198362507e-04
9.23214285714286e+00 1.27907704909658e-02 1.84609320709401e-04
9.26785714285714e+00 1.26652327810978e-02 1.83150667768584e-04
9.30357142857143e+00 1.25409271874562e-02 1.81702190855908e-04
9.33928571428571e+00 1.24178416173094e-02 1.80263841222366e-04
9.37500000000000e+00 1.22959640963490e-02 1.78835569874169e-04
9.41071428571428e+00 1.21752827680503e-02 1.77417327626330e-04
9.44642857142857e+00 1.20557858920016e-02 1.76009065122798e-04
9.48214285714286e+00 1.19374618432717e-02 1.74610732839372e-04
9.51785714285714e+00 1.18202991107764e-02 1.73222281146996e-04
9.55357142857143e+00 1.17042862965342e-02 1.71843660138321e-04
9.58928571428571e+00 1.15894121145505e-02 1.70474819909006e-04
9.62500000000000e+00 1.14756653893604e-02 1.69115710391084e-04
9.66071428571428e+00 1.13630350554185e-02 1.67766281401393e-04
9.69642857142857e+00 1.12515101555523e-02 1.66426482659228e-04
9.73214285714286e+00 1.11410798403599e-02 1.65096263788141e-04
9.76785714285714e+00 1.10317333666972e-02 1.63775574373353e-04
9.80357142857143e+00 1.09234600969744e-02 1.62464363801133e-04
9.83928571428571e+00 1.08162494981147e-02 1.61162581517113e-04
9.87500000000000e+00 1.07100911402031e-02 1.59870176871950e-04
9.91071428571428e+00 1.06049746959056e-02 1.58587099165141e-04
9.94642857142857e+00 1.05008899390363e-02 1.57313297660446e-04
9.98214285714286e+00 1.03978267439852e-02 1.56048721586821e-04
1.00178571428571e+01 1.02957750843165e-02 1.54793320227923e-04
1.00535714285714e+01 1.01947250320044e-02 1.53547042734241e-04
1.00892857142857e+01 1.00946667565664e-02 1.52309838249365e-04
1.01250000000000e+01 9.99559052400332e-03 1.51081655594961e-04
1.01607142857143e+01 9.89748669680823e-03 1.49862444326584e-04
1.01964285714286e+01 9.80034573013952e-03 1.48652154012264e-04
1.02321428571429e+01 9.70415817380346e-03 1.47450733496806e-04
1.02678571428571e+01 9.60891467035718e-03 1.46258132026510e-04
1.03035714285714e+01 9.51460595419767e-03 1.45074298879750e-04
1.03392857142857e+01 9.42122285066174e-03 1.43899183373181e-04
1.03750000000000e+01 9.32875627513277e-03 1.42732734536121e-04
1.04107142857143e+01 9.23719723302771e-03 1.41574902119515e-04
1.04464285714286e+01 9.14653681629033e-03 1.40425635930199e-04
1.04821428571429e+01 9.05676620517607e-03 1.39284885151986e-04
1.05178571428571e+01 8.96787666650353e-03 1.38152599381997e-04
1.05535714285714e+01 8.87985955280430e-03 1.37028728289499e-04
1.05892857142857e+01 8.79270630148291e-03 1.35913221621029e-04
1.06250000000000e+01 8.70640843398323e-03 1.34806028899513e-04
1.06607142857143e+01 8.62095755575719e-03 1.33707100354217e-04
1.06964285714286e+01 8.53634535304976e-03 1.32616386306229e-04
1.07321428571429e+01 8.45256359450648e-03 1.31533836541768e-04
1.07678571428571e+01 8.36960412956119e-03 1.30459401267394e-04
1.08035714285714e+01 8.28745888764258e-03 1.29393030794858e-04
1.08392857142857e+01 8.20611987739016e-03 1.28334675545307e-04
1.08750000000000e+01 8.12557918587626e-03 1.27284285771187e-04
1.09107142857143e+01 8.04582897855985e-03 1.26241812413616e-04
1.09464285714286e+01 7.96686149633746e-03 1.25207206535014e-04
1.09821428571429e+01 7.88866905699157e-03 1.24180418740491e-04
1.10178571428571e+01 7.81124405370336e-03 1.23161400058522e-04
1.10535714285714e+01 7.73457895431217e-03 1.22150101649764e-04
1.10892857142857e+01 7.65866630058380e-03 1.21146474810464e-04
1.11250000000000e+01 7.58349870748436e-03 1.20150470715385e-04
1.11607142857143e+01 7.50906886312209e-03 1.19162041208502e-04
1.11964285714286e+01 7.43536952604078e-03 1.18181138278996e-04
1.12321428571429e+01 7.36239352652540e-03 1.17207713526922e-04
1.12678571428571e+01 7.29013376522952e-03 1.16241718975403e-04
