Energy (eV)          EEDF (eV^-(3/2))     First Anisotropy
6.52272727272727e-02 4.67980286015171e-02 3.72770558897215e-05
1.95681818181818e-01 4.60683899441722e-02 6.12811708279354e-05
3.26136363636364e-01 4.53501272464603e-02 8.01758606638648e-05
4.56590909090909e-01 4.46430631460180e-02 9.40982981249981e-05
5.87045454545455e-01 4.39470230412248e-02 1.05357691483870e-04
7.17500000000000e-01 4.32618350558307e-02 1.14838888371185e-04
8.47954545454546e-01 4.25873299909278e-02 1.23005641589955e-04
9.78409090909091e-01 4.19233412875817e-02 1.30141455579151e-04
1.10886363636364e+00 4.12697049843768e-02 1.36436619163792e-04
1.23931818181818e+00 4.06262596701563e-02 1.42027204594272e-04
1.36977272727273e+00 3.99928464600729e-02 1.47015093551881e-04
1.50022727272727e+00 3.93693089367181e-02 1.51479283991946e-04
1.63068181818182e+00 3.87554931261747e-02 1.55482739217796e-04
1.76113636363636e+00 3.81512474590829e-02 1.59076772372178e-04
1.89159090909091e+00 3.75564227214441e-02 1.62303974937586e-04
2.02204545454545e+00 3.69708720327063e-02 1.65200246176516e-04
2.15250000000000e+00 3.63944507960281e-02 1.67796241724498e-04
2.28295454545455e+00 3.58270166747932e-02 1.70118433912172e-04
2.41340909090909e+00 3.52684295462992e-02 1.72189905433556e-04
2.54386363636364e+00 3.47185514774014e-02 1.74030954482104e-04
2.67431818181818e+00 3.41772466810040e-02 1.75659564252739e-04
2.80477272727273e+00 3.36443814912745e-02 1.77091772348673e-04
2.93522727272727e+00 3.31198243225119e-02 1.78341965734412e-04
3.06568181818182e+00 3.26034456425248e-02 1.79423117981994e-04
3.19613636363636e+00 3.20951179403846e-02 1.80346984305128e-04
3.32659090909091e+00 3.15947156898210e-02 1.81124260907057e-04
3.45704545454545e+00 3.11021153248576e-02 1.81764718027569e-04
3.58750000000000e+00 3.06171952030709e-02 1.82277311436762e-04
3.71795454545455e+00 3.01398355814120e-02 1.82670276469866e-04
3.84840909090909e+00 2.96699185811137e-02 1.82951208095263e-04
3.97886363636364e+00 2.92073281637983e-02 1.83127129333482e-04
4.10931818181818e+00 2.87519500978889e-02 1.83204550257253e-04
4.23977272727273e+00 2.83036719350762e-02 1.83189518975563e-04
4.37022727272727e+00 2.78623829781163e-02 1.83087666187861e-04
4.50068181818182e+00 2.74279742567398e-02 1.82904243571103e-04
4.63113636363636e+00 2.70003385006191e-02 1.82644158525213e-04
4.76159090909091e+00 2.65793701099752e-02 1.82312003859542e-04
4.89204545454546e+00 2.61649651332957e-02 1.81912084515884e-04
5.02250000000000e+00 2.57570212380492e-02 1.81448441301953e-04
5.15295454545455e+00 2.53554376888655e-02 1.80924871996058e-04
5.28340909090909e+00 2.49601153193660e-02 1.80344950309565e-04
5.41386363636364e+00 2.45709565108243e-02 1.79712042851871e-04
5.54431818181818e+00 2.41878651650494e-02 1.79029324476078e-04
5.67477272727273e+00 2.38107466835377e-02 1.78299792082252e-04
5.80522727272727e+00 2.34395079413520e-02 1.77526277252945e-04
5.93568181818182e+00 2.30740572661578e-02 1.76711457313570e-04
6.06613636363636e+00 2.27143044155145e-02 1.75857866158777e-04
6.19659090909091e+00 2.23601605527479e-02 1.74967903414833e-04
6.32704545454545e+00 2.20115382274319e-02 1.74043843144991e-04
6.45750000000000e+00 2.16683513514708e-02 1.73087841805201e-04
6.58795454545455e+00 2.13305151800734e-02 1.72101945502654e-04
6.71840909090909e+00 2.09979462886799e-02 1.71088096722757e-04
6.84886363636364e+00 2.06705625544265e-02 1.70048140485964e-04
6.97931818181818e+00 2.03482831338784e-02 1.68983830078418e-04
7.10977272727273e+00 2.00310284449808e-02 1.67896832311583e-04
7.24022727272727e+00 1.97187201455632e-02 1.66788732492717e-04
7.37068181818182e+00 1.94112811153551e-02 1.65661038726104e-04
7.50113636363636e+00 1.91086354368977e-02 1.64515186484034e-04
7.63159090909091e+00 1.88107083755511e-02 1.63352542314792e-04
7.76204545454546e+00 1.85174263626784e-02 1.62174407549069e-04
7.89250000000000e+00 1.82287169758976e-02 1.60982021739041e-04
8.02295454545455e+00 1.79445089227246e-02 1.59776565837453e-04
8.15340909090909e+00 1.76647320214938e-02 1.58559165206502e-04
8.28386363636364e+00 1.73893171854524e-02 1.57330892403723e-04
8.41431818181818e+00 1.71181964043236e-02 1.56092769826924e-04
8.54477272727273e+00 1.68513027288434e-02 1.54845772166521e-04
8.67522727272727e+00 1.65885702529413e-02 1.53590828783079e-04
8.80568181818182e+00 1.63299340984177e-02 1.52328825704764e-04
8.93613636363636e+00 1.60753303988935e-02 1.51060607950123e-04
9.06659090909091e+00 1.58246962831628e-02 1.49786981293966e-04
9.19704545454545e+00 1.55779698608222e-02 1.48508714128092e-04
9.32750000000000e+00 1.53350902058705e-02 1.47226539201140e-04
9.45795454545455e+00 1.50959973427455e-02 1.45941155236767e-04
9.58840909090909e+00 1.48606322304660e-02 1.44653228489574e-04
9.71886363636364e+00 1.46289367490681e-02 1.43363394193189e-04
9.84931818181818e+00 1.44008536842687e-02 1.42072257956003e-04
9.97977272727273e+00 1.41763267142916e-02 1.40780397060899e-04
1.01102272727273e+01 1.39553003950345e-02 1.39488361589750e-04
1.02406818181818e+01 1.37377201481124e-02 1.38196676152573e-04
1.03711363636364e+01 1.35235322429384e-02 1.36905840136953e-04
1.05015909090909e+01 1.33126837907937e-02 1.35616329355432e-04
1.06320454545455e+01 1.31051227235250e-02 1.34328596974760e-04
1.07625000000000e+01 1.29007977887141e-02 1.33043074387649e-04
1.08929545454545e+01 1.26996585292038e-02 1.31760172222389e-04
1.10234090909091e+01 1.25016552782532e-02 1.30480281128637e-04
1.11538636363636e+01 1.23067391398553e-02 1.29203772698676e-04
1.12843181818182e+01 1.21148619838896e-02 1.27931000177100e-04
1.14147727272727e+01 1.19259764271955e-02 1.26662299303192e-04
1.15452272727273e+01 1.17400358287333e-02 1.25397988692064e-04
1.16756818181818e+01 1.15569942729407e-02 1.24138371654598e-04
1.18061363636364e+01 1.13768065586422e-02 1.22883735218687e-04
1.19365909090909e+01 1.11994281924632e-02 1.21634351820562e-04
1.20670454545455e+01 1.10248153717521e-02 1.20390479697037e-04
1.21975000000000e+01 1.08529249797032e-02 1.19152363390462e-04
1.23279545454545e+01 1.06837145689175e-02 1.17920234371917e-04
1.24584090909091e+01 1.05171423565699e-02 1.16694311500461e-04
1.25888636363636e+01 1.03531672085817e-02 1.15474801597382e-04
1.27193181818182e+01 1.01917486348375e-02 1.14261899864383e-04
1.28497727272727e+01 1.00328467739440e-02 1.13055790413487e-04
1.29802272727273e+01 9.87642238850145e-03 1.11856646441210e-04
1.31106818181818e+01 9.72243685159284e-03 1.10664631549967e-04
1.32411363636364e+01 9.57085213742081e-03 1.09479898857457e-04
1.33715909090909e+01 9.42163081535016e-03 1.08302592230332e-04
1.35020454545455e+01 9.27473603609646e-03 1.07132846492981e-04
1.36325000000000e+01 9.13013152708592e-03 1.05970787732405e-04
1.37629545454545e+01 8.98778157914533e-03 1.04816533701123e-04
1.38934090909091e+01 8.84765104193377e-03 1.03670194096000e-04
1.40238636363636e+01 8.70970531111386e-03 1.02531870932029e-04
1.41543181818182e+01 8.57391032385747e-03 1.01401658797513e-04
1.42847727272727e+01 8.44023254647908e-03 1.00279645201158e-04
1.44152272727273e+01 8.30863897001743e-03 9.91659106404398e-05
1.45456818181818e+01 8.17909709919807e-03 9.80605295883057e-05
1.46761363636364e+01 8.05157494453582e-03 9.69635697184052e-05
1.48065909090909e+01 7.92604101704062e-03 9.58750928289099e-05
1.49370454545455e+01 7.80246431697459e-03 9.47951549510153e-05
1.50675000000000e+01 7.68081432958424e-03 9.37238065376451e-05
1.51979545454545e+01 7.56106101425609e-03 9.26610927324080e-05
1.53284090909091e+01 7.44317480033169e-03 9.16070535426895e-05
1.54588636363636e+01 7.32712657664659e-03 9.05617240903207e-05
1.55893181818182e+01 7.21288768742838e-03 8.95251347703905e-05
1.57197727272727e+01 7.10042992220436e-03 8.84973114850406e-05
1.58502272727273e+01 6.98972551178287e-03 8.74782756565470e-05
1.59806818181818e+01 6.88074711919321e-03 8.64680449783305e-05
1.61111363636364e+01 6.77346783302815e-03 8.54666327552305e-05
1.62415909090909e+01 6.66786116279511e-03 8.44740486079344e-05
1.63720454545455e+01 6.56390102971779e-03 8.34902985248032e-05
1.65025000000000e+01 6.46156176289367e-03 8.25153849800141e-05
1.66329545454545e+01 6.36081809041578e-03 8.15493071170693e-05
1.67634090909091e+01 6.26164513561458e-03 8.05920608572291e-05
1.68938636363636e+01 6.16401840848792e-03 7.96436390710850e-05
1.70243181818182e+01 6.06791380202667e-03 7.87040316780681e-05
1.71547727272727e+01 5.97330758394141e-03 7.77732258069494e-05
1.72852272727273e+01 5.88017639307105e-03 7.68512057802436e-05
1.74156818181818e+01 5.78849723191826e-03 7.59379536936785e-05
1.75461363636364e+01 5.69824746103981e-03 7.50334488606086e-05
1.76765909090909e+01 5.60940479499839e-03 7.41376683561797e-05
1.78070454545455e+01 5.52194729480720e-03 7.32505870365986e-05
1.79375000000000e+01 5.43585336451985e-03 7.23721776129913e-05
1.80679545454545e+01 5.35110174393395e-03 7.15024107784585e-05
1.81984090909091e+01 5.26767150526196e-03 7.06412552757489e-05
1.83288636363636e+01 5.18554204608442e-03 6.97886780162879e-05
1.84593181818182e+01 5.10469308610057e-03 6.89446441421258e-05
1.85897727272727e+01 5.02510466032216e-03 6.81091171374969e-05
1.87202272727273e+01 4.94675711590270e-03 6.72820587990937e-05
1.88506818181818e+01 4.86963110596943e-03 6.64634296876596e-05
1.89811363636364e+01 4.79370758489810e-03 6.56531886629345e-05
1.91115909090909e+01 4.71896780480922e-03 6.48512933080697e-05
1.92420454545455e+01 4.64539330934267e-03 6.40576999302149e-05
1.93725000000000e+01 4.57296593066191e-03 6.32723636059824e-05
1.95029545454545e+01 4.50166778343925e-03 6.24952382701955e-05
1.96334090909091e+01 4.43148126193513e-03 6.17262767573270e-05
1.97638636363636e+01 4.36238903418672e-03 6.09654308847443e-05
1.98943181818182e+01 4.29437403916077e-03 6.02126514904335e-05
2.00247727272727e+01 4.22741948113830e-03 5.94678885110849e-05
2.01552272727273e+01 4.16150882693972e-03 5.87310909463213e-05
2.02856818181818e+01 4.09662580081619e-03 5.80022072133343e-05
2.04161363636364e+01 4.03275438047024e-03 5.72811847588991e-05
2.05465909090909e+01 3.96987879403734e-03 5.65679703928165e-05
2.06770454545455e+01 3.90798351494311e-03 5.58625102780461e-05
2.08075000000000e+01 3.84705325929117e-03 5.51647499576926e-05
2.09379545454545e+01 3.78707298089268e-03 5.44746344172602e-05
2.10684090909091e+01 3.72802786872216e-03 5.37921081090072e-05
2.11988636363636e+01 3.66990334211332e-03 5.31171150103562e-05
2.13293181818182e+01 3.61268504828143e-03 5.24495986458124e-05
2.14597727272727e+01 3.55635885767964e-03 5.17895021417672e-05
2.15902272727273e+01 3.50091086158642e-03 5.11367681892150e-05
2.17206818181818e+01 3.44632736786627e-03 5.04913393238909e-05
2.18511363636364e+01 3.39259489761907e-03 4.98531576031760e-05
2.19815909090909e+01 3.33970018258897e-03 4.92221648695701e-05
2.21120454545455e+01 3.28763016090694e-03 4.85983027353085e-05
2.22425000000000e+01 3.23637197482610e-03 4.79815125972588e-05
2.23729545454545e+01 3.18591296660571e-03 4.73717356805856e-05
2.25034090909091e+01 3.13624067630709e-03 4.67689130519192e-05
2.26338636363636e+01 3.08734283781418e-03 4.61729856603079e-05
2.27643181818182e+01 3.03920737668872e-03 4.55838943487894e-05
2.28947727272727e+01 2.99182240632261e-03 4.50015798927901e-05
2.30252272727273e+01 2.94517622585092e-03 4.44259829638257e-05
2.31556818181818e+01 2.89925731662849e-03 4.38570443518374e-05
2.32861363636364e+01 2.85405433940896e-03 4.32947046963760e-05
2.34165909090909e+01 2.80955613212683e-03 4.27389046957386e-05
2.35470454545455e+01 2.76575170636669e-03 4.21895850890747e-05
2.36775000000000e+01 2.72263024540844e-03 4.16466866633758e-05
2.38079545454545e+01 2.68018110081300e-03 4.11101502839691e-05
2.39384090909091e+01 2.63839379052101e-03 4.05799169003844e-05
2.40688636363636e+01 2.59725799555100e-03 4.00559275749164e-05
2.41993181818182e+01 2.55676355815024e-03 3.95381234874467e-05
2.43297727272727e+01 2.51690047860155e-03 3.90264459621947e-05
2.44602272727273e+01 2.47765891342509e-03 3.85208364337127e-05
2.45906818181818e+01 2.43902917244594e-03 3.80212366240161e-05
2.47211363636364e+01 2.40100171641953e-03 3.75275883190147e-05
2.48515909090909e+01 2.36356715513729e-03 3.70398335351331e-05
2.49820454545455e+01 2.32671624449421e-03 3.65579145007175e-05
2.51125000000000e+01 2.29043988480746e-03 3.60817736579094e-05
2.52429545454545e+01 2.25472911798006e-03 3.56113536837462e-05
2.53734090909091e+01 2.21957512586631e-03 3.51465974913112e-05
2.55038636363636e+01 2.18496922752831e-03 3.46874482494545e-05
2.56343181818182e+01 2.15090287764696e-03 3.42338493832761e-05
2.57647727272727e+01 2.11736766386824e-03 3.37857445925528e-05
2.58952272727273e+01 2.08435530525866e-03 3.33430778206444e-05
2.60256818181818e+01 2.05185764986207e-03 3.29057933960533e-05
2.61561363636364e+01 2.01986667270096e-03 3.24738358464969e-05
2.62865909090909e+01 1.98837447416147e-03 3.20471500320604e-05
2.64170454545455e+01 1.95737327755483e-03 3.16256811269786e-05
2.65475000000000e+01 1.92685542767522e-03 3.12093746182643e-05
2.66779545454545e+01 1.89681338844065e-03 3.07981763200904e-05
2.68084090909091e+01 1.86723974149154e-03 3.03920323719629e-05
2.69388636363636e+01 1.83812718390842e-03 2.99908892521152e-05
2.70693181818182e+01 1.80946852685015e-03 2.95946937752733e-05
2.71997727272727e+01 1.78125669334584e-03 2.92033931051200e-05
2.73302272727273e+01 1.75348471697164e-03 2.88169347263248e-05
2.74606818181818e+01 1.72614573981324e-03 2.84352665579730e-05
2.75911363636364e+01 1.69923301078360e-03 2.80583367989135e-05
2.77215909090909e+01 1.67273988424834e-03 2.76860940344377e-05
2.78520454545455e+01 1.64665981799554e-03 2.73184872190522e-05
2.79825000000000e+01 1.62098637200175e-03 2.69554656731254e-05
2.81129545454545e+01 1.59571320646769e-03 2.65969790924559e-05
2.82434090909091e+01 1.57083408061941e-03 2.62429775446516e-05
2.83738636363636e+01 1.54634285080770e-03 2.58934114779929e-05
2.85043181818182e+01 1.52223346934351e-03 2.55482317175715e-05
2.86347727272727e+01 1.49849998265890e-03 2.52073894734901e-05
2.87652272727273e+01 1.47513653017583e-03 2.48708363159898e-05
2.88956818181818e+01 1.45213734260553e-03 2.45385242665375e-05
2.90261363636364e+01 1.42949674053276e-03 2.42104056691520e-05
2.91565909090909e+01 1.40720913324715e-03 2.38864332760594e-05
2.92870454545455e+01 1.38526901705153e-03 2.35665602317720e-05
2.94175000000000e+01 1.36367097420799e-03 2.32507400686075e-05
2.95479545454545e+01 1.34240967130081e-03 2.29389267128220e-05
2.96784090909091e+01 1.32147985821291e-03 2.26310744799848e-05
2.98088636363636e+01 1.30087636654161e-03 2.23271380806093e-05
2.99393181818182e+01 1.28059410860457e-03 2.20270726154010e-05
3.00697727272727e+01 1.26062807590673e-03 2.17308335804171e-05
3.02002272727273e+01 1.24097333817492e-03 2.14383768451340e-05
3.03306818181818e+01 1.22162504193748e-03 2.11496587257294e-05
3.04611363636364e+01 1.20257840933274e-03 2.08646358779879e-05
3.05915909090909e+01 1.18382873711668e-03 2.05832653661953e-05
3.07220454545455e+01 1.16537139525210e-03 2.03055046486673e-05
3.08525000000000e+01 1.14720182600991e-03 2.00313115727153e-05
3.09829545454545e+01 1.12931554260377e-03 1.97606443783333e-05
3.11134090909091e+01 1.11170812831740e-03 1.94934616931036e-05
3.12438636363636e+01 1.09437523518318e-03 1.92297225355320e-05
3.13743181818182e+01 1.07731258313485e-03 1.89693863099015e-05
3.15047727272727e+01 1.06051595872852e-03 1.87124128092769e-05
3.16352272727273e+01 1.04398121432009e-03 1.84587621962865e-05
3.17656818181818e+01 1.02770426687814e-03 1.82083950621742e-05
3.18961363636364e+01 1.01168109698122e-03 1.79612723376296e-05
3.20265909090909e+01 9.95907747975977e-04 1.77173553482904e-05
3.21570454545455e+01 9.80380324799661e-04 1.74766058017413e-05
3.22875000000000e+01 9.65094993214909e-04 1.72389857823029e-05
3.24179545454545e+01 9.50047978670081e-04 1.70044577530016e-05
3.25484090909091e+01 9.35235565556356e-04 1.67729845503527e-05
3.26788636363636e+01 9.20654096104643e-04 1.65445293860839e-05
3.28093181818182e+01 9.06299969664389e-04 1.63190558419189e-05
3.29397727272727e+01 8.92169641635860e-04 1.60965278710698e-05
3.30702272727273e+01 8.78259622770048e-04 1.58769097814821e-05
3.32006818181818e+01 8.64566478176060e-04 1.56601662834854e-05
3.33311363636364e+01 8.51086826477323e-04 1.54462624155160e-05
3.34615909090909e+01 8.37817339097855e-04 1.52351635888912e-05
3.35920454545455e+01 8.24754739278994e-04 1.50268355762326e-05
3.37225000000000e+01 8.11895801428525e-04 1.48212445063264e-05
3.38529545454545e+01 7.99237350168874e-04 1.46183568648984e-05
3.39834090909091e+01 7.86776259705351e-04 1.44181394895034e-05
3.41138636363636e+01 7.74509452904794e-04 1.42205595701325e-05
3.42443181818182e+01 7.62433900682377e-04 1.40255846441338e-05
3.43747727272727e+01 7.50546621109718e-04 1.38331825966628e-05
3.45052272727273e+01 7.38844678819723e-04 1.36433216461304e-05
3.46356818181818e+01 7.27325184176176e-04 1.34559703826999e-05
3.47661363636364e+01 7.15985292563691e-04 1.32710977063885e-05
3.48965909090909e+01 7.04822203783076e-04 1.30886728632298e-05
3.50270454545455e+01 6.93833161229748e-04 1.29086654350364e-05
3.51575000000000e+01 6.83015451340698e-04 1.27310453344844e-05
3.52879545454545e+01 6.72366402799136e-04 1.25557828050781e-05
3.54184090909091e+01 6.61883385997778e-04 1.23828484162838e-05
3.55488636363636e+01 6.51563812268869e-04 1.22122130633813e-05
3.56793181818182e+01 6.41405133363318e-04 1.20438479626506e-05
3.58097727272727e+01 6.31404840705290e-04 1.18777246511182e-05
3.59402272727273e+01 6.21560464886727e-04 1.17138149739593e-05
3.60706818181818e+01 6.11869574972339e-04 1.15520911156317e-05
3.62011363636364e+01 6.02329777902132e-04 1.13925255482718e-05
3.63315909090909e+01 5.92938717979480e-04 1.12350910609304e-05
3.64620454545455e+01 5.83694076184306e-04 1.10797607505696e-05
3.65925000000000e+01 5.74593569703587e-04 1.09265080174638e-05
3.67229545454545e+01 5.65634951266409e-04 1.07753065646275e-05
3.68534090909091e+01 5.56816008688385e-04 1.06261303932770e-05
3.69838636363636e+01 5.48134564227882e-04 1.04789538021858e-05
3.71143181818182e+01 5.39588474143951e-04 1.03337513832090e-05
3.72447727272727e+01 5.31175628073044e-04 1.01904980205730e-05
3.73752272727273e+01 5.22893948600059e-04 1.00491688799965e-05
3.75056818181818e+01 5.14741390676435e-04 9.90973943389337e-06
3.76361363636364e+01 5.06715941117410e-04 9.77218541833174e-06
3.77665909090909e+01 4.98815618168827e-04 9.63648285669035e-06
3.78970454545455e+01 4.91038470932708e-04 9.50260805177892e-06
3.80275000000000e+01 4.83382578968990e-04 9.37053758160060e-06
3.81579545454546e+01 4.75846051739360e-04 9.24024829844193e-06
3.82884090909091e+01 4.68427028220835e-04 9.11171732470372e-06
3.84188636363636e+01 4.61123676367271e-04 8.98492205194766e-06
3.85493181818182e+01 4.53934192734443e-04 8.85984013679395e-06
3.86797727272727e+01 4.46856801958664e-04 8.73644949992959e-06
3.88102272727273e+01 4.39889756393019e-04 8.61472831673513e-06
3.89406818181818e+01 4.33031335620007e-04 8.49465503769983e-06
3.90711363636364e+01 4.26279846028510e-04 8.37620835251187e-06
3.92015909090909e+01 4.19633620447393e-04 8.25936720921375e-06
3.93320454545455e+01 4.13091017664889e-04 8.14411080732832e-06
3.94625000000000e+01 4.06650422090985e-04 8.03041859400422e-06
3.95929545454545e+01 4.00310243292058e-04 7.91827026290973e-06
3.97234090909091e+01 3.94068915663333e-04 7.80764575044516e-06
3.98538636363636e+01 3.87924897978284e-04 7.69852523461453e-06
3.99843181818182e+01 3.81876673070867e-04 7.59088913130699e-06
4.01147727272727e+01 3.75922747399212e-04 7.48471809314858e-06
4.02452272727273e+01 3.70061650737345e-04 7.37999300144019e-06
4.03756818181818e+01 3.64291935766878e-04 7.27669498270799e-06
4.05061363636364e+01 3.58612177721067e-04 7.17480537872895e-06
4.06365909090909e+01 3.53020974075029e-04 7.07430576205265e-06
4.07670454545455e+01 3.47516944143476e-04 6.97517793002523e-06
4.08975000000000e+01 3.42098728794682e-04 6.87740390131333e-06
4.10279545454545e+01 3.36764990060958e-04 6.78096591470225e-06
4.11584090909091e+01 3.31514410861179e-04 6.68584642568705e-06
