Energy (eV)          EEDF (eV^-(3/2))     First Anisotropy
1.36363636363636e-02 4.89499764722733e-01 3.87580513858822e-04
4.09090909090909e-02 4.81868693221892e-01 6.37158899764254e-04
6.81818181818182e-02 4.74356586559230e-01 8.33614150335375e-04
9.54545454545454e-02 4.66961590108895e-01 9.78371885590301e-04
1.22727272727273e-01 4.59681878184616e-01 1.09544149955361e-03
1.50000000000000e-01 4.52515653562323e-01 1.19402294362089e-03
1.77272727272727e-01 4.45461146983180e-01 1.27893794040520e-03
2.04545454545455e-01 4.38516616863102e-01 1.35313413084402e-03
2.31818181818182e-01 4.31680348715529e-01 1.41858997327598e-03
2.59090909090909e-01 4.24950654784581e-01 1.47672022959195e-03
2.86363636363636e-01 4.18325873603850e-01 1.52858417138565e-03
3.13636363636364e-01 4.11804369658082e-01 1.57500314187039e-03
3.40909090909091e-01 4.05384532901599e-01 1.61663178179630e-03
3.68181818181818e-01 3.99064778372401e-01 1.65400359197737e-03
3.95454545454545e-01 3.92843545854237e-01 1.68756139535072e-03
4.22727272727273e-01 3.86719299434197e-01 1.71767843834392e-03
4.50000000000000e-01 3.80690527143646e-01 1.74467344787548e-03
4.77272727272727e-01 3.74755740572860e-01 1.76882165555140e-03
5.04545454545455e-01 3.68913474541708e-01 1.79036305027686e-03
5.31818181818182e-01 3.63162286697762e-01 1.80950867283858e-03
5.59090909090909e-01 3.57500757174398e-01 1.82644549419921e-03
5.86363636363636e-01 3.51927488230812e-01 1.84134025590853e-03
6.13636363636364e-01 3.46441103935834e-01 1.85434253599785e-03
6.40909090909091e-01 3.41040249798122e-01 1.86558722466399e-03
6.68181818181818e-01 3.35723592434512e-01 1.87519653792519e-03
6.95454545454545e-01 3.30489819265099e-01 1.88328168272241e-03
7.22727272727273e-01 3.25337638163928e-01 1.88994424061579e-03
7.50000000000000e-01 3.20265777148687e-01 1.89527732469941e-03
7.77272727272727e-01 3.15272984060425e-01 1.89936655687823e-03
8.04545454545454e-01 3.10358026273879e-01 1.90229090098298e-03
8.31818181818182e-01 3.05519690373012e-01 1.90412337588970e-03
8.59090909090909e-01 3.00756781858432e-01 1.90493166703072e-03
8.86363636363636e-01 2.96068124847274e-01 1.90477865606593e-03
9.13636363636364e-01 2.91452561798841e-01 1.90372288366818e-03
9.40909090909091e-01 2.86908953212387e-01 1.90181895478229e-03
9.68181818181818e-01 2.82436177346951e-01 1.89911789017784e-03
9.95454545454545e-01 2.78033129958393e-01 1.89566744130806e-03
1.02272727272727e+00 2.73698724008101e-01 1.89151236832134e-03
1.05000000000000e+00 2.69431889400334e-01 1.88669467887520e-03
1.07727272727273e+00 2.65231572769322e-01 1.88125386227207e-03
1.10454545454545e+00 2.61096737091876e-01 1.87522707905270e-03
1.13181818181818e+00 2.57026361551245e-01 1.86864932785861e-03
1.15909090909091e+00 2.53019441244825e-01 1.86155361419958e-03
1.18636363636364e+00 2.49074986969181e-01 1.85397110131864e-03
1.21363636363636e+00 2.45192024874775e-01 1.84593123281390e-03
1.24090909090909e+00 2.41369596327743e-01 1.83746183949794e-03
1.26818181818182e+00 2.37606757668505e-01 1.82858926964914e-03
1.29545454545455e+00 2.33902579889077e-01 1.81933847632829e-03
1.32272727272727e+00 2.30256148494374e-01 1.80973310001208e-03
1.35000000000000e+00 2.26666563245763e-01 1.79979555884881e-03
1.37727272727273e+00 2.23132937964468e-01 1.78954713020066e-03
1.40454545454545e+00 2.19654400235220e-01 1.77900801400324e-03
1.43181818181818e+00 2.16230091269290e-01 1.76819739040646e-03
1.45909090909091e+00 2.12859165666108e-01 1.75713348618528e-03
1.48636363636364e+00 2.09540791226706e-01 1.74583363494022e-03
1.51363636363636e+00 2.06274148680756e-01 1.73431432223065e-03
1.54090909090909e+00 2.03058431552566e-01 1.72259122419096e-03
1.56818181818182e+00 1.99892845959093e-01 1.71067926835629e-03
1.59545454545455e+00 1.96776610353157e-01 1.69859266622702e-03
1.62272727272727e+00 1.93708955391926e-01 1.68634494585176e-03
1.65000000000000e+00 1.90689123726206e-01 1.67394899327696e-03
1.67727272727273e+00 1.87716369831117e-01 1.66141709022874e-03
1.70454545454545e+00 1.84789959768650e-01 1.64876094039568e-03
1.73181818181818e+00 1.81909171060434e-01 1.63599169354159e-03
1.75909090909091e+00 1.79073292491225e-01 1.62311997819694e-03
1.78636363636364e+00 1.76281623948786e-01 1.61015593138370e-03
1.81363636363636e+00 1.73533476203953e-01 1.59710921832815e-03
1.84090909090909e+00 1.70828170788086e-01 1.58398904854986e-03
1.86818181818182e+00 1.68165039823685e-01 1.57080421022252e-03
1.89545454545455e+00 1.65543425816693e-01 1.55756308393070e-03
1.92272727272727e+00 1.62962681537436e-01 1.54427365743057e-03
1.95000000000000e+00 1.60422169846212e-01 1.53094354812224e-03
1.97727272727273e+00 1.57921263548557e-01 1.51758002345928e-03
2.00454545454545e+00 1.55459345202397e-01 1.50419001325943e-03
2.03181818181818e+00 1.53035807004023e-01 1.49078012100384e-03
2.05909090909091e+00 1.50650050625119e-01 1.47735664236421e-03
2.08636363636364e+00 1.48301487076161e-01 1.46392558200414e-03
2.11363636363636e+00 1.45989536527180e-01 1.45049266308950e-03
2.14090909090909e+00 1.43713628198807e-01 1.43706333443116e-03
2.16818181818182e+00 1.41473200220084e-01 1.42364279226285e-03
2.19545454545455e+00 1.39267699458766e-01 1.41023598634567e-03
2.22272727272727e+00 1.37096581416070e-01 1.39684762719826e-03
2.25000000000000e+00 1.34959310081670e-01 1.38348219965427e-03
2.27727272727273e+00 1.32855357810525e-01 1.37014397511772e-03
2.30454545454545e+00 1.30784205164906e-01 1.35683701773617e-03
2.33181818181818e+00 1.28745340814155e-01 1.34356519002884e-03
2.35909090909091e+00 1.26738261399030e-01 1.33033216439436e-03
2.38636363636364e+00 1.24762471415605e-01 1.31714143348921e-03
2.41363636363636e+00 1.22817483068095e-01 1.30399631506463e-03
2.44090909090909e+00 1.20902816173538e-01 1.29089995511804e-03
2.46818181818182e+00 1.19017998042344e-01 1.27785534271915e-03
2.49545454545455e+00 1.17162563338739e-01 1.26486531265137e-03
2.52272727272727e+00 1.15336053988980e-01 1.25193254907821e-03
2.55000000000000e+00 1.13538019060463e-01 1.23905959432201e-03
2.57727272727273e+00 1.11768014657195e-01 1.22624885674774e-03
2.60454545454545e+00 1.10025603789631e-01 1.21350261394832e-03
2.63181818181818e+00 1.08310356287582e-01 1.20082301560477e-03
2.65909090909091e+00 1.06621848687016e-01 1.18821209108540e-03
2.68636363636364e+00 1.04959664131613e-01 1.17567175625165e-03
2.71363636363636e+00 1.03323392251308e-01 1.16320381595519e-03
2.74090909090909e+00 1.01712629079725e-01 1.15080996527657e-03
2.76818181818182e+00 1.00126976953782e-01 1.13849180009362e-03
2.79545454545455e+00 9.85660443983959e-02 1.12625081805214e-03
2.82272727272727e+00 9.70294460471371e-02 1.11408842041301e-03
2.85000000000000e+00 9.55168025412495e-02 1.10200591801612e-03
2.87727272727273e+00 9.40277404411056e-02 1.09000453659627e-03
2.90454545454545e+00 9.25618921185305e-02 1.07808541841017e-03
2.93181818181818e+00 9.11188956816870e-02 1.06624962365450e-03
2.95909090909091e+00 8.96983948804665e-02 1.05449813569884e-03
2.98636363636364e+00 8.83000390231479e-02 1.04283186573643e-03
3.01363636363636e+00 8.69234828758056e-02 1.03125165403801e-03
3.04090909090909e+00 8.55683865912411e-02 1.01975827023986e-03
3.06818181818182e+00 8.42344156246001e-02 1.00835242111147e-03
3.09545454545455e+00 8.29212406377918e-02 9.97034750696300e-04
3.12272727272727e+00 8.16285374313061e-02 9.85805841183590e-04
3.15000000000000e+00 8.03559868597448e-02 9.74666217097339e-04
3.17727272727273e+00 7.91032747569216e-02 9.63616349000280e-04
3.20454545454545e+00 7.78700918465170e-02 9.52656654270989e-04
3.23181818181818e+00 7.66561336776322e-02 9.41787497739812e-04
3.25909090909091e+00 7.54611005456180e-02 9.31009195399454e-04
3.28636363636364e+00 7.42846974216062e-02 9.20322017676119e-04
3.31363636363636e+00 7.31266338689688e-02 9.09726189998416e-04
3.34090909090909e+00 7.19866239824325e-02 8.99221892611393e-04
3.36818181818182e+00 7.08643863171353e-02 8.88809266408024e-04
3.39545454545455e+00 6.97596438091964e-02 8.78488412660429e-04
3.42272727272727e+00 6.86721237173653e-02 8.68259393354474e-04
3.45000000000000e+00 6.76015575522952e-02 8.58122234202312e-04
3.47727272727273e+00 6.65476810132464e-02 8.48076927283977e-04
3.50454545454545e+00 6.55102339137840e-02 8.38123431349708e-04
3.53181818181818e+00 6.44889601266906e-02 8.28261672022956e-04
3.55909090909091e+00 6.34836075176536e-02 8.18491544487268e-04
3.58636363636364e+00 6.24939278857324e-02 8.08812915835012e-04
3.61363636363636e+00 6.15196768938375e-02 7.99225625251947e-04
3.64090909090909e+00 6.05606140167406e-02 7.89729483605289e-04
3.66818181818182e+00 5.96165024814227e-02 7.80324277888432e-04
3.69545454545455e+00 5.86871092009402e-02 7.71009770761967e-04
3.72272727272727e+00 5.77722047246401e-02 7.61785700590380e-04
3.75000000000000e+00 5.68715631788936e-02 7.52651783645793e-04
3.77727272727273e+00 5.59849622136459e-02 7.43607716023623e-04
3.80454545454545e+00 5.51121829405162e-02 7.34653173678275e-04
3.83181818181818e+00 5.42530098858381e-02 7.25787812387105e-04
3.85909090909091e+00 5.34072309350798e-02 7.17011269725737e-04
3.88636363636364e+00 5.25746372825833e-02 7.08323166779585e-04
3.91363636363636e+00 5.17550233736172e-02 6.99723108113656e-04
3.94090909090909e+00 5.09481868600940e-02 6.91210681266935e-04
3.96818181818182e+00 5.01539285504071e-02 6.82785460178072e-04
3.99545454545455e+00 4.93720523542859e-02 6.74447004653440e-04
4.02272727272727e+00 4.86023652404159e-02 6.66194860241702e-04
4.05000000000000e+00 4.78446771867477e-02 6.58028559865948e-04
4.07727272727273e+00 4.70988011353856e-02 6.49947625229668e-04
4.10454545454545e+00 4.63645529409499e-02 6.41951566705625e-04
4.13181818181818e+00 4.56417513306292e-02 6.34039883171671e-04
4.15909090909091e+00 4.49302178575710e-02 6.26212063479066e-04
4.18636363636364e+00 4.42297768584710e-02 6.18467587713057e-04
4.21363636363636e+00 4.35402554052117e-02 6.10805927046152e-04
4.24090909090909e+00 4.28614832672157e-02 6.03226543210167e-04
4.26818181818182e+00 4.21932928692602e-02 5.95728891158848e-04
4.29545454545454e+00 4.15355192454391e-02 5.88312418525832e-04
4.32272727272727e+00 4.08880000031519e-02 5.80976565415776e-04
4.35000000000000e+00 4.02505752814203e-02 5.73720765624255e-04
4.37727272727273e+00 3.96230877128333e-02 5.66544447678613e-04
4.40454545454545e+00 3.90053823804212e-02 5.59447034650137e-04
4.43181818181818e+00 3.83973067837296e-02 5.52427943926562e-04
4.45909090909091e+00 3.77987107997149e-02 5.45486588312465e-04
4.48636363636364e+00 3.72094466469727e-02 5.38622376964735e-04
4.51363636363636e+00 3.66293688453347e-02 5.31834715187276e-04
4.54090909090909e+00 3.60583341839127e-02 5.25123003918676e-04
4.56818181818182e+00 3.54962016856183e-02 5.18486641815238e-04
4.59545454545454e+00 3.49428325686923e-02 5.11925024731784e-04
4.62272727272727e+00 3.43980902161472e-02 5.05437545475720e-04
4.65000000000000e+00 3.38618401407887e-02 4.99023594724848e-04
4.67727272727273e+00 3.33339499531238e-02 4.92682561802484e-04
4.70454545454545e+00 3.28142893253127e-02 4.86413834454813e-04
4.73181818181818e+00 3.23027299623925e-02 4.80216798598140e-04
4.75909090909091e+00 3.17991455694590e-02 4.74090839148368e-04
4.78636363636364e+00 3.13034118215040e-02 4.68035340718869e-04
4.81363636363636e+00 3.08154063296335e-02 4.62049687391096e-04
4.84090909090909e+00 3.03350086139733e-02 4.56133262236994e-04
4.86818181818182e+00 2.98621000738282e-02 4.50285448956985e-04
4.89545454545455e+00 2.93965639555090e-02 4.44505631399868e-04
4.92272727272727e+00 2.89382853264312e-02 4.38793193306924e-04
4.95000000000000e+00 2.84871510457544e-02 4.33147519005715e-04
4.97727272727273e+00 2.80430497373274e-02 4.27567993989661e-04
5.00454545454545e+00 2.76058717595332e-02 4.22054004685295e-04
5.03181818181818e+00 2.71755091809065e-02 4.16604938196496e-04
5.05909090909091e+00 2.67518557525836e-02 4.11220182932355e-04
5.08636363636364e+00 2.63348068828759e-02 4.05899129129501e-04
5.11363636363636e+00 2.59242596090045e-02 4.00641168619043e-04
5.14090909090909e+00 2.55201125741506e-02 3.95445694392184e-04
5.16818181818182e+00 2.51222660023564e-02 3.90312101893530e-04
5.19545454545455e+00 2.47306216716010e-02 3.85239788586817e-04
5.22272727272727e+00 2.43450828918668e-02 3.80228153704758e-04
5.25000000000000e+00 2.39655544804875e-02 3.75276598775176e-04
5.27727272727273e+00 2.35919427393450e-02 3.70384528055330e-04
5.30454545454545e+00 2.32241554296289e-02 3.65551348303561e-04
5.33181818181818e+00 2.28621017511947e-02 3.60776468533172e-04
5.35909090909091e+00 2.25056923194302e-02 3.56059300489010e-04
5.38636363636364e+00 2.21548391438267e-02 3.51399259039035e-04
5.41363636363636e+00 2.18094556043153e-02 3.46795761949371e-04
5.44090909090909e+00 2.14694564318434e-02 3.42248229495575e-04
5.46818181818182e+00 2.11347576872639e-02 3.37756085487192e-04
5.49545454545455e+00 2.08052767387904e-02 3.33318756880665e-04
5.52272727272727e+00 2.04809322434379e-02 3.28935673543585e-04
5.55000000000000e+00 2.01616441263196e-02 3.24606268654474e-04
5.57727272727273e+00 1.98473335614323e-02 3.20329979028485e-04
5.60454545454545e+00 1.95379229505168e-02 3.16106244901588e-04
5.63181818181818e+00 1.92333359055969e-02 3.11934509700897e-04
5.65909090909091e+00 1.89334972295493e-02 3.07814220406977e-04
5.68636363636364e+00 1.86383328980479e-02 3.03744827847494e-04
5.71363636363636e+00 1.83477700397428e-02 2.99725786486743e-04
5.74090909090909e+00 1.80617369198321e-02 2.95756554081717e-04
5.76818181818182e+00 1.77801629223051e-02 2.91836592495953e-04
5.79545454545454e+00 1.75029785310555e-02 2.87965367358042e-04
5.82272727272727e+00 1.72301153141876e-02 2.84142347844618e-04
5.85000000000000e+00 1.69615059066262e-02 2.80367006984418e-04
5.87727272727273e+00 1.66970839939279e-02 2.76638821902400e-04
5.90454545454545e+00 1.64367842945693e-02 2.72957273620564e-04
5.93181818181818e+00 1.61805425451845e-02 2.69321846848037e-04
5.95909090909091e+00 1.59282954842430e-02 2.65732030256611e-04
5.98636363636364e+00 1.56799808368394e-02 2.62187316700738e-04
6.01363636363636e+00 1.54355372980829e-02 2.58687203024661e-04
6.04090909090909e+00 1.51949045192111e-02 2.55231189760578e-04
6.06818181818182e+00 1.49580230926534e-02 2.51818781776555e-04
6.09545454545454e+00 1.47248345362035e-02 2.48449487977526e-04
6.12272727272727e+00 1.44952812797542e-02 2.45122821108782e-04
6.15000000000000e+00 1.42693066506891e-02 2.41838297987181e-04
6.17727272727273e+00 1.40468548602446e-02 2.38595439683751e-04
6.20454545454545e+00 1.38278709886649e-02 2.35393771342934e-04
6.23181818181818e+00 1.36123009727268e-02 2.32232821993418e-04
6.25909090909091e+00 1.34000915920273e-02 2.29112124757618e-04
6.28636363636364e+00 1.31911904561705e-02 2.26031217016075e-04
6.31363636363636e+00 1.29855459908442e-02 2.22989640233284e-04
6.34090909090909e+00 1.27831074260871e-02 2.19986939694417e-04
6.36818181818182e+00 1.25838247837246e-02 2.17022665022095e-04
6.39545454545455e+00 1.23876488640995e-02 2.14096369916047e-04
6.42272727272727e+00 1.21945312348661e-02 2.11207611977210e-04
6.45000000000000e+00 1.20044242187163e-02 2.08355952883398e-04
6.47727272727273e+00 1.18172808818919e-02 2.05540958525434e-04
6.50454545454545e+00 1.16330550217385e-02 2.02762198845053e-04
6.53181818181818e+00 1.14517011561675e-02 2.00019247666199e-04
6.55909090909091e+00 1.12731745121345e-02 1.97311682854085e-04
6.58636363636364e+00 1.10974310148480e-02 1.94639086437565e-04
6.61363636363636e+00 1.09244272760933e-02 1.92001044453522e-04
6.64090909090909e+00 1.07541205843236e-02 1.89397146718296e-04
6.66818181818182e+00 1.05864688940920e-02 1.86826987240471e-04
6.69545454545455e+00 1.04214308149228e-02 1.84290163995179e-04
6.72272727272727e+00 1.02589656018494e-02 1.81786278768062e-04
6.75000000000000e+00 1.00990331450997e-02 1.79314937288425e-04
6.77727272727273e+00 9.94159396042196e-03 1.76875749330253e-04
6.80454545454545e+00 9.78660917864600e-03 1.74468328568153e-04
6.83181818181818e+00 9.63404053678518e-03 1.72092292428099e-04
6.85909090909091e+00 9.48385036835491e-03 1.69747262207890e-04
6.88636363636364e+00 9.33600159428406e-03 1.67432863167769e-04
6.91363636363636e+00 9.19045771312183e-03 1.65148724392511e-04
6.94090909090909e+00 9.04718279267191e-03 1.62894478593692e-04
6.96818181818182e+00 8.90614146110261e-03 1.60669762439854e-04
6.99545454545455e+00 8.76729889761232e-03 1.58474216361480e-04
7.02272727272727e+00 8.63062082444111e-03 1.56307484413501e-04
7.05000000000000e+00 8.49607349820306e-03 1.54169214375956e-04
7.07727272727273e+00 8.36362370173937e-03 1.52059057828416e-04
7.10454545454545e+00 8.23323873536096e-03 1.49976670022841e-04
7.13181818181818e+00 8.10488640933807e-03 1.47921709752348e-04
7.15909090909091e+00 7.97853503576377e-03 1.45893839442157e-04
7.18636363636364e+00 7.85415342090044e-03 1.43892725216147e-04
7.21363636363636e+00 7.73171085696372e-03 1.41918036775438e-04
7.24090909090909e+00 7.61117711506163e-03 1.39969447227831e-04
7.26818181818182e+00 7.49252243771657e-03 1.38046633352142e-04
7.29545454545454e+00 7.37571753103332e-03 1.36149275430161e-04
7.32272727272727e+00 7.26073355795741e-03 1.34277057126126e-04
7.35000000000000e+00 7.14754213099039e-03 1.32429665562505e-04
7.37727272727273e+00 7.03611530532970e-03 1.30606791374355e-04
7.40454545454545e+00 6.92642557152043e-03 1.28808128597717e-04
7.43181818181818e+00 6.81844584911766e-03 1.27033374554774e-04
7.45909090909091e+00 6.71214947984792e-03 1.25282229922201e-04
7.48636363636364e+00 6.60751022116477e-03 1.23554398779593e-04
7.51363636363636e+00 6.50450223935419e-03 1.21849588503060e-04
7.54090909090909e+00 6.40310010357694e-03 1.20167509618473e-04
7.56818181818182e+00 6.30327877957792e-03 1.18507876013268e-04
7.59545454545454e+00 6.20501362311366e-03 1.16870404791969e-04
7.62272727272727e+00 6.10828037426426e-03 1.15254816170999e-04
7.65000000000000e+00 6.01305515131049e-03 1.13660833535413e-04
7.67727272727273e+00 5.91931444495764e-03 1.12088183478124e-04
7.70454545454545e+00 5.82703511216843e-03 1.10536595702377e-04
7.73181818181818e+00 5.73619437081630e-03 1.09005802921653e-04
7.75909090909091e+00 5.64676979393738e-03 1.07495540910726e-04
7.78636363636364e+00 5.55873930430449e-03 1.06005548540437e-04
7.81363636363636e+00 5.47208116864040e-03 1.04535567684842e-04
7.84090909090909e+00 5.38677399259211e-03 1.03085343095164e-04
7.86818181818182e+00 5.30279671543918e-03 1.01654622569620e-04
7.89545454545455e+00 5.22012860457700e-03 1.00243156829440e-04
7.92272727272727e+00 5.13874925071882e-03 9.88506994273749e-05
7.95000000000000e+00 5.05863856274905e-03 9.74770067898780e-05
7.97727272727273e+00 4.97977676286006e-03 9.61218382449606e-05
8.00454545454545e+00 4.90214438137551e-03 9.47849559372648e-05
8.03181818181818e+00 4.82572225224065e-03 9.34661247411087e-05
8.05909090909091e+00 4.75049150819055e-03 9.21651122983415e-05
8.08636363636364e+00 4.67643357618185e-03 9.08816890428613e-05
8.11363636363636e+00 4.60353017253508e-03 8.96156281198570e-05
8.14090909090909e+00 4.53176329869598e-03 8.83667052777292e-05
8.16818181818182e+00 4.46111523678410e-03 8.71346990043349e-05
8.19545454545455e+00 4.39156854496151e-03 8.59193904207417e-05
8.22272727272727e+00 4.32310605338649e-03 8.47205632018827e-05
8.25000000000000e+00 4.25571085988702e-03 8.35380036076415e-05
8.27727272727273e+00 4.18936632586662e-03 8.23715005022036e-05
8.30454545454545e+00 4.12405607195822e-03 8.12208452803168e-05
8.33181818181818e+00 4.05976397422127e-03 8.00858317919577e-05
8.35909090909091e+00 3.99647416007985e-03 7.89662563701217e-05
8.38636363636364e+00 3.93417100447691e-03 7.78619178476850e-05
8.41363636363636e+00 3.87283912579577e-03 7.67726174873719e-05
8.44090909090909e+00 3.81246338228592e-03 7.56981588891940e-05
8.46818181818182e+00 3.75302886831843e-03 7.46383480997949e-05
8.49545454545454e+00 3.69452091049746e-03 7.35929935215245e-05
8.52272727272727e+00 3.63692506424842e-03 7.25619058437959e-05
8.55000000000000e+00 3.58022711018080e-03 7.15448980657326e-05
8.57727272727273e+00 3.52441305064150e-03 7.05417855091830e-05
8.60454545454545e+00 3.46946910606565e-03 6.95523857548669e-05
