Energy (eV)          EEDF (eV^-(3/2))     First Anisotropy
5.32812500000000e-03 1.14328108463375e+00 7.47651494954226e-04
1.59843750000000e-02 1.13101235921866e+00 1.23210295043933e-03
2.66406250000000e-02 1.11887529138509e+00 1.61995306040171e-03
3.72968750000000e-02 1.10686846829573e+00 1.91064246341386e-03
4.79531250000000e-02 1.09499049227426e+00 2.14982327112058e-03
5.86093750000000e-02 1.08323998064298e+00 2.35485597377444e-03
6.92656250000000e-02 1.07161556556190e+00 2.53477408104838e-03
7.99218750000000e-02 1.06011589386952e+00 2.69506189744712e-03
9.05781250000000e-02 1.04873962692533e+00 2.83937588902936e-03
1.01234375000000e-01 1.03748544045396e+00 2.97031382725161e-03
1.11890625000000e-01 1.02635202439108e+00 3.08980861070385e-03
1.22546875000000e-01 1.01533808273081e+00 3.19935000715101e-03
1.33203125000000e-01 1.00444233337494e+00 3.30011862128162e-03
1.43859375000000e-01 9.93663507983663e-01 3.39307137254374e-03
1.54515625000000e-01 9.83000351827889e-01 3.47899846648194e-03
1.65171875000000e-01 9.72451623643242e-01 3.55856274858322e-03
1.75828125000000e-01 9.62016095485538e-01 3.63232771300322e-03
1.86484375000000e-01 9.51692552587853e-01 3.70077794894873e-03
1.97140625000000e-01 9.41479793219113e-01 3.76433439590715e-03
2.07796875000000e-01 9.31376628544205e-01 3.82336594394226e-03
2.18453125000000e-01 9.21381882485588e-01 3.87819840314120e-03
2.29109375000000e-01 9.11494391586393e-01 3.92912154214289e-03
2.39765625000000e-01 9.01713004874983e-01 3.97639468477330e-03
2.50421875000000e-01 8.92036583730976e-01 4.02025121321058e-03
2.61078125000000e-01 8.82464001752701e-01 4.06090223031473e-03
2.71734375000000e-01 8.72994144626077e-01 4.09853956721384e-03
2.82390625000000e-01 8.63625909994897e-01 4.13333827520001e-03
2.93046875000000e-01 8.54358207332511e-01 4.16545870719818e-03
3.03703125000000e-01 8.45189957814876e-01 4.19504826944447e-03
3.14359375000000e-01 8.36120094194978e-01 4.22224290582715e-03
3.25015625000000e-01 8.27147560678595e-01 4.24716836374688e-03
3.35671875000000e-01 8.18271312801394e-01 4.26994128007339e-03
3.46328125000000e-01 8.09490317307350e-01 4.29067011792344e-03
3.56984375000000e-01 8.00803552028469e-01 4.30945597893007e-03
3.67640625000000e-01 7.92210005765796e-01 4.32639331095630e-03
3.78296875000000e-01 7.83708678171712e-01 4.34157052750672e-03
3.88953125000000e-01 7.75298579633478e-01 4.35507055216457e-03
3.99609375000000e-01 7.66978731158046e-01 4.36697129904828e-03
4.10265625000000e-01 7.58748164258090e-01 4.37734609841056e-03
4.20921875000000e-01 7.50605920839271e-01 4.38626407498905e-03
4.31578125000000e-01 7.42551053088711e-01 4.39379048549360e-03
4.42234375000000e-01 7.34582623364653e-01 4.39998702060707e-03
4.52890625000000e-01 7.26699704087322e-01 4.40491207605223e-03
4.63546875000000e-01 7.18901377630944e-01 4.40862099659817e-03
4.74203125000000e-01 7.11186736216926e-01 4.41116629631049e-03
4.84859375000000e-01 7.03554881808190e-01 4.41259785787887e-03
4.95515625000000e-01 6.96004926004630e-01 4.41296311346022e-03
5.06171875000000e-01 6.88535989939700e-01 4.41230720914408e-03
5.16828125000000e-01 6.81147204178104e-01 4.41067315486318e-03
5.27484375000000e-01 6.73837708614594e-01 4.40810196133454e-03
5.38140625000000e-01 6.66606652373839e-01 4.40463276541603e-03
5.48796875000000e-01 6.59453193711387e-01 4.40030294508682e-03
5.59453125000000e-01 6.52376499915671e-01 4.39514822511312e-03
5.70109375000000e-01 6.45375747211084e-01 4.38920277433248e-03
5.80765625000000e-01 6.38450120662078e-01 4.38249929537983e-03
5.91421875000000e-01 6.31598814078308e-01 4.37506910758365e-03
6.02078125000000e-01 6.24821029920779e-01 4.36694222367721e-03
6.12734375000000e-01 6.18115979209010e-01 4.35814742089732e-03
6.23390625000000e-01 6.11482881429191e-01 4.34871230698171e-03
6.34046875000000e-01 6.04920964443328e-01 4.33866338152059e-03
6.44703125000000e-01 5.98429464399357e-01 4.32802609306968e-03
6.55359375000000e-01 5.92007625642227e-01 4.31682489238938e-03
6.66015625000000e-01 5.85654700625940e-01 4.30508328213810e-03
6.76671875000000e-01 5.79369949826529e-01 4.29282386331509e-03
6.87328125000000e-01 5.73152641655971e-01 4.28006837871722e-03
6.97984375000000e-01 5.67002052377029e-01 4.26683775365108e-03
7.08640625000000e-01 5.60917466019000e-01 4.25315213411666e-03
7.19296875000000e-01 5.54898174294372e-01 4.23903092265894e-03
7.29953125000000e-01 5.48943476516379e-01 4.22449281206686e-03
7.40609375000000e-01 5.43052679517429e-01 4.20955581708066e-03
7.51265625000000e-01 5.37225097568421e-01 4.19423730425549e-03
7.61921875000000e-01 5.31460052298915e-01 4.17855402011601e-03
7.72578125000000e-01 5.25756872618173e-01 4.16252211772447e-03
7.83234375000000e-01 5.20114894637032e-01 4.14615718177509e-03
7.93890625000000e-01 5.14533461590627e-01 4.12947425231672e-03
8.04546875000000e-01 5.09011923761938e-01 4.11248784719861e-03
8.15203125000000e-01 5.03549638406158e-01 4.09521198332489e-03
8.25859375000000e-01 4.98145969675873e-01 4.07766019679822e-03
8.36515625000000e-01 4.92800288547048e-01 4.05984556202524e-03
8.47171875000000e-01 4.87511972745798e-01 4.04178070985054e-03
8.57828125000000e-01 4.82280406675958e-01 4.02347784478219e-03
8.68484375000000e-01 4.77104981347419e-01 4.00494876136533e-03
8.79140625000000e-01 4.71985094305239e-01 3.98620485975734e-03
8.89796875000000e-01 4.66920149559512e-01 3.96725716055361e-03
9.00453125000000e-01 4.61909557515993e-01 3.94811631890832e-03
9.11109375000000e-01 4.56952734907463e-01 3.92879263799339e-03
9.21765625000000e-01 4.52049104725832e-01 3.90929608183471e-03
9.32421875000000e-01 4.47198096154974e-01 3.88963628756072e-03
9.43078125000000e-01 4.42399144504280e-01 3.86982257709791e-03
9.53734375000000e-01 4.37651691142920e-01 3.84986396834526e-03
9.64390625000000e-01 4.32955183434820e-01 3.82976918585539e-03
9.75046875000000e-01 4.28309074674328e-01 3.80954667105041e-03
9.85703125000000e-01 4.23712824022574e-01 3.78920459199801e-03
9.96359375000000e-01 4.19165896444513e-01 3.76875085277148e-03
1.00701562500000e+00 4.14667762646645e-01 3.74819310241625e-03
1.01767187500000e+00 4.10217899015398e-01 3.72753874354209e-03
1.02832812500000e+00 4.05815787556181e-01 3.70679494056240e-03
1.03898437500000e+00 4.01460915833079e-01 3.68596862759814e-03
1.04964062500000e+00 3.97152776909208e-01 3.66506651606279e-03
1.06029687500000e+00 3.92890869287701e-01 3.64409510194512e-03
1.07095312500000e+00 3.88674696853332e-01 3.62306067280461e-03
1.08160937500000e+00 3.84503768814764e-01 3.60196931449343e-03
1.09226562500000e+00 3.80377599647415e-01 3.58082691761893e-03
1.10292187500000e+00 3.76295709036946e-01 3.55963918375817e-03
1.11357812500000e+00 3.72257621823341e-01 3.53841163143698e-03
1.12423437500000e+00 3.68262867945602e-01 3.51714960188480e-03
1.13489062500000e+00 3.64310982387027e-01 3.49585826457483e-03
1.14554687500000e+00 3.60401505121081e-01 3.47454262256051e-03
1.15620312500000e+00 3.56533981057843e-01 3.45320751761676e-03
1.16685937500000e+00 3.52707959991034e-01 3.43185763519521e-03
1.17751562500000e+00 3.48922996545605e-01 3.41049750920169e-03
1.18817187500000e+00 3.45178650125898e-01 3.38913152660352e-03
1.19882812500000e+00 3.41474484864354e-01 3.36776393187489e-03
1.20948437500000e+00 3.37810069570775e-01 3.34639883128658e-03
1.22014062500000e+00 3.34184977682132e-01 3.32504019704632e-03
1.23079687500000e+00 3.30598787212911e-01 3.30369187129760e-03
1.24145312500000e+00 3.27051080705988e-01 3.28235756998179e-03
1.25210937500000e+00 3.23541445184034e-01 3.26104088656914e-03
1.26276562500000e+00 3.20069472101448e-01 3.23974529566519e-03
1.27342187500000e+00 3.16634757296791e-01 3.21847415649616e-03
1.28407812500000e+00 3.13236900945744e-01 3.19723071627960e-03
1.29473437500000e+00 3.09875507514563e-01 3.17601811348434e-03
1.30539062500000e+00 3.06550185714039e-01 3.15483938098367e-03
1.31604687500000e+00 3.03260548453949e-01 3.13369744910702e-03
1.32670312500000e+00 3.00006212797991e-01 3.11259514859366e-03
1.33735937500000e+00 2.96786799919215e-01 3.09153521345135e-03
1.34801562500000e+00 2.93601935055920e-01 3.07052028372491e-03
1.35867187500000e+00 2.90451247468030e-01 3.04955290817779e-03
1.36932812500000e+00 2.87334370393938e-01 3.02863554688932e-03
1.37998437500000e+00 2.84250941007814e-01 3.00777057377161e-03
1.39064062500000e+00 2.81200600377365e-01 2.98696027900835e-03
1.40129687500000e+00 2.78182993422059e-01 2.96620687141872e-03
1.41195312500000e+00 2.75197768871785e-01 2.94551248074967e-03
1.42260937500000e+00 2.72244579225966e-01 2.92487915989846e-03
1.43326562500000e+00 2.69323080713110e-01 2.90430888706778e-03
1.44392187500000e+00 2.66432933250786e-01 2.88380356785683e-03
1.45457812500000e+00 2.63573800406043e-01 2.86336503728993e-03
1.46523437500000e+00 2.60745349356243e-01 2.84299506178485e-03
1.47589062500000e+00 2.57947250850317e-01 2.82269534106337e-03
1.48654687500000e+00 2.55179179170443e-01 2.80246751000553e-03
1.49720312500000e+00 2.52440812094125e-01 2.78231314044988e-03
1.50785937500000e+00 2.49731830856688e-01 2.76223374294165e-03
1.51851562500000e+00 2.47051920114167e-01 2.74223076843054e-03
1.52917187500000e+00 2.44400767906605e-01 2.72230560991934e-03
1.53982812500000e+00 2.41778065621732e-01 2.70245960406570e-03
1.55048437500000e+00 2.39183507959047e-01 2.68269403273845e-03
1.56114062500000e+00 2.36616792894274e-01 2.66301012452956e-03
1.57179687500000e+00 2.34077621644206e-01 2.64340905622359e-03
1.58245312500000e+00 2.31565698631925e-01 2.62389195422597e-03
1.59310937500000e+00 2.29080731452394e-01 2.60445989595137e-03
1.60376562500000e+00 2.26622430838421e-01 2.58511391117341e-03
1.61442187500000e+00 2.24190510626982e-01 2.56585498333700e-03
1.62507812500000e+00 2.21784687725914e-01 2.54668405083443e-03
1.63573437500000e+00 2.19404682080962e-01 2.52760200824646e-03
1.64639062500000e+00 2.17050216643171e-01 2.50860970754940e-03
1.65704687500000e+00 2.14721017336647e-01 2.48970795928928e-03
1.66770312500000e+00 2.12416813026641e-01 2.47089753372414e-03
1.67835937500000e+00 2.10137335487998e-01 2.45217916193552e-03
1.68901562500000e+00 2.07882319373924e-01 2.43355353690995e-03
1.69967187500000e+00 2.05651502185105e-01 2.41502131459094e-03
1.71032812500000e+00 2.03444624239147e-01 2.39658311490357e-03
1.72098437500000e+00 2.01261428640347e-01 2.37823952275115e-03
1.73164062500000e+00 1.99101661249790e-01 2.35999108898538e-03
1.74229687500000e+00 1.96965070655765e-01 2.34183833135137e-03
1.75295312500000e+00 1.94851408144498e-01 2.32378173540704e-03
1.76360937500000e+00 1.92760427671202e-01 2.30582175541847e-03
1.77426562500000e+00 1.90691885831434e-01 2.28795881523183e-03
1.78492187500000e+00 1.88645541832761e-01 2.27019330912243e-03
1.79557812500000e+00 1.86621157466731e-01 2.25252560262153e-03
1.80623437500000e+00 1.84618497081144e-01 2.23495603332156e-03
1.81689062500000e+00 1.82637327552620e-01 2.21748491166066e-03
1.82754687500000e+00 1.80677418259461e-01 2.20011252168654e-03
1.83820312500000e+00 1.78738541054807e-01 2.18283912180072e-03
1.84885937500000e+00 1.76820470240077e-01 2.16566494548381e-03
1.85951562500000e+00 1.74922982538696e-01 2.14859020200158e-03
1.87017187500000e+00 1.73045857070104e-01 2.13161507709356e-03
1.88082812500000e+00 1.71188875324044e-01 2.11473973364360e-03
1.89148437500000e+00 1.69351821135128e-01 2.09796431233302e-03
1.90214062500000e+00 1.67534480657670e-01 2.08128893227768e-03
1.91279687500000e+00 1.65736642340796e-01 2.06471369164855e-03
1.92345312500000e+00 1.63958096903818e-01 2.04823866827647e-03
1.93410937500000e+00 1.62198637311869e-01 2.03186392024171e-03
1.94476562500000e+00 1.60458058751806e-01 2.01558948644822e-03
1.95542187500000e+00 1.58736158608368e-01 1.99941538718370e-03
1.96607812500000e+00 1.57032736440590e-01 1.98334162466571e-03
1.97673437500000e+00 1.55347593958469e-01 1.96736818357334e-03
1.98739062500000e+00 1.53680534999881e-01 1.95149503156622e-03
1.99804687500000e+00 1.52031365507751e-01 1.93572211978996e-03
2.00870312500000e+00 1.50399893507459e-01 1.92004938336921e-03
2.01935937500000e+00 1.48785929084494e-01 1.90447674188839e-03
2.03001562500000e+00 1.47189284362347e-01 1.88900409985985e-03
2.04067187500000e+00 1.45609773480640e-01 1.87363134718081e-03
2.05132812500000e+00 1.44047212573494e-01 1.85835835957896e-03
2.06198437500000e+00 1.42501419748119e-01 1.84318499904677e-03
2.07264062500000e+00 1.40972215063648e-01 1.82811111426462e-03
2.08329687500000e+00 1.39459420510186e-01 1.81313654101398e-03
2.09395312500000e+00 1.37962859988090e-01 1.79826110257983e-03
2.10460937500000e+00 1.36482359287467e-01 1.78348461014339e-03
2.11526562500000e+00 1.35017746067902e-01 1.76880686316481e-03
2.12592187500000e+00 1.33568849838386e-01 1.75422764975643e-03
2.13657812500000e+00 1.32135501937479e-01 1.73974674704706e-03
2.14723437500000e+00 1.30717535513672e-01 1.72536392153668e-03
2.15789062500000e+00 1.29314785505965e-01 1.71107892944268e-03
2.16854687500000e+00 1.27927088624652e-01 1.69689151703745e-03
2.17920312500000e+00 1.26554283332317e-01 1.68280142097757e-03
2.18985937500000e+00 1.25196209825023e-01 1.66880836862479e-03
2.20051562500000e+00 1.23852710013717e-01 1.65491207835910e-03
2.21117187500000e+00 1.22523627505823e-01 1.64111225988403e-03
2.22182812500000e+00 1.21208807587036e-01 1.62740861452437e-03
2.23248437500000e+00 1.19908097203316e-01 1.61380083551643e-03
2.24314062500000e+00 1.18621344943069e-01 1.60028860829119e-03
2.25379687500000e+00 1.17348401019522e-01 1.58687161075031e-03
2.26445312500000e+00 1.16089117253287e-01 1.57354951353542e-03
2.27510937500000e+00 1.14843347055112e-01 1.56032198029057e-03
2.28576562500000e+00 1.13610945408817e-01 1.54718866791823e-03
2.29642187500000e+00 1.12391768854412e-01 1.53414922682895e-03
2.30707812500000e+00 1.11185675471399e-01 1.52120330118472e-03
2.31773437500000e+00 1.09992524862251e-01 1.50835052913647e-03
2.32839062500000e+00 1.08812178136068e-01 1.49559054305547e-03
2.33904687500000e+00 1.07644497892410e-01 1.48292296975872e-03
2.34970312500000e+00 1.06489348205301e-01 1.47034743072910e-03
2.36035937500000e+00 1.05346594607409e-01 1.45786354233006e-03
2.37101562500000e+00 1.04216104074393e-01 1.44547091601463e-03
2.38167187500000e+00 1.03097745009412e-01 1.43316915852930e-03
2.39232812500000e+00 1.01991387227816e-01 1.42095787211282e-03
2.40298437500000e+00 1.00896901941985e-01 1.40883665468993e-03
2.41364062500000e+00 9.98141617463359e-02 1.39680510006041e-03
2.42429687500000e+00 9.87430406024986e-02 1.38486279808320e-03
2.43495312500000e+00 9.76834138246381e-02 1.37300933485581e-03
2.44560937500000e+00 9.66351580649426e-02 1.36124429288938e-03
2.45626562500000e+00 9.55981512992647e-02 1.34956725127915e-03
2.46692187500000e+00 9.45722728129170e-02 1.33797778587078e-03
2.47757812500000e+00 9.35574031866200e-02 1.32647546942229e-03
2.48823437500000e+00 9.25534242826007e-02 1.31505987176187e-03
2.49889062500000e+00 9.15602192308409e-02 1.30373055994176e-03
2.50954687500000e+00 9.05776724154726e-02 1.29248709838811e-03
2.52020312500000e+00 8.96056694613193e-02 1.28132904904717e-03
2.53085937500000e+00 8.86440972205823e-02 1.27025597152741e-03
2.54151562500000e+00 8.76928437596693e-02 1.25926742323831e-03
2.55217187500000e+00 8.67517983461647e-02 1.24836295952534e-03
2.56282812500000e+00 8.58208514359394e-02 1.23754213380164e-03
2.57348437500000e+00 8.48998946603992e-02 1.22680449767605e-03
2.58414062500000e+00 8.39888208138701e-02 1.21614960107798e-03
2.59479687500000e+00 8.30875238411187e-02 1.20557699237901e-03
2.60545312500000e+00 8.21958988250065e-02 1.19508621851121e-03
2.61610937500000e+00 8.13138419742770e-02 1.18467682508247e-03
2.62676562500000e+00 8.04412506114739e-02 1.17434835648870e-03
2.63742187500000e+00 7.95780231609882e-02 1.16410035602312e-03
2.64807812500000e+00 7.87240591372344e-02 1.15393236598262e-03
2.65873437500000e+00 7.78792591329537e-02 1.14384392777125e-03
2.66939062500000e+00 7.70435248076413e-02 1.13383458200119e-03
2.68004687500000e+00 7.62167588761001e-02 1.12390386859059e-03
2.69070312500000e+00 7.53988650971150e-02 1.11405132685918e-03
2.70135937500000e+00 7.45897482622504e-02 1.10427649562098e-03
2.71201562500000e+00 7.37893141847671e-02 1.09457891327483e-03
2.72267187500000e+00 7.29974696886582e-02 1.08495811789214e-03
2.73332812500000e+00 7.22141225978030e-02 1.07541364730240e-03
2.74398437500000e+00 7.14391817252368e-02 1.06594503917631e-03
2.75464062500000e+00 7.06725568625365e-02 1.05655183110654e-03
2.76529687500000e+00 6.99141587693192e-02 1.04723356068652e-03
2.77595312500000e+00 6.91638991628544e-02 1.03798976558663e-03
2.78660937500000e+00 6.84216907077872e-02 1.02881998362846e-03
2.79726562500000e+00 6.76874470059720e-02 1.01972375285717e-03
2.80792187500000e+00 6.69610825864148e-02 1.01070061161156e-03
2.81857812500000e+00 6.62425128953240e-02 1.00175009859205e-03
2.82923437500000e+00 6.55316542862679e-02 9.92871752926969e-04
2.83989062500000e+00 6.48284240104374e-02 9.84065114236866e-04
2.85054687500000e+00 6.41327402070137e-02 9.75329722696849e-04
2.86120312500000e+00 6.34445218936391e-02 9.66665119097217e-04
2.87185937500000e+00 6.27636889569900e-02 9.58070844902303e-04
2.88251562500000e+00 6.20901621434511e-02 9.49546442307507e-04
2.89317187500000e+00 6.14238630498901e-02 9.41091454294688e-04
2.90382812500000e+00 6.07647141145305e-02 9.32705424685927e-04
2.91448437500000e+00 6.01126386079234e-02 9.24387898195610e-04
2.92514062500000e+00 5.94675606240154e-02 9.16138420480966e-04
2.93579687500000e+00 5.88294050713125e-02 9.07956538191066e-04
2.94645312500000e+00 5.81980976641392e-02 8.99841799014283e-04
2.95710937500000e+00 5.75735649139911e-02 8.91793751724291e-04
2.96776562500000e+00 5.69557341209801e-02 8.83811946224589e-04
2.97842187500000e+00 5.63445333653719e-02 8.75895933591718e-04
2.98907812500000e+00 5.57398914992139e-02 8.68045266117043e-04
2.99973437500000e+00 5.51417381380533e-02 8.60259497347128e-04
3.01039062500000e+00 5.45500036527434e-02 8.52538182122855e-04
3.02104687500000e+00 5.39646191613388e-02 8.44880876617354e-04
3.03170312500000e+00 5.33855165210768e-02 8.37287138372501e-04
3.04235937500000e+00 5.28126283204453e-02 8.29756526334303e-04
3.05301562500000e+00 5.22458878713354e-02 8.22288600887098e-04
3.06367187500000e+00 5.16852292012786e-02 8.14882923886549e-04
3.07432812500000e+00 5.11305870457671e-02 8.07539058691558e-04
3.08498437500000e+00 5.05818968406566e-02 8.00256570194937e-04
3.09564062500000e+00 5.00390947146506e-02 7.93035024853093e-04
3.10629687500000e+00 4.95021174818653e-02 7.85873990714634e-04
3.11695312500000e+00 4.89709026344743e-02 7.78773037448047e-04
3.12760937500000e+00 4.84453883354325e-02 7.71731736368096e-04
3.13826562500000e+00 4.79255134112773e-02 7.64749660461443e-04
3.14892187500000e+00 4.74112173450084e-02 7.57826384411356e-04
3.15957812500000e+00 4.69024402690424e-02 7.50961484621242e-04
3.17023437500000e+00 4.63991229582444e-02 7.44154539237453e-04
3.18089062500000e+00 4.59012068230332e-02 7.37405128171112e-04
3.19154687500000e+00 4.54086339025619e-02 7.30712833119092e-04
3.20220312500000e+00 4.49213468579699e-02 7.24077237584085e-04
3.21285937500000e+00 4.44392889657092e-02 7.17497926893923e-04
3.22351562500000e+00 4.39624041109405e-02 7.10974488220079e-04
3.23417187500000e+00 4.34906367810018e-02 7.04506510595255e-04
3.24482812500000e+00 4.30239320589458e-02 6.98093584930280e-04
3.25548437500000e+00 4.25622356171477e-02 6.91735304030280e-04
3.26614062500000e+00 4.21054937109805e-02 6.85431262610016e-04
3.27679687500000e+00 4.16536531725593e-02 6.79181057308560e-04
3.28745312500000e+00 4.12066614045517e-02 6.72984286703310e-04
3.29810937500000e+00 4.07644663740558e-02 6.66840551323193e-04
3.30876562500000e+00 4.03270166065423e-02 6.60749453661279e-04
3.31942187500000e+00 3.98942611798634e-02 6.54710598186782e-04
3.33007812500000e+00 3.94661497183244e-02 6.48723591356315e-04
3.34073437500000e+00 3.90426323868203e-02 6.42788041624565e-04
3.35139062500000e+00 3.86236598850338e-02 6.36903559454406e-04
3.36204687500000e+00 3.82091834416974e-02 6.31069757326355e-04
