Energy (eV)          EEDF (eV^-(3/2))     First Anisotropy
1.42045454545455e-02 1.63114306489789e-01 9.19816299743763e-05
4.26136363636364e-02 1.61839568082813e-01 1.51804650856508e-04
7.10227272727273e-02 1.60574791757303e-01 2.00179147145623e-04
9.94318181818182e-02 1.59319899659584e-01 2.36795886770372e-04
1.27840909090909e-01 1.58074814539193e-01 2.67224216870331e-04
1.56250000000000e-01 1.56839459760058e-01 2.93572740567933e-04
1.84659090909091e-01 1.55613759286785e-01 3.16934092205518e-04
2.13068181818182e-01 1.54397637662587e-01 3.37968923974662e-04
2.41477272727273e-01 1.53191020028965e-01 3.57115943222624e-04
2.69886363636364e-01 1.51993832112372e-01 3.74685606952098e-04
2.98295454545455e-01 1.50806000219667e-01 3.90908016784517e-04
3.26704545454545e-01 1.49627451233597e-01 4.05959843596626e-04
3.55113636363636e-01 1.48458112608262e-01 4.19980568634078e-04
3.83522727272727e-01 1.47297912364744e-01 4.33082829843078e-04
4.11931818181818e-01 1.46146779086629e-01 4.45359306919603e-04
4.40340909090909e-01 1.45004641915614e-01 4.56887469764200e-04
4.68750000000000e-01 1.43871430547143e-01 4.67732952441127e-04
4.97159090909091e-01 1.42747075228404e-01 4.77952013146674e-04
5.25568181818182e-01 1.41631506746936e-01 4.87593365623736e-04
5.53977272727273e-01 1.40524656433626e-01 4.96699569419179e-04
5.82386363636364e-01 1.39426456156011e-01 5.05308104207358e-04
6.10795454545454e-01 1.38336838314076e-01 5.13452210596573e-04
6.39204545454545e-01 1.37255735836099e-01 5.21161557769973e-04
6.67613636363636e-01 1.36183082174511e-01 5.28462779766780e-04
6.96022727272727e-01 1.35118811301822e-01 5.35379910880535e-04
7.24431818181818e-01 1.34062857706545e-01 5.41934742597545e-04
7.52840909090909e-01 1.33015156389165e-01 5.48147118808554e-04
7.81250000000000e-01 1.31975642858134e-01 5.54035181787567e-04
8.09659090909091e-01 1.30944253127192e-01 5.59615579485177e-04
8.38068181818182e-01 1.29920923707511e-01 5.64903640076043e-04
8.66477272727273e-01 1.28905591607763e-01 5.69913520486558e-04
8.94886363636364e-01 1.27898194328897e-01 5.74658334405991e-04
9.23295454545454e-01 1.26898669860291e-01 5.79150261867193e-04
9.51704545454545e-01 1.25906956675937e-01 5.83400644235945e-04
9.80113636363636e-01 1.24922993730644e-01 5.87420066810991e-04
1.00852272727273e+00 1.23946720456299e-01 5.91218430561027e-04
1.03693181818182e+00 1.22978076760886e-01 5.94805016546606e-04
1.06534090909091e+00 1.22017003017279e-01 5.98188541091536e-04
1.09375000000000e+00 1.21063440066251e-01 6.01377205529119e-04
1.12215909090909e+00 1.20117329202473e-01 6.04378736921305e-04
1.15056818181818e+00 1.19178612196575e-01 6.07200429398558e-04
1.17897727272727e+00 1.18247231265495e-01 6.09849181622393e-04
1.20738636363636e+00 1.17323129077754e-01 6.12331523794903e-04
1.23579545454545e+00 1.16406248749919e-01 6.14653647010282e-04
1.26420454545455e+00 1.15496533843106e-01 6.16821428445559e-04
1.29261363636364e+00 1.14593928359484e-01 6.18840454099402e-04
1.32102272727273e+00 1.13698376738870e-01 6.20716039385243e-04
1.34943181818182e+00 1.12809823855284e-01 6.22453247826448e-04
1.37784090909091e+00 1.11928215013563e-01 6.24056908049566e-04
1.40625000000000e+00 1.11053495945984e-01 6.25531630350036e-04
1.43465909090909e+00 1.10185612802895e-01 6.26881817596050e-04
1.46306818181818e+00 1.09324512167732e-01 6.28111680370420e-04
1.49147727272727e+00 1.08470141035157e-01 6.29225251042893e-04
1.51988636363636e+00 1.07622446814074e-01 6.30226391350572e-04
1.54829545454545e+00 1.06781377324386e-01 6.31118803560481e-04
1.57670454545455e+00 1.05946880793785e-01 6.31906039728785e-04
1.60511363636364e+00 1.05118905854556e-01 6.32591510243420e-04
1.63352272727273e+00 1.04297401540433e-01 6.33178491729176e-04
1.66193181818182e+00 1.03482317283456e-01 6.33670134374521e-04
1.69034090909091e+00 1.02673602910853e-01 6.34069468720610e-04
1.71875000000000e+00 1.01871208641955e-01 6.34379412860828e-04
1.74715909090909e+00 1.01075085080589e-01 6.34602775613404e-04
1.77556818181818e+00 1.00285183225812e-01 6.34742263801555e-04
1.80397727272727e+00 9.95014544549614e-02 6.34800489174261e-04
1.83238636363636e+00 9.87238505253625e-02 6.34779970403302e-04
1.86079545454545e+00 9.79523235713580e-02 6.34683138461753e-04
1.88920454545455e+00 9.71868261013619e-02 6.34512340789889e-04
1.91761363636364e+00 9.64273109949274e-02 6.34269845193545e-04
1.94602272727273e+00 9.56737314998641e-02 6.33957843504350e-04
1.97443181818182e+00 9.49260412293501e-02 6.33578455019839e-04
2.00284090909091e+00 9.41841941590776e-02 6.33133729731862e-04
2.03125000000000e+00 9.34481446244193e-02 6.32625652118239e-04
2.05965909090909e+00 9.27178473140897e-02 6.32056141729962e-04
2.08806818181818e+00 9.19932572780497e-02 6.31427057419414e-04
2.11647727272727e+00 9.12743299139324e-02 6.30740201426341e-04
2.14488636363636e+00 9.05610209679393e-02 6.29997319451806e-04
2.17329545454545e+00 8.98532865321158e-02 6.29200103713933e-04
2.20170454545455e+00 8.91510830416487e-02 6.28350195098723e-04
2.23011363636364e+00 8.84543672721789e-02 6.27449185192756e-04
2.25852272727273e+00 8.77630963371522e-02 6.26498618211435e-04
2.28693181818182e+00 8.70772276851729e-02 6.25499992829824e-04
2.31534090909091e+00 8.63967190973854e-02 6.24454763916308e-04
2.34375000000000e+00 8.57215286848745e-02 6.23364344823006e-04
2.37215909090909e+00 8.50516148832799e-02 6.22230107008035e-04
2.40056818181818e+00 8.43869364587420e-02 6.21053382829920e-04
2.42897727272727e+00 8.37274524967753e-02 6.19835468280485e-04
2.45738636363636e+00 8.30731224026413e-02 6.18577622344200e-04
2.48579545454545e+00 8.24239058988501e-02 6.17281068952164e-04
2.51420454545455e+00 8.17797630226804e-02 6.15946998208560e-04
2.54261363636364e+00 8.11406541237163e-02 6.14576567557915e-04
2.57102272727273e+00 8.05065398614145e-02 6.13170902901207e-04
2.59943181818182e+00 7.98773812026781e-02 6.11731099663841e-04
2.62784090909091e+00 7.92531394194543e-02 6.10258223813466e-04
2.65625000000000e+00 7.86337760863504e-02 6.08753313388139e-04
2.68465909090909e+00 7.80192530759941e-02 6.07217377753592e-04
2.71306818181818e+00 7.74095325635720e-02 6.05651399619933e-04
2.74147727272727e+00 7.68045770175519e-02 6.04056337030636e-04
2.76988636363636e+00 7.62043491997108e-02 6.02433122467033e-04
2.79829545454545e+00 7.56088121628425e-02 6.00782664209050e-04
2.82670454545455e+00 7.50179292484838e-02 5.99105847088843e-04
2.85511363636364e+00 7.44316640846546e-02 5.97403533211693e-04
2.88352272727273e+00 7.38499805836253e-02 5.95676562649662e-04
2.91193181818182e+00 7.32728429396919e-02 5.93925754109316e-04
2.94034090909091e+00 7.27002156269723e-02 5.92151905571082e-04
2.96875000000000e+00 7.21320633972194e-02 5.90355795385555e-04
2.99715909090909e+00 7.15683512757837e-02 5.88538181412158e-04
3.02556818181818e+00 7.10090445651125e-02 5.86699802563865e-04
3.05397727272727e+00 7.04541088369121e-02 5.84841380340109e-04
3.08238636363636e+00 6.99035099319457e-02 5.82963617867478e-04
3.11079545454545e+00 6.93572139579313e-02 5.81067200907407e-04
3.13920454545455e+00 6.88151872874554e-02 5.79152798346736e-04
3.16761363636364e+00 6.82773965559006e-02 5.77221062668847e-04
3.19602272727273e+00 6.77438086593967e-02 5.75272630409128e-04
3.22443181818182e+00 6.72143907527801e-02 5.73308122595540e-04
3.25284090909091e+00 6.66891102475726e-02 5.71328145172100e-04
3.28125000000000e+00 6.61679348099749e-02 5.69333289827962e-04
3.30965909090909e+00 6.56508323573257e-02 5.67324133124584e-04
3.33806818181818e+00 6.51377710608188e-02 5.65301237728433e-04
3.36647727272727e+00 6.46287193388115e-02 5.63265153639440e-04
3.39488636363636e+00 6.41236458564721e-02 5.61216417250267e-04
3.42329545454545e+00 6.36225195238505e-02 5.59155552126933e-04
3.45170454545455e+00 6.31253094939649e-02 5.57083069342801e-04
3.48011363636364e+00 6.26319851609011e-02 5.54999467800472e-04
3.50852272727273e+00 6.21425161579320e-02 5.52905234544213e-04
3.53693181818182e+00 6.16568723556466e-02 5.50800845063297e-04
3.56534090909091e+00 6.11750238600953e-02 5.48686763584458e-04
3.59375000000000e+00 6.06969410109500e-02 5.46563443723495e-04
3.62215909090909e+00 6.02225943783786e-02 5.44431327648508e-04
3.65056818181818e+00 5.97519547651638e-02 5.42290847091814e-04
3.67897727272727e+00 5.92849932009432e-02 5.40142424361665e-04
3.70738636363636e+00 5.88216809417580e-02 5.37986471455474e-04
3.73579545454545e+00 5.83619894682834e-02 5.35823390684432e-04
3.76420454545455e+00 5.79058904840733e-02 5.33653574909355e-04
3.79261363636364e+00 5.74533559138173e-02 5.31477407768553e-04
3.82102272727273e+00 5.70043579016147e-02 5.29295263899775e-04
3.84943181818182e+00 5.65588688092591e-02 5.27107509156336e-04
3.87784090909091e+00 5.61168612145366e-02 5.24914500815839e-04
3.90625000000000e+00 5.56783079095379e-02 5.22716588107176e-04
3.93465909090909e+00 5.52431818978868e-02 5.20514111429822e-04
3.96306818181818e+00 5.48114563963954e-02 5.18307403201291e-04
3.99147727272727e+00 5.43831048300715e-02 5.16096788706681e-04
4.01988636363636e+00 5.39581008316066e-02 5.13882585279400e-04
4.04829545454545e+00 5.35364182397530e-02 5.11665102813021e-04
4.07670454545454e+00 5.31180310977131e-02 5.09444643932915e-04
4.10511363636364e+00 5.27029136515407e-02 5.07221504162240e-04
4.13352272727273e+00 5.22910403485580e-02 5.04995972083985e-04
4.16193181818182e+00 5.18823858357813e-02 5.02768329499309e-04
4.19034090909091e+00 5.14769249583606e-02 5.00538851580709e-04
4.21875000000000e+00 5.10746327580313e-02 4.98307807307324e-04
4.24715909090909e+00 5.06754844706453e-02 4.96075458746970e-04
4.27556818181818e+00 5.02794555274650e-02 4.93842061776437e-04
4.30397727272727e+00 4.98865215508111e-02 4.91607866804967e-04
4.33238636363636e+00 4.94966583535157e-02 4.89373118025540e-04
4.36079545454545e+00 4.91098419374339e-02 4.87138053842061e-04
4.38920454545454e+00 4.87260484919661e-02 4.84902906997204e-04
4.41761363636364e+00 4.83452543925922e-02 4.82667904696111e-04
4.44602272727273e+00 4.79674361994183e-02 4.80433268727598e-04
4.47443181818182e+00 4.75925706557335e-02 4.78199215582786e-04
4.50284090909091e+00 4.72206346865782e-02 4.75965956569931e-04
4.53125000000000e+00 4.68516053973235e-02 4.73733698179766e-04
4.55965909090909e+00 4.64854600714658e-02 4.71502641430803e-04
4.58806818181818e+00 4.61221761716356e-02 4.69272982488293e-04
4.61647727272727e+00 4.57617313357847e-02 4.67044913286708e-04
4.64488636363636e+00 4.54041033766241e-02 4.64818620849896e-04
4.67329545454545e+00 4.50492702802589e-02 4.62594287652468e-04
4.70170454545454e+00 4.46972102048326e-02 4.60372091716898e-04
4.73011363636364e+00 4.43479014791823e-02 4.58152206707579e-04
4.75852272727273e+00 4.40013226015060e-02 4.55934802023101e-04
4.78693181818182e+00 4.36574522380382e-02 4.53720042886769e-04
4.81534090909091e+00 4.33162692217371e-02 4.51508090434289e-04
4.84375000000000e+00 4.29777525509812e-02 4.49299102024276e-04
4.87215909090909e+00 4.26418813875931e-02 4.47093230644055e-04
4.90056818181818e+00 4.23086350576228e-02 4.44890625445965e-04
4.92897727272727e+00 4.19779930479939e-02 4.42691432287318e-04
4.95738636363636e+00 4.16499350059395e-02 4.40495793115252e-04
4.98579545454545e+00 4.13244407377498e-02 4.38303846275768e-04
5.01420454545454e+00 4.10014902075287e-02 4.36115726588590e-04
5.04261363636364e+00 4.06810635359604e-02 4.33931565419896e-04
5.07102272727273e+00 4.03631409990865e-02 4.31751490753629e-04
5.09943181818182e+00 4.00477030270911e-02 4.29575627261563e-04
5.12784090909091e+00 3.97347302030968e-02 4.27404096371391e-04
5.15625000000000e+00 3.94242032619690e-02 4.25237016533078e-04
5.18465909090909e+00 3.91161030885411e-02 4.23074502681150e-04
5.21306818181818e+00 3.88104107182180e-02 4.20916666702417e-04
5.24147727272727e+00 3.85071073340154e-02 4.18763617907225e-04
5.26988636363636e+00 3.82061742660039e-02 4.16615462474008e-04
5.29829545454545e+00 3.79075929901595e-02 4.14472303715833e-04
5.32670454545454e+00 3.76113451272237e-02 4.12334242138877e-04
5.35511363636364e+00 3.73174124415713e-02 4.10201375499310e-04
5.38352272727273e+00 3.70257768400893e-02 4.08073798859173e-04
5.41193181818182e+00 3.67364203710620e-02 4.05951604641326e-04
5.44034090909091e+00 3.64493252230667e-02 4.03834882682899e-04
5.46875000000000e+00 3.61644737238769e-02 4.01723720465547e-04
5.49715909090909e+00 3.58818483388651e-02 3.99618202629673e-04
5.52556818181818e+00 3.56014316714629e-02 3.97518411384373e-04
5.55397727272727e+00 3.53232064605396e-02 3.95424426920911e-04
5.58238636363636e+00 3.50471555798602e-02 3.93336326911711e-04
5.61079545454545e+00 3.47732620370314e-02 3.91254186741675e-04
5.63920454545454e+00 3.45015089724553e-02 3.89178079554461e-04
5.66761363636364e+00 3.42318796582916e-02 3.87108076297411e-04
5.69602272727273e+00 3.39643574974284e-02 3.85044245765802e-04
5.72443181818182e+00 3.36989260224604e-02 3.82986654646390e-04
5.75284090909091e+00 3.34355688946748e-02 3.80935367559745e-04
5.78125000000000e+00 3.31742699030461e-02 3.78890447260587e-04
5.80965909090909e+00 3.29150129627958e-02 3.76851954199302e-04
5.83806818181818e+00 3.26577821157381e-02 3.74819946882743e-04
5.86647727272727e+00 3.24025615279525e-02 3.72794482238472e-04
5.89488636363636e+00 3.21493354892605e-02 3.70775615163112e-04
5.92329545454545e+00 3.18980884122586e-02 3.68763398724213e-04
5.95170454545454e+00 3.16488048313591e-02 3.66757884197159e-04
5.98011363636364e+00 3.14014694018374e-02 3.64759121100971e-04
6.00852272727273e+00 3.11560668988884e-02 3.62767157233635e-04
6.03693181818182e+00 3.09125822166887e-02 3.60782038706941e-04
6.06534090909091e+00 3.06710003674672e-02 3.58803809980312e-04
6.09375000000000e+00 3.04313064805821e-02 3.56832514035860e-04
6.12215909090909e+00 3.01934858012207e-02 3.54868191982881e-04
6.15056818181818e+00 2.99575236906542e-02 3.52910883376499e-04
6.17897727272727e+00 2.97234056241653e-02 3.50960626539491e-04
6.20738636363636e+00 2.94911171905477e-02 3.49017458155321e-04
6.23579545454545e+00 2.92606440912184e-02 3.47081413445033e-04
6.26420454545454e+00 2.90319721393380e-02 3.45152526196874e-04
6.29261363636364e+00 2.88050872589369e-02 3.43230828795104e-04
6.32102272727273e+00 2.85799754840498e-02 3.41316352248377e-04
6.34943181818182e+00 2.83566229578550e-02 3.39409126217741e-04
6.37784090909091e+00 2.81350159318223e-02 3.37509179043881e-04
6.40625000000000e+00 2.79151407648659e-02 3.35616537900767e-04
6.43465909090909e+00 2.76969839221694e-02 3.33731228438899e-04
6.46306818181818e+00 2.74805319753673e-02 3.31853275067556e-04
6.49147727272727e+00 2.72657716006963e-02 3.29982701239940e-04
6.51988636363636e+00 2.70526895785183e-02 3.28119529086411e-04
6.54829545454545e+00 2.68412727925069e-02 3.26263779570108e-04
6.57670454545454e+00 2.66315082288396e-02 3.24415472510872e-04
6.60511363636364e+00 2.64233829753969e-02 3.22574626608484e-04
6.63352272727273e+00 2.62168842209678e-02 3.20741259465660e-04
6.66193181818182e+00 2.60119992544606e-02 3.18915387610693e-04
6.69034090909091e+00 2.58087154641212e-02 3.17097026519459e-04
6.71875000000000e+00 2.56070203367561e-02 3.15286190750791e-04
6.74715909090909e+00 2.54069014566687e-02 3.13482893624600e-04
6.77556818181818e+00 2.52083465057825e-02 3.11687147472520e-04
6.80397727272727e+00 2.50113432619892e-02 3.09898963891132e-04
6.83238636363636e+00 2.48158795986961e-02 3.08118353411343e-04
6.86079545454545e+00 2.46219434840802e-02 3.06345325635799e-04
6.88920454545454e+00 2.44295229803468e-02 3.04579889258206e-04
6.91761363636364e+00 2.42386062429953e-02 3.02822052082243e-04
6.94602272727273e+00 2.40491815200898e-02 3.01071821040177e-04
6.97443181818182e+00 2.38612371515360e-02 2.99329202211285e-04
7.00284090909091e+00 2.36747615683631e-02 2.97594200839740e-04
7.03125000000000e+00 2.34897432920119e-02 2.95866821454148e-04
7.05965909090909e+00 2.33061709333705e-02 2.94147067577208e-04
7.08806818181818e+00 2.31240331928513e-02 2.92434941948606e-04
7.11647727272727e+00 2.29433188589122e-02 2.90730446750478e-04
7.14488636363636e+00 2.27640168076295e-02 2.89033583309273e-04
7.17329545454545e+00 2.25861160020126e-02 2.87344352217234e-04
7.20170454545454e+00 2.24096054913254e-02 2.85662753348234e-04
7.23011363636364e+00 2.22344744104113e-02 2.83988785873130e-04
7.25852272727273e+00 2.20607119790255e-02 2.82322448274936e-04
7.28693181818182e+00 2.18883075011704e-02 2.80663738363823e-04
7.31534090909091e+00 2.17172503644378e-02 2.79012653291715e-04
7.34375000000000e+00 2.15475300393557e-02 2.77369189658132e-04
7.37215909090909e+00 2.13791360785132e-02 2.75733343248100e-04
7.40056818181818e+00 2.12120581166017e-02 2.74105109230898e-04
7.42897727272727e+00 2.10462858690882e-02 2.72484482361060e-04
7.45738636363636e+00 2.08818091318134e-02 2.70871456709398e-04
7.48579545454545e+00 2.07186177803634e-02 2.69266025770740e-04
7.51420454545454e+00 2.05567017694468e-02 2.67668182476886e-04
7.54261363636364e+00 2.03960511322759e-02 2.66077919209113e-04
7.57102272727273e+00 2.02366559799538e-02 2.64495227810569e-04
7.59943181818182e+00 2.00785065008650e-02 2.62920099598517e-04
7.62784090909091e+00 1.99215929600720e-02 2.61352525376247e-04
7.65625000000000e+00 1.97659056987160e-02 2.59792495527042e-04
7.68465909090909e+00 1.96114351332228e-02 2.58239999777548e-04
7.71306818181818e+00 1.94581717553145e-02 2.56695027375161e-04
7.74147727272727e+00 1.93061061308190e-02 2.55157567267486e-04
7.76988636363636e+00 1.91552288992923e-02 2.53627607859674e-04
7.79829545454545e+00 1.90055307734421e-02 2.52105137110166e-04
7.82670454545454e+00 1.88570025385564e-02 2.50590142541214e-04
7.85511363636364e+00 1.87096350519361e-02 2.49082611249128e-04
7.88352272727273e+00 1.85634192423324e-02 2.47582529914430e-04
7.91193181818182e+00 1.84183461093884e-02 2.46089884811848e-04
7.94034090909091e+00 1.82744067230848e-02 2.44604661820046e-04
7.96875000000000e+00 1.81315922231906e-02 2.43126846505172e-04
7.99715909090909e+00 1.79898938185419e-02 2.41656423907128e-04
8.02556818181818e+00 1.78493027870309e-02 2.40193378698186e-04
8.05397727272727e+00 1.77098104745355e-02 2.38737695343459e-04
8.08238636363636e+00 1.75714082945655e-02 2.37289357881750e-04
8.11079545454546e+00 1.74340877277343e-02 2.35848350010828e-04
8.13920454545454e+00 1.72978403212340e-02 2.34414655096017e-04
8.16761363636364e+00 1.71626576883156e-02 2.32988256178584e-04
8.19602272727273e+00 1.70285315077726e-02 2.31569135984031e-04
8.22443181818182e+00 1.68954535234286e-02 2.30157276930264e-04
8.25284090909091e+00 1.67634155436295e-02 2.28752661135582e-04
8.28125000000000e+00 1.66324094407386e-02 2.27355270493036e-04
8.30965909090909e+00 1.65024271504822e-02 2.25965086477366e-04
8.33806818181818e+00 1.63734606719202e-02 2.24582090286923e-04
8.36647727272727e+00 1.62455020664832e-02 2.23206262987355e-04
8.39488636363636e+00 1.61185434576420e-02 2.21837585313695e-04
8.42329545454546e+00 1.59925770304221e-02 2.20476037746328e-04
8.45170454545454e+00 1.58675950309232e-02 2.19121600518052e-04
8.48011363636364e+00 1.57435897658417e-02 2.17774253620920e-04
8.50852272727273e+00 1.56205536019973e-02 2.16433976812998e-04
8.53693181818182e+00 1.54984789658629e-02 2.15100749625081e-04
8.56534090909091e+00 1.53773583430985e-02 2.13774551367200e-04
8.59375000000000e+00 1.52571842780889e-02 2.12455361194918e-04
8.62215909090909e+00 1.51379493733472e-02 2.11143157934863e-04
8.65056818181818e+00 1.50196462894737e-02 2.09837920211898e-04
8.67897727272727e+00 1.49022677442874e-02 2.08539626577856e-04
8.70738636363636e+00 1.47858065125177e-02 2.07248255332745e-04
8.73579545454546e+00 1.46702554253594e-02 2.05963784592548e-04
8.76420454545454e+00 1.45556073700315e-02 2.04686192294986e-04
8.79261363636364e+00 1.44418552893393e-02 2.03415456205088e-04
8.82102272727273e+00 1.43289921812402e-02 2.02151553920732e-04
8.84943181818182e+00 1.42170110984127e-02 2.00894462878117e-04
8.87784090909091e+00 1.41059051478284e-02 1.99644160357080e-04
8.90625000000000e+00 1.39956674903280e-02 1.98400623540296e-04
8.93465909090909e+00 1.38862913400792e-02 1.97163829355493e-04
8.96306818181818e+00 1.37777699645245e-02 1.95933754589545e-04
