Energy (eV)          EEDF (eV^-(3/2))     First Anisotropy
2.35245901639344e-02 4.70374035962402e-02 2.26138122248705e-05
7.05737704918033e-02 4.67715843419282e-02 3.73619213254349e-05
1.17622950819672e-01 4.65072672933622e-02 4.93752198636390e-05
1.64672131147541e-01 4.62444439617560e-02 5.85343021371738e-05
2.11721311475410e-01 4.59831059060222e-02 6.62000301097555e-05
2.58770491803279e-01 4.57232447312926e-02 7.28860115282121e-05
3.05819672131148e-01 4.54648520926368e-02 7.88575899977854e-05
3.52868852459016e-01 4.52079196908262e-02 8.42747347963919e-05
3.99918032786885e-01 4.49524392729960e-02 8.92433672642226e-05
4.46967213114754e-01 4.46984026343860e-02 9.38382289901237e-05
4.94016393442623e-01 4.44458016157874e-02 9.81145582288195e-05
5.41065573770492e-01 4.41946281036665e-02 1.02114645889349e-04
5.88114754098361e-01 4.39448740313695e-02 1.05871786048165e-04
6.35163934426230e-01 4.36965313772711e-02 1.09412789800566e-04
6.82213114754098e-01 4.34495921647281e-02 1.12759655885263e-04
7.29262295081967e-01 4.32040484629606e-02 1.15930721931967e-04
7.76311475409836e-01 4.29598923855884e-02 1.18941481626074e-04
8.23360655737705e-01 4.27171160905088e-02 1.21805179290498e-04
8.70409836065574e-01 4.24757117805687e-02 1.24533252607900e-04
9.17459016393443e-01 4.22356717023451e-02 1.27135668357869e-04
9.64508196721311e-01 4.19969881459858e-02 1.29621180989005e-04
1.01155737704918e+00 4.17596534457342e-02 1.31997535341560e-04
1.05860655737705e+00 4.15236599781793e-02 1.34271626986896e-04
1.10565573770492e+00 4.12890001644362e-02 1.36449631153407e-04
1.15270491803279e+00 4.10556664677086e-02 1.38537107434238e-04
1.19975409836066e+00 4.08236513937937e-02 1.40539085025368e-04
1.24680327868852e+00 4.05929474908410e-02 1.42460133495971e-04
1.29385245901639e+00 4.03635473491133e-02 1.44304421640185e-04
1.34090163934426e+00 4.01354436007481e-02 1.46075766854867e-04
1.38795081967213e+00 3.99086289195210e-02 1.47777676853802e-04
1.43500000000000e+00 3.96830960206106e-02 1.49413385132387e-04
1.48204918032787e+00 3.94588376603627e-02 1.50985881296783e-04
1.52909836065574e+00 3.92358466360594e-02 1.52497937144143e-04
1.57614754098361e+00 3.90141157856888e-02 1.53952129205144e-04
1.62319672131148e+00 3.87936379877133e-02 1.55350858321422e-04
1.67024590163934e+00 3.85744061608411e-02 1.56696366724208e-04
1.71729508196721e+00 3.83564132637986e-02 1.57990752996599e-04
1.76434426229508e+00 3.81396522951043e-02 1.59235985233776e-04
1.81139344262295e+00 3.79241162928439e-02 1.60433912661555e-04
1.85844262295082e+00 3.77097983344467e-02 1.61586275930270e-04
1.90549180327869e+00 3.74966915364628e-02 1.62694716265506e-04
1.95254098360656e+00 3.72847890543431e-02 1.63760783628580e-04
1.99959016393443e+00 3.70740840822180e-02 1.64785944015788e-04
2.04663934426229e+00 3.68645698526802e-02 1.65771586005986e-04
2.09368852459016e+00 3.66562396365663e-02 1.66719026650014e-04
2.14073770491803e+00 3.64490867427411e-02 1.67629516973071e-04
2.18778688524590e+00 3.62431045169367e-02 1.68504246197778e-04
2.23483606557377e+00 3.60382863444085e-02 1.69344346484500e-04
2.28188524590164e+00 3.58346256468197e-02 1.70150897271990e-04
2.32893442622951e+00 3.56321158830095e-02 1.70924928284601e-04
2.37598360655738e+00 3.54307505487829e-02 1.71667423010756e-04
2.42303278688525e+00 3.52305231767016e-02 1.72379321700861e-04
2.47008196721311e+00 3.50314273358764e-02 1.73061524112251e-04
2.51713114754098e+00 3.48334566317606e-02 1.73714892027115e-04
2.56418032786885e+00 3.46366047059449e-02 1.74340251566215e-04
2.61122950819672e+00 3.44408652359527e-02 1.74938395318581e-04
2.65827868852459e+00 3.42462319350373e-02 1.75510084305032e-04
2.70532786885246e+00 3.40526985519800e-02 1.76056049791246e-04
2.75237704918033e+00 3.38602588708892e-02 1.76576994964532e-04
2.79942622950820e+00 3.36689067110008e-02 1.77073596486724e-04
2.84647540983607e+00 3.34786359264796e-02 1.77546505934419e-04
2.89352459016393e+00 3.32894404062223e-02 1.77996351136724e-04
2.94057377049180e+00 3.31013140736600e-02 1.78423737418869e-04
2.98762295081967e+00 3.29142508865648e-02 1.78829248760341e-04
3.03467213114754e+00 3.27282448368547e-02 1.79213448874882e-04
3.08172131147541e+00 3.25432899504009e-02 1.79576882218141e-04
3.12877049180328e+00 3.23593802868358e-02 1.79920074929357e-04
3.17581967213115e+00 3.21765099393621e-02 1.80243535712324e-04
3.22286885245902e+00 3.19946730345635e-02 1.80547756660389e-04
3.26991803278689e+00 3.18138637322155e-02 1.80833214029919e-04
3.31696721311475e+00 3.16340762250982e-02 1.81100368966093e-04
3.36401639344262e+00 3.14553047388096e-02 1.81349668184726e-04
3.41106557377049e+00 3.12775435315803e-02 1.81581544613383e-04
3.45811475409836e+00 3.11007868940890e-02 1.81796417994700e-04
3.50516393442623e+00 3.09250291492789e-02 1.81994695454781e-04
3.55221311475410e+00 3.07502646521760e-02 1.82176772039083e-04
3.59926229508197e+00 3.05764877897069e-02 1.82343031342092e-04
3.64631147540984e+00 3.04036929800455e-02 1.82493845610643e-04
3.69336065573770e+00 3.02318746738665e-02 1.82629576446517e-04
3.74040983606557e+00 3.00610273527220e-02 1.82750575485658e-04
3.78745901639344e+00 2.98911455293502e-02 1.82857184421580e-04
3.83450819672131e+00 2.97222237474992e-02 1.82949735516109e-04
3.88155737704918e+00 2.95542565817514e-02 1.83028551962474e-04
3.92860655737705e+00 2.93872386373498e-02 1.83093948229834e-04
3.97565573770492e+00 2.92211645500242e-02 1.83146230390358e-04
4.02270491803279e+00 2.90560289858194e-02 1.83185696430000e-04
4.06975409836066e+00 2.88918266409234e-02 1.83212636543941e-04
4.11680327868852e+00 2.87285522414975e-02 1.83227333417662e-04
4.16385245901639e+00 2.85662005435066e-02 1.83230062494522e-04
4.21090163934426e+00 2.84047663325507e-02 1.83221092230563e-04
4.25795081967213e+00 2.82442444236979e-02 1.83200684337442e-04
4.30500000000000e+00 2.80846296613175e-02 1.83169094014136e-04
4.35204918032787e+00 2.79259169189142e-02 1.83126570167923e-04
4.39909836065574e+00 2.77681010989638e-02 1.83073355625373e-04
4.44614754098361e+00 2.76111771327497e-02 1.83009687334020e-04
4.49319672131148e+00 2.74551399801996e-02 1.82935796555107e-04
4.54024590163934e+00 2.72999846297238e-02 1.82851909047809e-04
4.58729508196721e+00 2.71457060980545e-02 1.82758245245524e-04
4.63434426229508e+00 2.69922994300852e-02 1.82655020424700e-04
4.68139344262295e+00 2.68397596987121e-02 1.82542444866484e-04
4.72844262295082e+00 2.66880820046756e-02 1.82420724011622e-04
4.77549180327869e+00 2.65372614764028e-02 1.82290058608956e-04
4.82254098360656e+00 2.63872932698513e-02 1.82150644857846e-04
4.86959016393443e+00 2.62381725683536e-02 1.82002674544873e-04
4.91663934426230e+00 2.60898945824621e-02 1.81846335175059e-04
4.96368852459016e+00 2.59424545497956e-02 1.81681810097832e-04
5.01073770491803e+00 2.57958477348864e-02 1.81509278716903e-04
5.05778688524590e+00 2.56500694287398e-02 1.81328916338901e-04
5.10483606557377e+00 2.55051149495532e-02 1.81140894464735e-04
5.15188524590164e+00 2.53609796416894e-02 1.80945381077849e-04
5.19893442622951e+00 2.52176588758213e-02 1.80742540475543e-04
5.24598360655738e+00 2.50751480487834e-02 1.80532533460012e-04
5.29303278688525e+00 2.49334425834234e-02 1.80315517434423e-04
5.34008196721311e+00 2.47925379284559e-02 1.80091646495506e-04
5.38713114754098e+00 2.46524295583158e-02 1.79861071522801e-04
5.43418032786885e+00 2.45131129730129e-02 1.79623940264727e-04
5.48122950819672e+00 2.43745836979875e-02 1.79380397421562e-04
5.52827868852459e+00 2.42368372839669e-02 1.79130584725517e-04
5.57532786885246e+00 2.40998693068220e-02 1.78874641018053e-04
5.62237704918033e+00 2.39636753674256e-02 1.78612702324533e-04
5.66942622950820e+00 2.38282510915111e-02 1.78344901926294e-04
5.71647540983607e+00 2.36935921295317e-02 1.78071370430318e-04
5.76352459016393e+00 2.35596941565210e-02 1.77792235836584e-04
5.81057377049180e+00 2.34265528719540e-02 1.77507623603072e-04
5.85762295081967e+00 2.32941639996089e-02 1.77217656708727e-04
5.90467213114754e+00 2.31625232874300e-02 1.76922455714434e-04
5.95172131147541e+00 2.30316265073906e-02 1.76622138821872e-04
5.99877049180328e+00 2.29014694553581e-02 1.76316821930565e-04
6.04581967213115e+00 2.27720479509579e-02 1.76006618693139e-04
6.09286885245902e+00 2.26433578374401e-02 1.75691640568766e-04
6.13991803278688e+00 2.25153949815452e-02 1.75371996874998e-04
6.18696721311475e+00 2.23881552733720e-02 1.75047794837992e-04
6.23401639344262e+00 2.22616346262452e-02 1.74719139641168e-04
6.28106557377049e+00 2.21358289765841e-02 1.74386134472425e-04
6.32811475409836e+00 2.20107342837725e-02 1.74048880569894e-04
6.37516393442623e+00 2.18863465300286e-02 1.73707477266325e-04
6.42221311475410e+00 2.17626617202758e-02 1.73362022032179e-04
6.46926229508197e+00 2.16396758820149e-02 1.73012610582993e-04
6.51631147540984e+00 2.15173850650088e-02 1.72659336722313e-04
6.56336065573771e+00 2.13957853417211e-02 1.72302292513481e-04
6.61040983606557e+00 2.12748728066210e-02 1.71941568451259e-04
6.65745901639344e+00 2.11546435762489e-02 1.71577253298070e-04
6.70450819672131e+00 2.10350937890914e-02 1.71209434187486e-04
6.75155737704918e+00 2.09162196054576e-02 1.70838196659350e-04
6.79860655737705e+00 2.07980172073553e-02 1.70463624693893e-04
6.84565573770492e+00 2.06804827983689e-02 1.70085800744942e-04
6.89270491803279e+00 2.05636126035372e-02 1.69704805772236e-04
6.93975409836066e+00 2.04474028692321e-02 1.69320719272801e-04
6.98680327868852e+00 2.03318498630381e-02 1.68933619311514e-04
7.03385245901639e+00 2.02169498736325e-02 1.68543582550869e-04
7.08090163934426e+00 2.01026992106662e-02 1.68150684279899e-04
7.12795081967213e+00 1.99890942046451e-02 1.67754998442381e-04
7.17500000000000e+00 1.98761312068122e-02 1.67356597664268e-04
7.22204918032787e+00 1.97638065890305e-02 1.66955553280416e-04
7.26909836065574e+00 1.96521167436663e-02 1.66551935360595e-04
7.31614754098361e+00 1.95410580834739e-02 1.66145812734888e-04
7.36319672131148e+00 1.94306270414794e-02 1.65737253018395e-04
7.41024590163934e+00 1.93208200708672e-02 1.65326322635329e-04
7.45729508196721e+00 1.92116336448652e-02 1.64913086842522e-04
7.50434426229508e+00 1.91030642566322e-02 1.64497609752305e-04
7.55139344262295e+00 1.89951084191448e-02 1.64079954354826e-04
7.59844262295082e+00 1.88877626650857e-02 1.63660182539857e-04
7.64549180327869e+00 1.87810235467319e-02 1.63238355118041e-04
7.69254098360656e+00 1.86748876358448e-02 1.62814531841586e-04
7.73959016393443e+00 1.85693515235592e-02 1.62388771424524e-04
7.78663934426230e+00 1.84644118202742e-02 1.61961131562467e-04
7.83368852459016e+00 1.83600651555445e-02 1.61531668951849e-04
7.88073770491803e+00 1.82563081779719e-02 1.61100439358893e-04
7.92778688524590e+00 1.81531375549679e-02 1.60667497486843e-04
7.97483606557377e+00 1.80505499730382e-02 1.60232897095069e-04
8.02188524590164e+00 1.79485421372829e-02 1.59796691118593e-04
8.06893442622951e+00 1.78471107714219e-02 1.59358931531589e-04
8.11598360655738e+00 1.77462526176903e-02 1.58919669415573e-04
8.16303278688525e+00 1.76459644367337e-02 1.58478954975728e-04
8.21008196721312e+00 1.75462430075038e-02 1.58036837556901e-04
8.25713114754098e+00 1.74470851271553e-02 1.57593365659232e-04
8.30418032786885e+00 1.73484876109431e-02 1.57148586953367e-04
8.35122950819672e+00 1.72504472921196e-02 1.56702548295424e-04
8.39827868852459e+00 1.71529610218333e-02 1.56255295741576e-04
8.44532786885246e+00 1.70560256690276e-02 1.55806874562299e-04
8.49237704918033e+00 1.69596381203401e-02 1.55357329256375e-04
8.53942622950820e+00 1.68637952800031e-02 1.54906703564528e-04
8.58647540983607e+00 1.67684940697433e-02 1.54455040482772e-04
8.63352459016394e+00 1.66737314286838e-02 1.54002382275499e-04
8.68057377049180e+00 1.65795043132454e-02 1.53548770488259e-04
8.72762295081967e+00 1.64858096970486e-02 1.53094245960285e-04
8.77467213114754e+00 1.63926445708170e-02 1.52638848836760e-04
8.82172131147541e+00 1.63000059422800e-02 1.52182618580803e-04
8.86877049180328e+00 1.62078908360774e-02 1.51725593985229e-04
8.91581967213115e+00 1.61162962936632e-02 1.51267813184028e-04
8.96286885245902e+00 1.60252193732108e-02 1.50809313663646e-04
9.00991803278689e+00 1.59346571495187e-02 1.50350132274034e-04
9.05696721311475e+00 1.58446067139163e-02 1.49890305239413e-04
9.10401639344262e+00 1.57550651741705e-02 1.49429868168884e-04
9.15106557377049e+00 1.56660296543931e-02 1.48968856066798e-04
9.19811475409836e+00 1.55774972949480e-02 1.48507303342919e-04
9.24516393442623e+00 1.54894652523596e-02 1.48045243822382e-04
9.29221311475410e+00 1.54019306992216e-02 1.47582710755455e-04
9.33926229508197e+00 1.53148908241058e-02 1.47119736865727e-04
9.38631147540984e+00 1.52283428313804e-02 1.46656354243027e-04
9.43336065573770e+00 1.51422839413968e-02 1.46192594430566e-04
9.48040983606557e+00 1.50567113901223e-02 1.45728488512559e-04
9.52745901639344e+00 1.49716224291441e-02 1.45264067004670e-04
9.57450819672131e+00 1.48870143255816e-02 1.44799359902340e-04
9.62155737704918e+00 1.48028843619980e-02 1.44334396689298e-04
9.66860655737705e+00 1.47192298363136e-02 1.43869206345872e-04
9.71565573770492e+00 1.46360480617188e-02 1.43403817357188e-04
9.76270491803279e+00 1.45533363665877e-02 1.42938257721177e-04
9.80975409836066e+00 1.44710920943924e-02 1.42472554956429e-04
9.85680327868852e+00 1.43893126036175e-02 1.42006736109948e-04
9.90385245901639e+00 1.43079952676758e-02 1.41540827764702e-04
9.95090163934426e+00 1.42271374748231e-02 1.41074856047049e-04
9.99795081967213e+00 1.41467366280750e-02 1.40608846599687e-04
1.00450000000000e+01 1.40667901452025e-02 1.40142824760867e-04
1.00920491803279e+01 1.39872954582530e-02 1.39676815363947e-04
1.01390983606557e+01 1.39082500140261e-02 1.39210842674575e-04
1.01861475409836e+01 1.38296512737501e-02 1.38744930308107e-04
1.02331967213115e+01 1.37514967137627e-02 1.38279102138746e-04
1.02802459016393e+01 1.36737838231327e-02 1.37813381632311e-04
1.03272950819672e+01 1.35965101058869e-02 1.37347791171767e-04
1.03743442622951e+01 1.35196730801571e-02 1.36882353086734e-04
1.04213934426230e+01 1.34432702781017e-02 1.36417088995846e-04
1.04684426229508e+01 1.33672992465488e-02 1.35952020781770e-04
1.05154918032787e+01 1.32917575447360e-02 1.35487169949697e-04
1.05625409836066e+01 1.32166427464241e-02 1.35022556979051e-04
1.06095901639344e+01 1.31419524390848e-02 1.34558202312377e-04
1.06566393442623e+01 1.30676842238242e-02 1.34094125722985e-04
1.07036885245902e+01 1.29938357159931e-02 1.33630347251905e-04
1.07507377049180e+01 1.29204045430362e-02 1.33166886590959e-04
1.07977868852459e+01 1.28473883465000e-02 1.32703762459489e-04
1.08448360655738e+01 1.27747847812588e-02 1.32240993554519e-04
1.08918852459016e+01 1.27025915154402e-02 1.31778597942546e-04
1.09389344262295e+01 1.26308062310041e-02 1.31316593960171e-04
1.09859836065574e+01 1.25594266216958e-02 1.30854999620719e-04
1.10330327868852e+01 1.24884503949537e-02 1.30393832014847e-04
1.10800819672131e+01 1.24178752711714e-02 1.29933108223743e-04
1.11271311475410e+01 1.23476989836256e-02 1.29472844734048e-04
1.11741803278689e+01 1.22779192790255e-02 1.29013058303782e-04
1.12212295081967e+01 1.22085339155636e-02 1.28553765391474e-04
1.12682786885246e+01 1.21395406647291e-02 1.28094981579633e-04
1.13153278688525e+01 1.20709373106044e-02 1.27636722452651e-04
1.13623770491803e+01 1.20027216497955e-02 1.27179003033867e-04
1.14094262295082e+01 1.19348914919524e-02 1.26721838618314e-04
1.14564754098361e+01 1.18674446579134e-02 1.26265244223395e-04
1.15035245901639e+01 1.18003789814291e-02 1.25809234034230e-04
1.15505737704918e+01 1.17336923084915e-02 1.25353822247842e-04
1.15976229508197e+01 1.16673824972660e-02 1.24899022531395e-04
1.16446721311475e+01 1.16014474185864e-02 1.24444848823261e-04
1.16917213114754e+01 1.15358849541853e-02 1.23991314804336e-04
1.17387704918033e+01 1.14706929983353e-02 1.23538433364227e-04
1.17858196721311e+01 1.14058694572085e-02 1.23086217413326e-04
1.18328688524590e+01 1.13414122488098e-02 1.22634679361340e-04
1.18799180327869e+01 1.12773193034480e-02 1.22183831887903e-04
1.19269672131148e+01 1.12135885620482e-02 1.21733687433772e-04
1.19740163934426e+01 1.11502179777140e-02 1.21284257686961e-04
1.20210655737705e+01 1.10872055151159e-02 1.20835554364098e-04
1.20681147540984e+01 1.10245491504269e-02 1.20387588708386e-04
1.21151639344262e+01 1.09622468717698e-02 1.19940372231062e-04
1.21622131147541e+01 1.09002966776076e-02 1.19493916221670e-04
1.22092622950820e+01 1.08386965782312e-02 1.19048231253301e-04
1.22563114754098e+01 1.07774445951755e-02 1.18603327934520e-04
1.23033606557377e+01 1.07165387611562e-02 1.18159216425966e-04
1.23504098360656e+01 1.06559771204954e-02 1.17715907153954e-04
1.23974590163934e+01 1.05957577275859e-02 1.17273410338978e-04
1.24445081967213e+01 1.05358786483084e-02 1.16831735519235e-04
1.24915573770492e+01 1.04763379594732e-02 1.16390892274424e-04
1.25386065573770e+01 1.04171337487590e-02 1.15950889760232e-04
1.25856557377049e+01 1.03582641151179e-02 1.15511737395209e-04
1.26327049180328e+01 1.02997271673093e-02 1.15073444406742e-04
1.26797540983607e+01 1.02415210252503e-02 1.14636019372179e-04
1.27268032786885e+01 1.01836438194824e-02 1.14199470915658e-04
1.27738524590164e+01 1.01260936911119e-02 1.13763807259693e-04
1.28209016393443e+01 1.00688687921950e-02 1.13329036886498e-04
1.28679508196721e+01 1.00119672843382e-02 1.12895168100706e-04
1.29150000000000e+01 9.95538733998532e-03 1.12462208587342e-04
1.29620491803279e+01 9.89912714190802e-03 1.12030166082851e-04
1.30090983606557e+01 9.84318488314740e-03 1.11599048153579e-04
1.30561475409836e+01 9.78755876695637e-03 1.11168861989342e-04
1.31031967213115e+01 9.73224700716242e-03 1.10739615036023e-04
1.31502459016393e+01 9.67724782684206e-03 1.10311314576916e-04
1.31972950819672e+01 9.62255945953769e-03 1.09883967309520e-04
1.32443442622951e+01 9.56818014877424e-03 1.09457579987419e-04
1.32913934426230e+01 9.51410814800316e-03 1.09032159007149e-04
1.33384426229508e+01 9.46034172094778e-03 1.08607711017570e-04
1.33854918032787e+01 9.40687914033671e-03 1.08184242516432e-04
1.34325409836066e+01 9.35371868906465e-03 1.07761759442654e-04
1.34795901639344e+01 9.30085865972995e-03 1.07340267794587e-04
1.35266393442623e+01 9.24829735458009e-03 1.06919773231844e-04
1.35736885245902e+01 9.19603308584070e-03 1.06500281662397e-04
1.36207377049180e+01 9.14406417450478e-03 1.06081798853796e-04
1.36677868852459e+01 9.09238895144057e-03 1.05664330040298e-04
1.37148360655738e+01 9.04100575694872e-03 1.05247880518411e-04
1.37618852459016e+01 8.98991294070951e-03 1.04832455263175e-04
1.38089344262295e+01 8.93910886209615e-03 1.04418059493875e-04
1.38559836065574e+01 8.88859188901723e-03 1.04004698299285e-04
1.39030327868852e+01 8.83836039897415e-03 1.03592376259057e-04
1.39500819672131e+01 8.78841277863719e-03 1.03181098017535e-04
1.39971311475410e+01 8.73874742379420e-03 1.02770867913856e-04
1.40441803278689e+01 8.68936273964914e-03 1.02361690527132e-04
1.40912295081967e+01 8.64025713971501e-03 1.01953570315194e-04
1.41382786885246e+01 8.59142904682355e-03 1.01546511249683e-04
1.41853278688525e+01 8.54287689271913e-03 1.01140517368978e-04
1.42323770491803e+01 8.49459911800900e-03 1.00735592421564e-04
1.42794262295082e+01 8.44659417244780e-03 1.00331740391547e-04
1.43264754098361e+01 8.39886051387846e-03 9.99289651503579e-05
1.43735245901639e+01 8.35139660919655e-03 9.95272701049547e-05
1.44205737704918e+01 8.30420093396127e-03 9.91266587307449e-05
1.44676229508197e+01 8.25727197234707e-03 9.87271342277201e-05
1.45146721311475e+01 8.21060821741492e-03 9.83287000270445e-05
1.45617213114754e+01 8.16420817009881e-03 9.79313594552127e-05
1.46087704918033e+01 8.11807034012707e-03 9.75351153948504e-05
1.46558196721311e+01 8.07219324564962e-03 9.71399707984549e-05
1.47028688524590e+01 8.02657541319092e-03 9.67459283567961e-05
1.47499180327869e+01 7.98121537790865e-03 9.63529909872796e-05
1.47969672131148e+01 7.93611168262364e-03 9.59611615101184e-05
1.48440163934426e+01 7.89126287870029e-03 9.55704423212156e-05
