Energy (eV)          EEDF (eV^-(3/2))     First Anisotropy
2.72500000000000e-01 3.76073639008758e-02 5.61765006903872e-05
8.17500000000000e-01 3.55033704895586e-02 9.04726366409843e-05
1.36250000000000e+00 3.35170877555047e-02 1.13515466878697e-04
1.90750000000000e+00 3.16419302201347e-02 1.27765733948925e-04
2.45250000000000e+00 2.98716808381253e-02 1.37189251838093e-04
2.99750000000000e+00 2.82004703849265e-02 1.43404915433354e-04
3.54250000000000e+00 2.66227579974715e-02 1.47306294398268e-04
4.08750000000000e+00 2.51333128035617e-02 1.49462812586492e-04
4.63250000000000e+00 2.37271965790197e-02 1.50269089886916e-04
5.17750000000000e+00 2.23997473751118e-02 1.50013886377200e-04
5.72250000000000e+00 2.11465640619546e-02 1.48916583548317e-04
6.26750000000000e+00 1.99634917366614e-02 1.47148418449572e-04
6.81250000000000e+00 1.88466079478498e-02 1.44845749238180e-04
7.35750000000000e+00 1.77922096908362e-02 1.42118808704526e-04
7.90250000000000e+00 1.67968011304020e-02 1.39057737861777e-04
8.44750000000000e+00 1.58570820104252e-02 1.35736895036603e-04
8.99250000000000e+00 1.49699367119514e-02 1.32218025120136e-04
9.53750000000000e+00 1.41324239234241e-02 1.28552648618990e-04
1.00825000000000e+01 1.33417668888283e-02 1.24783900530405e-04
1.06275000000000e+01 1.25953442014148e-02 1.20947971162697e-04
1.11725000000000e+01 1.18906811124809e-02 1.17075252460741e-04
1.17175000000000e+01 1.12254413263933e-02 1.13191262150110e-04
1.22625000000000e+01 1.05974192546492e-02 1.09317397341137e-04
1.28075000000000e+01 1.00045327032940e-02 1.05471555215935e-04
1.33525000000000e+01 9.44481596945107e-03 1.01668648703637e-04
1.38975000000000e+01 8.91641332407531e-03 9.79210381779043e-05
1.44425000000000e+01 8.41757285932258e-03 9.42388952644104e-05
1.49875000000000e+01 7.94664068013607e-03 9.06305112268520e-05
1.55325000000000e+01 7.50205542079211e-03 8.71025597123787e-05
1.60775000000000e+01 7.08234306822497e-03 8.36603216139035e-05
1.66225000000000e+01 6.68611207496760e-03 8.03078782642830e-05
1.71675000000000e+01 6.31204874550529e-03 7.70482779877371e-05
1.77125000000000e+01 5.95891288074587e-03 7.38836801065827e-05
1.82575000000000e+01 5.62553366616570e-03 7.08154797712917e-05
1.88025000000000e+01 5.31080578999883e-03 6.78444164017665e-05
1.93475000000000e+01 5.01368577859903e-03 6.49706680628122e-05
1.98925000000000e+01 4.73318853682497e-03 6.21939337211832e-05
2.04375000000000e+01 4.46838408197799e-03 5.95135050258585e-05
2.09825000000000e+01 4.21839446046403e-03 5.69283290026362e-05
2.15275000000000e+01 3.98239083695698e-03 5.44370628474174e-05
2.20725000000000e+01 3.75959074641265e-03 5.20381218309762e-05
2.26175000000000e+01 3.54925549982233e-03 4.97297211847884e-05
2.31625000000000e+01 3.35068773510498e-03 4.75099127173008e-05
2.37075000000000e+01 3.16322910501794e-03 4.53766168086512e-05
2.42525000000000e+01 2.98625809442045e-03 4.33276503459608e-05
2.47975000000000e+01 2.81918795965336e-03 4.13607510882205e-05
2.53425000000000e+01 2.66146478320285e-03 3.94735988873287e-05
2.58875000000000e+01 2.51256563719857e-03 3.76638341382692e-05
2.64325000000000e+01 2.37199684965732e-03 3.59290737852885e-05
2.69775000000000e+01 2.23929236772397e-03 3.42669251710982e-05
2.75225000000000e+01 2.11401221248301e-03 3.26749979816198e-05
2.80675000000000e+01 1.99574102021778e-03 3.11509145087978e-05
2.86125000000000e+01 1.88408666528075e-03 2.96923184278778e-05
2.91575000000000e+01 1.77867896000925e-03 2.82968822627257e-05
2.97025000000000e+01 1.67916842737600e-03 2.69623136927832e-05
3.02475000000000e+01 1.58522514230546e-03 2.56863608377169e-05
3.07925000000000e+01 1.49653763781414e-03 2.44668166404088e-05
3.13375000000000e+01 1.41281187234840e-03 2.33015224553501e-05
3.18825000000000e+01 1.33377025489584e-03 2.21883709375169e-05
3.24275000000000e+01 1.25915072463818e-03 2.11253083162184e-05
3.29725000000000e+01 1.18870588209412e-03 2.01103361290229e-05
3.35175000000000e+01 1.12220216887156e-03 1.91415124825639e-05
3.40625000000000e+01 1.05941909330968e-03 1.82169528996425e-05
3.46075000000000e+01 1.00014849944347e-03 1.73348308054927e-05
3.51525000000000e+01 9.44193876867034e-04 1.64933777002415e-05
3.56975000000000e+01 8.91369709207457e-04 1.56908830594033e-05
3.62425000000000e+01 8.41500859049183e-04 1.49256939996216e-05
3.67875000000000e+01 7.94421987269599e-04 1.41962147427435e-05
3.73325000000000e+01 7.49977004860661e-04 1.35009059076285e-05
3.78775000000000e+01 7.08018555419069e-04 1.28382836558075e-05
3.84225000000000e+01 6.68407526589220e-04 1.22069187141625e-05
3.89675000000000e+01 6.31012588839116e-04 1.16054352951795e-05
3.95125000000000e+01 5.95709760040074e-04 1.10325099329711e-05
4.00575000000000e+01 5.62381994406582e-04 1.04868702511695e-05
4.06025000000000e+01 5.30918794433465e-04 9.96729367690946e-06
4.11475000000000e+01 5.01215844543733e-04 9.47260611344032e-06
4.16925000000000e+01 4.73174665232481e-04 9.00168058240356e-06
4.22375000000000e+01 4.46702286560167e-04 8.55343584546480e-06
4.27825000000000e+01 4.21710939912731e-04 8.12683501378822e-06
4.33275000000000e+01 3.98117767006606e-04 7.72088415276428e-06
4.38725000000000e+01 3.75844545173825e-04 7.33463088843979e-06
4.44175000000000e+01 3.54817428016407e-04 6.96716302124037e-06
4.49625000000000e+01 3.34966700570186e-04 6.61760715180810e-06
4.55075000000000e+01 3.16226548166310e-04 6.28512732309172e-06
4.60525000000000e+01 2.98534838224095e-04 5.96892368221633e-06
4.65975000000000e+01 2.81832914251764e-04 5.66823116511519e-06
4.71425000000000e+01 2.66065401372078e-04 5.38231820642193e-06
4.76875000000000e+01 2.51180022728100e-04 5.11048547669088e-06
4.82325000000000e+01 2.37127426160378e-04 4.85206464863096e-06
4.87775000000000e+01 2.23861020580899e-04 4.60641719369957e-06
4.93225000000000e+01 2.11336821501312e-04 4.37293321010283e-06
4.98675000000000e+01 1.99513305203293e-04 4.15103028298389e-06
5.04125000000000e+01 1.88351271067523e-04 3.94015237734764e-06
5.09575000000000e+01 1.77813711604864e-04 3.73976876406475e-06
5.15025000000000e+01 1.67865689758807e-04 3.54937297911803e-06
5.20475000000000e+01 1.58474223072396e-04 3.36848181609710e-06
5.25925000000000e+01 1.49608174335590e-04 3.19663435181095e-06
5.31375000000000e+01 1.41238148350493e-04 3.03339100476891e-06
5.36825000000000e+01 1.33336394472201e-04 2.87833262617860e-06
5.42275000000000e+01 1.25876714602116e-04 2.73105962302231e-06
5.47725000000000e+01 1.18834376328707e-04 2.59119111269848e-06
5.53175000000000e+01 1.12186030927721e-04 2.45836410865221e-06
5.58625000000000e+01 1.05909635949973e-04 2.33223273636662e-06
5.64075000000000e+01 9.99843821400780e-05 2.21246747904368e-06
5.69525000000000e+01 9.43906244437968e-05 2.09875445226818e-06
5.74975000000000e+01 8.91098168752753e-05 1.99079470692139e-06
5.80425000000000e+01 8.41244510282179e-05 1.88830355958965e-06
5.85875000000000e+01 7.94179980271356e-05 1.79100994969788e-06
5.91325000000000e+01 7.49748537262072e-05 1.69865582258793e-06
5.96775000000000e+01 7.07802869740623e-05 1.61099553775580e-06
6.02225000000000e+01 6.68203907729590e-05 1.52779530145992e-06
6.07675000000000e+01 6.30820361704262e-05 1.44883262291420e-06
6.13125000000000e+01 5.95528287304977e-05 1.37389579328423e-06
6.18575000000000e+01 5.62210674402211e-05 1.30278338671174e-06
6.24025000000000e+01 5.30757059151952e-05 1.23530378260208e-06
6.29475000000000e+01 5.01063157755158e-05 1.17127470842045e-06
6.34925000000000e+01 4.73030520707012e-05 1.11052280225544e-06
6.40375000000000e+01 4.46566206389665e-05 1.05288319442267e-06
6.45825000000000e+01 4.21582472926256e-05 9.98199107396324e-07
6.51275000000000e+01 3.97996487274570e-05 9.46321473372985e-07
6.56725000000000e+01 3.75730050595830e-05 8.97108568788631e-07
6.62175000000000e+01 3.54709338988091e-05 8.50425665127494e-07
6.67625000000000e+01 3.34864658724651e-05 8.06144695379220e-07
6.73075000000000e+01 3.16130215185966e-05 7.64143935519153e-07
6.78525000000000e+01 2.98443894718975e-05 7.24307700404885e-07
6.83975000000000e+01 2.81747058700590e-05 6.86526053500821e-07
6.89425000000000e+01 2.65984349122578e-05 6.50694529861045e-07
6.94875000000000e+01 2.51103505053249e-05 6.16713871819256e-07
7.00325000000000e+01 2.37055189367436e-05 5.84489776852912e-07
7.05775000000000e+01 2.23792825170298e-05 5.53932657106893e-07
7.11225000000000e+01 2.11272441372606e-05 5.24957410079948e-07
7.16675000000000e+01 1.99452526905521e-05 4.97483199994821e-07
7.22125000000000e+01 1.88293893091518e-05 4.71433249390382e-07
7.27575000000000e+01 1.77759543715154e-05 4.46734640491019e-07
7.33025000000000e+01 1.67814552362895e-05 4.23318125925272e-07
7.38475000000000e+01 1.58425946625323e-05 4.01117948381924e-07
7.43925000000000e+01 1.49562598777811e-05 3.80071668807628e-07
7.49375000000000e+01 1.41195122577207e-05 3.60120002765626e-07
7.54825000000000e+01 1.33295775832362e-05 3.41206664590124e-07
7.60275000000000e+01 1.25838368425479e-05 3.23278218985494e-07
7.65725000000000e+01 1.18798175479331e-05 3.06283939733664e-07
7.71175000000000e+01 1.12151855382452e-05 2.90175675186752e-07
7.76625000000000e+01 1.05877372400511e-05 2.74907720235337e-07
7.82075000000000e+01 9.99539236173034e-06 2.60436694455594e-07
7.87525000000000e+01 9.43618699631190e-06 2.46721426151006e-07
7.92975000000000e+01 8.90826711018190e-06 2.33722842016291e-07
7.98425000000000e+01 8.40988239607429e-06 2.21403862162877e-07
8.03875000000000e+01 7.93938046996393e-06 2.09729300256363e-07
8.09325000000000e+01 7.49520139262217e-06 1.98665768527214e-07
8.14775000000000e+01 7.07587249767117e-06 1.88181587426299e-07
8.20225000000000e+01 6.68000350898951e-06 1.78246699706877e-07
8.25675000000000e+01 6.30628193128105e-06 1.68832588724244e-07
8.31125000000000e+01 5.95346869852435e-06 1.59912200753501e-07
8.36575000000000e+01 5.62039406587538e-06 1.51459871134762e-07
8.42025000000000e+01 5.30595373140317e-06 1.43451254063659e-07
8.47475000000000e+01 5.00910517479993e-06 1.35863255853204e-07
8.52925000000000e+01 4.72886420092699e-06 1.28673971500895e-07
8.58375000000000e+01 4.46430167673652e-06 1.21862624402518e-07
8.63825000000000e+01 4.21454045075044e-06 1.15409509061301e-07
8.69275000000000e+01 3.97875244488323e-06 1.09295936648019e-07
8.74725000000000e+01 3.75615590896642e-06 1.03504183274284e-07
8.80175000000000e+01 3.54601282887240e-06 9.80174408475942e-08
8.85625000000000e+01 3.34762647964410e-06 9.28197703828313e-08
8.91075000000000e+01 3.16033911551808e-06 8.78960576506941e-08
8.96525000000000e+01 2.98352978918228e-06 8.32319710491486e-08
9.01975000000000e+01 2.81661229303832e-06 7.88139215892995e-08
9.07425000000000e+01 2.65903321564251e-06 7.46290248921893e-08
9.12875000000000e+01 2.51027010688189e-06 7.06650650979067e-08
9.18325000000000e+01 2.36982974580187e-06 6.69104605930525e-08
9.23775000000000e+01 2.23724650534254e-06 6.33542314670515e-08
9.29225000000000e+01 2.11208080856196e-06 5.99859686120658e-08
9.34675000000000e+01 1.99391767122808e-06 5.67958043853214e-08
9.40125000000000e+01 1.88236532594722e-06 5.37743847565417e-08
9.45575000000000e+01 1.77705392326757e-06 5.09128428668875e-08
9.51025000000000e+01 1.67763430545107e-06 4.82027739293352e-08
9.56475000000000e+01 1.58377684884835e-06 4.56362114038022e-08
9.61925000000000e+01 1.49517037103839e-06 4.32056043835472e-08
9.67375000000000e+01 1.41152109910980e-06 4.09037961324414e-08
9.72825000000000e+01 1.33255169566290e-06 3.87240037156394e-08
9.78275000000000e+01 1.25800033930343e-06 3.66597986689671e-08
9.83725000000000e+01 1.18761985657919e-06 3.47050886550114e-08
9.89175000000000e+01 1.12117690248173e-06 3.28541000564320e-08
9.94625000000000e+01 1.05845118679582e-06 3.11013614594334e-08
1.00007500000000e+02 9.99234743731924e-07 2.94416879826446e-08
1.00552500000000e+02 9.43331242419978e-07 2.78701664088472e-08
1.01097500000000e+02 8.90555335978545e-07 2.63821410790872e-08
1.01642500000000e+02 8.40732047001122e-07 2.49732005106988e-08
1.02187500000000e+02 7.93696187422233e-07 2.36391647026653e-08
1.02732500000000e+02 7.49291810839879e-07 2.23760730935532e-08
1.03277500000000e+02 7.07371695478523e-07 2.11801731389727e-08
1.03822500000000e+02 6.67796856078397e-07 2.00479094771610e-08
1.04367500000000e+02 6.30436083092798e-07 1.89759136528408e-08
1.04912500000000e+02 5.95165507665598e-07 1.79609943709942e-08
1.05457500000000e+02 5.61868190946661e-07 1.70001282536026e-08
1.06002500000000e+02 5.30433736383546e-07 1.60904510737485e-08
1.06547500000000e+02 5.00757923704065e-07 1.52292494427563e-08
1.07092500000000e+02 4.72742363376163e-07 1.44139529272637e-08
1.07637500000000e+02 4.46294170399496e-07 1.36421265742725e-08
1.08182500000000e+02 4.21325656347171e-07 1.29114638233328e-08
1.08727500000000e+02 3.97754038636609e-07 1.22197797860575e-08
1.09272500000000e+02 3.75501166065638e-07 1.15650048741612e-08
1.09817500000000e+02 3.54493259703828e-07 1.09451787581673e-08
1.10362500000000e+02 3.34660668280000e-07 1.03584446398231e-08
1.10907500000000e+02 3.15937637254903e-07 9.80304382212157e-09
1.11452500000000e+02 2.98262090813424e-07 9.27731056164236e-09
1.11997500000000e+02 2.81575426053531e-07 8.77966718869622e-09
1.12542500000000e+02 2.65822318689584e-07 8.30861948149420e-09
1.13087500000000e+02 2.50950539625830e-07 7.86275228126047e-09
1.13632500000000e+02 2.36910781791940e-07 7.44072533587181e-09
1.14177500000000e+02 2.23656496666449e-07 7.04126936023830e-09
1.14722500000000e+02 2.11143739946120e-07 6.66318230223854e-09
1.15267500000000e+02 1.99331025849527e-07 6.30532580359293e-09
1.15812500000000e+02 1.88179189571825e-07 5.96662184559914e-09
1.16357500000000e+02 1.77651257434657e-07 5.64604957016810e-09
1.16902500000000e+02 1.67712324300711e-07 5.34264226708719e-09
1.17447500000000e+02 1.58329437846465e-07 5.05548451890094e-09
1.17992500000000e+02 1.49471489309456e-07 4.78370949524024e-09
1.18537500000000e+02 1.41109110347829e-07 4.52649638884883e-09
1.19082500000000e+02 1.33214575670227e-07 4.28306798595364e-09
1.19627500000000e+02 1.25761711113158e-07 4.05268836400225e-09
1.20172500000000e+02 1.18725806861121e-07 3.83466071014929e-09
1.20717500000000e+02 1.12083535521722e-07 3.62832525421357e-09
1.21262500000000e+02 1.05812874784201e-07 3.43305731014987e-09
1.21807500000000e+02 9.98930344049256e-08 3.24826542038699e-09
1.22352500000000e+02 9.43043872777714e-08 3.07338959767353e-09
1.22897500000000e+02 8.90284043608689e-08 2.90789965934963e-09
1.23442500000000e+02 8.40475932439533e-08 2.75129364922473e-09
1.23987500000000e+02 7.93454401526475e-08 2.60309634249028e-09
1.24532500000000e+02 7.49063551973905e-08 2.46285782933247e-09
1.25077500000000e+02 7.07156206854870e-08 2.33015217313408e-09
1.25622500000000e+02 6.67593423249071e-08 2.20457613936736e-09
1.26167500000000e+02 6.30244031580537e-08 2.08574799148119e-09
1.26712500000000e+02 5.94984200727657e-08 1.97330635027773e-09
1.27257500000000e+02 5.61697027463704e-08 1.86690911345532e-09
1.27802500000000e+02 5.30272148866651e-08 1.76623243216652e-09
1.28347500000000e+02 5.00605376413222e-08 1.67096974160386e-09
1.28892500000000e+02 4.72598350544042e-08 1.58083084278124e-09
1.29437500000000e+02 4.46158214554585e-08 1.49554103282562e-09
1.29982500000000e+02 4.21197306730728e-08 1.41484028123379e-09
1.30527500000000e+02 3.97632869708184e-08 1.33848244968092e-09
1.31072500000000e+02 3.75386776092199e-08 1.26623455309365e-09
1.31617500000000e+02 3.54385269427828e-08 1.19787605981950e-09
1.32162500000000e+02 3.34558719661952e-08 1.13319822883709e-09
1.32707500000000e+02 3.15841392286312e-08 1.07200348205934e-09
1.33252500000000e+02 2.98171230396123e-08 1.01410480988313e-09
1.33797500000000e+02 2.81489648941719e-08 9.59325208235357e-10
1.34342500000000e+02 2.65741340491053e-08 9.07497145456841e-10
1.34887500000000e+02 2.50874091859068e-08 8.58462057452093e-10
1.35432500000000e+02 2.36838610995986e-08 8.12069869615202e-10
1.35977500000000e+02 2.23588363560549e-08 7.68178544120091e-10
1.36522500000000e+02 2.11079418636395e-08 7.26653651237216e-10
1.37067500000000e+02 1.99270303080031e-08 6.87367963408867e-10
1.37612500000000e+02 1.88121864017493e-08 6.50201070881681e-10
1.38157500000000e+02 1.77597139033821e-08 6.15039017757965e-10
1.38702500000000e+02 1.67661233624953e-08 5.81773957387088e-10
1.39247500000000e+02 1.58281205505725e-08 5.50303826074837e-10
1.39792500000000e+02 1.49425955390423e-08 5.20532034142291e-10
1.40337500000000e+02 1.41066123883755e-08 4.92367173416627e-10
1.40882500000000e+02 1.33173994140394e-08 4.65722740284466e-10
1.41427500000000e+02 1.25723399970360e-08 4.40516873484093e-10
1.41972500000000e+02 1.18689639085569e-08 4.16672105856209e-10
1.42517500000000e+02 1.12049391199919e-08 3.94115129313896e-10
1.43062500000000e+02 1.05780640711367e-08 3.72776572331434e-10
1.43607500000000e+02 9.98626037096704e-09 3.52590789288443e-10
1.44152500000000e+02 9.42756590677658e-09 3.33495661040821e-10
1.44697500000000e+02 8.90012833883375e-09 3.15432406123066e-10
1.45242500000000e+02 8.40219895898829e-09 2.98345402017928e-10
1.45787500000000e+02 7.93212689286621e-09 2.82182015959127e-10
1.46332500000000e+02 7.48835362643059e-09 2.66892444761057e-10
1.46877500000000e+02 7.06940783876111e-09 2.52429563196105e-10
1.47422500000000e+02 6.67390052392049e-09 2.38748780465506e-10
1.47967500000000e+02 6.30052038573458e-09 2.25807904333703e-10
1.48512500000000e+02 5.94802949021749e-09 2.13567012518836e-10
1.49057500000000e+02 5.61525916122753e-09 2.01988330953567e-10
1.49602500000000e+02 5.30110610574608e-09 1.91036118550848e-10
1.50147500000000e+02 5.00452875593282e-09 1.80676558128547e-10
1.50692500000000e+02 4.72454381582947e-09 1.70877653165184e-10
1.51237500000000e+02 4.46022300126277e-09 1.61609130076365e-10
1.51782500000000e+02 4.21068996213782e-09 1.52842345717975e-10
1.52327500000000e+02 3.97511737691782e-09 1.44550199837712e-10
1.52872500000000e+02 3.75272420965693e-09 1.36707052211346e-10
1.53417500000000e+02 3.54277312049203e-09 1.29288644214039e-10
1.53962500000000e+02 3.34456802100793e-09 1.22272024590309e-10
1.54507500000000e+02 3.15745176637090e-09 1.15635479198768e-10
1.55052500000000e+02 2.98080397657879e-09 1.09358464519619e-10
1.55597500000000e+02 2.81403897960423e-09 1.03421544724205e-10
1.56142500000000e+02 2.65660386961132e-09 9.78063321164987e-11
1.56687500000000e+02 2.50797667380799e-09 9.24954307665576e-11
1.57232500000000e+02 2.36766462185619e-09 8.74723831655289e-11
1.57777500000000e+02 2.23520251210223e-09 8.27216197408380e-11
1.58322500000000e+02 2.11015116921048e-09 7.82284110787743e-11
1.58867500000000e+02 1.99209598808678e-09 7.39788227098176e-11
1.59412500000000e+02 1.88064555926401e-09 6.99596723197435e-11
1.59957500000000e+02 1.77543037119222e-09 6.61584892568328e-11
1.60502500000000e+02 1.67610158513087e-09 6.25634762124120e-11
1.61047500000000e+02 1.58232987858135e-09 5.91634729584927e-11
1.61592500000000e+02 1.49380435342513e-09 5.59479220324636e-11
1.62137500000000e+02 1.41023150514766e-09 5.29068362646535e-11
1.62682500000000e+02 1.33133424973024e-09 5.00307680501378e-11
1.63227500000000e+02 1.25685100498390e-09 4.73107802714121e-11
1.63772500000000e+02 1.18653482327907e-09 4.47384187835431e-11
1.64317500000000e+02 1.12015257279594e-09 4.23056863781144e-11
1.64862500000000e+02 1.05748416458087e-09 4.00050181467517e-11
1.65407500000000e+02 9.98321822846012e-10 3.78292581692399e-11
1.65952500000000e+02 9.42469396093135e-10 3.57716374552451e-11
1.66497500000000e+02 8.89741706777422e-10 3.38257530724447e-11
1.67042500000000e+02 8.39963937355235e-10 3.19855483974578e-11
1.67587500000000e+02 7.92971050680225e-10 3.02452944293667e-11
1.68132500000000e+02 7.48607242826150e-10 2.85995721088331e-11
1.68677500000000e+02 7.06725426522240e-10 2.70432555888645e-11
1.69222500000000e+02 6.67186743488445e-10 2.55714964061647e-11
1.69767500000000e+02 6.29860104053731e-10 2.41797085047352e-11
1.70312500000000e+02 5.94621752531041e-10 2.28635540659784e-11
1.70857500000000e+02 5.61354856907915e-10 2.16189301020022e-11
1.71402500000000e+02 5.29949121492415e-10 2.04419557711388e-11
1.71947500000000e+02 5.00300421230082e-10 1.93289603768877e-11
