Energy (eV)          EEDF (eV^-(3/2))     First Anisotropy
1.78571428571429e-03 6.15298502158259e-01 5.44943006816263e-08
5.35714285714286e-03 6.15298454638379e-01 1.67485891152046e-07
8.92857142857143e-03 6.15298333265077e-01 4.06657757202465e-07
1.25000000000000e-02 6.15298136589559e-01 7.09990341480240e-07
1.60714285714286e-02 6.15297863380641e-01 1.05163448890843e-06
1.96428571428571e-02 6.15297522000846e-01 1.40275463879786e-06
2.32142857142857e-02 6.15297120924033e-01 1.75985936698958e-06
2.67857142857143e-02 6.15296664100621e-01 2.13131270359832e-06
3.03571428571429e-02 6.15296152454366e-01 2.51394126920674e-06
3.39285714285714e-02 6.15295589693496e-01 2.90364743381265e-06
3.75000000000000e-02 6.15294977163319e-01 3.31012256883500e-06
4.10714285714286e-02 6.15294313687182e-01 3.74372323978063e-06
4.46428571428571e-02 6.15293596410956e-01 4.20833255330824e-06
4.82142857142857e-02 6.15292822974854e-01 4.70203454445726e-06
5.17857142857143e-02 6.15291991506120e-01 5.20414261718694e-06
5.53571428571429e-02 6.15291106778803e-01 5.71323463334430e-06
5.89285714285714e-02 6.15290166914153e-01 6.24856254335478e-06
6.25000000000000e-02 6.15289170165251e-01 6.81040724978578e-06
6.60714285714286e-02 6.15288114706462e-01 7.39996006024426e-06
6.96428571428571e-02 6.15286998562556e-01 8.00659996938238e-06
7.32142857142857e-02 6.15285823158389e-01 8.61144322450359e-06
7.67857142857143e-02 6.15284591846756e-01 9.22372564557872e-06
8.03571428571428e-02 6.15283303041916e-01 9.86055329537030e-06
8.39285714285714e-02 6.15281955183143e-01 1.05223599246313e-05
8.75000000000000e-02 6.15280546664412e-01 1.12095281741353e-05
9.10714285714286e-02 6.15279075914519e-01 1.19220239394500e-05
9.46428571428571e-02 6.15277541419688e-01 1.26599593258067e-05
9.82142857142857e-02 6.15275941654733e-01 1.34235804151217e-05
1.01785714285714e-01 6.15274275112296e-01 1.41746949975025e-05
1.05357142857143e-01 6.15272549789998e-01 1.49081191241642e-05
1.08928571428571e-01 6.15270765072213e-01 1.56580435619111e-05
1.12500000000000e-01 6.15268920330037e-01 1.64245686494245e-05
1.16071428571429e-01 6.15267014922551e-01 1.72077921402033e-05
1.19642857142857e-01 6.15265048197877e-01 1.80078097132022e-05
1.23214285714286e-01 6.15263019494072e-01 1.88247153997881e-05
1.26785714285714e-01 6.15260928139873e-01 1.96586019449283e-05
1.30357142857143e-01 6.15258773455329e-01 2.05095610959150e-05
1.33928571428571e-01 6.15256554752344e-01 2.13776838588213e-05
1.37500000000000e-01 6.15254271335123e-01 2.22630607059027e-05
1.41071428571429e-01 6.15251922500564e-01 2.31657817441179e-05
1.44642857142857e-01 6.15249507538586e-01 2.40859368640314e-05
1.48214285714286e-01 6.15247025732410e-01 2.50236158611224e-05
1.51785714285714e-01 6.15244476358800e-01 2.59789085321751e-05
1.55357142857143e-01 6.15241858688264e-01 2.69519047614167e-05
1.58928571428571e-01 6.15239171985235e-01 2.79426945930771e-05
1.62500000000000e-01 6.15236415508216e-01 2.89513682825441e-05
1.66071428571429e-01 6.15233588509907e-01 2.99780163423303e-05
1.69642857142857e-01 6.15230690237319e-01 3.10227295363924e-05
1.73214285714286e-01 6.15227719931870e-01 3.20855964096761e-05
1.76785714285714e-01 6.15224676829938e-01 3.31666892087487e-05
1.80357142857143e-01 6.15221560165545e-01 3.42660145589187e-05
1.83928571428571e-01 6.15218369179867e-01 3.53834565784899e-05
1.87500000000000e-01 6.15215103133823e-01 3.65186756329700e-05
1.91071428571429e-01 6.15211761335016e-01 3.76710498408443e-05
1.94642857142857e-01 6.15208343159119e-01 3.88398533171996e-05
1.98214285714286e-01 6.15204848042947e-01 4.00245432532056e-05
2.01785714285714e-01 6.15201275454527e-01 4.11473937717322e-05
2.05357142857143e-01 6.15197639337293e-01 4.22043561045909e-05
2.08928571428571e-01 6.15193939616334e-01 4.32698009041020e-05
2.12500000000000e-01 6.15190176215862e-01 4.43436527378160e-05
2.16071428571429e-01 6.15186349059085e-01 4.54258397476461e-05
2.19642857142857e-01 6.15182458068101e-01 4.65162934631791e-05
2.23214285714286e-01 6.15178503163791e-01 4.76149486351236e-05
2.26785714285714e-01 6.15174484265736e-01 4.87217430907547e-05
2.30357142857143e-01 6.15170401292131e-01 4.98366176024547e-05
2.33928571428571e-01 6.15166254159715e-01 5.09595157578232e-05
2.37500000000000e-01 6.15162042783701e-01 5.20903838430050e-05
2.41071428571429e-01 6.15157767077717e-01 5.32291707274948e-05
2.44642857142857e-01 6.15153426953752e-01 5.43758277525128e-05
2.48214285714286e-01 6.15149022322103e-01 5.55303086411385e-05
2.51785714285714e-01 6.15144553091334e-01 5.66925694038517e-05
2.55357142857143e-01 6.15140019168231e-01 5.78625682377813e-05
2.58928571428571e-01 6.15135420457768e-01 5.90402654497554e-05
2.62500000000000e-01 6.15130756863072e-01 6.02256233720699e-05
2.66071428571429e-01 6.15126028285393e-01 6.14186062848995e-05
2.69642857142857e-01 6.15121234624079e-01 6.26191803269108e-05
2.73214285714286e-01 6.15116375776549e-01 6.38273126121005e-05
2.76785714285714e-01 6.15111451638405e-01 6.50429666110403e-05
2.80357142857143e-01 6.15106462104103e-01 6.62660860884430e-05
2.83928571428571e-01 6.15101407069484e-01 6.74965765309089e-05
2.87500000000000e-01 6.15096286435184e-01 6.87342712970693e-05
2.91071428571429e-01 6.15091100114088e-01 6.99789131067221e-05
2.94642857142857e-01 6.15085848037175e-01 7.12302149908834e-05
2.98214285714286e-01 6.15080530151465e-01 7.24879565766509e-05
3.01785714285714e-01 6.15075146411494e-01 7.37462500312796e-05
3.05357142857143e-01 6.15069698410785e-01 7.51062892565300e-05
3.08928571428571e-01 6.15064171335489e-01 7.66700414072735e-05
3.12500000000000e-01 6.15058551379912e-01 7.84268499430848e-05
3.16071428571429e-01 6.15052825689207e-01 8.03665160339171e-05
3.19642857142857e-01 6.15046982305600e-01 8.24792764309660e-05
3.23214285714286e-01 6.15041010117880e-01 8.47557825946916e-05
3.26785714285714e-01 6.15034898813954e-01 8.71870809784360e-05
3.30357142857143e-01 6.15028638836242e-01 8.97645944146189e-05
3.33928571428571e-01 6.15022221339734e-01 9.24801044950576e-05
3.37500000000000e-01 6.15015638152519e-01 9.53257348716106e-05
3.41071428571429e-01 6.15008881738646e-01 9.82939354573309e-05
3.44642857142857e-01 6.15001945163142e-01 1.01377467442184e-04
3.48214285714286e-01 6.14994822059066e-01 1.04569389063451e-04
3.51785714285714e-01 6.14987506596465e-01 1.07863042122328e-04
3.55357142857143e-01 6.14979993453102e-01 1.11252039173903e-04
3.58928571428571e-01 6.14972277786863e-01 1.14730251359769e-04
3.62500000000000e-01 6.14964355209723e-01 1.18291796843707e-04
3.66071428571429e-01 6.14956221763182e-01 1.21931029798051e-04
3.69642857142857e-01 6.14947873895084e-01 1.25642529934621e-04
3.73214285714286e-01 6.14939308437731e-01 1.29421092149853e-04
3.76785714285714e-01 6.14930522587264e-01 1.33261714789885e-04
3.80357142857143e-01 6.14921513884449e-01 1.37159582476766e-04
3.83928571428571e-01 6.14912280197369e-01 1.41110048115563e-04
3.87500000000000e-01 6.14902819705534e-01 1.45108608936768e-04
3.91071428571429e-01 6.14893130886588e-01 1.49150890579734e-04
3.94642857142857e-01 6.14883212503210e-01 1.53232671120561e-04
3.98214285714286e-01 6.14873063587233e-01 1.57349922065536e-04
4.01785714285714e-01 6.14862683421839e-01 1.61432660600023e-04
4.05357142857143e-01 6.14852082019619e-01 1.65593036860734e-04
4.08928571428571e-01 6.14841244175520e-01 1.70004616866501e-04
4.12500000000000e-01 6.14830155725898e-01 1.74654025795909e-04
4.16071428571429e-01 6.14818803493475e-01 1.79528462542143e-04
4.19642857142857e-01 6.14807175235100e-01 1.84615676620180e-04
4.23214285714286e-01 6.14795259592149e-01 1.89903946155879e-04
4.26785714285714e-01 6.14783046043418e-01 1.95382056863030e-04
4.30357142857143e-01 6.14770524860372e-01 2.01039281955880e-04
4.33928571428571e-01 6.14757687064630e-01 2.06865362939392e-04
4.37500000000000e-01 6.14744524387555e-01 2.12850491242762e-04
4.41071428571429e-01 6.14731029231855e-01 2.18985290623007e-04
4.44642857142857e-01 6.14717194635065e-01 2.25260800314097e-04
4.48214285714286e-01 6.14703014234834e-01 2.31668458913713e-04
4.51785714285714e-01 6.14688482235914e-01 2.38200088938754e-04
4.55357142857143e-01 6.14673593378754e-01 2.44847882020119e-04
4.58928571428571e-01 6.14658342909635e-01 2.51604384730006e-04
4.62500000000000e-01 6.14642726552246e-01 2.58462485004157e-04
4.66071428571429e-01 6.14626740480649e-01 2.65415399117165e-04
4.69642857142857e-01 6.14610381293534e-01 2.72456659187387e-04
4.73214285714286e-01 6.14593645989735e-01 2.79580100959853e-04
4.76785714285714e-01 6.14576531944942e-01 2.86779850978098e-04
4.80357142857143e-01 6.14559036889668e-01 2.94050310847193e-04
4.83928571428571e-01 6.14541158888730e-01 3.01386140943805e-04
4.87500000000000e-01 6.14522896321986e-01 3.08782240501747e-04
4.91071428571429e-01 6.14504247866939e-01 3.16233735012768e-04
4.94642857142857e-01 6.14485212481615e-01 3.23735986974609e-04
4.98214285714286e-01 6.14465789386419e-01 3.31284615767746e-04
5.01785714285714e-01 6.14445978045209e-01 3.38792013608667e-04
5.05357142857143e-01 6.14425789474834e-01 3.46272291999413e-04
5.08928571428571e-01 6.14405221464816e-01 3.53821610418587e-04
5.12500000000000e-01 6.14384272217539e-01 3.61433194066364e-04
5.16071428571429e-01 6.14362940326527e-01 3.69100549237134e-04
5.19642857142857e-01 6.14341224755660e-01 3.76817453845557e-04
5.23214285714286e-01 6.14319124819300e-01 3.84577948303020e-04
5.26785714285714e-01 6.14296640163265e-01 3.92376326733565e-04
5.30357142857143e-01 6.14273770746638e-01 4.00207128512285e-04
5.33928571428571e-01 6.14250516824346e-01 4.08065130105953e-04
5.37500000000000e-01 6.14226878930501e-01 4.15945337182692e-04
5.41071428571429e-01 6.14202857862450e-01 4.23842977010355e-04
5.44642857142857e-01 6.14178454665511e-01 4.31753491098688e-04
5.48214285714286e-01 6.14153670618372e-01 4.39672528098227e-04
5.51785714285714e-01 6.14128507219113e-01 4.47595936949909e-04
5.55357142857143e-01 6.14102966171825e-01 4.55519760260941e-04
5.58928571428571e-01 6.14077049373809e-01 4.63440227894147e-04
5.62500000000000e-01 6.14050758903329e-01 4.71353750782883e-04
5.66071428571429e-01 6.14024097007882e-01 4.79256914950674e-04
5.69642857142857e-01 6.13997066092983e-01 4.87146475715437e-04
5.73214285714286e-01 6.13969668711424e-01 4.95019351923080e-04
5.76785714285714e-01 6.13941907553031e-01 5.02872619608403e-04
5.80357142857143e-01 6.13913785434934e-01 5.10703503455130e-04
5.83928571428571e-01 6.13885305292569e-01 5.18509367607369e-04
5.87500000000000e-01 6.13856470171257e-01 5.26287705345198e-04
5.91071428571429e-01 6.13827283218588e-01 5.34036132563055e-04
5.94642857142857e-01 6.13797747676928e-01 5.41752397840306e-04
5.98214285714286e-01 6.13767866874794e-01 5.49434397070566e-04
6.01785714285714e-01 6.13737644217891e-01 5.57403595367148e-04
6.05357142857143e-01 6.13707047892585e-01 5.66283853091262e-04
6.08928571428571e-01 6.13676013609628e-01 5.76346458122523e-04
6.12500000000000e-01 6.13644480817899e-01 5.87532423103855e-04
6.16071428571429e-01 6.13612392538812e-01 5.99785020190164e-04
6.19642857142857e-01 6.13579695207854e-01 6.13049696394336e-04
6.23214285714286e-01 6.13546338522925e-01 6.27273992311968e-04
6.26785714285714e-01 6.13512275299184e-01 6.42407464010453e-04
6.30357142857143e-01 6.13477461330102e-01 6.58401607859772e-04
6.33928571428571e-01 6.13441855254463e-01 6.75209788167926e-04
6.37500000000000e-01 6.13405418429056e-01 6.92787167522749e-04
6.41071428571429e-01 6.13368114806805e-01 7.11090639688688e-04
6.44642857142857e-01 6.13329910820113e-01 7.30078764984182e-04
6.48214285714286e-01 6.13290775269195e-01 7.49711708031719e-04
6.51785714285714e-01 6.13250679215183e-01 7.69951177796626e-04
6.55357142857143e-01 6.13209595877801e-01 7.90760369834190e-04
6.58928571428571e-01 6.13167500537425e-01 8.12103910635700e-04
6.62500000000000e-01 6.13124370441326e-01 8.33947804015251e-04
6.66071428571429e-01 6.13080184713930e-01 8.56259379450806e-04
6.69642857142857e-01 6.13034924270926e-01 8.79007242289738e-04
6.73214285714286e-01 6.12988571737051e-01 9.02161225622755e-04
6.76785714285714e-01 6.12941111367426e-01 9.25692343364035e-04
6.80357142857143e-01 6.12892528972326e-01 9.49572743329880e-04
6.83928571428571e-01 6.12842811845387e-01 9.73775661125902e-04
6.87500000000000e-01 6.12791948695062e-01 9.98275373493961e-04
6.91071428571429e-01 6.12739929579471e-01 1.02304716024166e-03
6.94642857142857e-01 6.12686745843392e-01 1.04806727710210e-03
6.98214285714286e-01 6.12632390057418e-01 1.07331292914565e-03
7.01785714285714e-01 6.12576855959219e-01 1.09922853653049e-03
7.05357142857143e-01 6.12520092162520e-01 1.12686259207291e-03
7.08928571428571e-01 6.12461985961791e-01 1.15675229818674e-03
7.12500000000000e-01 6.12402430990118e-01 1.18878859005873e-03
7.16071428571429e-01 6.12341326981718e-01 1.22286587070848e-03
7.19642857142857e-01 6.12278579542853e-01 1.25888190648856e-03
7.23214285714286e-01 6.12214099930841e-01 1.29673772588211e-03
7.26785714285714e-01 6.12147804840864e-01 1.33633752139474e-03
7.30357142857143e-01 6.12079616200299e-01 1.37758855430419e-03
7.33928571428571e-01 6.12009460970312e-01 1.42040106209368e-03
7.37500000000000e-01 6.11937270954469e-01 1.46468816849586e-03
7.41071428571429e-01 6.11862982614111e-01 1.51036579602788e-03
7.44642857142857e-01 6.11786536890282e-01 1.55735258096368e-03
7.48214285714286e-01 6.11707879031971e-01 1.60556979066656e-03
7.51785714285714e-01 6.11626958430468e-01 1.65494124322444e-03
7.55357142857143e-01 6.11543728459603e-01 1.70539322929749e-03
7.58928571428571e-01 6.11458146321706e-01 1.75685443612193e-03
7.62500000000000e-01 6.11370172899056e-01 1.80925587361587e-03
7.66071428571429e-01 6.11279772610661e-01 1.86253080251100e-03
7.69642857142857e-01 6.11186913274179e-01 1.91661466445237e-03
7.73214285714286e-01 6.11091565972807e-01 1.97144501385735e-03
7.76785714285714e-01 6.10993704926998e-01 2.02696145108770e-03
7.80357142857143e-01 6.10893307370869e-01 2.08310555541635e-03
7.83928571428571e-01 6.10790353433339e-01 2.13982081857328e-03
7.87500000000000e-01 6.10684826023781e-01 2.19705258015022e-03
7.91071428571429e-01 6.10576710722064e-01 2.25474796859708e-03
7.94642857142857e-01 6.10465995672399e-01 2.31285586082008e-03
7.98214285714286e-01 6.10352671479460e-01 2.37132684699239e-03
8.01785714285714e-01 6.10236731107713e-01 2.42983856658020e-03
8.05357142857143e-01 6.10118196285742e-01 2.48781357511256e-03
8.08928571428571e-01 6.09997115434435e-01 2.54497494684842e-03
8.12500000000000e-01 6.09873536431183e-01 2.60132758709713e-03
8.16071428571429e-01 6.09747506610831e-01 2.65687650770060e-03
8.19642857142857e-01 6.09619072766352e-01 2.71162683145557e-03
8.23214285714286e-01 6.09488281149267e-01 2.76558379584639e-03
8.26785714285714e-01 6.09355177469848e-01 2.81875275624077e-03
8.30357142857143e-01 6.09219806897131e-01 2.87113918855269e-03
8.33928571428571e-01 6.09082214058769e-01 2.92274869149856e-03
8.37500000000000e-01 6.08942443040736e-01 2.97358698851865e-03
8.41071428571429e-01 6.08800537386915e-01 3.02365992929364e-03
8.44642857142857e-01 6.08656540098566e-01 3.07297349095961e-03
8.48214285714286e-01 6.08510493633724e-01 3.12153377903409e-03
8.51785714285714e-01 6.08362439906500e-01 3.16934702802170e-03
8.55357142857143e-01 6.08212420286343e-01 3.21641960178094e-03
8.58928571428571e-01 6.08060475597241e-01 3.26275799369912e-03
8.62500000000000e-01 6.07906646116889e-01 3.30836882657783e-03
8.66071428571428e-01 6.07750971575834e-01 3.35325885234706e-03
8.69642857142857e-01 6.07593491156604e-01 3.39743495161394e-03
8.73214285714286e-01 6.07434243492831e-01 3.44090413286456e-03
8.76785714285714e-01 6.07273266668388e-01 3.48367353102154e-03
8.80357142857143e-01 6.07110598216592e-01 3.52575040440379e-03
8.83928571428571e-01 6.06946275119584e-01 3.56714213002316e-03
8.87500000000000e-01 6.06780333807950e-01 3.60785620215101e-03
8.91071428571429e-01 6.06612810160145e-01 3.64790023237476e-03
8.94642857142857e-01 6.06443739502007e-01 3.68728196304915e-03
8.98214285714286e-01 6.06273156604686e-01 3.72600926997968e-03
9.01785714285714e-01 6.06101095683845e-01 3.76433109860666e-03
9.05357142857143e-01 6.05927568279502e-01 3.80272905820026e-03
9.08928571428571e-01 6.05752564207659e-01 3.84143144621315e-03
9.12500000000000e-01 6.05576074082030e-01 3.88042176225342e-03
9.16071428571429e-01 6.05398089294350e-01 3.91968381883137e-03
9.19642857142857e-01 6.05218601994874e-01 3.95920174165729e-03
9.23214285714286e-01 6.05037605073048e-01 3.99895996988463e-03
9.26785714285714e-01 6.04855092138367e-01 4.03894325617028e-03
9.30357142857143e-01 6.04671057501419e-01 4.07913666657229e-03
9.33928571428571e-01 6.04485496155122e-01 4.11952558022964e-03
9.37500000000000e-01 6.04298403756157e-01 4.16009568884302e-03
9.41071428571429e-01 6.04109776606611e-01 4.20083299594621e-03
9.44642857142857e-01 6.03919611635826e-01 4.24172381596496e-03
9.48214285714286e-01 6.03727906382466e-01 4.28275477311445e-03
9.51785714285714e-01 6.03534658976801e-01 4.32391280009087e-03
9.55357142857143e-01 6.03339868123223e-01 4.36518513659598e-03
9.58928571428571e-01 6.03143533082988e-01 4.40655932770950e-03
9.62500000000000e-01 6.02945653657185e-01 4.44802322207698e-03
9.66071428571429e-01 6.02746230169955e-01 4.48956496995873e-03
9.69642857142857e-01 6.02545263451941e-01 4.53117302108509e-03
9.73214285714286e-01 6.02342754823983e-01 4.57283612192275e-03
9.76785714285714e-01 6.02138706081119e-01 4.61454331150814e-03
9.80357142857143e-01 6.01933119476950e-01 4.65628391261935e-03
9.83928571428571e-01 6.01725997708773e-01 4.69804752070513e-03
9.87500000000000e-01 6.01517343903300e-01 4.73982399023400e-03
9.91071428571428e-01 6.01307161603356e-01 4.78160344441445e-03
9.94642857142857e-01 6.01095454752697e-01 4.82337630769229e-03
9.98214285714286e-01 6.00882227679546e-01 4.86513333211543e-03
1.00178571428571e+00 6.00667485078994e-01 4.90968603108483e-03
1.00535714285714e+00 6.00450971738228e-01 4.96110740847988e-03
1.00892857142857e+00 6.00232335776882e-01 5.02052606491255e-03
1.01250000000000e+00 6.00011238055456e-01 5.08768647973170e-03
1.01607142857143e+00 5.99787351947471e-01 5.16233652711023e-03
1.01964285714286e+00 5.99560363112616e-01 5.24422750382728e-03
1.02321428571429e+00 5.99329969270755e-01 5.33311415881326e-03
1.02678571428571e+00 5.99095879976724e-01 5.42875472376310e-03
1.03035714285714e+00 5.98857816395856e-01 5.53091094423335e-03
1.03392857142857e+00 5.98615511080185e-01 5.63934811080970e-03
1.03750000000000e+00 5.98368707745343e-01 5.75383509022025e-03
1.04107142857143e+00 5.98117161048089e-01 5.87414435623310e-03
1.04464285714286e+00 5.97860636364499e-01 6.00005202018437e-03
1.04821428571429e+00 5.97598909568789e-01 6.13133786104202e-03
1.05178571428571e+00 5.97331766812778e-01 6.26778535491524e-03
1.05535714285714e+00 5.97059004306007e-01 6.40918170389070e-03
1.05892857142857e+00 5.96780428096502e-01 6.55531786411176e-03
1.06250000000000e+00 5.96495853852218e-01 6.70598857304931e-03
1.06607142857143e+00 5.96205106643161e-01 6.86099237583082e-03
1.06964285714286e+00 5.95908020724221e-01 7.02013165057147e-03
1.07321428571429e+00 5.95604439318737e-01 7.18321263268478e-03
1.07678571428571e+00 5.95294214402810e-01 7.35004543809228e-03
1.08035714285714e+00 5.94977206490409e-01 7.52044408521718e-03
1.08392857142857e+00 5.94653284419288e-01 7.69422651571620e-03
1.08750000000000e+00 5.94322325137755e-01 7.87121461386526e-03
1.09107142857143e+00 5.93984213492330e-01 8.05123422401446e-03
1.09464285714286e+00 5.93638842016384e-01 8.23411516619986e-03
1.09821428571429e+00 5.93286110719776e-01 8.41969124996670e-03
1.10178571428571e+00 5.92925926879580e-01 8.61053941649181e-03
1.10535714285714e+00 5.92557929273390e-01 8.80695678486998e-03
1.10892857142857e+00 5.92181998520958e-01 9.00652887504041e-03
1.11250000000000e+00 5.91798021424424e-01 9.20911811168718e-03
1.11607142857143e+00 5.91405890833253e-01 9.41458940216417e-03
1.11964285714286e+00 5.91005505510012e-01 9.62281013963838e-03
1.12321428571429e+00 5.90596769997067e-01 9.83365020433047e-03
1.12678571428571e+00 5.90179594484244e-01 1.00469819629941e-02
