Energy (eV)          EEDF (eV^-(3/2))     First Anisotropy
1.86956521739130e-02 1.01528514861568e-01 5.61419422116813e-05
5.60869565217391e-02 1.00767167016737e-01 9.26702474080835e-05
9.34782608695652e-02 1.00011528410170e-01 1.22239745919046e-04
1.30869565217391e-01 9.92615562300036e-02 1.44645896033627e-04
1.68260869565217e-01 9.85172079856032e-02 1.63284940914120e-04
2.05652173913043e-01 9.77784414996395e-02 1.79442126433662e-04
2.43043478260870e-01 9.70452149195940e-02 1.93783143727098e-04
2.80434782608696e-01 9.63174867018779e-02 2.06710323497206e-04
3.17826086956522e-01 9.55952156125661e-02 2.18490719974001e-04
3.55217391304348e-01 9.48783607319180e-02 2.29313237214913e-04
3.92608695652174e-01 9.41668814443137e-02 2.39317826856987e-04
4.30000000000000e-01 9.34607374372055e-02 2.48611897745561e-04
4.67391304347826e-01 9.27598887038149e-02 2.57280213898729e-04
5.04782608695652e-01 9.20642955340947e-02 2.65391198368472e-04
5.42173913043478e-01 9.13739185188365e-02 2.73001127429021e-04
5.79565217391304e-01 9.06887185427334e-02 2.80157023383589e-04
6.16956521739130e-01 9.00086567827116e-02 2.86898708646751e-04
6.54347826086957e-01 8.93336947092050e-02 2.93260303562439e-04
6.91739130434783e-01 8.86637940803168e-02 2.99271341988347e-04
7.29130434782609e-01 8.79989169400281e-02 3.04957617138184e-04
7.66521739130435e-01 8.73390256188781e-02 3.10341835296644e-04
8.03913043478261e-01 8.66840827288646e-02 3.15444127886590e-04
8.41304347826087e-01 8.60340511616012e-02 3.20282457027732e-04
8.78695652173913e-01 8.53888940885864e-02 3.24872942058117e-04
9.16086956521739e-01 8.47485749566399e-02 3.29230124597312e-04
9.53478260869565e-01 8.41130574860435e-02 3.33367185023611e-04
9.90869565217391e-01 8.34823056705124e-02 3.37296122485208e-04
1.02826086956522e+00 8.28562837711645e-02 3.41027903600500e-04
1.06565217391304e+00 8.22349563233549e-02 3.44572589820401e-04
1.10304347826087e+00 8.16182881181555e-02 3.47939441897178e-04
1.14043478260870e+00 8.10062442223249e-02 3.51137010506006e-04
1.17782608695652e+00 8.03987899585295e-02 3.54173216580705e-04
1.21521739130435e+00 7.97958909047074e-02 3.57055413340548e-04
1.25260869565217e+00 7.91975129069384e-02 3.59790446979713e-04
1.29000000000000e+00 7.86036220577251e-02 3.62384706158630e-04
1.32739130434783e+00 7.80141847132240e-02 3.64844165656330e-04
1.36478260869565e+00 7.74291674727794e-02 3.67174424910360e-04
1.40217391304348e+00 7.68485371950263e-02 3.69380741703494e-04
1.43956521739130e+00 7.62722609785572e-02 3.71468062184011e-04
1.47695652173913e+00 7.57003061769925e-02 3.73441046632550e-04
1.51434782608696e+00 7.51326403844867e-02 3.75304095655915e-04
1.55173913043478e+00 7.45692314346656e-02 3.77061367442260e-04
1.58913043478261e+00 7.40100474097132e-02 3.78716799118147e-04
1.62652173913043e+00 7.34550566240069e-02 3.80274123146802e-04
1.66391304347826e+00 7.29042276364933e-02 3.81736882479802e-04
1.70130434782609e+00 7.23575292351071e-02 3.83108444437240e-04
1.73869565217391e+00 7.18149304484455e-02 3.84392012537095e-04
1.77608695652174e+00 7.12764005339585e-02 3.85590640063977e-04
1.81347826086957e+00 7.07419089767639e-02 3.86707237038275e-04
1.85086956521739e+00 7.02114254967384e-02 3.87744581763981e-04
1.88826086956522e+00 6.96849200350329e-02 3.88705328911925e-04
1.92565217391304e+00 6.91623627638596e-02 3.89592017265369e-04
1.96304347826087e+00 6.86437240735813e-02 3.90407076988797e-04
2.00043478260870e+00 6.81289745819941e-02 3.91152835663892e-04
2.03782608695652e+00 6.76180851244647e-02 3.91831526346712e-04
2.07521739130435e+00 6.71110267526775e-02 3.92445290235678e-04
2.11260869565217e+00 6.66077707402985e-02 3.92996183750490e-04
2.15000000000000e+00 6.61082885716149e-02 3.93486182884861e-04
2.18739130434783e+00 6.56125519494384e-02 3.93917187551948e-04
2.22478260869565e+00 6.51205327841874e-02 3.94291025758761e-04
2.26217391304348e+00 6.46322032014119e-02 3.94609457340622e-04
2.29956521739130e+00 6.41475355312904e-02 3.94874177574839e-04
2.33695652173913e+00 6.36665023157965e-02 3.95086819993560e-04
2.37434782608696e+00 6.31890763006118e-02 3.95248961181160e-04
2.41173913043478e+00 6.27152304338665e-02 3.95362121107512e-04
2.44913043478261e+00 6.22449378705003e-02 3.95427767472460e-04
2.48652173913043e+00 6.17781719628867e-02 3.95447317847079e-04
2.52391304347826e+00 6.13149062670224e-02 3.95422141961298e-04
2.56130434782609e+00 6.08551145334814e-02 3.95353563971454e-04
2.59869565217391e+00 6.03987707133280e-02 3.95242864098352e-04
2.63608695652174e+00 5.99458489511017e-02 3.95091282116777e-04
2.67347826086957e+00 5.94963235835815e-02 3.94900016908334e-04
2.71086956521739e+00 5.90501691433632e-02 3.94670229677376e-04
2.74826086956522e+00 5.86073603507095e-02 3.94403045242467e-04
2.78565217391304e+00 5.81678721187001e-02 3.94099553512126e-04
2.82304347826087e+00 5.77316795453493e-02 3.93760810985927e-04
2.86043478260870e+00 5.72987579185378e-02 3.93387841732192e-04
2.89782608695652e+00 5.68690827098654e-02 3.92981640074062e-04
2.93521739130435e+00 5.64426295734425e-02 3.92543169757708e-04
2.97260869565217e+00 5.60193743488533e-02 3.92073366458059e-04
3.01000000000000e+00 5.55992930540021e-02 3.91573138577604e-04
3.04739130434783e+00 5.51823618894367e-02 3.91043368238637e-04
3.08478260869565e+00 5.47685572314169e-02 3.90484912321390e-04
3.12217391304348e+00 5.43578556360623e-02 3.89898603355671e-04
3.15956521739130e+00 5.39502338326323e-02 3.89285250462395e-04
3.19695652173913e+00 5.35456687275060e-02 3.88645639859635e-04
3.23434782608696e+00 5.31441373989089e-02 3.87980536906770e-04
3.27173913043478e+00 5.27456170957552e-02 3.87290685054969e-04
3.30913043478261e+00 5.23500852400092e-02 3.86576807776295e-04
3.34652173913043e+00 5.19575194205418e-02 3.85839608997998e-04
3.38391304347826e+00 5.15678973966447e-02 3.85079773728432e-04
3.42130434782609e+00 5.11811970920654e-02 3.84297968738559e-04
3.45869565217391e+00 5.07973965983836e-02 3.83494842860342e-04
3.49608695652174e+00 5.04164741703056e-02 3.82671028693780e-04
3.53347826086957e+00 5.00384082245516e-02 3.81827141507291e-04
3.57086956521739e+00 4.96631773418330e-02 3.80963780859968e-04
3.60826086956522e+00 4.92907602613737e-02 3.80081530869743e-04
3.64565217391304e+00 4.89211358839033e-02 3.79180960664673e-04
3.68304347826087e+00 4.85542832663303e-02 3.78262624891054e-04
3.72043478260870e+00 4.81901816246218e-02 3.77327063879376e-04
3.75782608695652e+00 4.78288103295815e-02 3.76374805102675e-04
3.79521739130435e+00 4.74701489057796e-02 3.75406362077077e-04
3.83260869565217e+00 4.71141770332173e-02 3.74422235753746e-04
3.87000000000000e+00 4.67608745424135e-02 3.73422914679540e-04
3.90739130434783e+00 4.64102214169656e-02 3.72408875329708e-04
3.94478260869565e+00 4.60621977887683e-02 3.71380582496277e-04
3.98217391304348e+00 4.57167839404798e-02 3.70338489594143e-04
4.01956521739130e+00 4.53739603008671e-02 3.69283039022615e-04
4.05695652173913e+00 4.50337074471811e-02 3.68214662225674e-04
4.09434782608696e+00 4.46960061014480e-02 3.67133780915691e-04
4.13173913043478e+00 4.43608371294578e-02 3.66040806008412e-04
4.16913043478261e+00 4.40281815421087e-02 3.64936138796119e-04
4.20652173913043e+00 4.36980204910956e-02 3.63820171019792e-04
4.24391304347826e+00 4.33703352710307e-02 3.62693285100333e-04
4.28130434782609e+00 4.30451073152413e-02 3.61555854422410e-04
4.31869565217391e+00 4.27223181978149e-02 3.60408243345305e-04
4.35608695652174e+00 4.24019496302358e-02 3.59250808283218e-04
4.39347826086957e+00 4.20839834604191e-02 3.58083896686247e-04
4.43086956521739e+00 4.17684016738466e-02 3.56907848079355e-04
4.46826086956522e+00 4.14551863896620e-02 3.55722994091328e-04
4.50565217391304e+00 4.11443198625010e-02 3.54529658632234e-04
4.54304347826087e+00 4.08357844786833e-02 3.53328158120424e-04
4.58043478260870e+00 4.05295627579772e-02 3.52118801460322e-04
4.61782608695652e+00 4.02256373505408e-02 3.50901891005785e-04
4.65521739130435e+00 3.99239910359984e-02 3.49677721593049e-04
4.69260869565217e+00 3.96246067244011e-02 3.48446581468504e-04
4.73000000000000e+00 3.93274674526797e-02 3.47208752288826e-04
4.76739130434783e+00 3.90325563862262e-02 3.45964509258895e-04
4.80478260869565e+00 3.87398568154326e-02 3.44714121316136e-04
4.84217391304348e+00 3.84493521572172e-02 3.43457851259102e-04
4.87956521739130e+00 3.81610259516457e-02 3.42195955921821e-04
4.91695652173913e+00 3.78748618634045e-02 3.40928686124525e-04
4.95434782608696e+00 3.75908436790740e-02 3.39656287516049e-04
4.99173913043478e+00 3.73089553062597e-02 3.38378999673614e-04
5.02913043478261e+00 3.70291807743707e-02 3.37097056915581e-04
5.06652173913043e+00 3.67515042314635e-02 3.35810688276680e-04
5.10391304347826e+00 3.64759099455649e-02 3.34520117609563e-04
5.14130434782609e+00 3.62023823015893e-02 3.33225563728791e-04
5.17869565217391e+00 3.59309058026161e-02 3.31927240349582e-04
5.21608695652174e+00 3.56614650673926e-02 3.30625356850040e-04
5.25347826086957e+00 3.53940448295059e-02 3.29320117425018e-04
5.29086956521739e+00 3.51286299380411e-02 3.28011721822728e-04
5.32826086956522e+00 3.48652053546939e-02 3.26700365308181e-04
5.36565217391304e+00 3.46037561549206e-02 3.25386238743972e-04
5.40304347826087e+00 3.43442675251171e-02 3.24069528710560e-04
5.44043478260870e+00 3.40867247637290e-02 3.22750417437653e-04
5.47782608695652e+00 3.38311132789589e-02 3.21429083497394e-04
5.51521739130435e+00 3.35774185879777e-02 3.20105701010584e-04
5.55260869565217e+00 3.33256263174793e-02 3.18780440316986e-04
5.59000000000000e+00 3.30757222010345e-02 3.17453467931242e-04
5.62739130434783e+00 3.28276920800908e-02 3.16124946607609e-04
5.66478260869565e+00 3.25815219013855e-02 3.14795035441477e-04
5.70217391304348e+00 3.23371977179110e-02 3.13463889930284e-04
5.73956521739130e+00 3.20947056863856e-02 3.12131662070531e-04
5.77695652173913e+00 3.18540320681860e-02 3.10798500283718e-04
5.81434782608696e+00 3.16151632272835e-02 3.09464550034617e-04
5.85173913043478e+00 3.13780856295040e-02 3.08129953099623e-04
5.88913043478261e+00 3.11427858429740e-02 3.06794848165158e-04
5.92652173913044e+00 3.09092505357440e-02 3.05459370777294e-04
5.96391304347826e+00 3.06774664766286e-02 3.04123653391012e-04
6.00130434782609e+00 3.04474205328813e-02 3.02787825453016e-04
6.03869565217391e+00 3.02190996710062e-02 3.01452013326504e-04
6.07608695652174e+00 2.99924909548545e-02 3.00116340857640e-04
6.11347826086957e+00 2.97675815449209e-02 2.98780928690942e-04
6.15086956521739e+00 2.95443586987161e-02 2.97445894818053e-04
6.18826086956522e+00 2.93228097685796e-02 2.96111354525060e-04
6.22565217391304e+00 2.91029222024102e-02 2.94777420432611e-04
6.26304347826087e+00 2.88846835415257e-02 2.93444202567084e-04
6.30043478260870e+00 2.86680814213685e-02 2.92111808285458e-04
6.33782608695652e+00 2.84531035697480e-02 2.90780342795943e-04
6.37521739130435e+00 2.82397378061709e-02 2.89449908517550e-04
6.41260869565217e+00 2.80279720421513e-02 2.88120605584448e-04
6.45000000000000e+00 2.78177942791938e-02 2.86792531792538e-04
6.48739130434783e+00 2.76091926094292e-02 2.85465782632136e-04
6.52478260869565e+00 2.74021552136403e-02 2.84140451349569e-04
6.56217391304348e+00 2.71966703618764e-02 2.82816628978015e-04
6.59956521739130e+00 2.69927264115197e-02 2.81494404396843e-04
6.63695652173913e+00 2.67903118078791e-02 2.80173864257702e-04
6.67434782608696e+00 2.65894150825975e-02 2.78855093453892e-04
6.71173913043478e+00 2.63900248530236e-02 2.77538174531548e-04
6.74913043478261e+00 2.61921298224565e-02 2.76223188144628e-04
6.78652173913043e+00 2.59957187783214e-02 2.74910213001280e-04
6.82391304347826e+00 2.58007805927041e-02 2.73599325889170e-04
6.86130434782609e+00 2.56073042205648e-02 2.72290601727145e-04
6.89869565217391e+00 2.54152787002544e-02 2.70984113493457e-04
6.93608695652174e+00 2.52246931520378e-02 2.69679932658935e-04
6.97347826086957e+00 2.50355367774982e-02 2.68378128636393e-04
7.01086956521739e+00 2.48477988597355e-02 2.67078769200841e-04
7.04826086956522e+00 2.46614687616794e-02 2.65781920436661e-04
7.08565217391304e+00 2.44765359265539e-02 2.64487646758441e-04
7.12304347826087e+00 2.42929898762244e-02 2.63196010956238e-04
7.16043478260870e+00 2.41108202116468e-02 2.61907074126169e-04
7.19782608695652e+00 2.39300166114970e-02 2.60620896070984e-04
7.23521739130435e+00 2.37505688316046e-02 2.59337534785192e-04
7.27260869565217e+00 2.35724667051130e-02 2.58057046843590e-04
7.31000000000000e+00 2.33957001409170e-02 2.56779487349815e-04
7.34739130434783e+00 2.32202591240659e-02 2.55504909953438e-04
7.38478260869565e+00 2.30461337142324e-02 2.54233366889849e-04
7.42217391304348e+00 2.28733140461022e-02 2.52964908996389e-04
7.45956521739130e+00 2.27017903278731e-02 2.51699585750935e-04
7.49695652173913e+00 2.25315528416312e-02 2.50437445205627e-04
7.53434782608696e+00 2.23625919421033e-02 2.49178534350417e-04
7.57173913043478e+00 2.21948980561257e-02 2.47922898639752e-04
7.60913043478261e+00 2.20284616827649e-02 2.46670582345312e-04
7.64652173913043e+00 2.18632733918962e-02 2.45421628506460e-04
7.68391304347826e+00 2.16993238245422e-02 2.44176078943454e-04
7.72130434782609e+00 2.15366036914801e-02 2.42933974291595e-04
7.75869565217391e+00 2.13751037735678e-02 2.41695353937913e-04
7.79608695652174e+00 2.12148149205831e-02 2.40460256358156e-04
7.83347826086957e+00 2.10557280507197e-02 2.39228718674079e-04
7.87086956521739e+00 2.08978341506792e-02 2.38000776980665e-04
7.90826086956522e+00 2.07411242743525e-02 2.36776466298299e-04
7.94565217391304e+00 2.05855895431118e-02 2.35555820583718e-04
7.98304347826087e+00 2.04312211445175e-02 2.34338872760290e-04
8.02043478260870e+00 2.02780103326003e-02 2.33125654657500e-04
8.05782608695652e+00 2.01259484267803e-02 2.31916197323931e-04
8.09521739130435e+00 1.99750268113881e-02 2.30710530612996e-04
8.13260869565217e+00 1.98252369357334e-02 2.29508683486689e-04
8.17000000000000e+00 1.96765703128792e-02 2.28310683969785e-04
8.20739130434783e+00 1.95290185198939e-02 2.27116559158736e-04
8.24478260869565e+00 1.93825731966489e-02 2.25926335248700e-04
8.28217391304348e+00 1.92372260460626e-02 2.24740037541919e-04
8.31956521739130e+00 1.90929688329205e-02 2.23557690473894e-04
8.35695652173913e+00 1.89497933841101e-02 2.22379317556412e-04
8.39434782608696e+00 1.88076915876330e-02 2.21204941662831e-04
8.43173913043478e+00 1.86666553921557e-02 2.20034584647020e-04
8.46913043478261e+00 1.85266768070549e-02 2.18868267620311e-04
8.50652173913043e+00 1.83877479012972e-02 2.17706010908089e-04
8.54391304347826e+00 1.82498608036497e-02 2.16547834056642e-04
8.58130434782609e+00 1.81130077015817e-02 2.15393755856540e-04
8.61869565217391e+00 1.79771808414670e-02 2.14243794288518e-04
8.65608695652174e+00 1.78423725276614e-02 2.13097966788823e-04
8.69347826086956e+00 1.77085751220775e-02 2.11956289892529e-04
8.73086956521739e+00 1.75757810442117e-02 2.10818779491230e-04
8.76826086956522e+00 1.74439827701018e-02 2.09685450791562e-04
8.80565217391304e+00 1.73131728325071e-02 2.08556318320754e-04
8.84304347826087e+00 1.71833438198857e-02 2.07431395947621e-04
8.88043478260870e+00 1.70544883765674e-02 2.06310696831192e-04
8.91782608695652e+00 1.69265992018932e-02 2.05194233667738e-04
8.95521739130435e+00 1.67996690498105e-02 2.04082018356773e-04
8.99260869565217e+00 1.66736907288865e-02 2.02974062240990e-04
9.03000000000000e+00 1.65486571013364e-02 2.01870376066787e-04
9.06739130434783e+00 1.64245610831770e-02 2.00770969988691e-04
9.10478260869565e+00 1.63013956432736e-02 1.99675853588200e-04
9.14217391304348e+00 1.61791538034873e-02 1.98585035877950e-04
9.17956521739131e+00 1.60578286377397e-02 1.97498525320046e-04
9.21695652173913e+00 1.59374132721548e-02 1.96416329777942e-04
9.25434782608696e+00 1.58179008842694e-02 1.95338456742382e-04
9.29173913043478e+00 1.56992847026549e-02 1.94264913023904e-04
9.32913043478261e+00 1.55815580069150e-02 1.93195704972250e-04
9.36652173913044e+00 1.54647141267970e-02 1.92130838439257e-04
9.40391304347826e+00 1.53487464423166e-02 1.91070318782142e-04
9.44130434782609e+00 1.52336483828855e-02 1.90014150879973e-04
9.47869565217391e+00 1.51194134274309e-02 1.88962339088183e-04
9.51608695652174e+00 1.50060351036577e-02 1.87914887449201e-04
9.55347826086957e+00 1.48935069876894e-02 1.86871799404319e-04
9.59086956521739e+00 1.47818227040559e-02 1.85833077998342e-04
9.62826086956522e+00 1.46709759248635e-02 1.84798725844335e-04
9.66565217391304e+00 1.45609603699006e-02 1.83768745126154e-04
9.70304347826087e+00 1.44517698058221e-02 1.82743137613337e-04
9.74043478260870e+00 1.43433980462514e-02 1.81721904618013e-04
9.77782608695652e+00 1.42358389510888e-02 1.80705047191436e-04
9.81521739130435e+00 1.41290864261712e-02 1.79692565853984e-04
9.85260869565217e+00 1.40231344232513e-02 1.78684460786070e-04
9.89000000000000e+00 1.39179769392224e-02 1.77680731794699e-04
9.92739130434783e+00 1.38136080162065e-02 1.76681378315407e-04
9.96478260869565e+00 1.37100217407926e-02 1.75686399425673e-04
1.00021739130435e+01 1.36072122441217e-02 1.74695793974601e-04
1.00395652173913e+01 1.35051737008350e-02 1.73709560210134e-04
1.00769565217391e+01 1.34039003300715e-02 1.72727695996948e-04
1.01143478260870e+01 1.33033863939105e-02 1.71750199217239e-04
1.01517391304348e+01 1.32036261974594e-02 1.70777067252438e-04
1.01891304347826e+01 1.31046140885305e-02 1.69808297166183e-04
1.02265217391304e+01 1.30063444573215e-02 1.68843885711052e-04
1.02639130434783e+01 1.29088117360968e-02 1.67883829335215e-04
1.03013043478261e+01 1.28120103988727e-02 1.66928124188966e-04
1.03386956521739e+01 1.27159349611041e-02 1.65976766131201e-04
1.03760869565217e+01 1.26205799793733e-02 1.65029750735536e-04
1.04134782608696e+01 1.25259400510825e-02 1.64087073296477e-04
1.04508695652174e+01 1.24320098141471e-02 1.63148728835697e-04
1.04882608695652e+01 1.23387839466922e-02 1.62214712107912e-04
1.05256521739130e+01 1.22462571667505e-02 1.61285017606741e-04
1.05630434782609e+01 1.21544242319638e-02 1.60359639570466e-04
1.06004347826087e+01 1.20632799392855e-02 1.59438571987702e-04
1.06378260869565e+01 1.19728191246859e-02 1.58521808602968e-04
1.06752173913043e+01 1.18830366628597e-02 1.57609342922134e-04
1.07126086956522e+01 1.17939274669354e-02 1.56701168217798e-04
1.07500000000000e+01 1.17054864881874e-02 1.55797277887396e-04
1.07873913043478e+01 1.16177087149420e-02 1.54897664393948e-04
1.08247826086957e+01 1.15305891747317e-02 1.54002319983434e-04
1.08621739130435e+01 1.14441229315601e-02 1.53111237411635e-04
1.08995652173913e+01 1.13583050864453e-02 1.52224408862201e-04
1.09369565217391e+01 1.12731307771418e-02 1.51341826315834e-04
1.09743478260870e+01 1.11885951778658e-02 1.50463481555053e-04
1.10117391304348e+01 1.11046934990210e-02 1.49589366168859e-04
1.10491304347826e+01 1.10214209869279e-02 1.48719471557335e-04
1.10865217391304e+01 1.09387729235541e-02 1.47853788936143e-04
1.11239130434783e+01 1.08567446262470e-02 1.46992309340939e-04
1.11613043478261e+01 1.07753314474687e-02 1.46135023631745e-04
1.11986956521739e+01 1.06945287745322e-02 1.45281922497301e-04
1.12360869565217e+01 1.06143320293407e-02 1.44432996459102e-04
1.12734782608696e+01 1.05347366681278e-02 1.43588235875547e-04
1.13108695652174e+01 1.04557381812001e-02 1.42747630946139e-04
1.13482608695652e+01 1.03773320926820e-02 1.41911171715394e-04
1.13856521739130e+01 1.02995139602617e-02 1.41078848076771e-04
1.14230434782609e+01 1.02222793749396e-02 1.40250649776498e-04
1.14604347826087e+01 1.01456239607787e-02 1.39426566417378e-04
1.14978260869565e+01 1.00695433746567e-02 1.38606587462495e-04
1.15352173913043e+01 9.99403330601934e-03 1.37790702238865e-04
1.15726086956522e+01 9.91908947663695e-03 1.36978899941030e-04
1.16100000000000e+01 9.84470764036158e-03 1.36171169920108e-04
1.16473913043478e+01 9.77088358225745e-03 1.35367500825855e-04
1.16847826086957e+01 9.69761312026105e-03 1.34567881186439e-04
1.17221739130435e+01 9.62489210303356e-03 1.33772299995975e-04
1.17595652173913e+01 9.55271641036643e-03 1.32980745838273e-04
1.17969565217391e+01 9.48108195294804e-03 1.32193207184919e-04
