Energy (eV)          EEDF (eV^-(3/2))     First Anisotropy
4.15000000000000e-02 5.79235375115722e-02 3.95593542891181e-05
1.24500000000000e-01 5.72607204439879e-02 6.51690748983767e-05
2.07500000000000e-01 5.66054879695495e-02 8.56218066368896e-05
2.90500000000000e-01 5.59577532980089e-02 1.00913386427513e-04
3.73500000000000e-01 5.53174306322618e-02 1.13464371705519e-04
4.56500000000000e-01 5.46844351569777e-02 1.24196255278552e-04
5.39500000000000e-01 5.40586830273653e-02 1.33589033235830e-04
6.22500000000000e-01 5.34400913580667e-02 1.41934408267638e-04
7.05500000000000e-01 5.28285782121784e-02 1.49427054497252e-04
7.88500000000000e-01 5.22240625903978e-02 1.56205413448855e-04
8.71500000000000e-01 5.16264644202948e-02 1.62372591083234e-04
9.54500000000000e-01 5.10357045457054e-02 1.68008128595441e-04
1.03750000000000e+00 5.04517047162469e-02 1.73175116675927e-04
1.12050000000000e+00 4.98743875769529e-02 1.77924736542480e-04
1.20350000000000e+00 4.93036766580275e-02 1.82299287756132e-04
1.28650000000000e+00 4.87394963647159e-02 1.86334280566293e-04
1.36950000000000e+00 4.81817719672916e-02 1.90059925663062e-04
1.45250000000000e+00 4.76304295911576e-02 1.93502222138861e-04
1.53550000000000e+00 4.70853962070617e-02 1.96683769560009e-04
1.61850000000000e+00 4.65465996214229e-02 1.99624385734626e-04
1.70150000000000e+00 4.60139684667686e-02 2.02341584577523e-04
1.78450000000000e+00 4.54874321922820e-02 2.04850951261977e-04
1.86750000000000e+00 4.49669210544570e-02 2.07166440648393e-04
1.95050000000000e+00 4.44523661078597e-02 2.09300617511640e-04
2.03350000000000e+00 4.39436991959969e-02 2.11264852000078e-04
2.11650000000000e+00 4.34408529422875e-02 2.13069480223554e-04
2.19950000000000e+00 4.29437607411384e-02 2.14723937367557e-04
2.28250000000000e+00 4.24523567491221e-02 2.16236868934492e-04
2.36550000000000e+00 4.19665758762553e-02 2.17616224403995e-04
2.44850000000000e+00 4.14863537773768e-02 2.18869336636910e-04
2.53150000000000e+00 4.10116268436252e-02 2.20002989624484e-04
2.61450000000000e+00 4.05423321940131e-02 2.21023476637538e-04
2.69750000000000e+00 4.00784076670980e-02 2.21936650412508e-04
2.78050000000000e+00 3.96197918127488e-02 2.22747966688919e-04
2.86350000000000e+00 3.91664238840060e-02 2.23462522161860e-04
2.94650000000000e+00 3.87182438290356e-02 2.24085087716103e-04
3.02950000000000e+00 3.82751922831746e-02 2.24620137652482e-04
3.11250000000000e+00 3.78372105610679e-02 2.25071875493119e-04
3.19550000000000e+00 3.74042406488950e-02 2.25444256852151e-04
3.27850000000000e+00 3.69762251966854e-02 2.25741009778200e-04
3.36150000000000e+00 3.65531075107223e-02 2.25965652909332e-04
3.44450000000000e+00 3.61348315460335e-02 2.26121511727678e-04
3.52750000000000e+00 3.57213418989671e-02 2.26211733156907e-04
3.61050000000000e+00 3.53125837998537e-02 2.26239298709439e-04
3.69350000000000e+00 3.49085031057512e-02 2.26207036360089e-04
3.77650000000000e+00 3.45090462932731e-02 2.26117631297495e-04
3.85950000000000e+00 3.41141604514995e-02 2.25973635683827e-04
3.94250000000000e+00 3.37237932749684e-02 2.25777477535369e-04
4.02550000000000e+00 3.33378930567471e-02 2.25531468821530e-04
4.10850000000000e+00 3.29564086815838e-02 2.25237812867173e-04
4.19150000000000e+00 3.25792896191368e-02 2.24898611132369e-04
4.27450000000000e+00 3.22064859172813e-02 2.24515869434275e-04
4.35750000000000e+00 3.18379481954929e-02 2.24091503667984e-04
4.44050000000000e+00 3.14736276383070e-02 2.23627345076431e-04
4.52350000000000e+00 3.11134759888526e-02 2.23125145113377e-04
4.60650000000000e+00 3.07574455424606e-02 2.22586579938569e-04
4.68950000000000e+00 3.04054891403445e-02 2.22013254579660e-04
4.77250000000000e+00 3.00575601633545e-02 2.21406706791620e-04
4.85550000000000e+00 2.97136125258019e-02 2.20768410641037e-04
4.93850000000000e+00 2.93736006693551e-02 2.20099779839773e-04
5.02150000000000e+00 2.90374795570050e-02 2.19402170849841e-04
5.10450000000000e+00 2.87052046670993e-02 2.18676885779084e-04
5.18750000000000e+00 2.83767319874455e-02 2.17925175085343e-04
5.27050000000000e+00 2.80520180094811e-02 2.17148240104870e-04
5.35350000000000e+00 2.77310197225108e-02 2.16347235419351e-04
5.43650000000000e+00 2.74136946080090e-02 2.15523271074409e-04
5.51950000000000e+00 2.71000006339882e-02 2.14677414661250e-04
5.60250000000000e+00 2.67898962494314e-02 2.13810693272054e-04
5.68550000000000e+00 2.64833403787888e-02 2.12924095338744e-04
5.76850000000000e+00 2.61802924165363e-02 2.12018572363800e-04
5.85150000000000e+00 2.58807122217978e-02 2.11095040551112e-04
5.93450000000000e+00 2.55845601130276e-02 2.10154382344129e-04
6.01750000000000e+00 2.52917968627547e-02 2.09197447877882e-04
6.10050000000000e+00 2.50023836923867e-02 2.08225056350974e-04
6.18350000000000e+00 2.47162822670733e-02 2.07237997323093e-04
6.26650000000000e+00 2.44334546906286e-02 2.06237031943064e-04
6.34950000000000e+00 2.41538635005115e-02 2.05222894112188e-04
6.43250000000000e+00 2.38774716628634e-02 2.04196291587108e-04
6.51550000000000e+00 2.36042425676030e-02 2.03157907026147e-04
6.59850000000000e+00 2.33341400235767e-02 2.02108398982800e-04
6.68150000000000e+00 2.30671282537653e-02 2.01048402849708e-04
6.76450000000000e+00 2.28031718905447e-02 1.99978531756189e-04
6.84750000000000e+00 2.25422359710012e-02 1.98899377422244e-04
6.93050000000000e+00 2.22842859323008e-02 1.97811510971680e-04
7.01350000000000e+00 2.20292876071106e-02 1.96715483706754e-04
7.09650000000000e+00 2.17772072190733e-02 1.95611827846664e-04
7.17950000000000e+00 2.15280113783336e-02 1.94501057232017e-04
7.26250000000000e+00 2.12816670771148e-02 1.93383667997233e-04
7.34550000000000e+00 2.10381416853474e-02 1.92260139212666e-04
7.42850000000000e+00 2.07974029463465e-02 1.91130933498185e-04
7.51150000000000e+00 2.05594189725393e-02 1.89996497609825e-04
7.59450000000000e+00 2.03241582412415e-02 1.88857263000933e-04
7.67750000000000e+00 2.00915895904818e-02 1.87713646359240e-04
7.76050000000000e+00 1.98616822148743e-02 1.86566050121130e-04
7.84350000000000e+00 1.96344056615380e-02 1.85414862964282e-04
7.92650000000000e+00 1.94097298260633e-02 1.84260460279875e-04
8.00950000000000e+00 1.91876249485241e-02 1.83103204625393e-04
8.09250000000000e+00 1.89680616095364e-02 1.81943446158982e-04
8.17550000000000e+00 1.87510107263611e-02 1.80781523056347e-04
8.25850000000000e+00 1.85364435490518e-02 1.79617761911036e-04
8.34150000000000e+00 1.83243316566469e-02 1.78452478118902e-04
8.42450000000000e+00 1.81146469534048e-02 1.77285976247575e-04
8.50750000000000e+00 1.79073616650826e-02 1.76118550391633e-04
8.59050000000000e+00 1.77024483352571e-02 1.74950484514159e-04
8.67350000000000e+00 1.74998798216878e-02 1.73782052775323e-04
8.75650000000000e+00 1.72996292927223e-02 1.72613519848594e-04
8.83950000000000e+00 1.71016702237416e-02 1.71445141225185e-04
8.92250000000000e+00 1.69059763936472e-02 1.70277163507229e-04
9.00550000000000e+00 1.67125218813876e-02 1.69109824690219e-04
9.08850000000000e+00 1.65212810625251e-02 1.67943354435195e-04
9.17150000000000e+00 1.63322286058415e-02 1.66777974331109e-04
9.25450000000000e+00 1.61453394699828e-02 1.65613898147830e-04
9.33750000000000e+00 1.59605889001426e-02 1.64451332080191e-04
9.42050000000000e+00 1.57779524247827e-02 1.63290474983429e-04
9.50350000000000e+00 1.55974058523920e-02 1.62131518600461e-04
9.58650000000000e+00 1.54189252682819e-02 1.60974647781244e-04
9.66950000000000e+00 1.52424870314189e-02 1.59820040694626e-04
9.75250000000000e+00 1.50680677712930e-02 1.58667869032972e-04
9.83550000000000e+00 1.48956443848220e-02 1.57518298209858e-04
9.91850000000000e+00 1.47251940332918e-02 1.56371487551129e-04
1.00015000000000e+01 1.45566941393307e-02 1.55227590479562e-04
1.00845000000000e+01 1.43901223839192e-02 1.54086754693438e-04
1.01675000000000e+01 1.42254567034333e-02 1.52949122339215e-04
1.02505000000000e+01 1.40626752867228e-02 1.51814830178550e-04
1.03335000000000e+01 1.39017565722213e-02 1.50684009749916e-04
1.04165000000000e+01 1.37426792450909e-02 1.49556787524983e-04
1.04995000000000e+01 1.35854222343986e-02 1.48433285059980e-04
1.05825000000000e+01 1.34299647103254e-02 1.47313619142251e-04
1.06655000000000e+01 1.32762860814072e-02 1.46197901932156e-04
1.07485000000000e+01 1.31243659918072e-02 1.45086241100489e-04
1.08315000000000e+01 1.29741843186200e-02 1.43978739961599e-04
1.09145000000000e+01 1.28257211692057e-02 1.42875497602364e-04
1.09975000000000e+01 1.26789568785552e-02 1.41776609007192e-04
1.10805000000000e+01 1.25338720066857e-02 1.40682165179129e-04
1.11635000000000e+01 1.23904473360652e-02 1.39592253257282e-04
1.12465000000000e+01 1.22486638690672e-02 1.38506956630667e-04
1.13295000000000e+01 1.21085028254547e-02 1.37426355048582e-04
1.14125000000000e+01 1.19699456398920e-02 1.36350524727663e-04
1.14955000000000e+01 1.18329739594862e-02 1.35279538455722e-04
1.15785000000000e+01 1.16975696413556e-02 1.34213465692496e-04
1.16615000000000e+01 1.15637147502272e-02 1.33152372667363e-04
1.17445000000000e+01 1.14313915560605e-02 1.32096322474198e-04
1.18275000000000e+01 1.13005825316993e-02 1.31045375163419e-04
1.19105000000000e+01 1.11712703505501e-02 1.29999587831320e-04
1.19935000000000e+01 1.10434378842870e-02 1.28959014706819e-04
1.20765000000000e+01 1.09170682005829e-02 1.27923707235656e-04
1.21595000000000e+01 1.07921445608668e-02 1.26893714162163e-04
1.22425000000000e+01 1.06686504181066e-02 1.25869081608668e-04
1.23255000000000e+01 1.05465694146173e-02 1.24849853152617e-04
1.24085000000000e+01 1.04258853798943e-02 1.23836069901488e-04
1.24915000000000e+01 1.03065823284716e-02 1.22827770565551e-04
1.25745000000000e+01 1.01886444578044e-02 1.21824991528584e-04
1.26575000000000e+01 1.00720561461756e-02 1.20827766916570e-04
1.27405000000000e+01 9.95680195062723e-03 1.19836128664425e-04
1.28235000000000e+01 9.84286660491435e-03 1.18850106580904e-04
1.29065000000000e+01 9.73023501748321e-03 1.17869728411651e-04
1.29895000000000e+01 9.61889226947218e-03 1.16895019900475e-04
1.30725000000000e+01 9.50882361273565e-03 1.15926004848938e-04
1.31555000000000e+01 9.40001446789055e-03 1.14962705174274e-04
1.32385000000000e+01 9.29245042238520e-03 1.14005140965703e-04
1.33215000000000e+01 9.18611722859023e-03 1.13053330539190e-04
1.34045000000000e+01 9.08100080191144e-03 1.12107290490697e-04
1.34875000000000e+01 8.97708721892414e-03 1.11167035747944e-04
1.35705000000000e+01 8.87436271552892e-03 1.10232579620786e-04
1.36535000000000e+01 8.77281368512850e-03 1.09303933850189e-04
1.37365000000000e+01 8.67242667682542e-03 1.08381108655868e-04
1.38195000000000e+01 8.57318839364039e-03 1.07464112782636e-04
1.39025000000000e+01 8.47508569075099e-03 1.06552953545480e-04
1.39855000000000e+01 8.37810557375057e-03 1.05647636873421e-04
1.40685000000000e+01 8.28223519692701e-03 1.04748167352186e-04
1.41515000000000e+01 8.18746186156125e-03 1.03854548265722e-04
1.42345000000000e+01 8.09377301424526e-03 1.02966781636592e-04
1.43175000000000e+01 8.00115624521919e-03 1.02084868265289e-04
1.44005000000000e+01 7.90959928672767e-03 1.01208807768476e-04
1.44835000000000e+01 7.81909001139486e-03 1.00338598616214e-04
1.45665000000000e+01 7.72961643061803e-03 9.94742381681954e-05
1.46495000000000e+01 7.64116669297964e-03 9.86157227089866e-05
1.47325000000000e+01 7.55372908267752e-03 9.77630474823351e-05
1.48155000000000e+01 7.46729201797303e-03 9.69162067245817e-05
1.48985000000000e+01 7.38184404965694e-03 9.60751936971578e-05
1.49815000000000e+01 7.29737385953298e-03 9.52400007182228e-05
1.50645000000000e+01 7.21387025891856e-03 9.44106191934591e-05
1.51475000000000e+01 7.13132218716286e-03 9.35870396460522e-05
1.52305000000000e+01 7.04971871018167e-03 9.27692517458784e-05
1.53135000000000e+01 6.96904901900915e-03 9.19572443378985e-05
1.53965000000000e+01 6.88930242836608e-03 9.11510054698152e-05
1.54795000000000e+01 6.81046837524454e-03 9.03505224190012e-05
1.55625000000000e+01 6.73253641750874e-03 8.95557817186949e-05
1.56455000000000e+01 6.65549623251189e-03 8.87667691835148e-05
1.57285000000000e+01 6.57933761572889e-03 8.79834699342995e-05
1.58115000000000e+01 6.50405047940471e-03 8.72058684222841e-05
1.58945000000000e+01 6.42962485121811e-03 8.64339484526432e-05
1.59775000000000e+01 6.35605087296082e-03 8.56676932074040e-05
1.60605000000000e+01 6.28331879923168e-03 8.49070852677609e-05
1.61435000000000e+01 6.21141899614586e-03 8.41521066357981e-05
1.62265000000000e+01 6.14034194005871e-03 8.34027387556266e-05
1.63095000000000e+01 6.07007821630433e-03 8.26589625339772e-05
1.63925000000000e+01 6.00061851794855e-03 8.19207583602427e-05
1.64755000000000e+01 5.93195364455610e-03 8.11881061259891e-05
1.65585000000000e+01 5.86407450097198e-03 8.04609852439481e-05
1.66415000000000e+01 5.79697209611675e-03 7.97393746665082e-05
1.67245000000000e+01 5.73063754179559e-03 7.90232529037209e-05
1.68075000000000e+01 5.66506205152097e-03 7.83125980408173e-05
1.68905000000000e+01 5.60023693934885e-03 7.76073877552722e-05
1.69735000000000e+01 5.53615361872817e-03 7.69075993334094e-05
1.70565000000000e+01 5.47280360136345e-03 7.62132096865604e-05
1.71395000000000e+01 5.41017849609049e-03 7.55241953668041e-05
1.72225000000000e+01 5.34827000776492e-03 7.48405325822762e-05
1.73055000000000e+01 5.28706993616340e-03 7.41621972120792e-05
1.73885000000000e+01 5.22657017489749e-03 7.34891648207901e-05
1.74715000000000e+01 5.16676271033986e-03 7.28214106725800e-05
1.75545000000000e+01 5.10763962056284e-03 7.21589097449538e-05
1.76375000000000e+01 5.04919307428912e-03 7.15016367421295e-05
1.77205000000000e+01 4.99141532985443e-03 7.08495661080486e-05
1.78035000000000e+01 4.93429873418210e-03 7.02026720390378e-05
1.78865000000000e+01 4.87783572176935e-03 6.95609284961344e-05
1.79695000000000e+01 4.82201881368518e-03 6.89243092170777e-05
1.80525000000000e+01 4.76684061657978e-03 6.82927877279775e-05
1.81355000000000e+01 4.71229382170515e-03 6.76663373546568e-05
1.82185000000000e+01 4.65837120394707e-03 6.70449312336984e-05
1.83015000000000e+01 4.60506562086804e-03 6.64285423231833e-05
1.83845000000000e+01 4.55237001176125e-03 6.58171434131423e-05
1.84675000000000e+01 4.50027739671529e-03 6.52107071357138e-05
1.85505000000000e+01 4.44878087568966e-03 6.46092059750250e-05
1.86335000000000e+01 4.39787362760077e-03 6.40126122768080e-05
1.87165000000000e+01 4.34754890941849e-03 6.34208982577448e-05
1.87995000000000e+01 4.29780005527291e-03 6.28340360145554e-05
1.88825000000000e+01 4.24862047557147e-03 6.22519975328339e-05
1.89655000000000e+01 4.20000365612609e-03 6.16747546956355e-05
1.90485000000000e+01 4.15194315729033e-03 6.11022792918338e-05
1.91315000000000e+01 4.10443261310639e-03 6.05345430242359e-05
1.92145000000000e+01 4.05746573046191e-03 5.99715175174625e-05
1.92975000000000e+01 4.01103628825641e-03 5.94131743256227e-05
1.93805000000000e+01 3.96513813657725e-03 5.88594849397637e-05
1.94635000000000e+01 3.91976519588501e-03 5.83104207951056e-05
1.95465000000000e+01 3.87491145620826e-03 5.77659532780722e-05
1.96295000000000e+01 3.83057097634746e-03 5.72260537331199e-05
1.97125000000000e+01 3.78673788308800e-03 5.66906934693782e-05
1.97955000000000e+01 3.74340637042229e-03 5.61598437670863e-05
1.98785000000000e+01 3.70057069878067e-03 5.56334758838484e-05
1.99615000000000e+01 3.65822519427118e-03 5.51115610607105e-05
2.00445000000000e+01 3.61636424792801e-03 5.45940705280521e-05
2.01275000000000e+01 3.57498231496857e-03 5.40809755113089e-05
2.02105000000000e+01 3.53407391405902e-03 5.35722472365266e-05
2.02935000000000e+01 3.49363362658823e-03 5.30678569357491e-05
2.03765000000000e+01 3.45365609595006e-03 5.25677758522429e-05
2.04595000000000e+01 3.41413602683383e-03 5.20719752455684e-05
2.05425000000000e+01 3.37506818452293e-03 5.15804263964979e-05
2.06255000000000e+01 3.33644739420141e-03 5.10931006117804e-05
2.07085000000000e+01 3.29826854026858e-03 5.06099692287659e-05
2.07915000000000e+01 3.26052656566140e-03 5.01310036198792e-05
2.08745000000000e+01 3.22321647118461e-03 4.96561751969612e-05
2.09575000000000e+01 3.18633331484860e-03 4.91854554154800e-05
2.10405000000000e+01 3.14987221121474e-03 4.87188157786001e-05
2.11235000000000e+01 3.11382833074834e-03 4.82562278411236e-05
2.12065000000000e+01 3.07819689917889e-03 4.77976632133139e-05
2.12895000000000e+01 3.04297319686773e-03 4.73430935645904e-05
2.13725000000000e+01 3.00815255818281e-03 4.68924906271033e-05
2.14555000000000e+01 2.97373037088080e-03 4.64458261991937e-05
2.15385000000000e+01 2.93970207549608e-03 4.60030721487419e-05
2.16215000000000e+01 2.90606316473686e-03 4.55642004164024e-05
2.17045000000000e+01 2.87280918288812e-03 4.51291830187309e-05
2.17875000000000e+01 2.83993572522145e-03 4.46979920512041e-05
2.18705000000000e+01 2.80743843741158e-03 4.42705996911414e-05
2.19535000000000e+01 2.77531301495966e-03 4.38469782005234e-05
2.20365000000000e+01 2.74355520262306e-03 4.34270999287080e-05
2.21195000000000e+01 2.71216079385173e-03 4.30109373150581e-05
2.22025000000000e+01 2.68112563023106e-03 4.25984628914759e-05
2.22855000000000e+01 2.65044560093102e-03 4.21896492848399e-05
2.23685000000000e+01 2.62011664216167e-03 4.17844692193591e-05
2.24515000000000e+01 2.59013473663488e-03 4.13828955188412e-05
2.25345000000000e+01 2.56049591303221e-03 4.09849011088722e-05
2.26175000000000e+01 2.53119624547889e-03 4.05904590189134e-05
2.27005000000000e+01 2.50223185302378e-03 4.01995423843274e-05
2.27835000000000e+01 2.47359889912537e-03 3.98121244483147e-05
2.28665000000000e+01 2.44529359114352e-03 3.94281785637805e-05
2.29495000000000e+01 2.41731217983717e-03 3.90476781951311e-05
2.30325000000000e+01 2.38965095886769e-03 3.86705969199854e-05
2.31155000000000e+01 2.36230626430796e-03 3.82969084308257e-05
2.31985000000000e+01 2.33527447415704e-03 3.79265865365796e-05
2.32815000000000e+01 2.30855200786045e-03 3.75596051641304e-05
2.33645000000000e+01 2.28213532583584e-03 3.71959383597645e-05
2.34475000000000e+01 2.25602092900421e-03 3.68355602905605e-05
2.35305000000000e+01 2.23020535832638e-03 3.64784452457024e-05
2.36135000000000e+01 2.20468519434485e-03 3.61245676377441e-05
2.36965000000000e+01 2.17945705673085e-03 3.57739020038152e-05
2.37795000000000e+01 2.15451760383661e-03 3.54264230067617e-05
2.38625000000000e+01 2.12986353225270e-03 3.50821054362365e-05
2.39455000000000e+01 2.10549157637050e-03 3.47409242097339e-05
2.40285000000000e+01 2.08139850794965e-03 3.44028543735695e-05
2.41115000000000e+01 2.05758113569042e-03 3.40678711038120e-05
2.41945000000000e+01 2.03403630481102e-03 3.37359497071629e-05
2.42775000000000e+01 2.01076089662973e-03 3.34070656217823e-05
2.43605000000000e+01 1.98775182815177e-03 3.30811944180750e-05
2.44435000000000e+01 1.96500605166100e-03 3.27583117994250e-05
2.45265000000000e+01 1.94252055431617e-03 3.24383936028857e-05
2.46095000000000e+01 1.92029235775187e-03 3.21214157998274e-05
2.46925000000000e+01 1.89831851768403e-03 3.18073544965391e-05
2.47755000000000e+01 1.87659612351993e-03 3.14961859347907e-05
2.48585000000000e+01 1.85512229797264e-03 3.11878864923529e-05
2.49415000000000e+01 1.83389419667995e-03 3.08824326834784e-05
2.50245000000000e+01 1.81290900782759e-03 3.05798011593455e-05
2.51075000000000e+01 1.79216395177675e-03 3.02799687084637e-05
2.51905000000000e+01 1.77165628069599e-03 2.99829122570388e-05
2.52735000000000e+01 1.75138327819715e-03 2.96886088693068e-05
2.53565000000000e+01 1.73134225897566e-03 2.93970357478354e-05
2.54395000000000e+01 1.71153056845476e-03 2.91081702337853e-05
2.55225000000000e+01 1.69194558243395e-03 2.88219898071427e-05
2.56055000000000e+01 1.67258470674135e-03 2.85384720869206e-05
2.56885000000000e+01 1.65344537689010e-03 2.82575948313255e-05
2.57715000000000e+01 1.63452505773869e-03 2.79793359378989e-05
2.58545000000000e+01 1.61582124315513e-03 2.77036734436265e-05
2.59375000000000e+01 1.59733145568502e-03 2.74305855250178e-05
2.60205000000000e+01 1.57905324622339e-03 2.71600504981624e-05
2.61035000000000e+01 1.56098419369030e-03 2.68920468187582e-05
2.61865000000000e+01 1.54312190471014e-03 2.66265530821070e-05
