Energy (eV)          EEDF (eV^-(3/2))     First Anisotropy
6.33333333333333e-02 1.20348967875911e-01 1.28692934345165e-04
1.90000000000000e-01 1.16936055048120e-01 2.10202060785272e-04
3.16666666666667e-01 1.13619927230277e-01 2.71446432342360e-04
4.43333333333333e-01 1.10397839726544e-01 3.14450919507844e-04
5.70000000000000e-01 1.07267125697966e-01 3.47510506106405e-04
6.96666666666667e-01 1.04225193938786e-01 3.73870557236963e-04
8.23333333333333e-01 1.01269526714289e-01 3.95264589190579e-04
9.50000000000000e-01 9.83976776942785e-02 4.12770955451451e-04
1.07666666666667e+00 9.56072699331711e-02 4.27125020413699e-04
1.20333333333333e+00 9.28959938636718e-02 4.38860199166358e-04
1.33000000000000e+00 9.02616054328158e-02 4.48380971573643e-04
1.45666666666667e+00 8.77019242449913e-02 4.56004453741209e-04
1.58333333333333e+00 8.52148316983606e-02 4.61985789621382e-04
1.71000000000000e+00 8.27982692905197e-02 4.66534534430158e-04
1.83666666666667e+00 8.04502369088018e-02 4.69825706074802e-04
1.96333333333333e+00 7.81687911330898e-02 4.72007503045116e-04
2.09000000000000e+00 7.59520436693508e-02 4.73206862243836e-04
2.21666666666667e+00 7.37981597829585e-02 4.73533570516300e-04
2.34333333333333e+00 7.17053567489162e-02 4.73083365439064e-04
2.47000000000000e+00 6.96719024078505e-02 4.71940322314614e-04
2.59666666666667e+00 6.76961137297288e-02 4.70178727543373e-04
2.72333333333333e+00 6.57763553966875e-02 4.67864563517511e-04
2.85000000000000e+00 6.39110384739571e-02 4.65056704324290e-04
2.97666666666667e+00 6.20986190928343e-02 4.61807894072224e-04
3.10333333333333e+00 6.03375971536758e-02 4.58165549453478e-04
3.23000000000000e+00 5.86265151037207e-02 4.54172427264423e-04
3.35666666666667e+00 5.69639567292716e-02 4.49867187916925e-04
3.48333333333333e+00 5.53485459680185e-02 4.45284869229966e-04
3.61000000000000e+00 5.37789457858188e-02 4.40457290178769e-04
3.73666666666667e+00 5.22538570689513e-02 4.35413400210182e-04
3.86333333333333e+00 5.07720175361509e-02 4.30179578259604e-04
3.99000000000000e+00 4.93322007067449e-02 4.24779892376513e-04
4.11666666666667e+00 4.79332148846406e-02 4.19236328880347e-04
4.24333333333333e+00 4.65739021614372e-02 4.13568991113314e-04
4.37000000000000e+00 4.52531374687551e-02 4.07796274570126e-04
4.49666666666667e+00 4.39698276463320e-02 4.01935024078450e-04
4.62333333333333e+00 4.27229105284094e-02 3.96000671431204e-04
4.75000000000000e+00 4.15113540735663e-02 3.90007358094447e-04
4.87666666666667e+00 4.03341555099431e-02 3.83968046923725e-04
5.00333333333333e+00 3.91903404978209e-02 3.77894620649656e-04
5.13000000000000e+00 3.80789623307488e-02 3.71797970521110e-04
5.25666666666667e+00 3.69991011514983e-02 3.65688078020351e-04
5.38333333333333e+00 3.59498631843942e-02 3.59574087230464e-04
5.51000000000000e+00 3.49303800019829e-02 3.53464370475265e-04
5.63666666666667e+00 3.39398078058569e-02 3.47366589502233e-04
5.76333333333333e+00 3.29773267228623e-02 3.41287749819151e-04
5.89000000000000e+00 3.20421401319972e-02 3.35234250291652e-04
6.01666666666667e+00 3.11334740047327e-02 3.29211929836901e-04
6.14333333333333e+00 3.02505762597347e-02 3.23226108949276e-04
6.27000000000000e+00 2.93927161450932e-02 3.17281627801379e-04
6.39666666666667e+00 2.85591836332143e-02 3.11382882443917e-04
6.52333333333333e+00 2.77492888291549e-02 3.05533857004336e-04
6.65000000000000e+00 2.69623614036718e-02 2.99738153356311e-04
6.77666666666667e+00 2.61977500381659e-02 2.93999019549655e-04
6.90333333333333e+00 2.54548218821496e-02 2.88319375075760e-04
7.03000000000000e+00 2.47329620329614e-02 2.82701834230307e-04
7.15666666666667e+00 2.40315730266211e-02 2.77148728680295e-04
7.28333333333333e+00 2.33500743403283e-02 2.71662127483387e-04
7.41000000000000e+00 2.26879019150228e-02 2.66243855652863e-04
7.53666666666667e+00 2.20445076883515e-02 2.60895512228644e-04
7.66333333333333e+00 2.14193591384442e-02 2.55618486266212e-04
7.79000000000000e+00 2.08119388458081e-02 2.50413971698613e-04
7.91666666666667e+00 2.02217440649220e-02 2.45282981911397e-04
8.04333333333333e+00 1.96482863058511e-02 2.40226362594405e-04
8.17000000000000e+00 1.90910909322494e-02 2.35244803710117e-04
8.29666666666667e+00 1.85496967683838e-02 2.30338851317390e-04
8.42333333333333e+00 1.80236557154414e-02 2.25508917953911e-04
8.55000000000000e+00 1.75125323826723e-02 2.20755292319066e-04
8.67666666666667e+00 1.70159037269137e-02 2.16078148910345e-04
8.80333333333333e+00 1.65333587007045e-02 2.11477556443278e-04
8.93000000000000e+00 1.60644979138449e-02 2.06953485712662e-04
9.05666666666667e+00 1.56089333027320e-02 2.02505817474474e-04
9.18333333333333e+00 1.51662878076384e-02 1.98134349293240e-04
9.31000000000000e+00 1.47361950621870e-02 1.93838801939888e-04
9.43666666666667e+00 1.43182990900321e-02 1.89618825855682e-04
9.56333333333333e+00 1.39122540088800e-02 1.85474006730580e-04
9.69000000000000e+00 1.35177237455813e-02 1.81403870717679e-04
9.81666666666667e+00 1.31343817578961e-02 1.77407889743672e-04
9.94333333333333e+00 1.27619107630361e-02 1.73485486179784e-04
1.00700000000000e+01 1.24000024751921e-02 1.69636036482929e-04
1.01966666666667e+01 1.20483573556437e-02 1.65858876648320e-04
1.03233333333333e+01 1.17066843531830e-02 1.62153305465335e-04
1.04500000000000e+01 1.13747006738780e-02 1.58518586746463e-04
1.05766666666667e+01 1.10521315464320e-02 1.54953955058715e-04
1.07033333333333e+01 1.07387099855011e-02 1.51458617697868e-04
1.08300000000000e+01 1.04341765801391e-02 1.48031756522262e-04
1.09566666666667e+01 1.01382792785810e-02 1.44672532832113e-04
1.10833333333333e+01 9.85077317142895e-03 1.41380088880977e-04
1.12100000000000e+01 9.57142029728684e-03 1.38153549276229e-04
1.13366666666667e+01 9.29998944535766e-03 1.34992025138696e-04
1.14633333333333e+01 9.03625595681205e-03 1.31894615240014e-04
1.15900000000000e+01 8.78000154623517e-03 1.28860407052504e-04
1.17166666666667e+01 8.53101412056217e-03 1.25888480298919e-04
1.18433333333333e+01 8.28908759708952e-03 1.22977907787302e-04
1.19700000000000e+01 8.05402173946341e-03 1.20127756177201e-04
1.20966666666667e+01 7.82562199160029e-03 1.17337089011068e-04
1.22233333333333e+01 7.60369931093379e-03 1.14604967304686e-04
1.23500000000000e+01 7.38807001777381e-03 1.11930450084088e-04
1.24766666666667e+01 7.17855564297090e-03 1.09312596975334e-04
1.26033333333333e+01 6.97498277511302e-03 1.06750468597774e-04
1.27300000000000e+01 6.77718292217616e-03 1.04243126916011e-04
1.28566666666667e+01 6.58499237179451e-03 1.01789637452590e-04
1.29833333333333e+01 6.39825205123141e-03 9.93890695227075e-05
1.31100000000000e+01 6.21680740032765e-03 9.70404964374539e-05
1.32366666666667e+01 6.04050824333386e-03 9.47429973939599e-05
1.33633333333333e+01 5.86920866058023e-03 9.24956575831427e-05
1.34900000000000e+01 5.70276687180782e-03 9.02975682739086e-05
1.36166666666667e+01 5.54104511860572e-03 8.81478284270075e-05
1.37433333333333e+01 5.38390954679623e-03 8.60455447017085e-05
1.38700000000000e+01 5.23123009930694e-03 8.39898314453383e-05
1.39966666666667e+01 5.08288040833489e-03 8.19798120701513e-05
1.41233333333333e+01 4.93873768754725e-03 8.00146189802013e-05
1.42500000000000e+01 4.79868263371940e-03 7.80933934862283e-05
1.43766666666667e+01 4.66259932782099e-03 7.62152869790698e-05
1.45033333333333e+01 4.53037513620856e-03 7.43794607941949e-05
1.46300000000000e+01 4.40190062031692e-03 7.25850860683884e-05
1.47566666666667e+01 4.27706944592864e-03 7.08313447383542e-05
1.48833333333333e+01 4.15577829260484e-03 6.91174293572497e-05
1.50100000000000e+01 4.03792677077450e-03 6.74425429066843e-05
1.51366666666667e+01 3.92341733850992e-03 6.58058996450612e-05
1.52633333333333e+01 3.81215521850590e-03 6.42067248878784e-05
1.53900000000000e+01 3.70404832196399e-03 6.26442547861368e-05
1.55166666666667e+01 3.59900717225299e-03 6.11177370454769e-05
1.56433333333333e+01 3.49694482880456e-03 5.96264306798930e-05
1.57700000000000e+01 3.39777681723845e-03 5.81696057656454e-05
1.58966666666667e+01 3.30142105933820e-03 5.67465440492875e-05
1.60233333333333e+01 3.20779780328474e-03 5.53565386826827e-05
1.61500000000000e+01 3.11682955951327e-03 5.39988939598587e-05
1.62766666666667e+01 3.02844103648154e-03 5.26729258294978e-05
1.64033333333333e+01 2.94255907671173e-03 5.13779616176856e-05
1.65300000000000e+01 2.85911259791076e-03 5.01133397537698e-05
1.66566666666667e+01 2.77803253405198e-03 4.88784102007304e-05
1.67833333333333e+01 2.69925177674000e-03 4.76725341708848e-05
1.69100000000000e+01 2.62270512116437e-03 4.64950838456694e-05
1.70366666666667e+01 2.54832921205487e-03 4.53454427354601e-05
1.71633333333333e+01 2.47606248992506e-03 4.42230053924493e-05
1.72900000000000e+01 2.40584514146387e-03 4.31271771283240e-05
1.74166666666667e+01 2.33761904996142e-03 4.20573743135200e-05
1.75433333333333e+01 2.27132774602400e-03 4.10130240906558e-05
1.76700000000000e+01 2.20691636204057e-03 3.99935640932879e-05
1.77966666666667e+01 2.14433158670909e-03 3.89984426932206e-05
1.79233333333333e+01 2.08352161985009e-03 3.80271187171876e-05
1.80500000000000e+01 2.02443613061431e-03 3.70790611692109e-05
1.81766666666667e+01 1.96702621577045e-03 3.61537494334169e-05
1.83033333333333e+01 1.91124435827547e-03 3.52506729960747e-05
1.84300000000000e+01 1.85704438891702e-03 3.43693311735435e-05
1.85566666666667e+01 1.80438144805133e-03 3.35092332770291e-05
1.86833333333333e+01 1.75321194761721e-03 3.26698983416213e-05
1.88100000000000e+01 1.70349353593175e-03 3.18508548613547e-05
1.89366666666667e+01 1.65518506259293e-03 3.10516409214696e-05
1.90633333333333e+01 1.60824654365040e-03 3.02718039356862e-05
1.91900000000000e+01 1.56263912929596e-03 2.95109003895380e-05
1.93166666666667e+01 1.51832507166905e-03 2.87684959449439e-05
1.94433333333333e+01 1.47526769292144e-03 2.80441651866334e-05
1.95700000000000e+01 1.43343135556498e-03 2.73374913745948e-05
1.96966666666667e+01 1.39278143293990e-03 2.66480665251145e-05
1.98233333333333e+01 1.35328427993247e-03 2.59754911669972e-05
1.99500000000000e+01 1.31490720576195e-03 2.53193741037182e-05
2.00766666666667e+01 1.27761844689147e-03 2.46793324745206e-05
2.02033333333333e+01 1.24138714017777e-03 2.40549915208509e-05
2.03300000000000e+01 1.20618329789724e-03 2.34459843585976e-05
2.04566666666667e+01 1.17197778289728e-03 2.28519520223414e-05
2.05833333333333e+01 1.13874228397575e-03 2.22725432422489e-05
2.07100000000000e+01 1.10644929296224e-03 2.17074142266078e-05
2.08366666666667e+01 1.07507208192459e-03 2.11562286919029e-05
2.09633333333333e+01 1.04458468059260e-03 2.06186576502617e-05
2.10900000000000e+01 1.01496185532569e-03 2.00943792023547e-05
2.12166666666667e+01 9.86179088204607e-04 1.95830785556044e-05
2.13433333333333e+01 9.58212556329374e-04 1.90844478221558e-05
2.14700000000000e+01 9.31039112518374e-04 1.85981858221020e-05
2.15966666666667e+01 9.04636266129277e-04 1.81239980918066e-05
2.17233333333333e+01 8.78982164075404e-04 1.76615966922834e-05
2.18500000000000e+01 8.54055573113969e-04 1.72107000226135e-05
2.19766666666667e+01 8.29835862253193e-04 1.67710328200893e-05
2.21033333333333e+01 8.06302985344227e-04 1.63423259788063e-05
2.22300000000000e+01 7.83437464827915e-04 1.59243163730707e-05
2.23566666666667e+01 7.61220375596911e-04 1.55167468508313e-05
2.24833333333333e+01 7.39633329032209e-04 1.51193660622295e-05
2.26100000000000e+01 7.18658458088515e-04 1.47319282927393e-05
2.27366666666667e+01 6.98278402491015e-04 1.43541934511449e-05
2.28633333333333e+01 6.78476294096480e-04 1.39859269077501e-05
2.29900000000000e+01 6.59235743207156e-04 1.36268993369524e-05
2.31166666666667e+01 6.40540824991802e-04 1.32768867008409e-05
2.32433333333333e+01 6.22376066061319e-04 1.29356700967341e-05
2.33700000000000e+01 6.04726431910111e-04 1.26030356088581e-05
2.34966666666667e+01 5.87577314460138e-04 1.22787742884836e-05
2.36233333333333e+01 5.70914519750174e-04 1.19626820104368e-05
2.37500000000000e+01 5.54724256411895e-04 1.16545593335300e-05
2.38766666666667e+01 5.38993124244051e-04 1.13542114780196e-05
2.40033333333333e+01 5.23708102922878e-04 1.10614481907194e-05
2.41300000000000e+01 5.08856541427760e-04 1.07760836138178e-05
2.42566666666667e+01 4.94426147560326e-04 1.04979362603207e-05
2.43833333333333e+01 4.80404977591220e-04 1.02268288873871e-05
2.45100000000000e+01 4.66781426557190e-04 9.96258837315943e-06
2.46366666666667e+01 4.53544218646954e-04 9.70504569075288e-06
2.47633333333333e+01 4.40682397706592e-04 9.45403578942891e-06
2.48900000000000e+01 4.28185318336320e-04 9.20939747906201e-06
2.50166666666667e+01 4.16042637071457e-04 8.97097340314852e-06
2.51433333333333e+01 4.04244303675139e-04 8.73860992743524e-06
2.52700000000000e+01 3.92780552968965e-04 8.51215703164649e-06
2.53966666666667e+01 3.81641896743285e-04 8.29146828190895e-06
2.55233333333333e+01 3.70819115771903e-04 8.07640072645572e-06
2.56500000000000e+01 3.60303252316158e-04 7.86681479424209e-06
2.57766666666667e+01 3.50085602704220e-04 7.66257426711741e-06
2.59033333333333e+01 3.40157710007861e-04 7.46354618223182e-06
2.60300000000000e+01 3.30511357164513e-04 7.26960073717582e-06
2.61566666666667e+01 3.21138560170241e-04 7.08061126217365e-06
2.62833333333333e+01 3.12031561363647e-04 6.89645412882814e-06
2.64100000000000e+01 3.03182823114998e-04 6.71700866142827e-06
2.65366666666667e+01 2.94585021582134e-04 6.54215710938913e-06
2.66633333333333e+01 2.86231040551121e-04 6.37178456198178e-06
2.67900000000000e+01 2.78113965645744e-04 6.20577886546355e-06
2.69166666666667e+01 2.70227078599791e-04 6.04403059594758e-06
2.70433333333333e+01 2.62563851608261e-04 5.88643297977553e-06
2.71700000000000e+01 2.55117942014360e-04 5.73288181613737e-06
2.72966666666667e+01 2.47883187055452e-04 5.58327545051756e-06
2.74233333333333e+01 2.40853598682471e-04 5.43751470038172e-06
2.75500000000000e+01 2.34023358685074e-04 5.29550278296473e-06
2.76766666666667e+01 2.27386813872089e-04 5.15714528940961e-06
2.78033333333333e+01 2.20938471320292e-04 5.02235011545246e-06
2.79300000000000e+01 2.14672993901620e-04 4.89102739407120e-06
2.80566666666667e+01 2.08585195862170e-04 4.76308947040717e-06
2.81833333333333e+01 2.02670038464743e-04 4.63845083714589e-06
2.83100000000000e+01 1.96922625884970e-04 4.51702807173194e-06
2.84366666666667e+01 1.91338201155915e-04 4.39873981214120e-06
2.85633333333333e+01 1.85912142171721e-04 4.28350669666899e-06
2.86900000000000e+01 1.80639957922248e-04 4.17125130543027e-06
2.88166666666667e+01 1.75517284773044e-04 4.06189813703120e-06
2.89433333333333e+01 1.70539882800146e-04 3.95537355249044e-06
2.90700000000000e+01 1.65703632335334e-04 3.85160572075732e-06
2.91966666666667e+01 1.61004530553724e-04 3.75052459631516e-06
2.93233333333333e+01 1.56438688112281e-04 3.65206186697512e-06
2.94500000000000e+01 1.52002325980069e-04 3.55615090315870e-06
2.95766666666667e+01 1.47691772308037e-04 3.46272673645244e-06
2.97033333333333e+01 1.43503459346056e-04 3.37172601102697e-06
2.98300000000000e+01 1.39433920534669e-04 3.28308693644313e-06
2.99566666666667e+01 1.35479787633744e-04 3.19674926716620e-06
3.00833333333333e+01 1.31637787894927e-04 3.11265425737647e-06
3.02100000000000e+01 1.27904741393350e-04 3.03074461707132e-06
3.03366666666667e+01 1.24277558393724e-04 2.95096449253757e-06
3.04633333333333e+01 1.20753236757051e-04 2.87325942433281e-06
3.05900000000000e+01 1.17328859492494e-04 2.79757630646854e-06
3.07166666666667e+01 1.14001592341282e-04 2.72386336783208e-06
3.08433333333333e+01 1.10768681398256e-04 2.65207013312947e-06
3.09700000000000e+01 1.07627450865751e-04 2.58214738494707e-06
3.10966666666667e+01 1.04575300837293e-04 2.51404714610808e-06
3.12233333333333e+01 1.01609705116183e-04 2.44772264338089e-06
3.13500000000000e+01 9.87282091547196e-05 2.38312827222758e-06
3.14766666666667e+01 9.59284280211791e-05 2.32021958007521e-06
3.16033333333333e+01 9.32080443990933e-05 2.25895323260462e-06
3.17300000000000e+01 9.05648066965396e-05 2.19928698100617e-06
3.18566666666667e+01 8.79965271812343e-05 2.14117964614176e-06
3.19833333333333e+01 8.55010801455401e-05 2.08459108724016e-06
3.21100000000000e+01 8.30764001717890e-05 2.02948217149093e-06
3.22366666666667e+01 8.07204804215928e-05 1.97581475907040e-06
3.23633333333333e+01 7.84313709528406e-05 1.92355167408005e-06
3.24900000000000e+01 7.62071771281872e-05 1.87265667631994e-06
3.26166666666667e+01 7.40460580458261e-05 1.82309444714928e-06
3.27433333333333e+01 7.19462249958839e-05 1.77483056251474e-06
3.28700000000000e+01 6.99059400002626e-05 1.72783146675445e-06
3.29966666666667e+01 6.79235143731780e-05 1.68206445926211e-06
3.31233333333333e+01 6.59973073053993e-05 1.63749766946180e-06
3.32500000000000e+01 6.41257245246102e-05 1.59410003250272e-06
3.33766666666667e+01 6.23072169749813e-05 1.55184127669497e-06
3.35033333333333e+01 6.05402795186617e-05 1.51069190029626e-06
3.36300000000000e+01 5.88234497067166e-05 1.47062314896664e-06
3.37566666666667e+01 5.71553065678893e-05 1.43160700394325e-06
3.38833333333333e+01 5.55344694176314e-05 1.39361616051293e-06
3.40100000000000e+01 5.39595967304923e-05 1.35662400710462e-06
3.41366666666667e+01 5.24293850290431e-05 1.32060461417014e-06
3.42633333333333e+01 5.09425677915341e-05 1.28553271422487e-06
3.43900000000000e+01 4.94979144173671e-05 1.25138368246350e-06
3.45166666666667e+01 4.80942292078966e-05 1.21813352631368e-06
3.46433333333333e+01 4.67303503645457e-05 1.18575886693484e-06
3.47700000000000e+01 4.54051490396793e-05 1.15423692125022e-06
3.48966666666667e+01 4.41175284016854e-05 1.12354549214088e-06
3.50233333333333e+01 4.28664227160554e-05 1.09366295129974e-06
3.51500000000000e+01 4.16507964746113e-05 1.06456822257999e-06
3.52766666666667e+01 4.04696435378978e-05 1.03624077279738e-06
3.54033333333333e+01 3.93219862923538e-05 1.00866059584346e-06
3.55300000000000e+01 3.82068748514285e-05 9.81808197257068e-07
3.56566666666667e+01 3.71233862688905e-05 9.55664585603459e-07
3.57833333333333e+01 3.60706237657881e-05 9.30211257757221e-07
3.59100000000000e+01 3.50477159975208e-05 9.05430184609847e-07
3.60366666666667e+01 3.40538163322020e-05 8.81303802995020e-07
3.61633333333333e+01 3.30881021416266e-05 8.57815002057691e-07
3.62900000000000e+01 3.21497741288555e-05 8.34947110016614e-07
3.64166666666667e+01 3.12380556662513e-05 8.12683886606066e-07
3.65433333333333e+01 3.03521921451528e-05 7.91009510453235e-07
3.66700000000000e+01 2.94914503589774e-05 7.69908566820130e-07
3.67966666666667e+01 2.86551178959953e-05 7.49366040532994e-07
3.69233333333333e+01 2.78425025428489e-05 7.29367304295520e-07
3.70500000000000e+01 2.70529317185902e-05 7.09898107339614e-07
3.71766666666667e+01 2.62857519176682e-05 6.90944568814894e-07
3.73033333333333e+01 2.55403281628325e-05 6.72493166970199e-07
3.74300000000000e+01 2.48160434859020e-05 6.54530728647602e-07
3.75566666666667e+01 2.41122984168132e-05 6.37044423105445e-07
3.76833333333333e+01 2.34285104818179e-05 6.20021752005254e-07
3.78100000000000e+01 2.27641137271267e-05 6.03450539687980e-07
3.79366666666667e+01 2.21185582502078e-05 5.87318927405085e-07
3.80633333333333e+01 2.14913097395292e-05 5.71615364052408e-07
3.81900000000000e+01 2.08818490375369e-05 5.56328597171789e-07
3.83166666666667e+01 2.02896717107109e-05 5.41447667565950e-07
3.84433333333333e+01 1.97142876274115e-05 5.26961900724866e-07
3.85700000000000e+01 1.91552205569445e-05 5.12860898499939e-07
3.86966666666667e+01 1.86120077751704e-05 4.99134534079491e-07
3.88233333333333e+01 1.80841996772984e-05 4.85772944057075e-07
3.89500000000000e+01 1.75713594100606e-05 4.72766520729073e-07
3.90766666666667e+01 1.70730625099338e-05 4.60105907408718e-07
3.92033333333333e+01 1.65888965479875e-05 4.47781991089334e-07
3.93300000000000e+01 1.61184607924334e-05 4.35785895319707e-07
3.94566666666667e+01 1.56613658767634e-05 4.24108975835685e-07
3.95833333333333e+01 1.52172334739971e-05 4.12742813774660e-07
3.97100000000000e+01 1.47856959870994e-05 4.01679209086267e-07
3.98366666666667e+01 1.43663962445600e-05 3.90910176461698e-07
3.99633333333333e+01 1.39589872016070e-05 3.80427939058858e-07
