Energy (eV)          EEDF (eV^-(3/2))     First Anisotropy
3.14705882352941e-02 7.27397182018046e-02 4.66800776307996e-05
9.44117647058824e-02 7.20048580459088e-02 7.69514069607559e-05
1.57352941176471e-01 7.12774218869945e-02 1.01239000616936e-04
2.20294117647059e-01 7.05573347252091e-02 1.19481508222982e-04
2.83235294117647e-01 6.98445223131193e-02 1.34524033978605e-04
3.46176470588235e-01 6.91389111596019e-02 1.47447469786314e-04
4.09117647058824e-01 6.84404285110891e-02 1.58813743782210e-04
4.72058823529412e-01 6.77490023529957e-02 1.68963704147306e-04
5.35000000000000e-01 6.70645613948860e-02 1.78124402174314e-04
5.97941176470588e-01 6.63870350694615e-02 1.86457011164598e-04
6.60882352941176e-01 6.57163535197646e-02 1.94081353552636e-04
7.23823529411765e-01 6.50524475968618e-02 2.01089706060495e-04
7.86764705882353e-01 6.43952488483426e-02 2.07555137407838e-04
8.49705882352941e-01 6.37446895152124e-02 2.13536826274020e-04
9.12647058823529e-01 6.31007025213093e-02 2.19083604573277e-04
9.75588235294118e-01 6.24632214696853e-02 2.24236403913733e-04
1.03852941176471e+00 6.18321806351224e-02 2.29029997221561e-04
1.10147058823529e+00 6.12075149505448e-02 2.33494268105740e-04
1.16441176470588e+00 6.05891600104746e-02 2.37655157530057e-04
1.22735294117647e+00 5.99770520654139e-02 2.41535386436471e-04
1.29029411764706e+00 5.93711279993277e-02 2.45155011033766e-04
1.35323529411765e+00 5.87713253390685e-02 2.48531857936350e-04
1.41617647058824e+00 5.81775822470477e-02 2.51681874152235e-04
1.47911764705882e+00 5.75898375015384e-02 2.54619404829350e-04
1.54205882352941e+00 5.70080305037465e-02 2.57357418838087e-04
1.60500000000000e+00 5.64321012708319e-02 2.59907697715587e-04
1.66794117647059e+00 5.58619904183729e-02 2.62280988289173e-04
1.73088235294118e+00 5.52976391689916e-02 2.64487131792269e-04
1.79382352941176e+00 5.47389893324508e-02 2.66535172756618e-04
1.85676470588235e+00 5.41859833097284e-02 2.68433449245263e-04
1.91970588235294e+00 5.36385640866046e-02 2.70189673330431e-04
1.98264705882353e+00 5.30966752190120e-02 2.71810997108534e-04
2.04558823529412e+00 5.25602608360332e-02 2.73304069503934e-04
2.10852941176471e+00 5.20292656337708e-02 2.74675088479037e-04
2.17147058823529e+00 5.15036348618758e-02 2.75929843703068e-04
2.23441176470588e+00 5.09833143256929e-02 2.77073753775426e-04
2.29735294117647e+00 5.04682503803809e-02 2.78111901712203e-04
2.36029411764706e+00 4.99583899184413e-02 2.79049063620549e-04
2.42323529411765e+00 4.94536803712030e-02 2.79889733999243e-04
2.48617647058824e+00 4.89540697031356e-02 2.80638150825380e-04
2.54911764705882e+00 4.84595064002682e-02 2.81298315447528e-04
2.61205882352941e+00 4.79699394711286e-02 2.81874010310282e-04
2.67500000000000e+00 4.74853184412439e-02 2.82368817296500e-04
2.73794117647059e+00 4.70055933423341e-02 2.82786131649469e-04
2.80088235294118e+00 4.65307147145070e-02 2.83129175707797e-04
2.86382352941176e+00 4.60606335941146e-02 2.83401011463344e-04
2.92676470588235e+00 4.55953015138910e-02 2.83604550633795e-04
2.98970588235294e+00 4.51346704977683e-02 2.83742566232281e-04
3.05264705882353e+00 4.46786930512393e-02 2.83817701030611e-04
3.11558823529412e+00 4.42273221611785e-02 2.83832475242003e-04
3.17852941176471e+00 4.37805112908385e-02 2.83789295595031e-04
3.24147058823529e+00 4.33382143707599e-02 2.83690461688661e-04
3.30441176470588e+00 4.29003857983312e-02 2.83538171787827e-04
3.36735294117647e+00 4.24669804329533e-02 2.83334530090961e-04
3.43029411764706e+00 4.20379535874462e-02 2.83081551569467e-04
3.49323529411765e+00 4.16132610273975e-02 2.82781166400286e-04
3.55617647058824e+00 4.11928589664768e-02 2.82435225896134e-04
3.61911764705882e+00 4.07767040583016e-02 2.82045506233755e-04
3.68205882352941e+00 4.03647533956090e-02 2.81613711884193e-04
3.74500000000000e+00 3.99569645057145e-02 2.81141480532555e-04
3.80794117647059e+00 3.95532953427974e-02 2.80630385800490e-04
3.87088235294118e+00 3.91537042879586e-02 2.80081940642185e-04
3.93382352941176e+00 3.87581501406789e-02 2.79497600592688e-04
3.99676470588235e+00 3.83665921177155e-02 2.78878765863539e-04
4.05970588235294e+00 3.79789898488005e-02 2.78226785050600e-04
4.12264705882353e+00 3.75953033695847e-02 2.77542957086508e-04
4.18558823529412e+00 3.72154931204279e-02 2.76828533050994e-04
4.24852941176471e+00 3.68395199422364e-02 2.76084719359310e-04
4.31147058823529e+00 3.64673450697371e-02 2.75312679312767e-04
4.37441176470588e+00 3.60989301301818e-02 2.74513534537526e-04
4.43735294117647e+00 3.57342371393168e-02 2.73688367756845e-04
4.50029411764706e+00 3.53732284949645e-02 2.72838224027370e-04
4.56323529411765e+00 3.50158669756607e-02 2.71964111888037e-04
4.62617647058824e+00 3.46621157367465e-02 2.71067005794201e-04
4.68911764705882e+00 3.43119383042401e-02 2.70147847105493e-04
4.75205882352941e+00 3.39652985734198e-02 2.69207545006467e-04
4.81500000000000e+00 3.36221608050339e-02 2.68246978662452e-04
4.87794117647059e+00 3.32824896194445e-02 2.67266997877253e-04
4.94088235294118e+00 3.29462499958461e-02 2.66268424364359e-04
5.00382352941176e+00 3.26134072658672e-02 2.65252053006184e-04
5.06676470588235e+00 3.22839271120638e-02 2.64218652351750e-04
5.12970588235294e+00 3.19577755643231e-02 2.63168966399892e-04
5.19264705882353e+00 3.16349189944403e-02 2.62103715149133e-04
5.25558823529412e+00 3.13153241145838e-02 2.61023595111104e-04
5.31852941176471e+00 3.09989579738129e-02 2.59929280920112e-04
5.38147058823529e+00 3.06857879528787e-02 2.58821425773015e-04
5.44441176470588e+00 3.03757817626718e-02 2.57700661838836e-04
5.50735294117647e+00 3.00689074408470e-02 2.56567601720157e-04
5.57029411764706e+00 2.97651333468381e-02 2.55422838803009e-04
5.63323529411765e+00 2.94644281602941e-02 2.54266947582312e-04
5.69617647058824e+00 2.91667608778067e-02 2.53100484995657e-04
5.75911764705882e+00 2.88721008081271e-02 2.51923990699039e-04
5.82205882352941e+00 2.85804175705979e-02 2.50737987323803e-04
5.88500000000000e+00 2.82916810919782e-02 2.49542981699485e-04
5.94794117647059e+00 2.80058616018534e-02 2.48339464967372e-04
6.01088235294118e+00 2.77229296315351e-02 2.47127913186977e-04
6.07382352941177e+00 2.74428560091012e-02 2.45908787954764e-04
6.13676470588235e+00 2.71656118578162e-02 2.44682536465650e-04
6.19970588235294e+00 2.68911685931166e-02 2.43449592575743e-04
6.26264705882353e+00 2.66194979183287e-02 2.42210376941623e-04
6.32558823529412e+00 2.63505718230944e-02 2.40965297149127e-04
6.38852941176471e+00 2.60843625804505e-02 2.39714748697614e-04
6.45147058823529e+00 2.58208427427103e-02 2.38459115103106e-04
6.51441176470588e+00 2.55599851399001e-02 2.37198767992254e-04
6.57735294117647e+00 2.53017628769271e-02 2.35934068016887e-04
6.64029411764706e+00 2.50461493296190e-02 2.34665364926796e-04
6.70323529411765e+00 2.47931181431729e-02 2.33392997635141e-04
6.76617647058824e+00 2.45426432294093e-02 2.32117295070641e-04
6.82911764705882e+00 2.42946987629613e-02 2.30838576224738e-04
6.89205882352941e+00 2.40492591797399e-02 2.29557150193505e-04
6.95500000000000e+00 2.38062991742699e-02 2.28273316973681e-04
7.01794117647059e+00 2.35657936960229e-02 2.26987367410107e-04
7.08088235294118e+00 2.33277179482349e-02 2.25699583532571e-04
7.14382352941176e+00 2.30920473839799e-02 2.24410238908167e-04
7.20676470588235e+00 2.28587577046581e-02 2.23119598569396e-04
7.26970588235294e+00 2.26278248574658e-02 2.21827919725005e-04
7.33264705882353e+00 2.23992250319578e-02 2.20535451760158e-04
7.39558823529412e+00 2.21729346585560e-02 2.19242436233967e-04
7.45852941176471e+00 2.19489304060966e-02 2.17949107547251e-04
7.52147058823529e+00 2.17271891785184e-02 2.16655692930014e-04
7.58441176470588e+00 2.15076881133924e-02 2.15362412426477e-04
7.64735294117647e+00 2.12904045795444e-02 2.14069479523534e-04
7.71029411764706e+00 2.10753161738627e-02 2.12777101127492e-04
7.77323529411765e+00 2.08624007198517e-02 2.11485477538950e-04
7.83617647058824e+00 2.06516362653255e-02 2.10194803045253e-04
7.89911764705882e+00 2.04430010793310e-02 2.08905265888066e-04
7.96205882352941e+00 2.02364736507263e-02 2.07617048230061e-04
8.02500000000000e+00 2.00320326859427e-02 2.06330326714207e-04
8.08794117647059e+00 1.98296571060191e-02 2.05045272362308e-04
8.15088235294118e+00 1.96293260454489e-02 2.03762050781504e-04
8.21382352941177e+00 1.94310188490297e-02 2.02480822384908e-04
8.27676470588235e+00 1.92347150704771e-02 2.01201742282607e-04
8.33970588235294e+00 1.90403944702998e-02 1.99924960789000e-04
8.40264705882353e+00 1.88480370130110e-02 1.98650623374655e-04
8.46558823529412e+00 1.86576228657687e-02 1.97378870618168e-04
8.52852941176471e+00 1.84691323963149e-02 1.96109838686716e-04
8.59147058823529e+00 1.82825461702852e-02 1.94843659283768e-04
8.65441176470588e+00 1.80978449498749e-02 1.93580459596720e-04
8.71735294117647e+00 1.79150096918410e-02 1.92320362752610e-04
8.78029411764706e+00 1.77340215449057e-02 1.91063487762365e-04
8.84323529411765e+00 1.75548618484494e-02 1.89809949465222e-04
8.90617647058824e+00 1.73775121305724e-02 1.88559858961327e-04
8.96911764705882e+00 1.72019541055889e-02 1.87313323553077e-04
9.03205882352941e+00 1.70281696727473e-02 1.86070446687172e-04
9.09500000000000e+00 1.68561409143495e-02 1.84831328365543e-04
9.15794117647059e+00 1.66858500933325e-02 1.83596065035886e-04
9.22088235294118e+00 1.65172796521967e-02 1.82364749726881e-04
9.28382352941176e+00 1.63504122104532e-02 1.81137472195262e-04
9.34676470588235e+00 1.61852305633849e-02 1.79914318813581e-04
9.40970588235294e+00 1.60217176802600e-02 1.78695372946597e-04
9.47264705882353e+00 1.58598567020537e-02 1.77480714888957e-04
9.53558823529412e+00 1.56996309402355e-02 1.76270421803791e-04
9.59852941176471e+00 1.55410238750375e-02 1.75064568081069e-04
9.66147058823529e+00 1.53840191532532e-02 1.73863225274539e-04
9.72441176470588e+00 1.52286005870520e-02 1.72666462039374e-04
9.78735294117647e+00 1.50747521522996e-02 1.71474344473607e-04
9.85029411764706e+00 1.49224579864318e-02 1.70286936054529e-04
9.91323529411765e+00 1.47717023872957e-02 1.69104297575923e-04
9.97617647058824e+00 1.46224698115204e-02 1.67926487637619e-04
1.00391176470588e+01 1.44747448718754e-02 1.66753561763063e-04
1.01020588235294e+01 1.43285123390689e-02 1.65585573762723e-04
1.01650000000000e+01 1.41837571344639e-02 1.64422575448480e-04
1.02279411764706e+01 1.40404643332162e-02 1.63264615475931e-04
1.02908823529412e+01 1.38986191612615e-02 1.62111740357616e-04
1.03538235294118e+01 1.37582069951416e-02 1.60963995255142e-04
1.04167647058824e+01 1.36192133564166e-02 1.59821423261802e-04
1.04797058823529e+01 1.34816239142835e-02 1.58684064667568e-04
1.05426470588235e+01 1.33454244827159e-02 1.57551957835120e-04
1.06055882352941e+01 1.32106010202689e-02 1.56425139947996e-04
1.06685294117647e+01 1.30771396248072e-02 1.55303646328306e-04
1.07314705882353e+01 1.29450265359247e-02 1.54187509737687e-04
1.07944117647059e+01 1.28142481322283e-02 1.53076761548974e-04
1.08573529411765e+01 1.26847909299386e-02 1.51971431074234e-04
1.09202941176471e+01 1.25566415826656e-02 1.50871546638693e-04
1.09832352941176e+01 1.24297868764996e-02 1.49777134936657e-04
1.10461764705882e+01 1.23042137322083e-02 1.48688220372022e-04
1.11091176470588e+01 1.21799092026947e-02 1.47604825833095e-04
1.11720588235294e+01 1.20568604727573e-02 1.46526973354606e-04
1.12350000000000e+01 1.19350548544546e-02 1.45454683505021e-04
1.12979411764706e+01 1.18144797891359e-02 1.44387974759313e-04
1.13608823529412e+01 1.16951228450256e-02 1.43326864231859e-04
1.14238235294118e+01 1.15769717169705e-02 1.42271368302683e-04
1.14867647058824e+01 1.14600142220602e-02 1.41221502034635e-04
1.15497058823529e+01 1.13442383015056e-02 1.40177278576721e-04
1.16126470588235e+01 1.12296320183415e-02 1.39138709857675e-04
1.16755882352941e+01 1.11161835571638e-02 1.38105807178628e-04
1.17385294117647e+01 1.10038812199903e-02 1.37078580658624e-04
1.18014705882353e+01 1.08927134279977e-02 1.36057038666988e-04
1.18644117647059e+01 1.07826687193367e-02 1.35041188755953e-04
1.19273529411765e+01 1.06737357479542e-02 1.34031037114837e-04
1.19902941176471e+01 1.05659032833164e-02 1.33026589425527e-04
1.20532352941176e+01 1.04591602065452e-02 1.32027850339082e-04
1.21161764705882e+01 1.03534955119977e-02 1.31034822940191e-04
1.21791176470588e+01 1.02488983052172e-02 1.30047509362920e-04
1.22420588235294e+01 1.01453578026509e-02 1.29065911317074e-04
1.23050000000000e+01 1.00428633279941e-02 1.28090029590168e-04
1.23679411764706e+01 9.94140431365221e-03 1.27119863537846e-04
1.24308823529412e+01 9.84097029879065e-03 1.26155411667256e-04
1.24938235294118e+01 9.74155092904806e-03 1.25196672135797e-04
1.25567647058824e+01 9.64313595307643e-03 1.24243642277166e-04
1.26197058823529e+01 9.54571522389417e-03 1.23296318116406e-04
1.26826470588235e+01 9.44927869702977e-03 1.22354694922802e-04
1.27455882352941e+01 9.35381643023199e-03 1.21418767682633e-04
1.28085294117647e+01 9.25931858019396e-03 1.20488530648062e-04
1.28714705882353e+01 9.16577540380575e-03 1.19563976875558e-04
1.29344117647059e+01 9.07317725638681e-03 1.18645098972582e-04
1.29973529411765e+01 8.98151459069406e-03 1.17731888653614e-04
1.30602941176471e+01 8.89077795662733e-03 1.16824337425467e-04
1.31232352941176e+01 8.80095799816567e-03 1.15922436161413e-04
1.31861764705882e+01 8.71204545450756e-03 1.15026174665618e-04
1.32491176470588e+01 8.62403115841013e-03 1.14135542165401e-04
1.33120588235294e+01 8.53690603589436e-03 1.13250527732296e-04
1.33750000000000e+01 8.45066110334195e-03 1.12371119876626e-04
1.34379411764706e+01 8.36528746855120e-03 1.11497306132838e-04
1.35008823529412e+01 8.28077632915468e-03 1.10629073526502e-04
1.35638235294118e+01 8.19711897232507e-03 1.09766408973787e-04
1.36267647058824e+01 8.11430677202333e-03 1.08909298895444e-04
1.36897058823529e+01 8.03233118997649e-03 1.08057728821980e-04
1.37526470588235e+01 7.95118377416978e-03 1.07211683836824e-04
1.38155882352941e+01 7.87085615855387e-03 1.06371148955426e-04
1.38785294117647e+01 7.79134006043565e-03 1.05536108757655e-04
1.39414705882353e+01 7.71262728138375e-03 1.04706547011852e-04
1.40044117647059e+01 7.63470970579130e-03 1.03882447275394e-04
1.40673529411765e+01 7.55757930004094e-03 1.03063792532961e-04
1.41302941176471e+01 7.48122811221297e-03 1.02250565748011e-04
1.41932352941176e+01 7.40564826964106e-03 1.01442749515670e-04
1.42561764705882e+01 7.33083197973693e-03 1.00640325707846e-04
1.43191176470588e+01 7.25677152863803e-03 9.98432758686829e-05
1.43820588235294e+01 7.18345928091866e-03 9.90515815529509e-05
1.44450000000000e+01 7.11088767727082e-03 9.82652239954642e-05
1.45079411764706e+01 7.03904923526798e-03 9.74841837730597e-05
1.45708823529412e+01 6.96793654807549e-03 9.67084411801256e-05
1.46338235294118e+01 6.89754228416523e-03 9.59379765499965e-05
1.46967647058824e+01 6.82785918511448e-03 9.51727699400266e-05
1.47597058823529e+01 6.75888006631335e-03 9.44128008096064e-05
1.48226470588235e+01 6.69059781573478e-03 9.36580483768719e-05
1.48855882352941e+01 6.62300539365305e-03 9.29084919239848e-05
1.49485294117647e+01 6.55609583055424e-03 9.21641104971172e-05
1.50114705882353e+01 6.48986222779135e-03 9.14248825996952e-05
1.50744117647059e+01 6.42429775641093e-03 9.06907866772461e-05
1.51373529411765e+01 6.35939565645030e-03 8.99618008221674e-05
1.52002941176471e+01 6.29514923666008e-03 8.92379032191261e-05
1.52632352941176e+01 6.23155187254410e-03 8.85190718616608e-05
1.53261764705882e+01 6.16859700695593e-03 8.78052842625242e-05
1.53891176470588e+01 6.10627814899359e-03 8.70965177725944e-05
1.54520588235294e+01 6.04458887372691e-03 8.63927498538827e-05
1.55150000000000e+01 5.98352282033564e-03 8.56939578094934e-05
1.55779411764706e+01 5.92307369266184e-03 8.50001185076087e-05
1.56408823529412e+01 5.86323525815509e-03 8.43112086845952e-05
1.57038235294118e+01 5.80400134760481e-03 8.36272052044947e-05
1.57667647058824e+01 5.74536585337133e-03 8.29480848016872e-05
1.58297058823529e+01 5.68732272989729e-03 8.22738238178351e-05
1.58926470588235e+01 5.62986599270090e-03 8.16043984900301e-05
1.59555882352941e+01 5.57298971811345e-03 8.09397851974925e-05
1.60185294117647e+01 5.51668804159825e-03 8.02799602162892e-05
1.60814705882353e+01 5.46095515822411e-03 7.96248994686171e-05
1.61444117647059e+01 5.40578532170419e-03 7.89745789154551e-05
1.62073529411765e+01 5.35117284380452e-03 7.83289743152019e-05
1.62702941176471e+01 5.29711209408727e-03 7.76880615844974e-05
1.63332352941176e+01 5.24359749833196e-03 7.70518165664733e-05
1.63961764705882e+01 5.19062353896630e-03 7.64202147939299e-05
1.64591176470588e+01 5.13818475416001e-03 7.57932317473414e-05
1.65220588235294e+01 5.08627573757369e-03 7.51708430757992e-05
1.65850000000000e+01 5.03489113685775e-03 7.45530243760851e-05
1.66479411764706e+01 4.98402565405113e-03 7.39397509669051e-05
1.67108823529412e+01 4.93367404471588e-03 7.33309981342834e-05
1.67738235294118e+01 4.88383111769179e-03 7.27267413417303e-05
1.68367647058824e+01 4.83449173366889e-03 7.21269560195995e-05
1.68997058823529e+01 4.78565080555632e-03 7.15316173498360e-05
1.69626470588235e+01 4.73730329765581e-03 7.09407004994317e-05
1.70255882352941e+01 4.68944422542207e-03 7.03541808203479e-05
1.70885294117647e+01 4.64206865410500e-03 6.97720336486754e-05
1.71514705882353e+01 4.59517169909084e-03 6.91942340993882e-05
1.72144117647059e+01 4.54874852511273e-03 6.86207573851734e-05
1.72773529411765e+01 4.50279434575293e-03 6.80515786187963e-05
1.73402941176471e+01 4.45730442320956e-03 6.74866731061652e-05
1.74032352941176e+01 4.41227406702021e-03 6.69260161565163e-05
1.74661764705882e+01 4.36769863437203e-03 6.63695828884820e-05
1.75291176470588e+01 4.32357352935677e-03 6.58173484393837e-05
1.75920588235294e+01 4.27989420274348e-03 6.52692881445182e-05
1.76550000000000e+01 4.23665615076390e-03 6.47253773561418e-05
1.77179411764706e+01 4.19385491539905e-03 6.41855912585075e-05
1.77808823529412e+01 4.15148608366754e-03 6.36499050670573e-05
1.78438235294118e+01 4.10954528740406e-03 6.31182941990665e-05
1.79067647058824e+01 4.06802820210339e-03 6.25907341009821e-05
1.79697058823529e+01 4.02693054718530e-03 6.20672000720146e-05
1.80326470588235e+01 3.98624808531434e-03 6.15476674537423e-05
1.80955882352941e+01 3.94597662218429e-03 6.10321117925324e-05
1.81585294117647e+01 3.90611200541770e-03 6.05205086748544e-05
1.82214705882353e+01 3.86665012481058e-03 6.00128335590050e-05
1.82844117647059e+01 3.82758691168241e-03 5.95090620345792e-05
1.83473529411765e+01 3.78891833845712e-03 5.90091696604057e-05
1.84102941176471e+01 3.75064041845419e-03 5.85131322031075e-05
1.84732352941176e+01 3.71274920485322e-03 5.80209254814041e-05
1.85361764705882e+01 3.67524079091586e-03 5.75325252070713e-05
1.85991176470588e+01 3.63811130937211e-03 5.70479071551250e-05
1.86620588235294e+01 3.60135693221704e-03 5.65670473096209e-05
1.87250000000000e+01 3.56497386972492e-03 5.60899217151198e-05
1.87879411764706e+01 3.52895837065395e-03 5.56165063249576e-05
1.88508823529412e+01 3.49330672165963e-03 5.51467771632870e-05
1.89138235294118e+01 3.45801524709724e-03 5.46807104639302e-05
1.89767647058824e+01 3.42308030808278e-03 5.42182825286563e-05
1.90397058823529e+01 3.38849830268194e-03 5.37594695823982e-05
1.91026470588235e+01 3.35426566534916e-03 5.33042479275859e-05
1.91655882352941e+01 3.32037886673581e-03 5.28525940763764e-05
1.92285294117647e+01 3.28683441279567e-03 5.24044846154224e-05
1.92914705882353e+01 3.25362884495911e-03 5.19598960677197e-05
1.93544117647059e+01 3.22075873959684e-03 5.15188051041940e-05
1.94173529411765e+01 3.18822070766728e-03 5.10811884106195e-05
1.94802941176471e+01 3.15601139453122e-03 5.06470228821869e-05
1.95432352941176e+01 3.12412747910948e-03 5.02162854956255e-05
1.96061764705882e+01 3.09256567404055e-03 4.97889531785974e-05
1.96691176470588e+01 3.06132272517387e-03 4.93650029483442e-05
1.97320588235294e+01 3.03039541138995e-03 4.89444120305078e-05
1.97950000000000e+01 2.99978054379773e-03 4.85271577370913e-05
1.98579411764706e+01 2.96947496587973e-03 4.81132173418037e-05
