Energy (eV)          EEDF (eV^-(3/2))     First Anisotropy
8.53846153846154e-04 6.82377191360138e+01 5.44315508141829e-02
2.56153846153846e-03 6.64499000722836e+01 8.90037268572802e-02
4.26923076923077e-03 6.47089216275623e+01 1.15191152365703e-01
5.97692307692308e-03 6.30135565866618e+01 1.33737011920873e-01
7.68461538461539e-03 6.13626098813650e+01 1.48125710796751e-01
9.39230769230769e-03 5.97549177573511e+01 1.59715672896384e-01
1.11000000000000e-02 5.81893469546113e+01 1.69230228484851e-01
1.28076923076923e-02 5.66647938886849e+01 1.77118091959226e-01
1.45153846153846e-02 5.51801839091604e+01 1.83684524664064e-01
1.62230769230769e-02 5.37344705122356e+01 1.89150508515200e-01
1.79307692307692e-02 5.23266346124696e+01 1.93683334338445e-01
1.96384615384615e-02 5.09556838243853e+01 1.97413989813265e-01
2.13461538461538e-02 4.96206517629115e+01 2.00447765804295e-01
2.30538461538462e-02 4.83205973621627e+01 2.02871089712475e-01
2.47615384615385e-02 4.70546042120463e+01 2.04756125010285e-01
2.64692307692308e-02 4.58217799123375e+01 2.06163980413353e-01
2.81769230769231e-02 4.46212554435855e+01 2.07147017279201e-01
2.98846153846154e-02 4.34521845545376e+01 2.07750551552701e-01
3.15923076923077e-02 4.23137431656149e+01 2.08014137052669e-01
3.33000000000000e-02 4.12051287880165e+01 2.07972551827859e-01
3.50076923076923e-02 4.01255599561793e+01 2.07656569033003e-01
3.67153846153846e-02 3.90742756827070e+01 2.07093568672751e-01
3.84230769230769e-02 3.80505349159488e+01 2.06308029471068e-01
4.01307692307692e-02 3.70536160197114e+01 2.05321928957412e-01
4.18384615384615e-02 3.60828162645758e+01 2.04155072659322e-01
4.35461538461539e-02 3.51374513325419e+01 2.02825367499152e-01
4.52538461538462e-02 3.42168548346516e+01 2.01349050905085e-01
4.69615384615385e-02 3.33203778412446e+01 1.99740884376157e-01
4.86692307692308e-02 3.24473884245378e+01 1.98014318238952e-01
5.03769230769231e-02 3.15972712131725e+01 1.96181632846633e-01
5.20846153846154e-02 3.07694269584375e+01 1.94254060353734e-01
5.37923076923077e-02 2.99632721118583e+01 1.92241890352620e-01
5.55000000000000e-02 2.91782384138528e+01 1.90154562020007e-01
5.72076923076923e-02 2.84137724923643e+01 1.88000744827695e-01
5.89153846153846e-02 2.76693354752561e+01 1.85788409688226e-01
6.06230769230769e-02 2.69444026079199e+01 1.83524891886020e-01
6.23307692307692e-02 2.62384628842486e+01 1.81216946871502e-01
6.40384615384615e-02 2.55510186864266e+01 1.78870800059697e-01
6.57461538461539e-02 2.48815854341591e+01 1.76492191354859e-01
6.74538461538462e-02 2.42296912430903e+01 1.74086415105617e-01
6.91615384615385e-02 2.35948765921700e+01 1.71658356069362e-01
7.08692307692308e-02 2.29766939997398e+01 1.69212521877552e-01
7.25769230769231e-02 2.23747077081011e+01 1.66753072421200e-01
7.42846153846154e-02 2.17884933763486e+01 1.64283846515597e-01
7.59923076923077e-02 2.12176377812521e+01 1.61808386153590e-01
7.77000000000000e-02 2.06617385259744e+01 1.59329958623076e-01
7.94076923076923e-02 2.01204037560155e+01 1.56851576676229e-01
8.11153846153846e-02 1.95932518842434e+01 1.54376017032169e-01
8.28230769230769e-02 1.90799113206302e+01 1.51905837349731e-01
8.45307692307692e-02 1.85800202107571e+01 1.49443391763693e-01
8.62384615384615e-02 1.80932261807427e+01 1.46990845221343e-01
8.79461538461539e-02 1.76191860888541e+01 1.44550186682532e-01
8.96538461538462e-02 1.71575657836256e+01 1.42123241300726e-01
9.13615384615385e-02 1.67080398683149e+01 1.39711681678982e-01
9.30692307692308e-02 1.62702914715311e+01 1.37317038284499e-01
9.47769230769231e-02 1.58440120238715e+01 1.34940709096294e-01
9.64846153846154e-02 1.54289010404102e+01 1.32583968552529e-01
9.81923076923077e-02 1.50246659088862e+01 1.30247975857304e-01
9.99000000000000e-02 1.46310216834404e+01 1.27933782695194e-01
1.01607692307692e-01 1.42476908839788e+01 1.25642340413509e-01
1.03315384615385e-01 1.38744033005330e+01 1.23374506780355e-01
1.05023076923077e-01 1.35108958000937e+01 1.21131052047519e-01
1.06730769230769e-01 1.31569121478947e+01 1.18912664840221e-01
1.08438461538462e-01 1.28122028203310e+01 1.16719957772353e-01
1.10146153846154e-01 1.24765248294926e+01 1.14553472175279e-01
1.11853846153846e-01 1.21496415574200e+01 1.12413682987395e-01
1.13561538461538e-01 1.18313225836075e+01 1.10301003340454e-01
1.15269230769231e-01 1.15213435229563e+01 1.08215788396616e-01
1.16976923076923e-01 1.12194858724956e+01 1.06158339365952e-01
1.18684615384615e-01 1.09255368523237e+01 1.04128907282438e-01
1.20392307692308e-01 1.06392892559399e+01 1.02127696130735e-01
1.22100000000000e-01 1.03605413085211e+01 1.00154866162020e-01
1.23807692307692e-01 1.00890965202343e+01 9.82105369835089e-02
1.25515384615385e-01 9.82476354925661e+00 9.62947902492494e-02
1.27223076923077e-01 9.56735606570588e+00 9.44076722432895e-02
1.28930769230769e-01 9.31669262396359e+00 9.25491964124213e-02
1.30638461538462e-01 9.07259653100816e+00 9.07193458015394e-02
1.32346153846154e-01 8.83489572209568e+00 8.89180750160160e-02
1.34053846153846e-01 8.60342264273050e+00 8.71453123680412e-02
1.35761538461538e-01 8.37801412720535e+00 8.54009619041846e-02
1.37469230769231e-01 8.15851128379403e+00 8.36849050158616e-02
1.39176923076923e-01 7.94475938564790e+00 8.19970022277589e-02
1.40884615384615e-01 7.73660775874874e+00 8.03370948890467e-02
1.42592307692308e-01 7.53390967587801e+00 7.87050064952489e-02
1.44300000000000e-01 7.33652225577669e+00 7.71005441801239e-02
1.46007692307692e-01 7.14430635977290e+00 7.55235001064959e-02
1.47715384615385e-01 6.95712649461073e+00 7.39736526378842e-02
1.49423076923077e-01 6.77485071622181e+00 7.24507674778110e-02
1.51130769230769e-01 6.59735053892696e+00 7.09545988105957e-02
1.52838461538462e-01 6.42450084260110e+00 6.94848904120998e-02
1.54546153846154e-01 6.25617978460898e+00 6.80413764806596e-02
1.56253846153846e-01 6.09226871589269e+00 6.66237826155227e-02
1.57961538461538e-01 5.93265209530894e+00 6.52318267443804e-02
1.59669230769231e-01 5.77721740830431e+00 6.38652198009555e-02
1.61376923076923e-01 5.62585508936950e+00 6.25236665410232e-02
1.63084615384615e-01 5.47845844299404e+00 6.12068663162643e-02
1.64792307692308e-01 5.33492356856123e+00 5.99145136243291e-02
1.66500000000000e-01 5.19514928869207e+00 5.86462987882112e-02
1.68207692307692e-01 5.05903707630225e+00 5.74019085866778e-02
1.69915384615385e-01 4.92649098570463e+00 5.61810267556691e-02
1.71623076923077e-01 4.79741758453358e+00 5.49833344830541e-02
1.73330769230769e-01 4.67172588924563e+00 5.38085109178362e-02
1.75038461538462e-01 4.54932729959051e+00 5.26562336729789e-02
1.76746153846154e-01 4.43013553623579e+00 5.15261791550910e-02
1.78453846153846e-01 4.31406658117013e+00 5.04180230026956e-02
1.80161538461538e-01 4.20103861722618e+00 4.93314405019988e-02
1.81869230769231e-01 4.09097197047926e+00 4.82661068468891e-02
1.83576923076923e-01 3.98378905518212e+00 4.72216974997993e-02
1.85284615384615e-01 3.87941431794988e+00 4.61978885339307e-02
1.86992307692308e-01 3.77777418456530e+00 4.51943568351282e-02
1.88700000000000e-01 3.67879700910341e+00 4.42107803972186e-02
1.90407692307692e-01 3.58241302241733e+00 4.32468385926288e-02
1.92115384615385e-01 3.48855428330288e+00 4.23022123640509e-02
1.93823076923077e-01 3.39715463032870e+00 4.13765844182881e-02
1.95530769230769e-01 3.30814963605208e+00 4.04696394358182e-02
1.97238461538462e-01 3.22147656073064e+00 3.95810642823162e-02
1.98946153846154e-01 3.13707430814510e+00 3.87105481102224e-02
2.00653846153846e-01 3.05488338330060e+00 3.78577825378482e-02
2.02361538461538e-01 2.97484584970161e+00 3.70224618187683e-02
2.04069230769231e-01 2.89690528855620e+00 3.62042829118601e-02
2.05776923076923e-01 2.82100675969820e+00 3.54029456230597e-02
2.07484615384615e-01 2.74709676215103e+00 3.46181527391880e-02
2.09192307692308e-01 2.67512319645341e+00 3.38496100719074e-02
2.10900000000000e-01 2.60503532855871e+00 3.30970265679146e-02
2.12607692307692e-01 2.53678375343356e+00 3.23601144064572e-02
2.14315384615385e-01 2.47032036045006e+00 3.16385890473862e-02
2.16023076923077e-01 2.40559829929590e+00 3.09321692839767e-02
2.17730769230769e-01 2.34257194749130e+00 3.02405773093639e-02
2.19438461538462e-01 2.28119687767534e+00 2.95635387874540e-02
2.21146153846154e-01 2.22142982631886e+00 2.89007828528541e-02
2.22853846153846e-01 2.16322866371705e+00 2.82520421654873e-02
2.24561538461538e-01 2.10655236379140e+00 2.76170529614344e-02
2.26269230769231e-01 2.05136097519751e+00 2.69955550394553e-02
2.27976923076923e-01 1.99761559360500e+00 2.63872917979913e-02
2.29684615384615e-01 1.94527833382168e+00 2.57920102692265e-02
2.31392307692308e-01 1.89431230311222e+00 2.52094610948160e-02
2.33100000000000e-01 1.84468157559198e+00 2.46393985481663e-02
2.34807692307692e-01 1.79635116649414e+00 2.40815805502624e-02
2.36515384615385e-01 1.74928700764825e+00 2.35357686540289e-02
2.38223076923077e-01 1.70345592335206e+00 2.30017280337002e-02
2.39930769230769e-01 1.65882560733366e+00 2.24792274850459e-02
2.41638461538462e-01 1.61536459962319e+00 2.19680394303538e-02
2.43346153846154e-01 1.57304226439532e+00 2.14679398770756e-02
2.45053846153846e-01 1.53182876868869e+00 2.09787084148334e-02
2.46761538461538e-01 1.49169506105462e+00 2.05001282114125e-02
2.48469230769231e-01 1.45261285109590e+00 2.00319859666836e-02
2.50176923076923e-01 1.41455458980944e+00 1.95740719019016e-02
2.51884615384615e-01 1.37749344987570e+00 1.91261797483701e-02
2.53592307692308e-01 1.34140330676330e+00 1.86881066978785e-02
2.55300000000000e-01 1.30625872057176e+00 1.82596533857435e-02
2.57007692307692e-01 1.27203491783513e+00 1.78406238706749e-02
2.58715384615385e-01 1.23870777414905e+00 1.74308255944118e-02
2.60423076923077e-01 1.20625379709191e+00 1.70300693457872e-02
2.62130769230769e-01 1.17465010989024e+00 1.66381692331132e-02
2.63838461538462e-01 1.14387443506259e+00 1.62549426607938e-02
2.65546153846154e-01 1.11390507872809e+00 1.58802102754534e-02
2.67253846153846e-01 1.08472091551846e+00 1.55137959389094e-02
2.68961538461538e-01 1.05630137347795e+00 1.51555267013598e-02
2.70669230769231e-01 1.02862641957308e+00 1.48052327468456e-02
2.72376923076923e-01 1.00167654575629e+00 1.44627473634658e-02
2.74084615384615e-01 9.75432755025503e-01 1.41279069139612e-02
2.75792307692308e-01 9.49876548042831e-01 1.38005507810721e-02
2.77500000000000e-01 9.24989910262277e-01 1.34805213357023e-02
2.79207692307692e-01 9.00755299059665e-01 1.31676639036378e-02
2.80915384615385e-01 8.77155631425275e-01 1.28618267191621e-02
2.82623076923077e-01 8.54174271874042e-01 1.25628608823044e-02
2.84330769230769e-01 8.31795020866111e-01 1.22706203223314e-02
2.86038461538462e-01 8.10002103237621e-01 1.19849617647197e-02
2.87746153846154e-01 7.88780157088443e-01 1.17057446779495e-02
2.89453846153846e-01 7.68114223086892e-01 1.14328312390770e-02
2.91161538461538e-01 7.47989733788539e-01 1.11660862999982e-02
2.92869230769231e-01 7.28392503374629e-01 1.09053773353409e-02
2.94576923076923e-01 7.09308717773498e-01 1.06505744076680e-02
2.96284615384615e-01 6.90724924799281e-01 1.04015501334209e-02
2.97992307692308e-01 6.72628024675724e-01 1.01581796321295e-02
2.99700000000000e-01 6.55005260912125e-01 9.92034049157113e-03
3.01407692307692e-01 6.37844211198892e-01 9.68791273238385e-03
3.03115384615385e-01 6.21132778689315e-01 9.46077876414646e-03
3.04823076923077e-01 6.04859183440987e-01 9.23882334432316e-03
3.06530769230769e-01 5.89011954208554e-01 9.02193354183088e-03
3.08238461538462e-01 5.73579920259099e-01 8.80999870335880e-03
3.09946153846154e-01 5.58552203502838e-01 8.60291040626915e-03
3.11653846153846e-01 5.43918210912788e-01 8.40056242463511e-03
3.13361538461538e-01 5.29667626968142e-01 8.20285069609230e-03
3.15069230769231e-01 5.15790406387407e-01 8.00967327646314e-03
3.16776923076923e-01 5.02276767127109e-01 7.82093030649095e-03
3.18484615384615e-01 4.89117183405020e-01 7.63652397938718e-03
3.20192307692308e-01 4.76302378989500e-01 7.45635849723319e-03
3.21900000000000e-01 4.63823320733131e-01 7.28034003853943e-03
3.23607692307692e-01 4.51671212131228e-01 7.10837672570825e-03
3.25315384615385e-01 4.39837487146369e-01 6.94037858691935e-03
3.27023076923077e-01 4.28313804149401e-01 6.77625752021982e-03
3.28730769230769e-01 4.17092040103057e-01 6.61592726100772e-03
3.30438461538462e-01 4.06164284771021e-01 6.45930335163816e-03
3.32146153846154e-01 3.95522835145223e-01 6.30630310207476e-03
3.33853846153846e-01 3.85160190073890e-01 6.15684555973490e-03
3.35561538461538e-01 3.75069044914800e-01 6.01085148011015e-03
3.37269230769231e-01 3.65242286389209e-01 5.86824328922103e-03
3.38976923076923e-01 3.55672987620368e-01 5.72894505454771e-03
3.40684615384615e-01 3.46354403196929e-01 5.59288245671503e-03
3.42392307692308e-01 3.37279964420773e-01 5.45998275372868e-03
3.44100000000000e-01 3.28443274724692e-01 5.33017475302230e-03
3.45807692307692e-01 3.19838105114457e-01 5.20338878361667e-03
3.47515384615385e-01 3.11458389794665e-01 5.07955666462249e-03
3.49223076923077e-01 3.03298221879170e-01 4.95861167541381e-03
3.50930769230769e-01 2.95351849269507e-01 4.84048852827857e-03
3.52638461538462e-01 2.87613670557145e-01 4.72512334267969e-03
3.54346153846154e-01 2.80078231077172e-01 4.61245361352200e-03
3.56053846153846e-01 2.72740219101722e-01 4.50241818585867e-03
3.57761538461539e-01 2.65594462056473e-01 4.39495723027082e-03
3.59469230769231e-01 2.58635922876451e-01 4.29001221277878e-03
3.61176923076923e-01 2.51859696490381e-01 4.18752587068959e-03
3.62884615384615e-01 2.45261006327355e-01 4.08744218909095e-03
3.64592307692308e-01 2.38835200951578e-01 3.98970637235407e-03
3.66300000000000e-01 2.32577750815455e-01 3.89426482110773e-03
3.68007692307692e-01 2.26484245034150e-01 3.80106510940649e-03
3.69715384615385e-01 2.20550388287425e-01 3.71005595949669e-03
3.71423076923077e-01 2.14771997782686e-01 3.62118721783433e-03
3.73130769230769e-01 2.09145000334624e-01 3.53440983290397e-03
3.74838461538462e-01 2.03665429465334e-01 3.44967583424580e-03
3.76546153846154e-01 1.98329422609753e-01 3.36693830746110e-03
3.78253846153846e-01 1.93133218418526e-01 3.28615137373098e-03
3.79961538461539e-01 1.88073154080484e-01 3.20727016989093e-03
3.81669230769231e-01 1.83145662742006e-01 3.13025082483432e-03
3.83376923076923e-01 1.78347271016080e-01 3.05505044007774e-03
3.85084615384615e-01 1.73674596510071e-01 2.98162707085500e-03
3.86792307692308e-01 1.69124345442633e-01 2.90993970385939e-03
3.88500000000000e-01 1.64693310343201e-01 2.83994823882167e-03
3.90207692307692e-01 1.60378367769313e-01 2.77161347029867e-03
3.91915384615385e-01 1.56176476112289e-01 2.70489706788164e-03
3.93623076923077e-01 1.52084673447060e-01 2.63976155733518e-03
3.95330769230769e-01 1.48100075463072e-01 2.57617030304184e-03
3.97038461538462e-01 1.44219873411978e-01 2.51408749134557e-03
3.98746153846154e-01 1.40441332128675e-01 2.45347811119137e-03
4.00453846153846e-01 1.36761788120400e-01 2.39430793793085e-03
4.02161538461539e-01 1.33178647671750e-01 2.33654351757220e-03
4.03869230769231e-01 1.29689385017229e-01 2.28015214856136e-03
4.05576923076923e-01 1.26291540576438e-01 2.22510186648253e-03
4.07284615384615e-01 1.22982719204373e-01 2.17136142917923e-03
4.08992307692308e-01 1.19760588503859e-01 2.11890029962033e-03
4.10700000000000e-01 1.16622877195687e-01 2.06768863145733e-03
4.12407692307692e-01 1.13567373503044e-01 2.01769725477806e-03
4.14115384615385e-01 1.10591923597376e-01 1.96889766081979e-03
4.15823076923077e-01 1.07694430076042e-01 1.92126198737027e-03
4.17530769230769e-01 1.04872850496429e-01 1.87476300511287e-03
4.19238461538462e-01 1.02125195923396e-01 1.82937410463640e-03
4.20946153846154e-01 9.94495295278899e-02 1.78506928162435e-03
4.22653846153846e-01 9.68439652331501e-02 1.74182312426619e-03
4.24361538461539e-01 9.43066663734922e-02 1.69961080101668e-03
4.26069230769231e-01 9.18358444002079e-02 1.65840804669208e-03
4.27776923076923e-01 8.94297576312918e-02 1.61819115061582e-03
4.29484615384615e-01 8.70867100130309e-02 1.57893694509212e-03
4.31192307692308e-01 8.48050499249683e-02 1.54062279236000e-03
4.32900000000000e-01 8.25831690252428e-02 1.50322657343692e-03
4.34607692307692e-01 8.04195011071018e-02 1.46672667713258e-03
4.36315384615385e-01 7.83125209982016e-02 1.43110198837703e-03
4.38023076923077e-01 7.62607434827483e-02 1.39633187705496e-03
4.39730769230769e-01 7.42627222630226e-02 1.36239618752160e-03
4.41438461538462e-01 7.23170489312546e-02 1.32927522860764e-03
4.43146153846154e-01 7.04223519772486e-02 1.29694976239654e-03
4.44853846153846e-01 6.85772958293253e-02 1.26540099456267e-03
4.46561538461539e-01 6.67805799049932e-02 1.23461056497777e-03
4.48269230769231e-01 6.50309376945470e-02 1.20456053719549e-03
4.49976923076923e-01 6.33271358753537e-02 1.17523338937580e-03
4.51684615384615e-01 6.16679734352844e-02 1.14661200546136e-03
4.53392307692308e-01 6.00522808264633e-02 1.11867966532860e-03
4.55100000000000e-01 5.84789191472951e-02 1.09142003626665e-03
4.56807692307692e-01 5.69467793330774e-02 1.06481716459690e-03
4.58515384615385e-01 5.54547813764556e-02 1.03885546684105e-03
4.60223076923077e-01 5.40018735642619e-02 1.01351972126009e-03
4.61930769230769e-01 5.25870317418597e-02 9.88795059884516e-04
4.63638461538462e-01 5.12092585854017e-02 9.64666960903237e-04
4.65346153846154e-01 4.98675828990918e-02 9.41121240223572e-04
4.67053846153846e-01 4.85610589357943e-02 9.18144044128529e-04
4.68761538461539e-01 4.72887657250618e-02 8.95721842138305e-04
4.70469230769231e-01 4.60498064241964e-02 8.73841419114277e-04
4.72176923076923e-01 4.48433076908213e-02 8.52489868375228e-04
4.73884615384615e-01 4.36684190624049e-02 8.31654585005054e-04
4.75592307692308e-01 4.25243123570002e-02 8.11323258468043e-04
4.77300000000000e-01 4.14101810938064e-02 7.91483866157640e-04
4.79007692307692e-01 4.03252399202433e-02 7.72124667058380e-04
4.80715384615385e-01 3.92687240598637e-02 7.53234195110450e-04
4.82423076923077e-01 3.82398887720035e-02 7.34801252845308e-04
4.84130769230769e-01 3.72380088306623e-02 7.16814905375097e-04
4.85838461538462e-01 3.62623780093635e-02 6.99264474644049e-04
4.87546153846154e-01 3.53123085835206e-02 6.82139533119810e-04
4.89253846153846e-01 3.43871308491779e-02 6.65429898256636e-04
4.90961538461539e-01 3.34861926473444e-02 6.49125627112631e-04
4.92669230769231e-01 3.26088589044572e-02 6.33217010455099e-04
4.94376923076923e-01 3.17545111879335e-02 6.17694567577911e-04
4.96084615384615e-01 3.09225472669550e-02 6.02549041263138e-04
4.97792307692308e-01 3.01123806881089e-02 5.87771392274671e-04
4.99500000000000e-01 2.93234403649385e-02 5.73352794508541e-04
5.01207692307692e-01 2.85551701723826e-02 5.59284630232355e-04
5.02915384615385e-01 2.78070285557826e-02 5.45558485129063e-04
5.04623076923077e-01 2.70784881482879e-02 5.32166143538320e-04
5.06330769230769e-01 2.63690354017206e-02 5.19099583952287e-04
5.08038461538462e-01 2.56781702219160e-02 5.06350974702477e-04
5.09746153846154e-01 2.50054056163313e-02 4.93912669267842e-04
5.11453846153846e-01 2.43502673531470e-02 4.81777202125971e-04
5.13161538461539e-01 2.37122936245483e-02 4.69937284719893e-04
5.14869230769231e-01 2.30910347213120e-02 4.58385801078583e-04
5.16576923076923e-01 2.24860527179845e-02 4.47115803938619e-04
5.18284615384615e-01 2.18969211619645e-02 4.36120510973867e-04
5.19992307692308e-01 2.13232247730001e-02 4.25393300708524e-04
5.21700000000000e-01 2.07645591524516e-02 4.14927708892446e-04
5.23407692307692e-01 2.02205304961965e-02 4.04717424945591e-04
5.25115384615385e-01 1.96907553177278e-02 3.94756288273864e-04
5.26823076923077e-01 1.91748601772559e-02 3.85038284728680e-04
5.28530769230769e-01 1.86724814202385e-02 3.75557543249424e-04
5.30238461538462e-01 1.81832649192362e-02 3.66308332644843e-04
5.31946153846154e-01 1.77068658243737e-02 3.57285058118124e-04
5.33653846153846e-01 1.72429483218701e-02 3.48482258174469e-04
5.35361538461539e-01 1.67911853956747e-02 3.39894601614746e-04
5.37069230769231e-01 1.63512585970303e-02 3.31516884294817e-04
5.38776923076923e-01 1.59228578214778e-02 3.23344026237784e-04
