Energy (eV)          EEDF (eV^-(3/2))     First Anisotropy
1.48809523809524e-02 1.63083400538281e-01 9.41108503430983e-05
4.46428571428571e-02 1.61748461724636e-01 1.55289778540753e-04
7.44047619047619e-02 1.60424450216633e-01 2.04698363930046e-04
1.04166666666667e-01 1.59111276563595e-01 2.42051308349749e-04
1.33928571428571e-01 1.57808852052326e-01 2.73052927244299e-04
1.63690476190476e-01 1.56517088691347e-01 2.99864114412524e-04
1.93452380952381e-01 1.55235899213341e-01 3.23605184404961e-04
2.23214285714286e-01 1.53965197071367e-01 3.44953872563612e-04
2.52976190476190e-01 1.52704896413411e-01 3.64360457859958e-04
2.82738095238095e-01 1.51454912097059e-01 3.82143743928339e-04
3.12500000000000e-01 1.50215159676853e-01 3.98540135549051e-04
3.42261904761905e-01 1.48985555402374e-01 4.13731232680182e-04
3.72023809523809e-01 1.47766016200861e-01 4.27860477702707e-04
4.01785714285714e-01 1.46556459683550e-01 4.41043762309777e-04
4.31547619047619e-01 1.45356804136055e-01 4.53376488446919e-04
4.61309523809524e-01 1.44166968515565e-01 4.64938439003665e-04
4.91071428571429e-01 1.42986872437176e-01 4.75797238717839e-04
5.20833333333333e-01 1.41816436176763e-01 4.86010876955083e-04
5.50595238095238e-01 1.40655580662758e-01 4.95629588273545e-04
5.80357142857143e-01 1.39504227472894e-01 5.04697280361564e-04
6.10119047619048e-01 1.38362298822705e-01 5.13252635804930e-04
6.39880952380952e-01 1.37229717566537e-01 5.21329975304412e-04
6.69642857142857e-01 1.36106407190189e-01 5.28959944061048e-04
6.99404761904762e-01 1.34992291805802e-01 5.36170062287721e-04
7.29166666666667e-01 1.33887296148253e-01 5.42985173156876e-04
7.58928571428571e-01 1.32791345565345e-01 5.49427809253169e-04
7.88690476190476e-01 1.31704366017550e-01 5.55518495651563e-04
8.18452380952381e-01 1.30626284071405e-01 5.61276003412424e-04
8.48214285714286e-01 1.29557026895832e-01 5.66717562541497e-04
8.77976190476190e-01 1.28496522253311e-01 5.71859041555411e-04
9.07738095238095e-01 1.27444698498945e-01 5.76715100311936e-04
9.37500000000000e-01 1.26401484574297e-01 5.81299321561352e-04
9.67261904761905e-01 1.25366810003671e-01 5.85624324207411e-04
9.97023809523809e-01 1.24340604886064e-01 5.89701860521497e-04
1.02678571428571e+00 1.23322799895715e-01 5.93542902442262e-04
1.05654761904762e+00 1.22313326265543e-01 5.97157712981444e-04
1.08630952380952e+00 1.21312115807870e-01 6.00555914893516e-04
1.11607142857143e+00 1.20319100874187e-01 6.03746546326198e-04
1.14583333333333e+00 1.19334214388076e-01 6.06738111757615e-04
1.17559523809524e+00 1.18357389804440e-01 6.09538627382478e-04
1.20535714285714e+00 1.17388561140057e-01 6.12155660948861e-04
1.23511904761905e+00 1.16427662935203e-01 6.14596367900183e-04
1.26488095238095e+00 1.15474630282077e-01 6.16867522035401e-04
1.29464285714286e+00 1.14529398795898e-01 6.18975549362909e-04
1.32440476190476e+00 1.13591904612096e-01 6.20926546799796e-04
1.35416666666667e+00 1.12662084403049e-01 6.22726310418080e-04
1.38392857142857e+00 1.11739875345737e-01 6.24380355698876e-04
1.41369047619048e+00 1.10825215144769e-01 6.25893936607458e-04
1.44345238095238e+00 1.09918042001668e-01 6.27272063385415e-04
1.47321428571429e+00 1.09018294636470e-01 6.28519518344365e-04
1.50297619047619e+00 1.08125912258511e-01 6.29640870715235e-04
1.53273809523810e+00 1.07240834586723e-01 6.30640489832402e-04
1.56250000000000e+00 1.06363001821804e-01 6.31522557627986e-04
1.59226190476190e+00 1.05492354665312e-01 6.32291079720294e-04
1.62202380952381e+00 1.04628834293126e-01 6.32949896006007e-04
1.65178571428571e+00 1.03772382373429e-01 6.33502690050550e-04
1.68154761904762e+00 1.02922941041364e-01 6.33952998130501e-04
1.71130952380952e+00 1.02080452915993e-01 6.34304217236759e-04
1.74107142857143e+00 1.01244861076070e-01 6.34559612843874e-04
1.77083333333333e+00 1.00416109076046e-01 6.34722325771391e-04
1.80059523809524e+00 9.95941409228873e-02 6.34795378899746e-04
1.83035714285714e+00 9.87789010911977e-02 6.34781683084733e-04
1.86011904761905e+00 9.79703345010099e-02 6.34684042995652e-04
1.88988095238095e+00 9.71683865320879e-02 6.34505161428634e-04
1.91964285714286e+00 9.63730030067654e-02 6.34247647660906e-04
1.94940476190476e+00 9.55841301869178e-02 6.33914017058668e-04
1.97916666666667e+00 9.48017147823826e-02 6.33506698676255e-04
2.00892857142857e+00 9.40257039313062e-02 6.33028038598301e-04
2.03869047619048e+00 9.32560452122725e-02 6.32480303598934e-04
2.06845238095238e+00 9.24926866254045e-02 6.31865684855371e-04
2.09821428571429e+00 9.17355766038754e-02 6.31186301167440e-04
2.12797619047619e+00 9.09846639957239e-02 6.30444202255132e-04
2.15773809523809e+00 9.02398980747863e-02 6.29641371602073e-04
2.18750000000000e+00 8.95012285231856e-02 6.28779729395108e-04
2.21726190476190e+00 8.87686054417212e-02 6.27861135044625e-04
2.24702380952381e+00 8.80419793329954e-02 6.26887389815162e-04
2.27678571428571e+00 8.73213011112934e-02 6.25860239066563e-04
2.30654761904762e+00 8.66065220863141e-02 6.24781374616485e-04
2.33630952380952e+00 8.58975939725704e-02 6.23652436739715e-04
2.36607142857143e+00 8.51944688736938e-02 6.22475016297044e-04
2.39583333333333e+00 8.44970992913826e-02 6.21250656524022e-04
2.42559523809524e+00 8.38054381102519e-02 6.19980854955588e-04
2.45535714285714e+00 8.31194386063553e-02 6.18667065030999e-04
2.48511904761905e+00 8.24390544325541e-02 6.17310697838888e-04
2.51488095238095e+00 8.17642396266361e-02 6.15913122969008e-04
2.54464285714286e+00 8.10949485997961e-02 6.14475672473338e-04
2.57440476190476e+00 8.04311361338825e-02 6.12999638624035e-04
2.60416666666667e+00 7.97727573860248e-02 6.11486277644310e-04
2.63392857142857e+00 7.91197678753730e-02 6.09936810464944e-04
2.66369047619048e+00 7.84721234901322e-02 6.08352423847019e-04
2.69345238095238e+00 7.78297804747299e-02 6.06734271645795e-04
2.72321428571429e+00 7.71926954365304e-02 6.05083475829068e-04
2.75297619047619e+00 7.65608253334104e-02 6.03401127636860e-04
2.78273809523809e+00 7.59341274801709e-02 6.01688288507116e-04
2.81250000000000e+00 7.53125595365032e-02 5.99945991142296e-04
2.84226190476190e+00 7.46960795131132e-02 5.98175240352503e-04
2.87202380952381e+00 7.40846457600617e-02 5.96377014038636e-04
2.90178571428571e+00 7.34782169726159e-02 5.94552263961644e-04
2.93154761904762e+00 7.28767521799476e-02 5.92701916650744e-04
2.96130952380952e+00 7.22802107507262e-02 5.90826874106520e-04
2.99107142857143e+00 7.16885523821605e-02 5.88928014641696e-04
3.02083333333333e+00 7.11017371053446e-02 5.87006193524769e-04
3.05059523809524e+00 7.05197252746302e-02 5.85062243759735e-04
3.08035714285714e+00 6.99424775727383e-02 5.83096976676460e-04
3.11011904761905e+00 6.93699550004468e-02 5.81111182654994e-04
3.13988095238095e+00 6.88021188814813e-02 5.79105631221661e-04
3.16964285714286e+00 6.82389308542710e-02 5.77081073511959e-04
3.19940476190476e+00 6.76803528695488e-02 5.75038240098388e-04
3.22916666666667e+00 6.71263471929831e-02 5.72977843342772e-04
3.25892857142857e+00 6.65768763957006e-02 5.70900577532949e-04
3.28869047619048e+00 6.60319033585703e-02 5.68807119325306e-04
3.31845238095238e+00 6.54913912629960e-02 5.66698128310885e-04
3.34821428571429e+00 6.49553035950182e-02 5.64574247423792e-04
3.37797619047619e+00 6.44236041363666e-02 5.62436103471120e-04
3.40773809523809e+00 6.38962569683876e-02 5.60284307510224e-04
3.43750000000000e+00 6.33732264633476e-02 5.58119455345426e-04
3.46726190476190e+00 6.28544772881943e-02 5.55942127877167e-04
3.49702380952381e+00 6.23399743961013e-02 5.53752891568115e-04
3.52678571428571e+00 6.18296830300710e-02 5.51552298766466e-04
3.55654761904762e+00 6.13235687147117e-02 5.49340888144110e-04
3.58630952380952e+00 6.08215972596894e-02 5.47119184996378e-04
3.61607142857143e+00 6.03237347517294e-02 5.44887701654260e-04
3.64583333333333e+00 5.98299475579235e-02 5.42646937762642e-04
3.67559523809524e+00 5.93402023179480e-02 5.40397380668771e-04
3.70535714285714e+00 5.88544659472328e-02 5.38139505680614e-04
3.73511904761905e+00 5.83727056293889e-02 5.35873776433292e-04
3.76488095238095e+00 5.78948888192452e-02 5.33600644786377e-04
3.79464285714286e+00 5.74209832367181e-02 5.31320552544847e-04
3.82440476190476e+00 5.69509568647509e-02 5.29033929629253e-04
3.85416666666667e+00 5.64847779508137e-02 5.26741195729464e-04
3.88392857142857e+00 5.60224149998808e-02 5.24442760261954e-04
3.91369047619048e+00 5.55638367771062e-02 5.22139022571604e-04
3.94345238095238e+00 5.51090123009830e-02 5.19830372232098e-04
3.97321428571429e+00 5.46579108459091e-02 5.17517189234270e-04
4.00297619047619e+00 5.42105019355234e-02 5.15199844270781e-04
4.03273809523809e+00 5.37667553451655e-02 5.12878698911698e-04
4.06250000000000e+00 5.33266410953835e-02 5.10554105874658e-04
4.09226190476190e+00 5.28901294542920e-02 5.08226409188885e-04
4.12202380952381e+00 5.24571909312455e-02 5.05895944451655e-04
4.15178571428571e+00 5.20277962791002e-02 5.03563038981483e-04
4.18154761904762e+00 5.16019164880470e-02 5.01228012061907e-04
4.21130952380952e+00 5.11795227877806e-02 4.98891175084746e-04
4.24107142857143e+00 5.07605866414881e-02 4.96552831781871e-04
4.27083333333333e+00 5.03450797479288e-02 4.94213278359242e-04
4.30059523809524e+00 4.99329740355738e-02 4.91872803717577e-04
4.33035714285714e+00 4.95242416645997e-02 4.89531689577744e-04
4.36011904761905e+00 4.91188550211747e-02 4.87190210691010e-04
4.38988095238095e+00 4.87167867193705e-02 4.84848634689117e-04
4.41964285714286e+00 4.83180095964848e-02 4.82507223356309e-04
4.44940476190476e+00 4.79224967112860e-02 4.80166231138773e-04
4.47916666666667e+00 4.75302213448423e-02 4.77825906370661e-04
4.50892857142857e+00 4.71411569951891e-02 4.75486491179943e-04
4.53869047619048e+00 4.67552773790160e-02 4.73148221588844e-04
4.56845238095238e+00 4.63725564264628e-02 4.70811327691627e-04
4.59821428571429e+00 4.59929682827383e-02 4.68476033748762e-04
4.62797619047619e+00 4.56164873030414e-02 4.66142558356874e-04
4.65773809523809e+00 4.52430880541136e-02 4.63811114537072e-04
4.68750000000000e+00 4.48727453092825e-02 4.61481909897462e-04
4.71726190476190e+00 4.45054340499499e-02 4.59155146716057e-04
4.74702380952381e+00 4.41411294607542e-02 4.56831022096208e-04
4.77678571428571e+00 4.37798069309972e-02 4.54509728044477e-04
4.80654761904762e+00 4.34214420499218e-02 4.52191451619448e-04
4.83630952380952e+00 4.30660106080797e-02 4.49876375004866e-04
4.86607142857143e+00 4.27134885927210e-02 4.47564675652178e-04
4.89583333333333e+00 4.23638521891057e-02 4.45256526349144e-04
4.92559523809524e+00 4.20170777760014e-02 4.42952095356524e-04
4.95535714285714e+00 4.16731419269413e-02 4.40651546472568e-04
4.98511904761905e+00 4.13320214058271e-02 4.38355039163985e-04
5.01488095238095e+00 4.09936931681348e-02 4.36062728416173e-04
5.04464285714286e+00 4.06581343572804e-02 4.33774765702591e-04
5.07440476190476e+00 4.03253223031305e-02 4.31491297781329e-04
5.10416666666667e+00 3.99952345224260e-02 4.29212467631135e-04
5.13392857142857e+00 3.96678487146597e-02 4.26938414348655e-04
5.16369047619048e+00 3.93431427631379e-02 4.24669273200749e-04
5.19345238095238e+00 3.90210947309530e-02 4.22405175737609e-04
5.22321428571429e+00 3.87016828620003e-02 4.20146249841952e-04
5.25297619047619e+00 3.83848855770433e-02 4.17892619837770e-04
5.28273809523809e+00 3.80706814746876e-02 4.15644406536525e-04
5.31250000000000e+00 3.77590493275358e-02 4.13401727341723e-04
5.34226190476190e+00 3.74499680831209e-02 4.11164696292373e-04
5.37202380952381e+00 3.71434168601479e-02 4.08933424163503e-04
5.40178571428571e+00 3.68393749493882e-02 4.06708018507059e-04
5.43154761904762e+00 3.65378218100063e-02 4.04488583748567e-04
5.46130952380952e+00 3.62387370704161e-02 4.02275221225647e-04
5.49107142857143e+00 3.59421005246902e-02 4.00068029281060e-04
5.52083333333333e+00 3.56478921333800e-02 3.97867103298835e-04
5.55059523809524e+00 3.53560920200059e-02 3.95672535793915e-04
5.58035714285714e+00 3.50666804718420e-02 3.93484416446108e-04
5.61011904761905e+00 3.47796379364845e-02 3.91302832186428e-04
5.63988095238095e+00 3.44949450226033e-02 3.89127867061979e-04
5.66964285714286e+00 3.42125824970805e-02 3.86959602988745e-04
5.69940476190476e+00 3.39325312837502e-02 3.84798118781255e-04
5.72916666666667e+00 3.36547724635738e-02 3.82643490880189e-04
5.75892857142857e+00 3.33792872714123e-02 3.80495793255888e-04
5.78869047619048e+00 3.31060570966832e-02 3.78355097435932e-04
5.81845238095238e+00 3.28350634802031e-02 3.76221472580774e-04
5.84821428571429e+00 3.25662881148165e-02 3.74094985509723e-04
5.87797619047619e+00 3.22997128423073e-02 3.71975700773859e-04
5.90773809523809e+00 3.20353196539997e-02 3.69863680680336e-04
5.93750000000000e+00 3.17730906877376e-02 3.67758985362833e-04
5.96726190476190e+00 3.15130082284591e-02 3.65661672804400e-04
5.99702380952381e+00 3.12550547052407e-02 3.63571798905432e-04
6.02678571428571e+00 3.09992126918470e-02 3.61489417505038e-04
6.05654761904762e+00 3.07454649038392e-02 3.59414580446711e-04
6.08630952380952e+00 3.04937941990992e-02 3.57347337598400e-04
6.11607142857143e+00 3.02441835750016e-02 3.55287736915890e-04
6.14583333333333e+00 2.99966161689138e-02 3.53235824461638e-04
6.17559523809524e+00 2.97510752554289e-02 3.51191644465982e-04
6.20535714285714e+00 2.95075442468430e-02 3.49155239344776e-04
6.23511904761905e+00 2.92660066904476e-02 3.47126649758545e-04
6.26488095238095e+00 2.90264462689854e-02 3.45105914495642e-04
6.29464285714286e+00 2.87888467983741e-02 3.43093071064053e-04
6.32440476190476e+00 2.85531922266420e-02 3.41088154908097e-04
6.35416666666667e+00 2.83194666339534e-02 3.39091199980794e-04
6.38392857142857e+00 2.80876542300549e-02 3.37102238658461e-04
6.41369047619048e+00 2.78577393546685e-02 3.35121301754839e-04
6.44345238095238e+00 2.76297064749917e-02 3.33148418573414e-04
6.47321428571429e+00 2.74035401860726e-02 3.31183616920690e-04
6.50297619047619e+00 2.71792252083619e-02 3.29226923156815e-04
6.53273809523809e+00 2.69567463880709e-02 3.27278362207904e-04
6.56250000000000e+00 2.67360886947746e-02 3.25337957615058e-04
6.59226190476190e+00 2.65172372217522e-02 3.23405731545847e-04
6.62202380952381e+00 2.63001771836413e-02 3.21481704841714e-04
6.65178571428571e+00 2.60848939167609e-02 3.19565897028697e-04
6.68154761904762e+00 2.58713728768153e-02 3.17658326363313e-04
6.71130952380952e+00 2.56595996392012e-02 3.15759009842530e-04
6.74107142857143e+00 2.54495598967590e-02 3.13867963248142e-04
6.77083333333333e+00 2.52412394600647e-02 3.11985201156039e-04
6.80059523809524e+00 2.50346242552290e-02 3.10110736979235e-04
6.83035714285714e+00 2.48297003241729e-02 3.08244582976406e-04
6.86011904761905e+00 2.46264538224735e-02 3.06386750293533e-04
6.88988095238095e+00 2.44248710196253e-02 3.04537248864849e-04
6.91964285714286e+00 2.42249382972168e-02 3.02696087882181e-04
6.94940476190476e+00 2.40266421480306e-02 3.00863275161275e-04
6.97916666666667e+00 2.38299691759817e-02 2.99038817595988e-04
7.00892857142857e+00 2.36349060940797e-02 2.97222721084626e-04
7.03869047619048e+00 2.34414397246505e-02 2.95414990536593e-04
7.06845238095238e+00 2.32495569973401e-02 2.93615629909497e-04
7.09821428571429e+00 2.30592449493240e-02 2.91824642215184e-04
7.12797619047619e+00 2.28704907233527e-02 2.90042029555793e-04
7.15773809523809e+00 2.26832815679484e-02 2.88267793129326e-04
7.18750000000000e+00 2.24976048354912e-02 2.86501933264492e-04
7.21726190476190e+00 2.23134479824045e-02 2.84744449425846e-04
7.24702380952381e+00 2.21307985672802e-02 2.82995340247545e-04
7.27678571428571e+00 2.19496442510532e-02 2.81254603538053e-04
7.30654761904762e+00 2.17699727951648e-02 2.79522236312897e-04
7.33630952380952e+00 2.15917720617271e-02 2.77798234798867e-04
7.36607142857143e+00 2.14150300117238e-02 2.76082594465835e-04
7.39583333333333e+00 2.12397347051640e-02 2.74375310030541e-04
7.42559523809524e+00 2.10658742993200e-02 2.72676375487416e-04
7.45535714285714e+00 2.08934370488719e-02 2.70985784112018e-04
7.48511904761905e+00 2.07224113041802e-02 2.69303528490904e-04
7.51488095238095e+00 2.05527855114217e-02 2.67629600438484e-04
7.54464285714286e+00 2.03845482111180e-02 2.65963991371695e-04
7.57440476190476e+00 2.02176880373769e-02 2.64306691796201e-04
7.60416666666667e+00 2.00521937177808e-02 2.62657691669102e-04
7.63392857142857e+00 1.98880540717513e-02 2.61016980336346e-04
7.66369047619048e+00 1.97252580106574e-02 2.59384546535080e-04
7.69345238095238e+00 1.95637945362129e-02 2.57760378420395e-04
7.72321428571429e+00 1.94036527405771e-02 2.56144463567384e-04
7.75297619047619e+00 1.92448218047839e-02 2.54536788997116e-04
7.78273809523809e+00 1.90872909988352e-02 2.52937341178347e-04
7.81250000000000e+00 1.89310496801612e-02 2.51346106052779e-04
7.84226190476190e+00 1.87760872937068e-02 2.49763069036529e-04
7.87202380952381e+00 1.86223933704227e-02 2.48188215044581e-04
7.90178571428571e+00 1.84699575273445e-02 2.46621528492012e-04
7.93154761904762e+00 1.83187694661140e-02 2.45062993317747e-04
7.96130952380952e+00 1.81688189730518e-02 2.43512592985499e-04
7.99107142857143e+00 1.80200959177080e-02 2.41970310506866e-04
8.02083333333333e+00 1.78725902529280e-02 2.40436128442049e-04
8.05059523809524e+00 1.77262920134325e-02 2.38910028922246e-04
8.08035714285714e+00 1.75811913158769e-02 2.37391993650151e-04
8.11011904761905e+00 1.74372783574591e-02 2.35882003921716e-04
8.13988095238095e+00 1.72945434159739e-02 2.34380040556679e-04
8.16964285714286e+00 1.71529768486194e-02 2.32886084199260e-04
8.19940476190476e+00 1.70125690913573e-02 2.31400114900577e-04
8.22916666666667e+00 1.68733106587774e-02 2.29922112409745e-04
8.25892857142857e+00 1.67351921427770e-02 2.28452056121144e-04
8.28869047619048e+00 1.65982042125971e-02 2.26989925074294e-04
8.31845238095238e+00 1.64623376135281e-02 2.25535697973406e-04
8.34821428571428e+00 1.63275831669406e-02 2.24089353187099e-04
8.37797619047619e+00 1.61939317690172e-02 2.22650868767459e-04
8.40773809523809e+00 1.60613743907781e-02 2.21220222449528e-04
8.43750000000000e+00 1.59299020768375e-02 2.19797391669771e-04
8.46726190476191e+00 1.57995059454252e-02 2.18382353565490e-04
8.49702380952381e+00 1.56701771871672e-02 2.16975084992764e-04
8.52678571428571e+00 1.55419070651030e-02 2.15575562525711e-04
8.55654761904762e+00 1.54146869134894e-02 2.14183762473883e-04
8.58630952380952e+00 1.52885081378144e-02 2.12799660881377e-04
8.61607142857143e+00 1.51633622136242e-02 2.11423233543795e-04
8.64583333333333e+00 1.50392406865329e-02 2.10054456007227e-04
8.67559523809524e+00 1.49161351710721e-02 2.08693303584677e-04
8.70535714285714e+00 1.47940373506974e-02 2.07339751354941e-04
8.73511904761905e+00 1.46729389766600e-02 2.05993774178595e-04
8.76488095238095e+00 1.45528318680094e-02 2.04655346640178e-04
8.79464285714286e+00 1.44337079106216e-02 2.03324443290429e-04
8.82440476190476e+00 1.43155590566598e-02 2.02001038306190e-04
8.85416666666667e+00 1.41983773244298e-02 2.00685105725036e-04
8.88392857142857e+00 1.40821547973096e-02 1.99376619400993e-04
8.91369047619048e+00 1.39668836237396e-02 1.98075553003043e-04
8.94345238095238e+00 1.38525560161730e-02 1.96781880029568e-04
8.97321428571428e+00 1.37391642510631e-02 1.95495573806791e-04
9.00297619047619e+00 1.36267006678340e-02 1.94216607502815e-04
9.03273809523809e+00 1.35151576688648e-02 1.92944954125922e-04
9.06250000000000e+00 1.34045277184800e-02 1.91680586538246e-04
9.09226190476191e+00 1.32948033429315e-02 1.90423477454045e-04
9.12202380952381e+00 1.31859771294078e-02 1.89173599452889e-04
9.15178571428571e+00 1.30780417260139e-02 1.87930924977886e-04
9.18154761904762e+00 1.29709898407993e-02 1.86695426348598e-04
9.21130952380952e+00 1.28648142417354e-02 1.85467075759103e-04
9.24107142857143e+00 1.27595077557620e-02 1.84245845290550e-04
9.27083333333333e+00 1.26550632687624e-02 1.83031706909182e-04
9.30059523809524e+00 1.25514737246286e-02 1.81824632478535e-04
9.33035714285714e+00 1.24487321252332e-02 1.80624593757414e-04
9.36011904761905e+00 1.23468315295134e-02 1.79431562411721e-04
9.38988095238095e+00 1.22457650534404e-02 1.78245509966408e-04
