Energy (eV)          EEDF (eV^-(3/2))     First Anisotropy
1.48571428571429e-04 2.14713415551342e+02 5.12699095012163e-02
4.45714285714286e-04 2.12606076099824e+02 8.45299055647122e-02
7.42857142857143e-04 2.10519419471118e+02 1.11241791920524e-01
1.04000000000000e-03 2.08453242670451e+02 1.31324915462911e-01
1.33714285714286e-03 2.06407344694723e+02 1.47901515061655e-01
1.63428571428571e-03 2.04381526514142e+02 1.62157250766661e-01
1.93142857142857e-03 2.02375591054247e+02 1.74708260441867e-01
2.22857142857143e-03 2.00389343171088e+02 1.85928122918371e-01
2.52571428571429e-03 1.98422589637805e+02 1.96065594277396e-01
2.82285714285714e-03 1.96475139125100e+02 2.05297185794218e-01
3.12000000000000e-03 1.94546802179304e+02 2.13754072250053e-01
3.41714285714286e-03 1.92637391207270e+02 2.21537235187600e-01
3.71428571428571e-03 1.90746720457006e+02 2.28726606681499e-01
4.01142857142857e-03 1.88874606000327e+02 2.35386900629343e-01
4.30857142857143e-03 1.87020865712785e+02 2.41571497666346e-01
4.60571428571429e-03 1.85185319258142e+02 2.47325127624294e-01
4.90285714285714e-03 1.83367788070662e+02 2.52685776813790e-01
5.20000000000000e-03 1.81568095336051e+02 2.57686080359126e-01
5.49714285714286e-03 1.79786065975949e+02 2.62354360516769e-01
5.79428571428571e-03 1.78021526630330e+02 2.66715415421229e-01
6.09142857142857e-03 1.76274305641063e+02 2.70791128655074e-01
6.38857142857143e-03 1.74544233033922e+02 2.74600947591524e-01
6.68571428571429e-03 1.72831140503348e+02 2.78162263684577e-01
6.98285714285714e-03 1.71134861396005e+02 2.81490717604083e-01
7.28000000000000e-03 1.69455230693485e+02 2.84600447858788e-01
7.57714285714286e-03 1.67792084997340e+02 2.87504294843010e-01
7.87428571428571e-03 1.66145262512822e+02 2.90213969498692e-01
8.17142857142857e-03 1.64514603033436e+02 2.92740194134343e-01
8.46857142857143e-03 1.62899947924469e+02 2.95092821083937e-01
8.76571428571429e-03 1.61301140108448e+02 2.97280933297979e-01
9.06285714285714e-03 1.59718024049819e+02 2.99312929520274e-01
9.36000000000000e-03 1.58150445739045e+02 3.01196597820992e-01
9.65714285714286e-03 1.56598252678398e+02 3.02939178965279e-01
9.95428571428571e-03 1.55061293866862e+02 3.04547421290777e-01
1.02514285714286e-02 1.53539419786495e+02 3.06027627487445e-01
1.05485714285714e-02 1.52032482383887e+02 3.07385697250935e-01
1.08457142857143e-02 1.50540335060636e+02 3.08627165036333e-01
1.11428571428571e-02 1.49062832659112e+02 3.09757229611303e-01
1.14400000000000e-02 1.47599831442441e+02 3.10780784618827e-01
1.17371428571429e-02 1.46151189088233e+02 3.11702443651098e-01
1.20342857142857e-02 1.44716764667344e+02 3.12526562729864e-01
1.23314285714286e-02 1.43296418637260e+02 3.13257260747877e-01
1.26285714285714e-02 1.41890012821707e+02 3.13898437047516e-01
1.29257142857143e-02 1.40497410402225e+02 3.14453789667247e-01
1.32228571428571e-02 1.39118475904706e+02 3.14926827388529e-01
1.35200000000000e-02 1.37753075181618e+02 3.15320884797521e-01
1.38171428571429e-02 1.36401075404989e+02 3.15639134054919e-01
1.41142857142857e-02 1.35062345047666e+02 3.15884595757159e-01
1.44114285714286e-02 1.33736753876133e+02 3.16060149073561e-01
1.47085714285714e-02 1.32424172932428e+02 3.16168540389060e-01
1.50057142857143e-02 1.31124474525587e+02 3.16212393287315e-01
1.53028571428571e-02 1.29837532219117e+02 3.16194213878734e-01
1.56000000000000e-02 1.28563220815002e+02 3.16116399336005e-01
1.58971428571429e-02 1.27301416346375e+02 3.15981244071909e-01
1.61942857142857e-02 1.26051996060766e+02 3.15790945610600e-01
1.64914285714286e-02 1.24814838412703e+02 3.15547610190101e-01
1.67885714285714e-02 1.23589823047489e+02 3.15253257437498e-01
1.70857142857143e-02 1.22376830792741e+02 3.14909826495676e-01
1.73828571428571e-02 1.21175743646721e+02 3.14519178362666e-01
1.76800000000000e-02 1.19986444763824e+02 3.14083101273060e-01
1.79771428571429e-02 1.18808818447198e+02 3.13603314211010e-01
1.82742857142857e-02 1.17642750133621e+02 3.13081470361195e-01
1.85714285714286e-02 1.16488126386110e+02 3.12519160466967e-01
1.88685714285714e-02 1.15344834879244e+02 3.11917915540632e-01
1.91657142857143e-02 1.14212764390930e+02 3.11279210967135e-01
1.94628571428571e-02 1.13091804791515e+02 3.10604467398988e-01
1.97600000000000e-02 1.11981847030562e+02 3.09895054437443e-01
2.00571428571429e-02 1.10882783129550e+02 3.09152292751473e-01
2.03542857142857e-02 1.09794506168151e+02 3.08377456241839e-01
2.06514285714286e-02 1.08716910276963e+02 3.07571774184485e-01
2.09485714285714e-02 1.07649890624158e+02 3.06736432884120e-01
2.12457142857143e-02 1.06593343407549e+02 3.05872578613523e-01
2.15428571428571e-02 1.05547165844430e+02 3.04981317772972e-01
2.18400000000000e-02 1.04511256159468e+02 3.04063719571249e-01
2.21371428571429e-02 1.03485513577591e+02 3.03120817361190e-01
2.24342857142857e-02 1.02469838311465e+02 3.02153610068242e-01
2.27314285714286e-02 1.01464131554434e+02 3.01163063628457e-01
2.30285714285714e-02 1.00468295468332e+02 3.00150112036280e-01
2.33257142857143e-02 9.94822331758734e+01 2.99115659561115e-01
2.36228571428571e-02 9.85058487511865e+01 2.98060580522843e-01
2.39200000000000e-02 9.75390472086854e+01 2.96985721340541e-01
2.42171428571429e-02 9.65817344962005e+01 2.95891901402226e-01
2.45142857142857e-02 9.56338174835162e+01 2.94779914047974e-01
2.48114285714286e-02 9.46952039555667e+01 2.93650527574228e-01
2.51085714285714e-02 9.37658026012648e+01 2.92504485916325e-01
2.54057142857143e-02 9.28455230062520e+01 2.91342510387358e-01
2.57028571428571e-02 9.19342756440666e+01 2.90165299254531e-01
2.60000000000000e-02 9.10319718658953e+01 2.88973529363564e-01
2.62971428571429e-02 9.01385238939823e+01 2.87767856718721e-01
2.65942857142857e-02 8.92538448111050e+01 2.86548917182883e-01
2.68914285714286e-02 8.83778485540570e+01 2.85317327202424e-01
2.71885714285714e-02 8.75104499033823e+01 2.84073684260391e-01
2.74857142857143e-02 8.66515644764911e+01 2.82818568282673e-01
2.77828571428571e-02 8.58011087194204e+01 2.81552541116439e-01
2.80800000000000e-02 8.49589998973785e+01 2.80276147855246e-01
2.83771428571429e-02 8.41251560884501e+01 2.78989917232099e-01
2.86742857142857e-02 8.32994961739130e+01 2.77694362132330e-01
2.89714285714286e-02 8.24819398320217e+01 2.76389980131278e-01
2.92685714285714e-02 8.16724075285557e+01 2.75077253798530e-01
2.95657142857143e-02 8.08708205102999e+01 2.73756651862137e-01
2.98628571428571e-02 8.00771007973567e+01 2.72428628646294e-01
3.01600000000000e-02 7.92911711744094e+01 2.71093625176206e-01
3.04571428571429e-02 7.85129551847325e+01 2.69752069446897e-01
3.07542857142857e-02 7.77423771212646e+01 2.68404376808021e-01
3.10514285714286e-02 7.69793620207004e+01 2.67050950371821e-01
3.13485714285714e-02 7.62238356547727e+01 2.65692181218134e-01
3.16457142857143e-02 7.54757245240910e+01 2.64328449376073e-01
3.19428571428571e-02 7.47349558509689e+01 2.62960123253639e-01
3.22400000000000e-02 7.40014575713415e+01 2.61587560574810e-01
3.25371428571429e-02 7.32751583290813e+01 2.60211108563797e-01
3.28342857142857e-02 7.25559874677574e+01 2.58831104239611e-01
3.31314285714286e-02 7.18438750250344e+01 2.57447874731544e-01
3.34285714285714e-02 7.11387517246200e+01 2.56061737416598e-01
3.37257142857143e-02 7.04405489704528e+01 2.54673000759181e-01
3.40228571428571e-02 6.97491988400095e+01 2.53281963751511e-01
3.43200000000000e-02 6.90646340768194e+01 2.51888916719128e-01
3.46171428571429e-02 6.83867880850835e+01 2.50494141446381e-01
3.49142857142857e-02 6.77155949220573e+01 2.49097911405839e-01
3.52114285714286e-02 6.70509892927516e+01 2.47700492006213e-01
3.55085714285714e-02 6.63929065424868e+01 2.46302140682950e-01
3.58057142857143e-02 6.57412826514172e+01 2.44903107624716e-01
3.61028571428571e-02 6.50960542282857e+01 2.43503635235151e-01
3.64000000000000e-02 6.44571585034860e+01 2.42103958832684e-01
3.66971428571429e-02 6.38245333239772e+01 2.40704306734593e-01
3.69942857142857e-02 6.31981171462362e+01 2.39304900438277e-01
3.72914285714286e-02 6.25778490312524e+01 2.37905954818767e-01
3.75885714285714e-02 6.19636686376368e+01 2.36507678186409e-01
3.78857142857143e-02 6.13555162164684e+01 2.35110272921185e-01
3.81828571428571e-02 6.07533326054671e+01 2.33713934961515e-01
3.84800000000000e-02 6.01570592225581e+01 2.32318854417372e-01
3.87771428571429e-02 5.95666380610737e+01 2.30925215624821e-01
3.90742857142857e-02 5.89820116832264e+01 2.29533197291051e-01
3.93714285714286e-02 5.84031232153886e+01 2.28142972653524e-01
3.96685714285714e-02 5.78299163417088e+01 2.26754709514365e-01
3.99657142857143e-02 5.72623352992668e+01 2.25368570798287e-01
4.02628571428571e-02 5.67003248726360e+01 2.23984714071113e-01
4.05600000000000e-02 5.61438303879101e+01 2.22603292080699e-01
4.08571428571429e-02 5.55927977081816e+01 2.21224452790152e-01
4.11542857142857e-02 5.50471732274929e+01 2.19848339495129e-01
4.14514285714286e-02 5.45069038663891e+01 2.18475090953374e-01
4.17485714285714e-02 5.39719370660009e+01 2.17104841402488e-01
4.20457142857143e-02 5.34422207834925e+01 2.15737721053606e-01
4.23428571428571e-02 5.29177034869880e+01 2.14373855640480e-01
4.26400000000000e-02 5.23983341500244e+01 2.13013366899436e-01
4.29371428571429e-02 5.18840622472945e+01 2.11656372587163e-01
4.32342857142857e-02 5.13748377490379e+01 2.10302986576425e-01
4.35314285714286e-02 5.08706111168552e+01 2.08953318962418e-01
4.38285714285714e-02 5.03713332982199e+01 2.07607476068625e-01
4.41257142857143e-02 4.98769557222046e+01 2.06265560885850e-01
4.44228571428571e-02 4.93874302947466e+01 2.04927672651607e-01
4.47200000000000e-02 4.89027093934944e+01 2.03593907277941e-01
4.50171428571429e-02 4.84227458638039e+01 2.02264357358054e-01
4.53142857142857e-02 4.79474930135332e+01 2.00939112245006e-01
4.56114285714286e-02 4.74769046091071e+01 1.99618258139646e-01
4.59085714285714e-02 4.70109348704235e+01 1.98301878087996e-01
4.62057142857143e-02 4.65495384668439e+01 1.96990052373330e-01
4.65028571428571e-02 4.60926705127748e+01 1.95682858124901e-01
4.68000000000000e-02 4.56402865628782e+01 1.94380369700789e-01
4.70971428571429e-02 4.51923426083086e+01 1.93082658686444e-01
4.73942857142857e-02 4.47487950718806e+01 1.91789793959823e-01
4.76914285714286e-02 4.43096008043713e+01 1.90501841764561e-01
4.79885714285714e-02 4.38747170797902e+01 1.89218865701330e-01
4.82857142857143e-02 4.34441015916199e+01 1.87940927079201e-01
4.85828571428571e-02 4.30177124486919e+01 1.86668084552436e-01
4.88800000000000e-02 4.25955081707343e+01 1.85400394464196e-01
4.91771428571429e-02 4.21774476848369e+01 1.84137910839246e-01
4.94742857142857e-02 4.17634903209635e+01 1.82880685438215e-01
4.97714285714286e-02 4.13535958084792e+01 1.81628767818775e-01
5.00685714285714e-02 4.09477242717572e+01 1.80382205322785e-01
5.03657142857143e-02 4.05458362266539e+01 1.79141043392145e-01
5.06628571428571e-02 4.01478925766615e+01 1.77905325232064e-01
5.09600000000000e-02 3.97538546087661e+01 1.76675092120545e-01
5.12571428571429e-02 3.93636839901301e+01 1.75450383396914e-01
5.15542857142857e-02 3.89773427639225e+01 1.74231236507236e-01
5.18514285714286e-02 3.85947933460592e+01 1.73017687055707e-01
5.21485714285714e-02 3.82159985211211e+01 1.71809768788917e-01
5.24457142857143e-02 3.78409214390513e+01 1.70607513880490e-01
5.27428571428571e-02 3.74695256115642e+01 1.69410952619256e-01
5.30400000000000e-02 3.71017749082927e+01 1.68220113688555e-01
5.33371428571429e-02 3.67376335536751e+01 1.67035024151892e-01
5.36342857142857e-02 3.63770661230802e+01 1.65855709491087e-01
5.39314285714286e-02 3.60200375397488e+01 1.64682193649587e-01
5.42285714285714e-02 3.56665130710000e+01 1.63514499014867e-01
5.45257142857143e-02 3.53164583251370e+01 1.62352646675514e-01
5.48228571428571e-02 3.49698392480956e+01 1.61196656132649e-01
5.51200000000000e-02 3.46266221198603e+01 1.60046545552536e-01
5.54171428571429e-02 3.42867735515436e+01 1.58902331750297e-01
5.57142857142857e-02 3.39502604817839e+01 1.57764030222046e-01
5.60114285714286e-02 3.36170501738778e+01 1.56631655181526e-01
5.63085714285714e-02 3.32871102122521e+01 1.55505219541375e-01
5.66057142857143e-02 3.29604084995665e+01 1.54384735145764e-01
5.69028571428571e-02 3.26369132535862e+01 1.53270212503464e-01
5.72000000000000e-02 3.23165930038458e+01 1.52161661016760e-01
5.74971428571429e-02 3.19994165889115e+01 1.51059088963891e-01
5.77942857142857e-02 3.16853531530314e+01 1.49962503526211e-01
5.80914285714286e-02 3.13743721434471e+01 1.48871910819279e-01
5.83885714285714e-02 3.10664433071126e+01 1.47787315873493e-01
5.86857142857143e-02 3.07615366879820e+01 1.46708722844968e-01
5.89828571428571e-02 3.04596226240907e+01 1.45636134768750e-01
5.92800000000000e-02 3.01606717444498e+01 1.44569553766531e-01
5.95771428571429e-02 2.98646549664807e+01 1.43508981028396e-01
5.98742857142857e-02 2.95715434928989e+01 1.42454416835826e-01
6.01714285714286e-02 2.92813088091948e+01 1.41405860588118e-01
6.04685714285714e-02 2.89939226805819e+01 1.40363310782808e-01
6.07657142857143e-02 2.87093571494574e+01 1.39326765207120e-01
6.10628571428571e-02 2.84275845326785e+01 1.38296220709827e-01
6.13600000000000e-02 2.81485774186715e+01 1.37271673390033e-01
6.16571428571429e-02 2.78723086650274e+01 1.36253118578605e-01
6.19542857142857e-02 2.75987513956032e+01 1.35240550857683e-01
6.22514285714286e-02 2.73278789981620e+01 1.34233964083170e-01
6.25485714285714e-02 2.70596651215331e+01 1.33233351365249e-01
6.28457142857143e-02 2.67940836732356e+01 1.32238705242419e-01
6.31428571428571e-02 2.65311088169369e+01 1.31250017470633e-01
6.34400000000000e-02 2.62707149697602e+01 1.30267279195069e-01
6.37371428571429e-02 2.60128768000332e+01 1.29290480931558e-01
6.40342857142857e-02 2.57575692245899e+01 1.28319612583166e-01
6.43314285714286e-02 2.55047674065607e+01 1.27354663459325e-01
6.46285714285714e-02 2.52544467527297e+01 1.26395622256677e-01
6.49257142857143e-02 2.50065829113112e+01 1.25442477217492e-01
6.52228571428571e-02 2.47611517695775e+01 1.24495215934749e-01
6.55200000000000e-02 2.45181294513517e+01 1.23553825508635e-01
6.58171428571429e-02 2.42774923148993e+01 1.22618292528181e-01
6.61142857142857e-02 2.40392169504173e+01 1.21688603085341e-01
6.64114285714286e-02 2.38032801779644e+01 1.20764742791320e-01
6.67085714285714e-02 2.35696590450017e+01 1.19846696757875e-01
6.70057142857143e-02 2.33383308243125e+01 1.18934449741657e-01
6.73028571428572e-02 2.31092730117880e+01 1.18027985964051e-01
6.76000000000000e-02 2.28824633240930e+01 1.17127289253902e-01
6.78971428571429e-02 2.26578796966910e+01 1.16232343029511e-01
6.81942857142857e-02 2.24355002815073e+01 1.15343130310615e-01
6.84914285714286e-02 2.22153034449915e+01 1.14459633732297e-01
6.87885714285714e-02 2.19972677658277e+01 1.13581835526881e-01
6.90857142857143e-02 2.17813720329890e+01 1.12709717655560e-01
6.93828571428571e-02 2.15675952436711e+01 1.11843261641886e-01
6.96800000000000e-02 2.13559166011173e+01 1.10982448702038e-01
6.99771428571429e-02 2.11463155127706e+01 1.10127259727313e-01
7.02742857142857e-02 2.09387715880978e+01 1.09277675294311e-01
7.05714285714286e-02 2.07332646367757e+01 1.08433675676793e-01
7.08685714285714e-02 2.05297746665597e+01 1.07595240828217e-01
7.11657142857143e-02 2.03282818814637e+01 1.06762350501905e-01
7.14628571428571e-02 2.01287666798322e+01 1.05934984097118e-01
7.17600000000000e-02 1.99312096523137e+01 1.05113120778067e-01
7.20571428571429e-02 1.97355915801314e+01 1.04296739456978e-01
7.23542857142857e-02 1.95418934330568e+01 1.03485818802737e-01
7.26514285714286e-02 1.93500963677132e+01 1.02680337250997e-01
7.29485714285714e-02 1.91601817255898e+01 1.01880272987411e-01
7.32457142857143e-02 1.89721310313406e+01 1.01085604057412e-01
7.35428571428571e-02 1.87859259909848e+01 1.00296308223928e-01
7.38400000000000e-02 1.86015484900188e+01 9.95123630761714e-02
7.41371428571429e-02 1.84189805917976e+01 9.87337460133474e-02
7.44342857142857e-02 1.82382045356482e+01 9.79604342519777e-02
7.47314285714286e-02 1.80592027352819e+01 9.71924048344932e-02
7.50285714285714e-02 1.78819577769453e+01 9.64296346132150e-02
7.53257142857143e-02 1.77064524178290e+01 9.56721003507184e-02
7.56228571428571e-02 1.75326695843890e+01 9.49197785882638e-02
7.59200000000000e-02 1.73605923705865e+01 9.41726457453430e-02
7.62171428571429e-02 1.71902040363745e+01 9.34306781040497e-02
7.65142857142857e-02 1.70214880059401e+01 9.26938518152713e-02
7.68114285714286e-02 1.68544278662192e+01 9.19621429060009e-02
7.71085714285714e-02 1.66890073651746e+01 9.12355272640444e-02
7.74057142857143e-02 1.65252104103083e+01 9.05139807298470e-02
7.77028571428571e-02 1.63630210670943e+01 8.97974789748419e-02
7.80000000000000e-02 1.62024235573391e+01 8.90859975925684e-02
7.82971428571429e-02 1.60434022577656e+01 8.83795120837354e-02
7.85942857142857e-02 1.58859416983759e+01 8.76779978614508e-02
7.88914285714286e-02 1.57300265610620e+01 8.69814302574114e-02
7.91885714285714e-02 1.55756416780016e+01 8.62897845073543e-02
7.94857142857143e-02 1.54227720302678e+01 8.56030358351281e-02
7.97828571428571e-02 1.52714027463663e+01 8.49211593401849e-02
8.00800000000000e-02 1.51215191007073e+01 8.42441300810352e-02
8.03771428571429e-02 1.49731065122811e+01 8.35719230610188e-02
8.06742857142857e-02 1.48261505431329e+01 8.29045132326979e-02
8.09714285714286e-02 1.46806368970637e+01 8.22418755030821e-02
8.12685714285714e-02 1.45365514181354e+01 8.15839847198307e-02
8.15657142857143e-02 1.43938800893716e+01 8.09308157482512e-02
8.18628571428571e-02 1.42526090313920e+01 8.02823433672313e-02
8.21600000000000e-02 1.41127245009888e+01 7.96385423457340e-02
8.24571428571429e-02 1.39742128898873e+01 7.89993874292510e-02
8.27542857142857e-02 1.38370607233258e+01 7.83648533434806e-02
8.30514285714286e-02 1.37012546588401e+01 7.77349147987427e-02
8.33485714285714e-02 1.35667814848709e+01 7.71095464768904e-02
8.36457142857143e-02 1.34336281195496e+01 7.64887231018732e-02
8.39428571428571e-02 1.33017816094237e+01 7.58724193434670e-02
8.42400000000000e-02 1.31712291281299e+01 7.52606098874262e-02
8.45371428571429e-02 1.30419579752353e+01 7.46532694226176e-02
8.48342857142857e-02 1.29139555749141e+01 7.40503726440743e-02
8.51314285714286e-02 1.27872094748107e+01 7.34518942567023e-02
8.54285714285714e-02 1.26617073447428e+01 7.28578089628967e-02
8.57257142857143e-02 1.25374369755662e+01 7.22680915272390e-02
8.60228571428572e-02 1.24143862779853e+01 7.16827166874327e-02
8.63200000000000e-02 1.22925432813163e+01 7.11016592186515e-02
8.66171428571429e-02 1.21718961324037e+01 7.05248939213451e-02
8.69142857142857e-02 1.20524330943870e+01 6.99523956237728e-02
8.72114285714286e-02 1.19341425456382e+01 6.93841391850811e-02
8.75085714285714e-02 1.18170129785531e+01 6.88200994836072e-02
8.78057142857143e-02 1.17010329984901e+01 6.82602514762310e-02
8.81028571428571e-02 1.15861913226605e+01 6.77045701159480e-02
8.84000000000000e-02 1.14724767789754e+01 6.71530304109361e-02
8.86971428571429e-02 1.13598783050326e+01 6.66056074130121e-02
8.89942857142857e-02 1.12483849469678e+01 6.60622762197053e-02
8.92914285714286e-02 1.11379858584604e+01 6.55230119768095e-02
8.95885714285714e-02 1.10286702996079e+01 6.49877898673298e-02
8.98857142857143e-02 1.09204276359340e+01 6.44565851659698e-02
9.01828571428571e-02 1.08132473373528e+01 6.39293731628323e-02
9.04800000000000e-02 1.07071189770939e+01 6.34061292176495e-02
9.07771428571429e-02 1.06020322307555e+01 6.28868287488834e-02
9.10742857142857e-02 1.04979768752333e+01 6.23714472353944e-02
9.13714285714286e-02 1.03949427877920e+01 6.18599602185373e-02
9.16685714285714e-02 1.02929199450154e+01 6.13523432917478e-02
9.19657142857143e-02 1.01918984218795e+01 6.08485721505557e-02
9.22628571428571e-02 1.00918683907869e+01 6.03486225219583e-02
9.25600000000000e-02 9.99282012056355e+00 5.98524702142436e-02
9.28571428571429e-02 9.89474397557417e+00 5.93600911066833e-02
9.31542857142857e-02 9.79763041472387e+00 5.88714611508693e-02
9.34514285714286e-02 9.70146999059005e+00 5.83865563724208e-02
9.37485714285714e-02 9.60625334844409e+00 5.79053528611624e-02
