Energy (eV)          EEDF (eV^-(3/2))     First Anisotropy
3.13793103448276e-02 9.29055925803065e-02 6.45327761272934e-05
9.41379310344828e-02 9.18042097587388e-02 1.06287635120560e-04
1.56896551724138e-01 9.07158836792754e-02 1.39586874697767e-04
2.19655172413793e-01 8.96404595513556e-02 1.64447768751445e-04
2.82413793103448e-01 8.85777844246669e-02 1.84823727855143e-04
3.45172413793103e-01 8.75277071656922e-02 2.02220752617395e-04
4.07931034482759e-01 8.64900784249690e-02 2.17423777251690e-04
4.70689655172414e-01 8.54647506272305e-02 2.30910099957974e-04
5.33448275862069e-01 8.44515779466795e-02 2.42998437810309e-04
5.96206896551724e-01 8.34504162881179e-02 2.53915571301617e-04
6.58965517241379e-01 8.24611232606488e-02 2.63830489559981e-04
7.21724137931034e-01 8.14835581633704e-02 2.72873627783062e-04
7.84482758620690e-01 8.05175819647086e-02 2.81148497856529e-04
8.47241379310345e-01 7.95630572785654e-02 2.88739113175055e-04
9.10000000000000e-01 7.86198483488871e-02 2.95714940346116e-04
9.72758620689655e-01 7.76878210300149e-02 3.02134322471095e-04
1.03551724137931e+00 7.67668427653811e-02 3.08046916667697e-04
1.09827586206897e+00 7.58567825699131e-02 3.13495474514014e-04
1.16103448275862e+00 7.49575110113607e-02 3.18517171543750e-04
1.22379310344828e+00 7.40689001918853e-02 3.23144618805887e-04
1.28655172413793e+00 7.31908237298672e-02 3.27406645537494e-04
1.34931034482759e+00 7.23231567419300e-02 3.31328914348987e-04
1.41206896551724e+00 7.14657758190344e-02 3.34934408463868e-04
1.47482758620690e+00 7.06185590277927e-02 3.38243826698281e-04
1.53758620689655e+00 6.97813858737838e-02 3.41275905138688e-04
1.60034482758621e+00 6.89541372910385e-02 3.44047678637043e-04
1.66310344827586e+00 6.81366956251049e-02 3.46574699807163e-04
1.72586206896552e+00 6.73289446163132e-02 3.48871221557298e-04
1.78862068965517e+00 6.65307693832408e-02 3.50950350817261e-04
1.85137931034483e+00 6.57420564063719e-02 3.52824178904518e-04
1.91413793103448e+00 6.49626935119382e-02 3.54503892782385e-04
1.97689655172414e+00 6.41925698559949e-02 3.55999870583600e-04
2.03965517241379e+00 6.34315759086391e-02 3.57321764079892e-04
2.10241379310345e+00 6.26796034384313e-02 3.58478570242378e-04
2.16517241379310e+00 6.19365454970028e-02 3.59478693642307e-04
2.22793103448276e+00 6.12022964038440e-02 3.60330001110294e-04
2.29068965517241e+00 6.04767517312748e-02 3.61039870196565e-04
2.35344827586207e+00 5.97598082865423e-02 3.61615230489483e-04
2.41620689655172e+00 5.90513641064525e-02 3.62062602041845e-04
2.47896551724138e+00 5.83513184333917e-02 3.62388129651205e-04
2.54172413793103e+00 5.76595717042153e-02 3.62597611572496e-04
2.60448275862069e+00 5.69760255360871e-02 3.62696526703654e-04
2.66724137931034e+00 5.63005827124871e-02 3.62690058645503e-04
2.73000000000000e+00 5.56331471693844e-02 3.62583117378274e-04
2.79275862068965e+00 5.49736239815722e-02 3.62380358843619e-04
2.85551724137931e+00 5.43219193491700e-02 3.62086202681206e-04
2.91827586206897e+00 5.36779405842857e-02 3.61704848335751e-04
2.98103448275862e+00 5.30415960978297e-02 3.61240289717216e-04
3.04379310344828e+00 5.24127953864888e-02 3.60696328574263e-04
3.10655172413793e+00 5.17914490198549e-02 3.60076586721500e-04
3.16931034482759e+00 5.11774686277052e-02 3.59384517514345e-04
3.23206896551724e+00 5.05707668855594e-02 3.58623415305019e-04
3.29482758620690e+00 4.99712575079679e-02 3.57796425459277e-04
3.35758620689655e+00 4.93788552304446e-02 3.56906553636843e-04
3.42034482758621e+00 4.87934757993026e-02 3.55956672978455e-04
3.48310344827586e+00 4.82150359596712e-02 3.54949531833838e-04
3.54586206896552e+00 4.76434534436548e-02 3.53887760650829e-04
3.60862068965517e+00 4.70786469586331e-02 3.52773878365572e-04
3.67137931034483e+00 4.65205361756985e-02 3.51610298339320e-04
3.73413793103448e+00 4.59690417182293e-02 3.50399333880384e-04
3.79689655172414e+00 4.54240851506059e-02 3.49143203389366e-04
3.85965517241379e+00 4.48855889670519e-02 3.47844035159856e-04
3.92241379310345e+00 4.43534765806120e-02 3.46503871861529e-04
3.98517241379310e+00 4.38276723122581e-02 3.45124674733429e-04
4.04793103448276e+00 4.33081013801272e-02 3.43708327510520e-04
4.11068965517241e+00 4.27946898888849e-02 3.42256640305086e-04
4.17344827586207e+00 4.22873648180055e-02 3.40771352454281e-04
4.23620689655172e+00 4.17860540150664e-02 3.39254136175250e-04
4.29896551724138e+00 4.12906861817565e-02 3.37706600033321e-04
4.36172413793103e+00 4.08011908649963e-02 3.36130291187672e-04
4.42448275862069e+00 4.03174984469182e-02 3.34526698312541e-04
4.48724137931034e+00 3.98395401349648e-02 3.32897254152876e-04
4.55000000000000e+00 3.93672479521050e-02 3.31243337937583e-04
4.61275862068965e+00 3.89005547271655e-02 3.29566277659903e-04
4.67551724137931e+00 3.84393940852780e-02 3.27867352234303e-04
4.73827586206897e+00 3.79837004384401e-02 3.26147793538794e-04
4.80103448275862e+00 3.75334089761861e-02 3.24408788349760e-04
4.86379310344828e+00 3.70884556563692e-02 3.22651480176328e-04
4.92655172413793e+00 3.66487771960539e-02 3.20876971001105e-04
4.98931034482759e+00 3.62143110625149e-02 3.19086323087271e-04
5.05206896551724e+00 3.57849954634981e-02 3.17280560082509e-04
5.11482758620690e+00 3.53607693410008e-02 3.15460668826915e-04
5.17758620689655e+00 3.49415723599868e-02 3.13627601093811e-04
5.24034482758621e+00 3.45273449006836e-02 3.11782274460030e-04
5.30310344827586e+00 3.41180280501025e-02 3.09925573758479e-04
5.36586206896552e+00 3.37135635936606e-02 3.08058352307822e-04
5.42862068965517e+00 3.33138940069006e-02 3.06181433085539e-04
5.49137931034483e+00 3.29189624473099e-02 3.04295609847839e-04
5.55413793103448e+00 3.25287127462350e-02 3.02401648198808e-04
5.61689655172414e+00 3.21430894008951e-02 3.00500286612382e-04
5.67965517241379e+00 3.17620375664872e-02 2.98592237409818e-04
5.74241379310345e+00 3.13855030483858e-02 2.96678187694262e-04
5.80517241379310e+00 3.10134322944352e-02 2.94758800245379e-04
5.86793103448276e+00 3.06457723873332e-02 2.92834714376029e-04
5.93068965517241e+00 3.02824710371047e-02 2.90906546871108e-04
5.99344827586207e+00 2.99234765730702e-02 2.88974892416219e-04
6.05620689655172e+00 2.95687379383026e-02 2.87040324592520e-04
6.11896551724138e+00 2.92182046805387e-02 2.85103396845226e-04
6.18172413793103e+00 2.88718269456197e-02 2.83164642807698e-04
6.24448275862069e+00 2.85295554704010e-02 2.81224577092900e-04
6.30724137931034e+00 2.81913415757457e-02 2.79283695933852e-04
6.37000000000000e+00 2.78571371596014e-02 2.77342477799072e-04
6.43275862068965e+00 2.75268946901587e-02 2.75401383984025e-04
6.49551724137931e+00 2.72005671990910e-02 2.73460859179850e-04
6.55827586206896e+00 2.68781082748752e-02 2.71521332020664e-04
6.62103448275862e+00 2.65594720561904e-02 2.69583215610162e-04
6.68379310344828e+00 2.62446132253950e-02 2.67646908028400e-04
6.74655172413793e+00 2.59334870020822e-02 2.65712792819909e-04
6.80931034482759e+00 2.56260491367104e-02 2.63781239557232e-04
6.87206896551724e+00 2.53222559038711e-02 2.61852604010996e-04
6.93482758620690e+00 2.50220640974022e-02 2.59927228776617e-04
6.99758620689655e+00 2.47254310228961e-02 2.58005443888851e-04
7.06034482758621e+00 2.44323144920811e-02 2.56087566935160e-04
7.12310344827586e+00 2.41426728168216e-02 2.54173903545910e-04
7.18586206896552e+00 2.38564648031895e-02 2.52264747772291e-04
7.24862068965517e+00 2.35736497456045e-02 2.50360382451104e-04
7.31137931034483e+00 2.32941874210456e-02 2.48461079557049e-04
7.37413793103448e+00 2.30180380833297e-02 2.46567100542665e-04
7.43689655172414e+00 2.27451624574595e-02 2.44678696666864e-04
7.49965517241379e+00 2.24755217340376e-02 2.42796109312528e-04
7.56241379310345e+00 2.22090775637462e-02 2.40919570293181e-04
7.62517241379310e+00 2.19457920518937e-02 2.39049302149528e-04
7.68793103448276e+00 2.16856277530246e-02 2.37185518436128e-04
7.75068965517241e+00 2.14285476655942e-02 2.35328424071817e-04
7.81344827586207e+00 2.11745152263832e-02 2.33478215386257e-04
7.87620689655172e+00 2.09234943062762e-02 2.31635080528177e-04
7.93896551724138e+00 2.06754492041341e-02 2.29799199868124e-04
8.00172413793103e+00 2.04303446420497e-02 2.27970746012210e-04
8.06448275862069e+00 2.01881457603304e-02 2.26149884114476e-04
8.12724137931034e+00 1.99488181125407e-02 2.24336772104608e-04
8.19000000000000e+00 1.97123276606026e-02 2.22531560908447e-04
8.25275862068965e+00 1.94786407699548e-02 2.20734394661562e-04
8.31551724137931e+00 1.92477242047688e-02 2.18945410916061e-04
8.37827586206896e+00 1.90195451232228e-02 2.17164740841105e-04
8.44103448275862e+00 1.87940710728297e-02 2.15392509417169e-04
8.50379310344828e+00 1.85712699858226e-02 2.13628835624240e-04
8.56655172413793e+00 1.83511101745932e-02 2.11873832624279e-04
8.62931034482759e+00 1.81335603271855e-02 2.10127607996845e-04
8.69206896551724e+00 1.79185895025969e-02 2.08390263732765e-04
8.75482758620690e+00 1.77061671271220e-02 2.06661896519797e-04
8.81758620689655e+00 1.74962629892518e-02 2.04942598025704e-04
8.88034482758621e+00 1.72888472356306e-02 2.03232454870798e-04
8.94310344827586e+00 1.70838903668101e-02 2.01531548841603e-04
9.00586206896552e+00 1.68813632330540e-02 1.99839957038135e-04
9.06862068965517e+00 1.66812370301918e-02 1.98157752016760e-04
9.13137931034483e+00 1.64834832955226e-02 1.96485001928902e-04
9.19413793103448e+00 1.62880739037668e-02 1.94821770655571e-04
9.25689655172414e+00 1.60949810630660e-02 1.93168117937982e-04
9.31965517241379e+00 1.59041773110305e-02 1.91524099504432e-04
9.38241379310345e+00 1.57156355108336e-02 1.89889767193393e-04
9.44517241379310e+00 1.55293288473517e-02 1.88265169073068e-04
9.50793103448276e+00 1.53452308233508e-02 1.86650349557441e-04
9.57068965517241e+00 1.51633152557179e-02 1.85045349565652e-04
9.63344827586207e+00 1.49835562715521e-02 1.83450206490314e-04
9.69620689655172e+00 1.48059283050459e-02 1.81864954398567e-04
9.75896551724138e+00 1.46304060932821e-02 1.80289624232060e-04
9.82172413793103e+00 1.44569646728319e-02 1.78724243761340e-04
9.88448275862069e+00 1.42855793762046e-02 1.77168837732474e-04
9.94724137931034e+00 1.41162258283389e-02 1.75623427961765e-04
1.00100000000000e+01 1.39488799431368e-02 1.74088033386045e-04
1.00727586206897e+01 1.37835179201995e-02 1.72562670196245e-04
1.01355172413793e+01 1.36201162412699e-02 1.71047352414673e-04
1.01982758620690e+01 1.34586516651611e-02 1.69542090658278e-04
1.02610344827586e+01 1.32991012293803e-02 1.68046893007360e-04
1.03237931034483e+01 1.31414422420495e-02 1.66561765973837e-04
1.03865517241379e+01 1.29856522802983e-02 1.65086713302714e-04
1.04493103448276e+01 1.28317091870777e-02 1.63621736853958e-04
1.05120689655172e+01 1.26795910665735e-02 1.62166835533074e-04
1.05748275862069e+01 1.25292762854419e-02 1.60722006130284e-04
1.06375862068966e+01 1.23807434653360e-02 1.59287244173029e-04
1.07003448275862e+01 1.22339714813444e-02 1.57862542809461e-04
1.07631034482759e+01 1.20889394589907e-02 1.56447893622356e-04
1.08258620689655e+01 1.19456267699507e-02 1.55043285632509e-04
1.08886206896552e+01 1.18040130330966e-02 1.53648706072901e-04
1.09513793103448e+01 1.16640781075779e-02 1.52264141176031e-04
1.10141379310345e+01 1.15258020913093e-02 1.50889575133540e-04
1.10768965517241e+01 1.13891653181444e-02 1.49524990848064e-04
1.11396551724138e+01 1.12541483538754e-02 1.48170369004401e-04
1.12024137931034e+01 1.11207319971097e-02 1.46825688784330e-04
1.12651724137931e+01 1.09888972728600e-02 1.45490928593907e-04
1.13279310344828e+01 1.08586254310837e-02 1.44166065094418e-04
1.13906896551724e+01 1.07298979440193e-02 1.42851073897353e-04
1.14534482758621e+01 1.06026965024492e-02 1.41545928698134e-04
1.15162068965517e+01 1.04770030164307e-02 1.40250601937042e-04
1.15789655172414e+01 1.03527996093530e-02 1.38965065471418e-04
1.16417241379310e+01 1.02300686165295e-02 1.37689289672844e-04
1.17044827586207e+01 1.01087925826876e-02 1.36423244070016e-04
1.17672413793103e+01 9.98895425847612e-03 1.35166896540711e-04
1.18300000000000e+01 9.87053660106866e-03 1.33920213923257e-04
1.18927586206897e+01 9.75352276865081e-03 1.32683162638232e-04
1.19555172413793e+01 9.63789611906572e-03 1.31455708112538e-04
1.20182758620690e+01 9.52364020650524e-03 1.30237814309916e-04
1.20810344827586e+01 9.41073878202722e-03 1.29029444306872e-04
1.21437931034483e+01 9.29917578835796e-03 1.27830560878259e-04
1.22065517241379e+01 9.18893535857975e-03 1.26641125700659e-04
1.22693103448276e+01 9.08000181387566e-03 1.25461099911942e-04
1.23320689655172e+01 8.97235966043433e-03 1.24290443397507e-04
1.23948275862069e+01 8.86599358986806e-03 1.23129115323311e-04
1.24575862068966e+01 8.76088847438654e-03 1.21977074678336e-04
1.25203448275862e+01 8.65702936553642e-03 1.20834279531725e-04
1.25831034482759e+01 8.55440149207722e-03 1.19700687551201e-04
1.26458620689655e+01 8.45299025708511e-03 1.18576255337377e-04
1.27086206896552e+01 8.35278123828487e-03 1.17460938917343e-04
1.27713793103448e+01 8.25376018356596e-03 1.16354694247455e-04
1.28341379310345e+01 8.15591300977361e-03 1.15257476520466e-04
1.28968965517241e+01 8.05922580070824e-03 1.14169240646079e-04
1.29596551724138e+01 7.96368480441460e-03 1.13089940629964e-04
1.30224137931034e+01 7.86927643343911e-03 1.12019530031115e-04
1.30851724137931e+01 7.77598726066162e-03 1.10957962427884e-04
1.31479310344828e+01 7.68380401813808e-03 1.09905190771864e-04
1.32106896551724e+01 7.59271359521509e-03 1.08861167833564e-04
1.32734482758621e+01 7.50270303599269e-03 1.07825845622763e-04
1.33362068965517e+01 7.41375953951679e-03 1.06799175812710e-04
1.33989655172414e+01 7.32587045590268e-03 1.05781110172220e-04
1.34617241379310e+01 7.23902328522809e-03 1.04771599963062e-04
1.35244827586207e+01 7.15320567575636e-03 1.03770596353438e-04
1.35872413793103e+01 7.06840542156105e-03 1.02778049876841e-04
1.36500000000000e+01 6.98461046266240e-03 1.01793910825687e-04
1.37127586206897e+01 6.90180888142045e-03 1.00818129652108e-04
1.37755172413793e+01 6.81998890147739e-03 9.98506565807398e-05
1.38382758620690e+01 6.73913888550379e-03 9.88914412906398e-05
1.39010344827586e+01 6.65924733529791e-03 9.79404332867501e-05
1.39637931034483e+01 6.58030288837802e-03 9.69975822781664e-05
1.40265517241379e+01 6.50229431696262e-03 9.60628376454747e-05
1.40893103448276e+01 6.42521052637437e-03 9.51361488024165e-05
1.41520689655172e+01 6.34904055292875e-03 9.42174647171875e-05
1.42148275862069e+01 6.27377356399045e-03 9.33067342571496e-05
1.42775862068966e+01 6.19939885480068e-03 9.24039065401299e-05
1.43403448275862e+01 6.12590584750359e-03 9.15089304371838e-05
1.44031034482759e+01 6.05328408964290e-03 9.06217549084998e-05
1.44658620689655e+01 5.98152325218346e-03 8.97423285565006e-05
1.45286206896552e+01 5.91061312953102e-03 8.88705999458507e-05
1.45913793103448e+01 5.84054363657711e-03 8.80065179298169e-05
1.46541379310345e+01 5.77130480777024e-03 8.71500311860267e-05
1.47168965517241e+01 5.70288679569990e-03 8.63010885285594e-05
1.47796551724138e+01 5.63527986924219e-03 8.54596384906504e-05
1.48424137931034e+01 5.56847441354851e-03 8.46256296219055e-05
1.49051724137931e+01 5.50246092729180e-03 8.37990107914913e-05
1.49679310344828e+01 5.43723002178162e-03 8.29797307547570e-05
1.50306896551724e+01 5.37277241962969e-03 8.21677384432925e-05
1.50934482758621e+01 5.30907895301206e-03 8.13629825750719e-05
1.51562068965517e+01 5.24614056363112e-03 8.05654119307032e-05
1.52189655172414e+01 5.18394830014877e-03 7.97749756351457e-05
1.52817241379310e+01 5.12249331734368e-03 7.89916227530809e-05
1.53444827586207e+01 5.06176687485383e-03 7.82153025585803e-05
1.54072413793103e+01 5.00176033554740e-03 7.74459641708197e-05
1.54700000000000e+01 4.94246516546245e-03 7.66835568109268e-05
1.55327586206897e+01 4.88387293141347e-03 7.59280300638266e-05
1.55955172413793e+01 4.82597530018926e-03 7.51793336167492e-05
1.56582758620690e+01 4.76876403700586e-03 7.44374170431680e-05
1.57210344827586e+01 4.71223100543197e-03 7.37022300455189e-05
1.57837931034483e+01 4.65636816512424e-03 7.29737227026519e-05
1.58465517241379e+01 4.60116757105622e-03 7.22518451115779e-05
1.59093103448276e+01 4.54662137238885e-03 7.15365476241496e-05
1.59720689655172e+01 4.49272181101952e-03 7.08277805243381e-05
1.60348275862069e+01 4.43946122149127e-03 7.01254942538838e-05
1.60975862068966e+01 4.38683202888002e-03 6.94296396425229e-05
1.61603448275862e+01 4.33482674806105e-03 6.87401675732404e-05
1.62231034482759e+01 4.28343798264510e-03 6.80570292024728e-05
1.62858620689655e+01 4.23265842361730e-03 6.73801756585564e-05
1.63486206896552e+01 4.18248084923314e-03 6.67095582515796e-05
1.64113793103448e+01 4.13289812304675e-03 6.60451286876189e-05
1.64741379310345e+01 4.08390319321353e-03 6.53868387559176e-05
1.65368965517241e+01 4.03548909148794e-03 6.47346405338165e-05
1.65996551724138e+01 3.98764893194662e-03 6.40884861049272e-05
1.66624137931034e+01 3.94037591087355e-03 6.34483277543690e-05
1.67251724137931e+01 3.89366330491952e-03 6.28141181681052e-05
1.67879310344828e+01 3.84750447043953e-03 6.21858101406509e-05
1.68506896551724e+01 3.80189284254836e-03 6.15633567658389e-05
1.69134482758621e+01 3.75682193392279e-03 6.09467111733070e-05
1.69762068965517e+01 3.71228533467804e-03 6.03358267102372e-05
1.70389655172414e+01 3.66827671064927e-03 5.97306571268658e-05
1.71017241379310e+01 3.62478980276219e-03 5.91311563033375e-05
1.71644827586207e+01 3.58181842614323e-03 5.85372784273135e-05
1.72272413793103e+01 3.53935646899564e-03 5.79489777475495e-05
1.72900000000000e+01 3.49739789246929e-03 5.73662087431244e-05
1.73527586206897e+01 3.45593672905552e-03 5.67889262961119e-05
1.74155172413793e+01 3.41496708198974e-03 5.62170855142116e-05
1.74782758620690e+01 3.37448312418332e-03 5.56506415835100e-05
1.75410344827586e+01 3.33447909808978e-03 5.50895499285487e-05
1.76037931034483e+01 3.29494931418426e-03 5.45337663756689e-05
1.76665517241379e+01 3.25588815039026e-03 5.39832469108294e-05
1.77293103448276e+01 3.21729005128035e-03 5.34379478358750e-05
1.77920689655172e+01 3.17914952707367e-03 5.28978255499394e-05
1.78548275862069e+01 3.14146115349818e-03 5.23628366984758e-05
1.79175862068966e+01 3.10421957036997e-03 5.18329383254211e-05
1.79803448275862e+01 3.06741948104919e-03 5.13080876467206e-05
1.80431034482759e+01 3.03105565168712e-03 5.07882421959114e-05
1.81058620689655e+01 2.99512291028506e-03 5.02733596196990e-05
1.81686206896552e+01 2.95961614655404e-03 4.97633978167346e-05
1.82313793103448e+01 2.92453031058702e-03 4.92583150793988e-05
1.82941379310345e+01 2.88986041234274e-03 4.87580698819838e-05
1.83568965517241e+01 2.85560152093643e-03 4.82626210163429e-05
1.84196551724138e+01 2.82174876375629e-03 4.77719274007046e-05
1.84824137931034e+01 2.78829732632163e-03 4.72859482089381e-05
1.85451724137931e+01 2.75524245104176e-03 4.68046430026382e-05
1.86079310344828e+01 2.72257943672646e-03 4.63279715330541e-05
1.86706896551724e+01 2.69030363791765e-03 4.58558938675077e-05
1.87334482758621e+01 2.65841046405997e-03 4.53883702105044e-05
1.87962068965517e+01 2.62689537935832e-03 4.49253610242040e-05
1.88589655172414e+01 2.59575390161747e-03 4.44668271514885e-05
1.89217241379310e+01 2.56498160177793e-03 4.40127296307158e-05
1.89844827586207e+01 2.53457410328628e-03 4.35630298135594e-05
1.90472413793103e+01 2.50452708131634e-03 4.31176891976033e-05
1.91100000000000e+01 2.47483626262703e-03 4.26766695386407e-05
1.91727586206897e+01 2.44549742447717e-03 4.22399329653586e-05
1.92355172413793e+01 2.41650639418560e-03 4.18074418585366e-05
1.92982758620690e+01 2.38785904839076e-03 4.13791587503853e-05
1.93610344827586e+01 2.35955131290948e-03 4.09550464308479e-05
1.94237931034483e+01 2.33157916170801e-03 4.05350680561628e-05
1.94865517241379e+01 2.30393861648060e-03 4.01191869844197e-05
1.95493103448276e+01 2.27662574608384e-03 3.97073668794394e-05
1.96120689655172e+01 2.24963666584121e-03 3.92995715620961e-05
1.96748275862069e+01 2.22296753740332e-03 3.88957651093961e-05
1.97375862068966e+01 2.19661456778539e-03 3.84959119557185e-05
1.98003448275862e+01 2.17057400896782e-03 3.80999767389244e-05
