Energy (eV)          EEDF (eV^-(3/2))     First Anisotropy
6.21428571428571e-02 5.37628935265388e-02 4.37618742101313e-05
1.86428571428571e-01 5.28870096564779e-02 7.19164192504549e-05
3.10714285714286e-01 5.20253953376101e-02 9.40233094596938e-05
4.35000000000000e-01 5.11778181016290e-02 1.10271827724550e-04
5.59285714285714e-01 5.03440492605454e-02 1.23378632332619e-04
6.83571428571429e-01 4.95238638530863e-02 1.34385863793087e-04
8.07857142857143e-01 4.87170405821805e-02 1.43840286518891e-04
9.32142857142857e-01 4.79233617583529e-02 1.52076486627036e-04
1.05642857142857e+00 4.71426132373055e-02 1.59319253062163e-04
1.18071428571429e+00 4.63745843621771e-02 1.65729474403786e-04
1.30500000000000e+00 4.56190679134279e-02 1.71427716488175e-04
1.42928571428571e+00 4.48758600376360e-02 1.76507539187937e-04
1.55357142857143e+00 4.41447602139288e-02 1.81043568576292e-04
1.67785714285714e+00 4.34255711777401e-02 1.85096663656595e-04
1.80214285714286e+00 4.27180988878697e-02 1.88717370762287e-04
1.92642857142857e+00 4.20221524592091e-02 1.91948318972642e-04
2.05071428571429e+00 4.13375441134473e-02 1.94825928172241e-04
2.17500000000000e+00 4.06640891383955e-02 1.97381662364145e-04
2.29928571428571e+00 4.00016058246265e-02 1.99642966996214e-04
2.42357142857143e+00 3.93499154291421e-02 2.01633984246654e-04
2.54785714285714e+00 3.87088421152133e-02 2.03376108195902e-04
2.67214285714286e+00 3.80782129161777e-02 2.04888421705830e-04
2.79642857142857e+00 3.74578576804261e-02 2.06188046097763e-04
2.92071428571429e+00 3.68476090264273e-02 2.07290421712518e-04
3.04500000000000e+00 3.62473023038389e-02 2.08209538655102e-04
3.16928571428571e+00 3.56567755406653e-02 2.08958126241800e-04
3.29357142857143e+00 3.50758694075673e-02 2.09547810626902e-04
3.41785714285714e+00 3.45044271672425e-02 2.09989247092964e-04
3.54214285714286e+00 3.39422946394109e-02 2.10292231570162e-04
3.66642857142857e+00 3.33893201537974e-02 2.10465796311214e-04
3.79071428571429e+00 3.28453545097091e-02 2.10518290370342e-04
3.91500000000000e+00 3.23102509400900e-02 2.10457450287728e-04
4.03928571428571e+00 3.17838650661556e-02 2.10290460697242e-04
4.16357142857143e+00 3.12660548639667e-02 2.10024007147497e-04
4.28785714285714e+00 3.07566806208056e-02 2.09664322398674e-04
4.41214285714286e+00 3.02556049025715e-02 2.09217226916058e-04
4.53642857142857e+00 2.97626925129020e-02 2.08688165247665e-04
4.66071428571429e+00 2.92778104569993e-02 2.08082237098876e-04
4.78500000000000e+00 2.88008279088716e-02 2.07404226079498e-04
4.90928571428571e+00 2.83316161718617e-02 2.06658624861684e-04
5.03357142857143e+00 2.78700486479434e-02 2.05849657759717e-04
5.15785714285714e+00 2.74160007996893e-02 2.04981301085443e-04
5.28214285714286e+00 2.69693501204051e-02 2.04057301337411e-04
5.40642857142857e+00 2.65299760982872e-02 2.03081192160075e-04
5.53071428571429e+00 2.60977601841068e-02 2.02056308761749e-04
5.65500000000000e+00 2.56725857615713e-02 2.00985801925877e-04
5.77928571428571e+00 2.52543381127284e-02 1.99872650355911e-04
5.90357142857143e+00 2.48429043900401e-02 1.98719671985815e-04
6.02785714285714e+00 2.44381735830095e-02 1.97529534382862e-04
6.15214285714286e+00 2.40400364910584e-02 1.96304764158762e-04
6.27642857142857e+00 2.36483856919506e-02 1.95047756045527e-04
6.40071428571429e+00 2.32631155129465e-02 1.93760780460860e-04
6.52500000000000e+00 2.28841220040987e-02 1.92445991243506e-04
6.64928571428571e+00 2.25113029077951e-02 1.91105432451189e-04
6.77357142857143e+00 2.21445576335038e-02 1.89741044686107e-04
6.89785714285714e+00 2.17837872283694e-02 1.88354671002111e-04
7.02214285714286e+00 2.14288943527081e-02 1.86948062283061e-04
7.14642857142857e+00 2.10797832521056e-02 1.85522882601128e-04
7.27071428571429e+00 2.07363597316813e-02 1.84080713544824e-04
7.39500000000000e+00 2.03985311320914e-02 1.82623058890076e-04
7.51928571428572e+00 2.00662063026382e-02 1.81151348667348e-04
7.64357142857143e+00 1.97392955785116e-02 1.79666942992710e-04
7.76785714285714e+00 1.94177107548148e-02 1.78171135689242e-04
7.89214285714286e+00 1.91013650644951e-02 1.76665157591548e-04
8.01642857142857e+00 1.87901731536414e-02 1.75150179945953e-04
8.14071428571429e+00 1.84840510585282e-02 1.73627317046051e-04
8.26500000000000e+00 1.81829161840902e-02 1.72097629246728e-04
8.38928571428571e+00 1.78866872801332e-02 1.70562125551354e-04
8.51357142857143e+00 1.75952844208734e-02 1.69021766073477e-04
8.63785714285714e+00 1.73086289819519e-02 1.67477464387270e-04
8.76214285714286e+00 1.70266436206021e-02 1.65930089670475e-04
8.88642857142857e+00 1.67492522537494e-02 1.64380468981995e-04
9.01071428571429e+00 1.64763800375392e-02 1.62829388942028e-04
9.13500000000000e+00 1.62079533480518e-02 1.61277597776483e-04
9.25928571428572e+00 1.59438997602272e-02 1.59725807040497e-04
9.38357142857143e+00 1.56841480295022e-02 1.58174693272488e-04
9.50785714285714e+00 1.54286280714409e-02 1.56624899587031e-04
9.63214285714286e+00 1.51772709439414e-02 1.55077037122415e-04
9.75642857142857e+00 1.49300088278003e-02 1.53531686630450e-04
9.88071428571429e+00 1.46867750084571e-02 1.51989399584151e-04
1.00050000000000e+01 1.44475038587331e-02 1.50450699763780e-04
1.01292857142857e+01 1.42121308192069e-02 1.48916083968655e-04
1.02535714285714e+01 1.39805923848230e-02 1.47386023503303e-04
1.03778571428571e+01 1.37528260836864e-02 1.45860965702720e-04
1.05021428571429e+01 1.35287704616707e-02 1.44341334332313e-04
1.06264285714286e+01 1.33083650658317e-02 1.42827530822976e-04
1.07507142857143e+01 1.30915504281069e-02 1.41319935226844e-04
1.08750000000000e+01 1.28782680492652e-02 1.39818907438101e-04
1.09992857142857e+01 1.26684603812283e-02 1.38324787126325e-04
1.11235714285714e+01 1.24620708173137e-02 1.36837895196796e-04
1.12478571428571e+01 1.22590436711009e-02 1.35358535229273e-04
1.13721428571429e+01 1.20593241633916e-02 1.33886993255791e-04
1.14964285714286e+01 1.18628584074251e-02 1.32423538814088e-04
1.16207142857143e+01 1.16695933943475e-02 1.30968425639346e-04
1.17450000000000e+01 1.14794769789050e-02 1.29521892591012e-04
1.18692857142857e+01 1.12924578638101e-02 1.28084163482564e-04
1.19935714285714e+01 1.11084855906640e-02 1.26655448227552e-04
1.21178571428571e+01 1.09275105215065e-02 1.25235943973758e-04
1.22421428571429e+01 1.07494838270598e-02 1.23825834818344e-04
1.23664285714286e+01 1.05743574735511e-02 1.22425292622512e-04
1.24907142857143e+01 1.04020842097584e-02 1.21034477520981e-04
1.26150000000000e+01 1.02326175542589e-02 1.19653538638379e-04
1.27392857142857e+01 1.00659117815882e-02 1.18282613866589e-04
1.28635714285714e+01 9.90192191385721e-03 1.16921830778228e-04
1.29878571428571e+01 9.74060370460326e-03 1.15571307534063e-04
1.31121428571429e+01 9.58191362821002e-03 1.14231152573507e-04
1.32364285714286e+01 9.42580886816141e-03 1.12901465254155e-04
1.33607142857143e+01 9.27224730549408e-03 1.11582336232054e-04
1.34850000000000e+01 9.12118750743057e-03 1.10273848023392e-04
1.36092857142857e+01 8.97258871511703e-03 1.08976074759430e-04
1.37335714285714e+01 8.82641083592299e-03 1.07689082923568e-04
1.38578571428571e+01 8.68261442927807e-03 1.06412932085895e-04
1.39821428571429e+01 8.54116069716247e-03 1.05147674590853e-04
1.41064285714286e+01 8.40201147363692e-03 1.03893356065341e-04
1.42307142857143e+01 8.26512921454883e-03 1.02650015705372e-04
1.43550000000000e+01 8.13047698740048e-03 1.01417686721453e-04
1.44792857142857e+01 7.99801846047673e-03 1.00196396088886e-04
1.46035714285714e+01 7.86771789580346e-03 9.89861651482796e-05
1.47278571428571e+01 7.73954013670366e-03 9.77870102057134e-05
1.48521428571429e+01 7.61345059925934e-03 9.65989422299946e-05
1.49764285714286e+01 7.48941526297882e-03 9.54219672601877e-05
1.51007142857143e+01 7.36740066162072e-03 9.42560866232543e-05
1.52250000000000e+01 7.24737387416265e-03 9.31012972904222e-05
1.53492857142857e+01 7.12930251515600e-03 9.19575916332166e-05
1.54735714285714e+01 7.01315472830870e-03 9.08249579165576e-05
1.55978571428571e+01 6.89889917553587e-03 8.97033807928100e-05
1.57221428571429e+01 6.78650502930061e-03 8.85928410153843e-05
1.58464285714286e+01 6.67594196429511e-03 8.74933157681278e-05
1.59707142857143e+01 6.56718014926097e-03 8.64047788313306e-05
1.60950000000000e+01 6.46019023893907e-03 8.53272008689452e-05
1.62192857142857e+01 6.35494336550852e-03 8.42605491962414e-05
1.63435714285714e+01 6.25141113275482e-03 8.32047881872686e-05
1.64678571428571e+01 6.14956560642340e-03 8.21598796840399e-05
1.65921428571429e+01 6.04937930735373e-03 8.11257827298402e-05
1.67164285714286e+01 5.95082520406416e-03 8.01024538371120e-05
1.68407142857143e+01 5.85387670546045e-03 7.90898471143929e-05
1.69650000000000e+01 5.75850765366014e-03 7.80879144991498e-05
1.70892857142857e+01 5.66469231639058e-03 7.70966055401605e-05
1.72135714285714e+01 5.57240538170134e-03 7.61158677359696e-05
1.73378571428571e+01 5.48162194945627e-03 7.51456468754832e-05
1.74621428571429e+01 5.39231752518255e-03 7.41858867922791e-05
1.75864285714286e+01 5.30446801346106e-03 7.32365295835679e-05
1.77107142857143e+01 5.21804971142667e-03 7.22975157072841e-05
1.78350000000000e+01 5.13303930237212e-03 7.13687841717174e-05
1.79592857142857e+01 5.04941384899533e-03 7.04502723340036e-05
1.80835714285714e+01 4.96715078861421e-03 6.95419161824694e-05
1.82078571428571e+01 4.88622792565593e-03 6.86436506213104e-05
1.83321428571429e+01 4.80662342614933e-03 6.77554092459603e-05
1.84564285714286e+01 4.72831581183318e-03 6.68771245227827e-05
1.85807142857143e+01 4.65128395436238e-03 6.60087278631975e-05
1.87050000000000e+01 4.57550706960659e-03 6.51501497787061e-05
1.88292857142857e+01 4.50096471165010e-03 6.43013196957990e-05
1.89535714285714e+01 4.42763676846825e-03 6.34621661923429e-05
1.90778571428571e+01 4.35550345529157e-03 6.26326172363386e-05
1.92021428571429e+01 4.28454530967637e-03 6.18125999816633e-05
1.93264285714286e+01 4.21474318625300e-03 6.10020409160349e-05
1.94507142857143e+01 4.14607825156126e-03 6.02008659173508e-05
1.95750000000000e+01 4.07853197896832e-03 5.94090003807935e-05
1.96992857142857e+01 4.01208614333579e-03 5.86263690498360e-05
1.98235714285714e+01 3.94672281711859e-03 5.78528962147303e-05
1.99478571428571e+01 3.88242436449780e-03 5.70885059133397e-05
2.00721428571429e+01 3.81917343697039e-03 5.63331217461650e-05
2.01964285714286e+01 3.75695296866796e-03 5.55866669984938e-05
2.03207142857143e+01 3.69574617175304e-03 5.48490646829178e-05
2.04450000000000e+01 3.63553653188904e-03 5.41202376437838e-05
2.05692857142857e+01 3.57630780349919e-03 5.34001084035820e-05
2.06935714285714e+01 3.51804400625065e-03 5.26885993300306e-05
2.08178571428571e+01 3.46072941986373e-03 5.19856328054190e-05
2.09421428571429e+01 3.40434858016742e-03 5.12911310596051e-05
2.10664285714286e+01 3.34888627492662e-03 5.06050162710570e-05
2.11907142857143e+01 3.29432753973837e-03 4.99272105986128e-05
2.13150000000000e+01 3.24065765399393e-03 4.92576362674520e-05
2.14392857142857e+01 3.18786213666299e-03 4.85962154299393e-05
2.15635714285714e+01 3.13592674312815e-03 4.79428703065690e-05
2.16878571428571e+01 3.08483746058997e-03 4.72975233290451e-05
2.18121428571429e+01 3.03458050454007e-03 4.66600969898696e-05
2.19364285714286e+01 2.98514231504164e-03 4.60305139260517e-05
2.20607142857143e+01 2.93650955307133e-03 4.54086969424654e-05
2.21850000000000e+01 2.88866909691998e-03 4.47945690826983e-05
2.23092857142857e+01 2.84160803844319e-03 4.41880535033155e-05
2.24335714285714e+01 2.79531368021376e-03 4.35890735929701e-05
2.25578571428571e+01 2.74977353145212e-03 4.29975530935047e-05
2.26821428571429e+01 2.70497530487362e-03 4.24134159647198e-05
2.28064285714286e+01 2.66090691337300e-03 4.18365864538096e-05
2.29307142857143e+01 2.61755646676367e-03 4.12669891121608e-05
2.30550000000000e+01 2.57491226856928e-03 4.07045488537758e-05
2.31792857142857e+01 2.53296281268865e-03 4.01491908419037e-05
2.33035714285714e+01 2.49169678083610e-03 3.96008405898439e-05
2.34278571428571e+01 2.45110303893562e-03 3.90594240635949e-05
2.35521428571429e+01 2.41117063430318e-03 3.85248675604497e-05
2.36764285714286e+01 2.37188879269146e-03 3.79970977666296e-05
2.38007142857143e+01 2.33324691538312e-03 3.74760417689736e-05
2.39250000000000e+01 2.29523457633101e-03 3.69616271031318e-05
2.40492857142857e+01 2.25784151919102e-03 3.64537816515081e-05
2.41735714285714e+01 2.22105765502291e-03 3.59524337286772e-05
2.42978571428571e+01 2.18487305909392e-03 3.54575121685048e-05
2.44221428571429e+01 2.14927796836116e-03 3.49689462152737e-05
2.45464285714286e+01 2.11426277883729e-03 3.44866655715424e-05
2.46707142857143e+01 2.07981804299952e-03 3.40106004058675e-05
2.47950000000000e+01 2.04593446724041e-03 3.35406813925469e-05
2.49192857142857e+01 2.01260290922785e-03 3.30768396198663e-05
2.50435714285714e+01 1.97981437584094e-03 3.26190066625578e-05
2.51678571428571e+01 1.94756002033569e-03 3.21671146558123e-05
2.52921428571429e+01 1.91583114009581e-03 3.17210961977359e-05
2.54164285714286e+01 1.88461917428450e-03 3.12808843890913e-05
2.55407142857143e+01 1.85391570153489e-03 3.08464128379479e-05
2.56650000000000e+01 1.82371243767773e-03 3.04176156924425e-05
2.57892857142857e+01 1.79400123339212e-03 2.99944275583750e-05
2.59135714285714e+01 1.76477407235341e-03 2.95767835607277e-05
2.60378571428571e+01 1.73602306871910e-03 2.91646194065970e-05
2.61621428571429e+01 1.70774046511978e-03 2.87578712978605e-05
2.62864285714286e+01 1.67991863056591e-03 2.83564759641705e-05
2.64107142857143e+01 1.65255005838920e-03 2.79603706652457e-05
2.65350000000000e+01 1.62562736421704e-03 2.75694932178471e-05
2.66592857142857e+01 1.59914328388176e-03 2.71837819218368e-05
2.67835714285714e+01 1.57309067175956e-03 2.68031756124419e-05
2.69078571428571e+01 1.54746249853978e-03 2.64276137138052e-05
2.70321428571429e+01 1.52225184943054e-03 2.60570361608397e-05
2.71564285714286e+01 1.49745192229294e-03 2.56913834266018e-05
2.72807142857143e+01 1.47305602580597e-03 2.53305965227907e-05
2.74050000000000e+01 1.44905757766099e-03 2.49746170219266e-05
2.75292857142857e+01 1.42545010270085e-03 2.46233869910500e-05
2.76535714285714e+01 1.40222723143079e-03 2.42768490361503e-05
2.77778571428571e+01 1.37938269803857e-03 2.39349463477571e-05
2.79021428571429e+01 1.35691033879211e-03 2.35976226310473e-05
2.80264285714286e+01 1.33480409037637e-03 2.32648221285404e-05
2.81507142857143e+01 1.31305798825752e-03 2.29364896192429e-05
2.82750000000000e+01 1.29166616507360e-03 2.26125704368513e-05
2.83992857142857e+01 1.27062284897804e-03 2.22930104103397e-05
2.85235714285714e+01 1.24992236230525e-03 2.19777559017386e-05
2.86478571428571e+01 1.22955911981296e-03 2.16667538449687e-05
2.87721428571429e+01 1.20952762725148e-03 2.13599516833567e-05
2.88964285714286e+01 1.18982247988122e-03 2.10572973884219e-05
2.90207142857143e+01 1.17043836101454e-03 2.07587394580253e-05
2.91450000000000e+01 1.15137004058123e-03 2.04642269312738e-05
2.92692857142857e+01 1.13261237365385e-03 2.01737093353024e-05
2.93935714285714e+01 1.11416029925237e-03 1.98871367174116e-05
2.95178571428571e+01 1.09600883878344e-03 1.96044596781556e-05
2.96421428571429e+01 1.07815309476297e-03 1.93256293154959e-05
2.97664285714286e+01 1.06058824949475e-03 1.90505972403307e-05
2.98907142857143e+01 1.04330956377061e-03 1.87793155739246e-05
3.00150000000000e+01 1.02631237559172e-03 1.85117369600764e-05
3.01392857142857e+01 1.00959209885579e-03 1.82478145174710e-05
3.02635714285714e+01 9.93144222286495e-04 1.79875018670199e-05
3.03878571428571e+01 9.76964308047374e-04 1.77307531600628e-05
3.05121428571429e+01 9.61047990601442e-04 1.74775230284645e-05
3.06364285714286e+01 9.45390975533289e-04 1.72277665974266e-05
3.07607142857143e+01 9.29989038390487e-04 1.69814394824193e-05
3.08850000000000e+01 9.14838023543729e-04 1.67384977990776e-05
3.10092857142857e+01 8.99933843018009e-04 1.64988981205534e-05
3.11335714285714e+01 8.85272475534176e-04 1.62625975007802e-05
3.12578571428571e+01 8.70849965277575e-04 1.60295534985091e-05
3.13821428571429e+01 8.56662420880134e-04 1.57997241327284e-05
3.15064285714286e+01 8.42706014370385e-04 1.55730678932074e-05
3.16307142857143e+01 8.28976980140712e-04 1.53495437371001e-05
3.17550000000000e+01 8.15471613931299e-04 1.51291110969601e-05
3.18792857142857e+01 8.02186271789424e-04 1.49117298425795e-05
3.20035714285714e+01 7.89117369211590e-04 1.46973603007829e-05
3.21278571428571e+01 7.76261380049487e-04 1.44859632759156e-05
3.22521428571429e+01 7.63614835601431e-04 1.42775000100245e-05
3.23764285714286e+01 7.51174323676433e-04 1.40719321915093e-05
3.25007142857143e+01 7.38936487673616e-04 1.38692219515316e-05
3.26250000000000e+01 7.26898025676528e-04 1.36693318704751e-05
3.27492857142857e+01 7.15055689526448e-04 1.34722249438044e-05
3.28735714285714e+01 7.03406284054722e-04 1.32778645989057e-05
3.29978571428571e+01 6.91946666110572e-04 1.30862147125490e-05
3.31221428571429e+01 6.80673743750201e-04 1.28972395753258e-05
3.32464285714286e+01 6.69584475402521e-04 1.27109038987241e-05
3.33707142857143e+01 6.58675869048553e-04 1.25271728114471e-05
3.34950000000000e+01 6.47944981414122e-04 1.23460118645849e-05
3.36192857142857e+01 6.37388917144635e-04 1.21673870010794e-05
3.37435714285714e+01 6.27004828118291e-04 1.19912645700465e-05
3.38678571428571e+01 6.16789912582032e-04 1.18176113416577e-05
3.39921428571429e+01 6.06741414427860e-04 1.16463944753841e-05
3.41164285714286e+01 5.96856622449188e-04 1.14775815257569e-05
3.42407142857143e+01 5.87132869609365e-04 1.13111404386768e-05
3.43650000000000e+01 5.77567532322056e-04 1.11470395555212e-05
3.44892857142857e+01 5.68158029716358e-04 1.09852475858378e-05
3.46135714285714e+01 5.58901823022474e-04 1.08257336195229e-05
3.47378571428571e+01 5.49796414803674e-04 1.06684671394995e-05
3.48621428571429e+01 5.40839348310486e-04 1.05134179933626e-05
3.49864285714286e+01 5.32028206817819e-04 1.03605563980476e-05
3.51107142857143e+01 5.23360612972940e-04 1.02098529361878e-05
3.52350000000000e+01 5.14834228154012e-04 1.00612785593464e-05
3.53592857142857e+01 5.06446751815629e-04 9.91480456360067e-06
3.54835714285714e+01 4.98195920939408e-04 9.77040259989099e-06
3.56078571428571e+01 4.90079509351203e-04 9.62804468482135e-06
3.57321428571429e+01 4.82095327144822e-04 9.48770317534069e-06
3.58564285714286e+01 4.74241220091151e-04 9.34935077250536e-06
3.59807142857143e+01 4.66515069056950e-04 9.21296051792962e-06
3.61050000000000e+01 4.58914789433063e-04 9.07850579629705e-06
3.62292857142857e+01 4.51438330551544e-04 8.94596031353249e-06
3.63535714285714e+01 4.44083675194392e-04 8.81529810559307e-06
3.64778571428571e+01 4.36848838986481e-04 8.68649354766353e-06
3.66021428571429e+01 4.29731869881342e-04 8.55952133155188e-06
3.67264285714286e+01 4.22730847634472e-04 8.43435646869809e-06
3.68507142857143e+01 4.15843883285248e-04 8.31097428675215e-06
3.69750000000000e+01 4.09069118647255e-04 8.18935043149340e-06
3.70992857142857e+01 4.02404725789140e-04 8.06946084731821e-06
3.72235714285714e+01 3.95848906595413e-04 7.95128178470354e-06
3.73478571428571e+01 3.89399892226626e-04 7.83478980803142e-06
3.74721428571429e+01 3.83055942660569e-04 7.71996177540861e-06
3.75964285714286e+01 3.76815346222779e-04 7.60677484105191e-06
3.77207142857143e+01 3.70676419124736e-04 7.49520645201476e-06
3.78450000000000e+01 3.64637505009538e-04 7.38523434962411e-06
3.79692857142857e+01 3.58696974489518e-04 7.27683655203971e-06
3.80935714285714e+01 3.52853224753633e-04 7.16999136058526e-06
3.82178571428571e+01 3.47104679087408e-04 7.06467736640247e-06
3.83421428571429e+01 3.41449786463577e-04 6.96087343243606e-06
3.84664285714286e+01 3.35887021123594e-04 6.85855869530473e-06
3.85907142857143e+01 3.30414882165982e-04 6.75771256218969e-06
3.87150000000000e+01 3.25031893141362e-04 6.65831471187973e-06
3.88392857142857e+01 3.19736601640596e-04 6.56034507918318e-06
3.89635714285714e+01 3.14527578943881e-04 6.46378386029410e-06
3.90878571428571e+01 3.09403419593789e-04 6.36861151844744e-06
3.92121428571429e+01 3.04362741030050e-04 6.27480876783702e-06
