Energy (eV)          EEDF (eV^-(3/2))     First Anisotropy
2.89534883720930e-02 5.80259489677000e-02 3.31584819523556e-05
8.68604651162791e-02 5.75618981652417e-02 5.47190908332538e-05
1.44767441860465e-01 5.71015585165119e-02 7.21427725055743e-05
2.02674418604651e-01 5.66449003401819e-02 8.53234379949923e-05
2.60581395348837e-01 5.61918941948043e-02 9.62698296614197e-05
3.18488372093023e-01 5.57425108740920e-02 1.05742680774164e-04
3.76395348837209e-01 5.52967214067231e-02 1.14136288569017e-04
4.34302325581395e-01 5.48544970502248e-02 1.21689121375492e-04
4.92209302325581e-01 5.44158092934124e-02 1.28559573859941e-04
5.50116279069767e-01 5.39806298530726e-02 1.34859763427560e-04
6.08023255813953e-01 5.35489306729562e-02 1.40672808521037e-04
6.65930232558140e-01 5.31206839196196e-02 1.46062542469552e-04
7.23837209302326e-01 5.26958619830037e-02 1.51079373461961e-04
7.81744186046512e-01 5.22744374738434e-02 1.55764018188145e-04
8.39651162790698e-01 5.18563832224414e-02 1.60149986653230e-04
8.97558139534884e-01 5.14416722753168e-02 1.64265295907376e-04
9.55465116279070e-01 5.10302778950826e-02 1.68133687886812e-04
1.01337209302326e+00 5.06221735581746e-02 1.71775517248340e-04
1.07127906976744e+00 5.02173329539098e-02 1.75208413052969e-04
1.12918604651163e+00 4.98157299793610e-02 1.78447780122584e-04
1.18709302325581e+00 4.94173387457660e-02 1.81507187692977e-04
1.24500000000000e+00 4.90221335644661e-02 1.84398672885342e-04
1.30290697674419e+00 4.86300889557304e-02 1.87132980842384e-04
1.36081395348837e+00 4.82411796435917e-02 1.89719759260190e-04
1.41872093023256e+00 4.78553805570576e-02 1.92167716329294e-04
1.47662790697674e+00 4.74726668198926e-02 1.94484748994934e-04
1.53453488372093e+00 4.70930137576917e-02 1.96678048591599e-04
1.59244186046512e+00 4.67163968958321e-02 1.98754191813056e-04
1.65034883720930e+00 4.63427919504694e-02 2.00719214450872e-04
1.70825581395349e+00 4.59721748344497e-02 2.02578673660185e-04
1.76616279069767e+00 4.56045216554020e-02 2.04337703633160e-04
1.82406976744186e+00 4.52398087077003e-02 2.06001060775794e-04
1.88197674418605e+00 4.48780124774689e-02 2.07573162514846e-04
1.93988372093023e+00 4.45191096407845e-02 2.09058123363919e-04
1.99779069767442e+00 4.41630770564256e-02 2.10459783954322e-04
2.05569767441860e+00 4.38098917701527e-02 2.11781736315742e-04
2.11360465116279e+00 4.34595310130002e-02 2.13027348369153e-04
2.17151162790698e+00 4.31119721946798e-02 2.14199783311393e-04
2.22941860465116e+00 4.27671929072706e-02 2.15302016683249e-04
2.28732558139535e+00 4.24251709235856e-02 2.16336853681938e-04
2.34523255813953e+00 4.20858841911290e-02 2.17306942515321e-04
2.40313953488372e+00 4.17493108352966e-02 2.18214786266585e-04
2.46104651162791e+00 4.14154291578083e-02 2.19062755561141e-04
2.51895348837209e+00 4.10842176311389e-02 2.19853098005706e-04
2.57686046511628e+00 4.07556549013086e-02 2.20587946636451e-04
2.63476744186047e+00 4.04297197863735e-02 2.21269329470872e-04
2.69267441860465e+00 4.01063912712663e-02 2.21899176321846e-04
2.75058139534884e+00 3.97856485102430e-02 2.22479324934345e-04
2.80848837209302e+00 3.94674708254203e-02 2.23011528382496e-04
2.86639534883721e+00 3.91518377019781e-02 2.23497460074575e-04
2.92430232558140e+00 3.88387287903122e-02 2.23938718284922e-04
2.98220930232558e+00 3.85281239046141e-02 2.24336832018986e-04
3.04011627906977e+00 3.82200030183945e-02 2.24693264742346e-04
3.09802325581395e+00 3.79143462663802e-02 2.25009417772776e-04
3.15593023255814e+00 3.76111339431356e-02 2.25286635029421e-04
3.21383720930233e+00 3.73103464988707e-02 2.25526205843263e-04
3.27174418604651e+00 3.70119645411156e-02 2.25729367523570e-04
3.32965116279070e+00 3.67159688333828e-02 2.25897309276383e-04
3.38755813953488e+00 3.64223402912279e-02 2.26031174341846e-04
3.44546511627907e+00 3.61310599837320e-02 2.26132061952382e-04
3.50337209302326e+00 3.58421091322004e-02 2.26201030620457e-04
3.56127906976744e+00 3.55554691064531e-02 2.26239099774798e-04
3.61918604651163e+00 3.52711214261368e-02 2.26247251263647e-04
3.67709302325581e+00 3.49890477594595e-02 2.26226432154902e-04
3.73500000000000e+00 3.47092299196885e-02 2.26177555994196e-04
3.79290697674419e+00 3.44316498663126e-02 2.26101504108425e-04
3.85081395348837e+00 3.41562897030955e-02 2.25999127441366e-04
3.90872093023256e+00 3.38831316776288e-02 2.25871248249188e-04
3.96662790697674e+00 3.36121581780541e-02 2.25718661140041e-04
4.02453488372093e+00 3.33433517340742e-02 2.25542133888873e-04
4.08244186046512e+00 3.30766950157666e-02 2.25342409469768e-04
4.14034883720930e+00 3.28121708304753e-02 2.25120206735618e-04
4.19825581395349e+00 3.25497621237047e-02 2.24876221044321e-04
4.25616279069767e+00 3.22894519779661e-02 2.24611126059105e-04
4.31406976744186e+00 3.20312236098253e-02 2.24325574268760e-04
4.37197674418605e+00 3.17750603706922e-02 2.24020197466017e-04
4.42988372093023e+00 3.15209457456987e-02 2.23695608356823e-04
4.48779069767442e+00 3.12688633508899e-02 2.23352400955096e-04
4.54569767441860e+00 3.10187969339203e-02 2.22991150944322e-04
4.60360465116279e+00 3.07707303729624e-02 2.22612417127642e-04
4.66151162790698e+00 3.05246476740302e-02 2.22216741723143e-04
4.71941860465116e+00 3.02805329715923e-02 2.21804650632670e-04
4.77732558139535e+00 3.00383705275092e-02 2.21376654757830e-04
4.83523255813954e+00 2.97981447284803e-02 2.20933250215931e-04
4.89313953488372e+00 2.95598400865817e-02 2.20474918534657e-04
4.95104651162791e+00 2.93234412382321e-02 2.20002127854017e-04
5.00895348837209e+00 2.90889329417538e-02 2.19515333078681e-04
5.06686046511628e+00 2.88563000778434e-02 2.19014976013121e-04
5.12476744186046e+00 2.86255276485645e-02 2.18501486465618e-04
5.18267441860465e+00 2.83966007750157e-02 2.17975282349303e-04
5.24058139534884e+00 2.81695046977413e-02 2.17436769769525e-04
5.29848837209302e+00 2.79442247757484e-02 2.16886344042941e-04
5.35639534883721e+00 2.77207464842762e-02 2.16324389756990e-04
5.41430232558139e+00 2.74990554151520e-02 2.15751280818820e-04
5.47220930232558e+00 2.72791372758324e-02 2.15167381400188e-04
5.53011627906977e+00 2.70609778872674e-02 2.14573045963260e-04
5.58802325581395e+00 2.68445631842063e-02 2.13968619278427e-04
5.64593023255814e+00 2.66298792142633e-02 2.13354437303959e-04
5.70383720930233e+00 2.64169121358698e-02 2.12730827184475e-04
5.76174418604651e+00 2.62056482185354e-02 2.12098107243600e-04
5.81965116279070e+00 2.59960738419372e-02 2.11456587805701e-04
5.87755813953488e+00 2.57881754939543e-02 2.10806571172311e-04
5.93546511627907e+00 2.55819397708895e-02 2.10148351594376e-04
5.99337209302326e+00 2.53773533765802e-02 2.09482216042330e-04
6.05127906976744e+00 2.51744031205116e-02 2.08808444164666e-04
6.10918604651163e+00 2.49730759180018e-02 2.08127308243680e-04
6.16709302325581e+00 2.47733587893339e-02 2.07439073919226e-04
6.22500000000000e+00 2.45752388579443e-02 2.06744000132794e-04
6.28290697674419e+00 2.43787033505732e-02 2.06042339149907e-04
6.34081395348837e+00 2.41837395961126e-02 2.05334336921797e-04
6.39872093023256e+00 2.39903350250920e-02 2.04620233418005e-04
6.45662790697674e+00 2.37984771679534e-02 2.03900262639047e-04
6.51453488372093e+00 2.36081536551675e-02 2.03174652543443e-04
6.57244186046512e+00 2.34193522164159e-02 2.02443625682934e-04
6.63034883720930e+00 2.32320606789309e-02 2.01707399121815e-04
6.68825581395349e+00 2.30462669675842e-02 2.00966184355922e-04
6.74616279069767e+00 2.28619591040903e-02 2.00220187914142e-04
6.80406976744186e+00 2.26791252054072e-02 1.99469611271237e-04
6.86197674418605e+00 2.24977534838012e-02 1.98714650760558e-04
6.91988372093023e+00 2.23178322460692e-02 1.97955498144617e-04
6.97779069767442e+00 2.21393498919990e-02 1.97192340522849e-04
7.03569767441860e+00 2.19622949144111e-02 1.96425360239482e-04
7.09360465116279e+00 2.17866558984006e-02 1.95654735425649e-04
7.15151162790698e+00 2.16124215198528e-02 1.94880639903304e-04
7.20941860465116e+00 2.14395805454652e-02 1.94103243089439e-04
7.26732558139535e+00 2.12681218320077e-02 1.93322710511880e-04
7.32523255813953e+00 2.10980343248917e-02 1.92539203710385e-04
7.38313953488372e+00 2.09293070581730e-02 1.91752880138159e-04
7.44104651162791e+00 2.07619291538308e-02 1.90963893653302e-04
7.49895348837209e+00 2.05958898203872e-02 1.90172394417971e-04
7.55686046511628e+00 2.04311783528934e-02 1.89378528797945e-04
7.61476744186047e+00 2.02677841322260e-02 1.88582439831476e-04
7.67267441860465e+00 2.01056966237552e-02 1.87784267127145e-04
7.73058139534884e+00 1.99449053773156e-02 1.86984146762261e-04
7.78848837209302e+00 1.97854000265199e-02 1.86182211730656e-04
7.84639534883721e+00 1.96271702874728e-02 1.85378591839724e-04
7.90430232558140e+00 1.94702059587285e-02 1.84573413608315e-04
7.96220930232558e+00 1.93144969206206e-02 1.83766800694797e-04
8.02011627906977e+00 1.91600331340206e-02 1.82958873793792e-04
8.07802325581395e+00 1.90068046402825e-02 1.82149750534055e-04
8.13593023255814e+00 1.88548015605892e-02 1.81339545888051e-04
8.19383720930233e+00 1.87040140947529e-02 1.80528372068796e-04
8.25174418604651e+00 1.85544325211487e-02 1.79716338428061e-04
8.30965116279070e+00 1.84060471960767e-02 1.78903551848630e-04
8.36755813953488e+00 1.82588485526027e-02 1.78090116641632e-04
8.42546511627907e+00 1.81128271004817e-02 1.77276134445361e-04
8.48337209302326e+00 1.79679734255353e-02 1.76461704601236e-04
8.54127906976744e+00 1.78242781885310e-02 1.75646924051901e-04
8.59918604651163e+00 1.76817321250969e-02 1.74831887240947e-04
8.65709302325581e+00 1.75403260451134e-02 1.74016686473527e-04
8.71500000000000e+00 1.74000508316303e-02 1.73201411815438e-04
8.77290697674418e+00 1.72608974407725e-02 1.72386151041880e-04
8.83081395348837e+00 1.71228569009914e-02 1.71570989791564e-04
8.88872093023256e+00 1.69859203126409e-02 1.70756011706899e-04
8.94662790697674e+00 1.68500788469380e-02 1.69941298384798e-04
9.00453488372093e+00 1.67153237458617e-02 1.69126929278523e-04
9.06244186046512e+00 1.65816463215791e-02 1.68312982027098e-04
9.12034883720930e+00 1.64490379554401e-02 1.67499532356862e-04
9.17825581395349e+00 1.63174900978692e-02 1.66686653984752e-04
9.23616279069767e+00 1.61869942678058e-02 1.65874418934900e-04
9.29406976744186e+00 1.60575420517310e-02 1.65062897441820e-04
9.35197674418605e+00 1.59291251035538e-02 1.64252157855236e-04
9.40988372093023e+00 1.58017351440647e-02 1.63442266944542e-04
9.46779069767442e+00 1.56753639599938e-02 1.62633289803704e-04
9.52569767441860e+00 1.55500034038914e-02 1.61825289757730e-04
9.58360465116279e+00 1.54256453935951e-02 1.61018328655599e-04
9.64151162790698e+00 1.53022819113177e-02 1.60212466776955e-04
9.69941860465116e+00 1.51799050035231e-02 1.59407762740265e-04
9.75732558139535e+00 1.50585067804065e-02 1.58604273784788e-04
9.81523255813953e+00 1.49380794150105e-02 1.57802055679145e-04
9.87313953488372e+00 1.48186151430975e-02 1.57001162631216e-04
9.93104651162791e+00 1.47001062626419e-02 1.56201647559654e-04
9.98895348837209e+00 1.45825451329745e-02 1.55403562080555e-04
1.00468604651163e+01 1.44659241744185e-02 1.54606956302048e-04
1.01047674418605e+01 1.43502358681527e-02 1.53811878601744e-04
1.01626744186047e+01 1.42354727566119e-02 1.53018376893839e-04
1.02205813953488e+01 1.41216274396064e-02 1.52226497826590e-04
1.02784883720930e+01 1.40086925772654e-02 1.51436286046209e-04
1.03363953488372e+01 1.38966608884178e-02 1.50647785013226e-04
1.03943023255814e+01 1.37855251511883e-02 1.49861037718150e-04
1.04522093023256e+01 1.36752781993137e-02 1.49076085988513e-04
1.05101162790698e+01 1.35659129249187e-02 1.48292969783699e-04
1.05680232558140e+01 1.34574222769711e-02 1.47511727974495e-04
1.06259302325581e+01 1.33497992618373e-02 1.46732399026682e-04
1.06838372093023e+01 1.32430369397855e-02 1.45955020337109e-04
1.07417441860465e+01 1.31371284276027e-02 1.45179627558063e-04
1.07996511627907e+01 1.30320668971215e-02 1.44406255668066e-04
1.08575581395349e+01 1.29278455747828e-02 1.43634938318004e-04
1.09154651162791e+01 1.28244577421418e-02 1.42865708828195e-04
1.09733720930233e+01 1.27218967325839e-02 1.42098599556417e-04
1.10312790697674e+01 1.26201559337629e-02 1.41333641254715e-04
1.10891860465116e+01 1.25192287862145e-02 1.40570863775741e-04
1.11470930232558e+01 1.24191087838273e-02 1.39810296692609e-04
1.12050000000000e+01 1.23197894707215e-02 1.39051968692994e-04
1.12629069767442e+01 1.22212644435510e-02 1.38295906962717e-04
1.13208139534884e+01 1.21235273501790e-02 1.37542137861028e-04
1.13787209302326e+01 1.20265718901178e-02 1.36790687513296e-04
1.14366279069767e+01 1.19303918115600e-02 1.36041581230250e-04
1.14945348837209e+01 1.18349809135535e-02 1.35294842917104e-04
1.15524418604651e+01 1.17403330447363e-02 1.34550495719293e-04
1.16103488372093e+01 1.16464421037460e-02 1.33808562589467e-04
1.16682558139535e+01 1.15533020363965e-02 1.33069065730726e-04
1.17261627906977e+01 1.14609068377324e-02 1.32332026029896e-04
1.17840697674419e+01 1.13692505508203e-02 1.31597463947839e-04
1.18419767441860e+01 1.12783272663674e-02 1.30865398970574e-04
1.18998837209302e+01 1.11881311230942e-02 1.30135850438932e-04
1.19577906976744e+01 1.10986563050769e-02 1.29408837018133e-04
1.20156976744186e+01 1.10098970436664e-02 1.28684376158223e-04
1.20736046511628e+01 1.09218476163472e-02 1.27962484680797e-04
1.21315116279070e+01 1.08345023470855e-02 1.27243179294501e-04
1.21894186046512e+01 1.07478556037992e-02 1.26526476086328e-04
1.22473255813953e+01 1.06619018001716e-02 1.25812390004149e-04
1.23052325581395e+01 1.05766353945613e-02 1.25100935418318e-04
1.23631395348837e+01 1.04920508903262e-02 1.24392126615211e-04
1.24210465116279e+01 1.04081428334138e-02 1.23685977309281e-04
1.24789534883721e+01 1.03249058140770e-02 1.22982500146712e-04
1.25368604651163e+01 1.02423344658314e-02 1.22281707480991e-04
1.25947674418605e+01 1.01604234651107e-02 1.21583610892099e-04
1.26526744186047e+01 1.00791675315625e-02 1.20888221909848e-04
1.27105813953488e+01 9.99856142577646e-03 1.20195551548888e-04
1.27684883720930e+01 9.91859995088928e-03 1.19505609835822e-04
1.28263953488372e+01 9.83927795159896e-03 1.18818406320302e-04
1.28843023255814e+01 9.76059031444019e-03 1.18133950524500e-04
1.29422093023256e+01 9.68253196561886e-03 1.17452251496971e-04
1.30001162790698e+01 9.60509787253174e-03 1.16773317358892e-04
1.30580232558140e+01 9.52828304282264e-03 1.16097155793690e-04
1.31159302325581e+01 9.45208252463927e-03 1.15423774477661e-04
1.31738372093023e+01 9.37649140456826e-03 1.14753180651858e-04
1.32317441860465e+01 9.30150480907456e-03 1.14085380686648e-04
1.32896511627907e+01 9.22711790359750e-03 1.13420380759037e-04
1.33475581395349e+01 9.15332589224052e-03 1.12758186430895e-04
1.34054651162791e+01 9.08012401800513e-03 1.12098803280762e-04
1.34633720930233e+01 9.00750756084223e-03 1.11442236495876e-04
1.35212790697674e+01 8.93547183899952e-03 1.10788490457138e-04
1.35791860465116e+01 8.86401220816647e-03 1.10137569185348e-04
1.36370930232558e+01 8.79312406169211e-03 1.09489476733915e-04
1.36950000000000e+01 8.72280282872558e-03 1.08844216797108e-04
1.37529069767442e+01 8.65304397549322e-03 1.08201792311689e-04
1.38108139534884e+01 8.58384300447921e-03 1.07562205884685e-04
1.38687209302326e+01 8.51519545462857e-03 1.06925460169865e-04
1.39266279069767e+01 8.44709689957234e-03 1.06291557491686e-04
1.39845348837209e+01 8.37954294883820e-03 1.05660499462821e-04
1.40424418604651e+01 8.31252924706529e-03 1.05032287394282e-04
1.41003488372093e+01 8.24605147419327e-03 1.04406922656465e-04
1.41582558139535e+01 8.18010534376777e-03 1.03784406318096e-04
1.42161627906977e+01 8.11468660408834e-03 1.03164738778859e-04
1.42740697674419e+01 8.04979103745607e-03 1.02547920338057e-04
1.43319767441860e+01 7.98541445990268e-03 1.01933950838601e-04
1.43898837209302e+01 7.92155272136216e-03 1.01322830197723e-04
1.44477906976744e+01 7.85820170406949e-03 1.00714558062611e-04
1.45056976744186e+01 7.79535732363677e-03 1.00109133460240e-04
1.45636046511628e+01 7.73301552834022e-03 9.95065551717725e-05
1.46215116279070e+01 7.67117229928001e-03 9.89068220623269e-05
1.46794186046512e+01 7.60982364885039e-03 9.83099327502533e-05
1.47373255813953e+01 7.54896562176086e-03 9.77158852708138e-05
1.47952325581395e+01 7.48859429435227e-03 9.71246774353474e-05
1.48531395348837e+01 7.42870577474552e-03 9.65363071476627e-05
1.49110465116279e+01 7.36929620137973e-03 9.59507720863763e-05
1.49689534883721e+01 7.31036174398131e-03 9.53680693818534e-05
1.50268604651163e+01 7.25189860290795e-03 9.47881961147084e-05
1.50847674418605e+01 7.19390300890472e-03 9.42111490026631e-05
1.51426744186047e+01 7.13637122323867e-03 9.36369248660475e-05
1.52005813953488e+01 7.07929953631623e-03 9.30655203247542e-05
1.52584883720930e+01 7.02268426859238e-03 9.24969314901267e-05
1.53163953488372e+01 6.96652176994866e-03 9.19311542931799e-05
1.53743023255814e+01 6.91080841981842e-03 9.13681847738633e-05
1.54322093023256e+01 6.85554062586477e-03 9.08080187899181e-05
1.54901162790698e+01 6.80071482484398e-03 9.02506517208224e-05
1.55480232558140e+01 6.74632748200854e-03 8.96960787828362e-05
1.56059302325581e+01 6.69237509122344e-03 8.91442953066647e-05
1.56638372093023e+01 6.63885417370197e-03 8.85952964576954e-05
1.57217441860465e+01 6.58576127882570e-03 8.80490769515413e-05
1.57796511627907e+01 6.53309298357144e-03 8.75056314917552e-05
1.58375581395349e+01 6.48084589229131e-03 8.69649544940912e-05
1.58954651162791e+01 6.42901663681798e-03 8.64270404953118e-05
1.59533720930233e+01 6.37760187526780e-03 8.58918838862900e-05
1.60112790697674e+01 6.32659829281078e-03 8.53594786405884e-05
1.60691860465116e+01 6.27600260112682e-03 8.48298186026293e-05
1.61270930232558e+01 6.22581153850325e-03 8.43028977417789e-05
1.61850000000000e+01 6.17602186868969e-03 8.37787098957915e-05
1.62429069767442e+01 6.12663038162971e-03 8.32572485099444e-05
1.63008139534884e+01 6.07763389293862e-03 8.27385069137443e-05
1.63587209302326e+01 6.02902924399390e-03 8.22224785649413e-05
1.64166279069767e+01 5.98081330083937e-03 8.17091568029267e-05
1.64745348837209e+01 5.93298295488051e-03 8.11985345979831e-05
1.65324418604651e+01 5.88553512238292e-03 8.06906048170241e-05
1.65903488372093e+01 5.83846674455608e-03 8.01853604579531e-05
1.66482558139535e+01 5.79177478650446e-03 7.96827944126197e-05
1.67061627906977e+01 5.74545623788846e-03 7.91828992257290e-05
1.67640697674419e+01 5.69950811244275e-03 7.86856674646370e-05
1.68219767441860e+01 5.65392744778429e-03 7.81910914855403e-05
1.68798837209302e+01 5.60871130548763e-03 7.76991637789766e-05
1.69377906976744e+01 5.56385677009098e-03 7.72098767435494e-05
1.69956976744186e+01 5.51936094971743e-03 7.67232224558469e-05
1.70536046511628e+01 5.47522097561733e-03 7.62391929137766e-05
1.71115116279070e+01 5.43143400223788e-03 7.57577802512639e-05
1.71694186046512e+01 5.38799720627137e-03 7.52789765206707e-05
1.72273255813953e+01 5.34490778724592e-03 7.48027734715844e-05
1.72852325581395e+01 5.30216296708577e-03 7.43291627845990e-05
1.73431395348837e+01 5.25975999017549e-03 7.38581362775934e-05
1.74010465116279e+01 5.21769612244848e-03 7.33896856965142e-05
1.74589534883721e+01 5.17596865194883e-03 7.29238025026563e-05
1.75168604651163e+01 5.13457488840867e-03 7.24604781982153e-05
1.75747674418605e+01 5.09351216307526e-03 7.19997041199857e-05
1.76326744186047e+01 5.05277782876849e-03 7.15414717436362e-05
1.76905813953488e+01 5.01236925901649e-03 7.10857724839434e-05
1.77484883720930e+01 4.97228384858405e-03 7.06325974917320e-05
1.78063953488372e+01 4.93251901307091e-03 7.01819378680868e-05
1.78643023255814e+01 4.89307218896473e-03 6.97337848534375e-05
1.79222093023256e+01 4.85394083281281e-03 6.92881296354612e-05
1.79801162790698e+01 4.81512242172497e-03 6.88449631537464e-05
1.80380232558140e+01 4.77661445298727e-03 6.84042763056800e-05
1.80959302325581e+01 4.73841444411074e-03 6.79660601281940e-05
1.81538372093023e+01 4.70051993203768e-03 6.75303056129715e-05
1.82117441860465e+01 4.66292847362020e-03 6.70970035185790e-05
1.82696511627907e+01 4.62563764524879e-03 6.66661446573999e-05
