Energy (eV)          EEDF (eV^-(3/2))     First Anisotropy
8.25000000000000e-03 4.25255118980494e-01 2.50655264579331e-04
2.47500000000000e-02 4.21599265284083e-01 4.13514108033530e-04
4.12500000000000e-02 4.17974840406577e-01 5.44855986530343e-04
5.77500000000000e-02 4.14381574159417e-01 6.44013075038953e-04
7.42500000000000e-02 4.10819198676634e-01 7.26196215902531e-04
9.07500000000000e-02 4.07287448395030e-01 7.97171080005558e-04
1.07250000000000e-01 4.03786060034407e-01 8.59928623446355e-04
1.23750000000000e-01 4.00314772577942e-01 9.16279255356253e-04
1.40250000000000e-01 3.96873327252736e-01 9.67426463265920e-04
1.56750000000000e-01 3.93461467510517e-01 1.01422280750106e-03
1.73250000000000e-01 3.90078939008520e-01 1.05730084072313e-03
1.89750000000000e-01 3.86725489590528e-01 1.09714673598827e-03
2.06250000000000e-01 3.83400869268069e-01 1.13414471823283e-03
2.22750000000000e-01 3.80104830201787e-01 1.16860538088416e-03
2.39250000000000e-01 3.76837126682962e-01 1.20078453715454e-03
2.55750000000000e-01 3.73597515115194e-01 1.23089622674164e-03
2.72250000000000e-01 3.70385753996245e-01 1.25912196207600e-03
2.88750000000000e-01 3.67201603900035e-01 1.28561747013672e-03
3.05250000000000e-01 3.64044827458793e-01 1.31051771660168e-03
3.21750000000000e-01 3.60915189345363e-01 1.33394072169522e-03
3.38250000000000e-01 3.57812456255661e-01 1.35599050705110e-03
3.54750000000000e-01 3.54736396891284e-01 1.37675940534107e-03
3.71250000000000e-01 3.51686781942263e-01 1.39632989447486e-03
3.87750000000000e-01 3.48663384069975e-01 1.41477607157555e-03
4.04250000000000e-01 3.45665977890191e-01 1.43216485020288e-03
4.20750000000000e-01 3.42694339956277e-01 1.44855694226936e-03
4.37250000000000e-01 3.39748248742536e-01 1.46400767052904e-03
4.53750000000000e-01 3.36827484627691e-01 1.47856764634520e-03
4.70250000000000e-01 3.33931829878520e-01 1.49228333930597e-03
4.86750000000000e-01 3.31061068633618e-01 1.50519755925016e-03
5.03250000000000e-01 3.28214986887307e-01 1.51734986677758e-03
5.19750000000000e-01 3.25393372473685e-01 1.52877692492696e-03
5.36250000000000e-01 3.22596015050808e-01 1.53951280211673e-03
5.52750000000000e-01 3.19822706085008e-01 1.54958923444620e-03
5.69250000000000e-01 3.17073238835351e-01 1.55903585390415e-03
5.85750000000000e-01 3.14347408338224e-01 1.56788038781309e-03
6.02250000000000e-01 3.11645011392052e-01 1.57614883387425e-03
6.18750000000000e-01 3.08965846542156e-01 1.58386561441254e-03
6.35250000000000e-01 3.06309714065732e-01 1.59105371280525e-03
6.51750000000000e-01 3.03676415956962e-01 1.59773479458210e-03
6.68250000000000e-01 3.01065755912252e-01 1.60392931528089e-03
6.84750000000000e-01 2.98477539315605e-01 1.60965661681409e-03
7.01250000000000e-01 2.95911573224103e-01 1.61493501383139e-03
7.17750000000000e-01 2.93367666353532e-01 1.61978187133928e-03
7.34250000000000e-01 2.90845629064119e-01 1.62421367465405e-03
7.50750000000000e-01 2.88345273346394e-01 1.62824609261044e-03
7.67250000000000e-01 2.85866412807178e-01 1.63189403481790e-03
7.83750000000000e-01 2.83408862655684e-01 1.63517170364875e-03
8.00250000000000e-01 2.80972439689745e-01 1.63809264155007e-03
8.16750000000000e-01 2.78556962282153e-01 1.64066977419390e-03
8.33250000000000e-01 2.76162250367123e-01 1.64291544991357e-03
8.49750000000000e-01 2.73788125426868e-01 1.64484147581779e-03
8.66250000000000e-01 2.71434410478292e-01 1.64645915092619e-03
8.82750000000000e-01 2.69100930059795e-01 1.64777929662744e-03
8.99250000000000e-01 2.66787510218193e-01 1.64881228472604e-03
9.15750000000000e-01 2.64493978495753e-01 1.64956806331276e-03
9.32250000000000e-01 2.62220163917333e-01 1.65005618066668e-03
9.48750000000000e-01 2.59965896977640e-01 1.65028580737294e-03
9.65250000000000e-01 2.57731009628592e-01 1.65026575682115e-03
9.81750000000000e-01 2.55515335266789e-01 1.65000450423076e-03
9.98250000000000e-01 2.53318708721097e-01 1.64951020433391e-03
1.01475000000000e+00 2.51140966240333e-01 1.64879070783317e-03
1.03125000000000e+00 2.48981945481057e-01 1.64785357673933e-03
1.04775000000000e+00 2.46841485495473e-01 1.64670609868363e-03
1.06425000000000e+00 2.44719426719426e-01 1.64535530028926e-03
1.08075000000000e+00 2.42615610960513e-01 1.64380795967933e-03
1.09725000000000e+00 2.40529881386283e-01 1.64207061819032e-03
1.11375000000000e+00 2.38462082512554e-01 1.64014959135382e-03
1.13025000000000e+00 2.36412060191815e-01 1.63805097920317e-03
1.14675000000000e+00 2.34379661601739e-01 1.63578067595722e-03
1.16325000000000e+00 2.32364735233789e-01 1.63334437912768e-03
1.17975000000000e+00 2.30367130881924e-01 1.63074759809314e-03
1.19625000000000e+00 2.28386699631402e-01 1.62799566217862e-03
1.21275000000000e+00 2.26423293847677e-01 1.62509372827597e-03
1.22925000000000e+00 2.24476767165396e-01 1.62204678803827e-03
1.24575000000000e+00 2.22546974477487e-01 1.61885967467779e-03
1.26225000000000e+00 2.20633771924340e-01 1.61553706939463e-03
1.27875000000000e+00 2.18737016883085e-01 1.61208350746134e-03
1.29525000000000e+00 2.16856567956960e-01 1.60850338398684e-03
1.31175000000000e+00 2.14992284964769e-01 1.60480095938028e-03
1.32825000000000e+00 2.13144028930432e-01 1.60098036453471e-03
1.34475000000000e+00 2.11311662072625e-01 1.59704560574904e-03
1.36125000000000e+00 2.09495047794510e-01 1.59300056940407e-03
1.37775000000000e+00 2.07694050673551e-01 1.58884902640829e-03
1.39425000000000e+00 2.05908536451419e-01 1.58459463642813e-03
1.41075000000000e+00 2.04138372023982e-01 1.58024095191539e-03
1.42725000000000e+00 2.02383425431387e-01 1.57579142194388e-03
1.44375000000000e+00 2.00643565848218e-01 1.57124939586741e-03
1.46025000000000e+00 1.98918663573745e-01 1.56661812680883e-03
1.47675000000000e+00 1.97208590022256e-01 1.56190077499005e-03
1.49325000000000e+00 1.95513217713471e-01 1.55710041091274e-03
1.50975000000000e+00 1.93832420263037e-01 1.55222001839756e-03
1.52625000000000e+00 1.92166072373111e-01 1.54726249748989e-03
1.54275000000000e+00 1.90514049823015e-01 1.54223066723995e-03
1.55925000000000e+00 1.88876229459977e-01 1.53712726836342e-03
1.57575000000000e+00 1.87252489189950e-01 1.53195496578976e-03
1.59225000000000e+00 1.85642707968514e-01 1.52671635110354e-03
1.60875000000000e+00 1.84046765791846e-01 1.52141394488503e-03
1.62525000000000e+00 1.82464543687779e-01 1.51605019895492e-03
1.64175000000000e+00 1.80895923706932e-01 1.51062749852818e-03
1.65825000000000e+00 1.79340788913918e-01 1.50514816428189e-03
1.67475000000000e+00 1.77799023378623e-01 1.49961445434108e-03
1.69125000000000e+00 1.76270512167568e-01 1.49402856618690e-03
1.70775000000000e+00 1.74755141335341e-01 1.48839263849098e-03
1.72425000000000e+00 1.73252797916099e-01 1.48270875287939e-03
1.74075000000000e+00 1.71763369915151e-01 1.47697893562959e-03
1.75725000000000e+00 1.70286746300607e-01 1.47120515930368e-03
1.77375000000000e+00 1.68822816995100e-01 1.46538934432136e-03
1.79025000000000e+00 1.67371472867583e-01 1.45953336047455e-03
1.80675000000000e+00 1.65932605725191e-01 1.45363902838720e-03
1.82325000000000e+00 1.64506108305178e-01 1.44770812092219e-03
1.83975000000000e+00 1.63091874266918e-01 1.44174236453803e-03
1.85625000000000e+00 1.61689798183980e-01 1.43574344059773e-03
1.87275000000000e+00 1.60299775536268e-01 1.42971298663168e-03
1.88925000000000e+00 1.58921702702229e-01 1.42365259755677e-03
1.90575000000000e+00 1.57555476951130e-01 1.41756382685342e-03
1.92225000000000e+00 1.56200996435396e-01 1.41144818770281e-03
1.93875000000000e+00 1.54858160183022e-01 1.40530715408537e-03
1.95525000000000e+00 1.53526868090045e-01 1.39914216184277e-03
1.97175000000000e+00 1.52207020913078e-01 1.39295460970460e-03
1.98825000000000e+00 1.50898520261916e-01 1.38674586028104e-03
2.00475000000000e+00 1.49601268592200e-01 1.38051724102355e-03
2.02125000000000e+00 1.48315169198143e-01 1.37427004515445e-03
2.03775000000000e+00 1.47040126205325e-01 1.36800553256648e-03
2.05425000000000e+00 1.45776044563542e-01 1.36172493069390e-03
2.07075000000000e+00 1.44522830039725e-01 1.35542943535611e-03
2.08725000000000e+00 1.43280389210910e-01 1.34912021157493e-03
2.10375000000000e+00 1.42048629457276e-01 1.34279839436652e-03
2.12025000000000e+00 1.40827458955243e-01 1.33646508950892e-03
2.13675000000000e+00 1.39616786670620e-01 1.33012137428605e-03
2.15325000000000e+00 1.38416522351828e-01 1.32376829820924e-03
2.16975000000000e+00 1.37226576523164e-01 1.31740688371731e-03
2.18625000000000e+00 1.36046860478134e-01 1.31103812685524e-03
2.20275000000000e+00 1.34877286272843e-01 1.30466299793318e-03
2.21925000000000e+00 1.33717766719433e-01 1.29828244216599e-03
2.23575000000000e+00 1.32568215379589e-01 1.29189738029385e-03
2.25225000000000e+00 1.31428546558092e-01 1.28550870918528e-03
2.26875000000000e+00 1.30298675296433e-01 1.27911730242253e-03
2.28525000000000e+00 1.29178517366476e-01 1.27272401087033e-03
2.30175000000000e+00 1.28067989264184e-01 1.26632966322844e-03
2.31825000000000e+00 1.26967008203390e-01 1.25993506656870e-03
2.33475000000000e+00 1.25875492109628e-01 1.25354100685718e-03
2.35125000000000e+00 1.24793359614013e-01 1.24714824946140e-03
2.36775000000000e+00 1.23720530047177e-01 1.24075753964389e-03
2.38425000000000e+00 1.22656923433253e-01 1.23436960304212e-03
2.40075000000000e+00 1.21602460483915e-01 1.22798514613535e-03
2.41725000000000e+00 1.20557062592467e-01 1.22160485669867e-03
2.43375000000000e+00 1.19520651827983e-01 1.21522940424504e-03
2.45025000000000e+00 1.18493150929496e-01 1.20885944045525e-03
2.46675000000000e+00 1.17474483300241e-01 1.20249559959678e-03
2.48325000000000e+00 1.16464573001944e-01 1.19613849893111e-03
2.49975000000000e+00 1.15463344749159e-01 1.18978873911079e-03
2.51625000000000e+00 1.14470723903661e-01 1.18344690456589e-03
2.53275000000000e+00 1.13486636468874e-01 1.17711356388034e-03
2.54925000000000e+00 1.12511009084362e-01 1.17078927015869e-03
2.56575000000000e+00 1.11543769020359e-01 1.16447456138342e-03
2.58225000000000e+00 1.10584844172342e-01 1.15816996076300e-03
2.59875000000000e+00 1.09634163055662e-01 1.15187597707135e-03
2.61525000000000e+00 1.08691654800213e-01 1.14559310497843e-03
2.63175000000000e+00 1.07757249145147e-01 1.13932182537251e-03
2.64825000000000e+00 1.06830876433639e-01 1.13306260567478e-03
2.66475000000000e+00 1.05912467607692e-01 1.12681590014571e-03
2.68125000000000e+00 1.05001954202992e-01 1.12058215018399e-03
2.69775000000000e+00 1.04099268343801e-01 1.11436178461801e-03
2.71425000000000e+00 1.03204342737898e-01 1.10815521999029e-03
2.73075000000000e+00 1.02317110671563e-01 1.10196286083503e-03
2.74725000000000e+00 1.01437506004606e-01 1.09578509994868e-03
2.76375000000000e+00 1.00565463165432e-01 1.08962231865418e-03
2.78025000000000e+00 9.97009171461555e-02 1.08347488705877e-03
2.79675000000000e+00 9.88438034977535e-02 1.07734316430554e-03
2.81325000000000e+00 9.79940583252624e-02 1.07122749881926e-03
2.82975000000000e+00 9.71516182830133e-02 1.06512822854600e-03
2.84625000000000e+00 9.63164205699106e-02 1.05904568118734e-03
2.86275000000000e+00 9.54884029247502e-02 1.05298017442901e-03
2.87925000000000e+00 9.46675036215780e-02 1.04693201616413e-03
2.89575000000000e+00 9.38536614650886e-02 1.04090150471119e-03
2.91225000000000e+00 9.30468157860634e-02 1.03488892902716e-03
2.92875000000000e+00 9.22469064368478e-02 1.02889456891555e-03
2.94525000000000e+00 9.14538737868676e-02 1.02291869522956e-03
2.96175000000000e+00 9.06676587181833e-02 1.01696157007080e-03
2.97825000000000e+00 8.98882026210835e-02 1.01102344698307e-03
2.99475000000000e+00 8.91154473897158e-02 1.00510457114233e-03
3.01125000000000e+00 8.83493354177547e-02 9.99205179541872e-04
3.02775000000000e+00 8.75898095941076e-02 9.93325501173376e-04
3.04425000000000e+00 8.68368132986574e-02 9.87465757204043e-04
3.06075000000000e+00 8.60902903980414e-02 9.81626161149593e-04
3.07725000000000e+00 8.53501852414672e-02 9.75806919043513e-04
3.09375000000000e+00 8.46164426565635e-02 9.70008229602530e-04
3.11025000000000e+00 8.38890079452676e-02 9.64230284388234e-04
3.12675000000000e+00 8.31678268797476e-02 9.58473267965172e-04
3.14325000000000e+00 8.24528456983603e-02 9.52737358055677e-04
3.15975000000000e+00 8.17440111016430e-02 9.47022725691067e-04
3.17625000000000e+00 8.10412702483406e-02 9.41329535359573e-04
3.19275000000000e+00 8.03445707514658e-02 9.35657945150977e-04
3.20925000000000e+00 7.96538606743948e-02 9.30008106898291e-04
3.22575000000000e+00 7.89690885269948e-02 9.24380166316131e-04
3.24225000000000e+00 7.82902032617858e-02 9.18774263136129e-04
3.25875000000000e+00 7.76171542701354e-02 9.13190531239560e-04
3.27525000000000e+00 7.69498913784858e-02 9.07629098786931e-04
3.29175000000000e+00 7.62883648446139e-02 9.02090088345014e-04
3.30825000000000e+00 7.56325253539226e-02 8.96573617010948e-04
3.32475000000000e+00 7.49823240157651e-02 8.91079796533641e-04
3.34125000000000e+00 7.43377123598001e-02 8.85608733432730e-04
3.35775000000000e+00 7.36986423323784e-02 8.80160529115102e-04
3.37425000000000e+00 7.30650662929606e-02 8.74735279988628e-04
3.39075000000000e+00 7.24369370105660e-02 8.69333077573770e-04
3.40725000000000e+00 7.18142076602514e-02 8.63954008612770e-04
3.42375000000000e+00 7.11968318196206e-02 8.58598155176386e-04
3.44025000000000e+00 7.05847634653634e-02 8.53265594768575e-04
3.45675000000000e+00 6.99779569698253e-02 8.47956400428792e-04
3.47325000000000e+00 6.93763670976057e-02 8.42670640832433e-04
3.48975000000000e+00 6.87799490021860e-02 8.37408380388880e-04
3.50625000000000e+00 6.81886582225861e-02 8.32169679337600e-04
3.52275000000000e+00 6.76024506800504e-02 8.26954593842379e-04
3.53925000000000e+00 6.70212826747616e-02 8.21763176083421e-04
3.55575000000000e+00 6.64451108825830e-02 8.16595474347611e-04
3.57225000000000e+00 6.58738923518290e-02 8.11451533116868e-04
3.58875000000000e+00 6.53075845000631e-02 8.06331393154779e-04
3.60525000000000e+00 6.47461451109237e-02 8.01235091591426e-04
3.62175000000000e+00 6.41895323309767e-02 7.96162662006324e-04
3.63825000000000e+00 6.36377046665955e-02 7.91114134509771e-04
3.65475000000000e+00 6.30906209808681e-02 7.86089535822549e-04
3.67125000000000e+00 6.25482404905303e-02 7.81088889353949e-04
3.68775000000000e+00 6.20105227629252e-02 7.76112215278249e-04
3.70425000000000e+00 6.14774277129897e-02 7.71159530609509e-04
3.72075000000000e+00 6.09489156002655e-02 7.66230849274969e-04
3.73725000000000e+00 6.04249470259372e-02 7.61326182186998e-04
3.75375000000000e+00 5.99054829298950e-02 7.56445537313351e-04
3.77025000000000e+00 5.93904845878230e-02 7.51588919746237e-04
3.78675000000000e+00 5.88799136083122e-02 7.46756331769889e-04
3.80325000000000e+00 5.83737319299989e-02 7.41947772926689e-04
3.81975000000000e+00 5.78719018187270e-02 7.37163240082159e-04
3.83625000000000e+00 5.73743858647353e-02 7.32402727488478e-04
3.85275000000000e+00 5.68811469798686e-02 7.27666226846720e-04
3.86925000000000e+00 5.63921483948131e-02 7.22953727367902e-04
3.88575000000000e+00 5.59073536563549e-02 7.18265215832769e-04
3.90225000000000e+00 5.54267266246631e-02 7.13600676650415e-04
3.91875000000000e+00 5.49502314705954e-02 7.08960091915729e-04
3.93525000000000e+00 5.44778326730271e-02 7.04343441465583e-04
3.95175000000000e+00 5.40094950162033e-02 6.99750702933948e-04
3.96825000000000e+00 5.35451835871136e-02 6.95181851805985e-04
3.98475000000000e+00 5.30848637728893e-02 6.90636861470984e-04
4.00125000000000e+00 5.26285012582235e-02 6.86115703274252e-04
4.01775000000000e+00 5.21760620228126e-02 6.81618346567953e-04
4.03425000000000e+00 5.17275123388206e-02 6.77144758760918e-04
4.05075000000000e+00 5.12828187683643e-02 6.72694905367502e-04
4.06725000000000e+00 5.08419481610211e-02 6.68268750055469e-04
4.08375000000000e+00 5.04048676513576e-02 6.63866254692858e-04
4.10025000000000e+00 4.99715446564794e-02 6.59487379394021e-04
4.11675000000000e+00 4.95419468736023e-02 6.55132082564597e-04
4.13325000000000e+00 4.91160422776443e-02 6.50800320945681e-04
4.14975000000000e+00 4.86937991188382e-02 6.46492049657163e-04
4.16625000000000e+00 4.82751859203646e-02 6.42207222240083e-04
4.18275000000000e+00 4.78601714760057e-02 6.37945790698237e-04
4.19925000000000e+00 4.74487248478186e-02 6.33707705538894e-04
4.21575000000000e+00 4.70408153638294e-02 6.29492915812722e-04
4.23225000000000e+00 4.66364126157464e-02 6.25301369152940e-04
4.24875000000000e+00 4.62354864566934e-02 6.21133011813691e-04
4.26525000000000e+00 4.58380069989624e-02 6.16987788707625e-04
4.28175000000000e+00 4.54439446117852e-02 6.12865643442696e-04
4.29825000000000e+00 4.50532699191253e-02 6.08766518358293e-04
4.31475000000000e+00 4.46659537974870e-02 6.04690354560717e-04
4.33125000000000e+00 4.42819673737453e-02 6.00637091957770e-04
4.34775000000000e+00 4.39012820229927e-02 5.96606669292769e-04
4.36425000000000e+00 4.35238693664061e-02 5.92599024177903e-04
4.38075000000000e+00 4.31497012691305e-02 5.88614093126825e-04
4.39725000000000e+00 4.27787498381820e-02 5.84651811586721e-04
4.41375000000000e+00 4.24109874203686e-02 5.80712113969608e-04
4.43025000000000e+00 4.20463866002285e-02 5.76794933683092e-04
4.44675000000000e+00 4.16849201979865e-02 5.72900203160541e-04
4.46325000000000e+00 4.13265612675279e-02 5.69027853890586e-04
4.47975000000000e+00 4.09712830943894e-02 5.65177816445989e-04
4.49625000000000e+00 4.06190591937680e-02 5.61350020512065e-04
4.51275000000000e+00 4.02698633085467e-02 5.57544394914465e-04
4.52925000000000e+00 3.99236694073367e-02 5.53760867646346e-04
4.54575000000000e+00 3.95804516825373e-02 5.49999365895124e-04
4.56225000000000e+00 3.92401845484117e-02 5.46259816068578e-04
4.57875000000000e+00 3.89028426391798e-02 5.42542143820511e-04
4.59525000000000e+00 3.85684008071273e-02 5.38846274075792e-04
4.61175000000000e+00 3.82368341207310e-02 5.35172131055007e-04
4.62825000000000e+00 3.79081178628001e-02 5.31519638298580e-04
4.64475000000000e+00 3.75822275286339e-02 5.27888718690329e-04
4.66125000000000e+00 3.72591388241948e-02 5.24279294480652e-04
4.67775000000000e+00 3.69388276642974e-02 5.20691287309210e-04
4.69425000000000e+00 3.66212701708129e-02 5.17124618227141e-04
4.71075000000000e+00 3.63064426708893e-02 5.13579207718783e-04
4.72725000000000e+00 3.59943216951863e-02 5.10054975723071e-04
4.74375000000000e+00 3.56848839761261e-02 5.06551841654339e-04
4.76025000000000e+00 3.53781064461587e-02 5.03069724422852e-04
4.77675000000000e+00 3.50739662360424e-02 4.99608542454831e-04
4.79325000000000e+00 3.47724406731388e-02 4.96168213712091e-04
4.80975000000000e+00 3.44735072797227e-02 4.92748655711314e-04
4.82625000000000e+00 3.41771437713066e-02 4.89349785542809e-04
4.84275000000000e+00 3.38833280549793e-02 4.85971519889075e-04
4.85925000000000e+00 3.35920382277590e-02 4.82613775042836e-04
4.87575000000000e+00 3.33032525749606e-02 4.79276466924675e-04
4.89225000000000e+00 3.30169495685766e-02 4.75959511100480e-04
4.90875000000000e+00 3.27331078656729e-02 4.72662822798373e-04
4.92525000000000e+00 3.24517063067970e-02 4.69386316925344e-04
4.94175000000000e+00 3.21727239144012e-02 4.66129908083574e-04
4.95825000000000e+00 3.18961398912785e-02 4.62893510586316e-04
4.97475000000000e+00 3.16219336190124e-02 4.59677038473548e-04
4.99125000000000e+00 3.13500846564398e-02 4.56480405527266e-04
5.00775000000000e+00 3.10805727381271e-02 4.53303525286451e-04
5.02425000000000e+00 3.08133777728597e-02 4.50146311061695e-04
5.04075000000000e+00 3.05484798421438e-02 4.47008675949565e-04
5.05725000000000e+00 3.02858591987224e-02 4.43890532846682e-04
5.07375000000000e+00 3.00254962651021e-02 4.40791794463388e-04
5.09025000000000e+00 2.97673716320946e-02 4.37712373337267e-04
5.10675000000000e+00 2.95114660573693e-02 4.34652181846307e-04
5.12325000000000e+00 2.92577604640192e-02 4.31611132221747e-04
5.13975000000000e+00 2.90062359391382e-02 4.28589136560716e-04
5.15625000000000e+00 2.87568737324118e-02 4.25586106838587e-04
5.17275000000000e+00 2.85096552547193e-02 4.22601954921023e-04
5.18925000000000e+00 2.82645620767474e-02 4.19636592575808e-04
5.20575000000000e+00 2.80215759276173e-02 4.16689931484443e-04
