Energy (eV)          EEDF (eV^-(3/2))     First Anisotropy
4.66071428571429e-02 5.38753153420949e-02 3.80556423909259e-05
1.39821428571429e-01 5.32156854861366e-02 6.26666558602658e-05
2.33035714285714e-01 5.25641319003293e-02 8.22673401212866e-05
3.26250000000000e-01 5.19205556999053e-02 9.68812991912059e-05
4.19464285714286e-01 5.12848592129165e-02 1.08842570915557e-04
5.12678571428571e-01 5.06569459631894e-02 1.19040813211534e-04
6.05892857142857e-01 5.00367206569161e-02 1.27939985000688e-04
6.99107142857143e-01 4.94240891644668e-02 1.35822363983471e-04
7.92321428571429e-01 4.88189585099602e-02 1.42876543194186e-04
8.85535714285714e-01 4.82212368566389e-02 1.49236784848900e-04
9.78750000000000e-01 4.76308334906459e-02 1.55003187494948e-04
1.07196428571429e+00 4.70476588111406e-02 1.60253051325751e-04
1.16517857142857e+00 4.64716243089937e-02 1.65047749522975e-04
1.25839285714286e+00 4.59026425674064e-02 1.69437117414000e-04
1.35160714285714e+00 4.53406272303841e-02 1.73462379814212e-04
1.44482142857143e+00 4.47854930039018e-02 1.77158173586739e-04
1.53803571428571e+00 4.42371556421795e-02 1.80553991261267e-04
1.63125000000000e+00 4.36955319230852e-02 1.83675233134342e-04
1.72446428571429e+00 4.31605396505967e-02 1.86543994034388e-04
1.81767857142857e+00 4.26320976284982e-02 1.89179662144169e-04
1.91089285714286e+00 4.21101256607866e-02 1.91599382172236e-04
2.00410714285714e+00 4.15945445277274e-02 1.93818419619670e-04
2.09732142857143e+00 4.10852759823091e-02 1.95850449365291e-04
2.19053571428571e+00 4.05822427379986e-02 1.97707790398435e-04
2.28375000000000e+00 4.00853684496430e-02 1.99401594780032e-04
2.37696428571429e+00 3.95945777114135e-02 2.00942003890701e-04
2.47017857142857e+00 3.91097960364270e-02 2.02338277984534e-04
2.56339285714286e+00 3.86309498538362e-02 2.03598904340855e-04
2.65660714285714e+00 3.81579664897579e-02 2.04731688718893e-04
2.74982142857143e+00 3.76907741619975e-02 2.05743831886844e-04
2.84303571428571e+00 3.72293019689372e-02 2.06641996821803e-04
2.93625000000000e+00 3.67734798736521e-02 2.07432364674469e-04
3.02946428571429e+00 3.63232386999510e-02 2.08120683871026e-04
3.12267857142857e+00 3.58785101155488e-02 2.08712312688131e-04
3.21589285714286e+00 3.54392266277097e-02 2.09212256263188e-04
3.30910714285714e+00 3.50053215672820e-02 2.09625199292907e-04
3.40232142857143e+00 3.45767290827697e-02 2.09955533950018e-04
3.49553571428571e+00 3.41533841301943e-02 2.10207386094601e-04
3.58875000000000e+00 3.37352224594395e-02 2.10384637057079e-04
3.68196428571429e+00 3.33221806094466e-02 2.10490943682876e-04
3.77517857142857e+00 3.29141958938544e-02 2.10529756182753e-04
3.86839285714286e+00 3.25112063960106e-02 2.10504334028748e-04
3.96160714285714e+00 3.21131509552406e-02 2.10417760457457e-04
4.05482142857143e+00 3.17199691607519e-02 2.10272954825848e-04
4.14803571428571e+00 3.13316013423630e-02 2.10072685082099e-04
4.24125000000000e+00 3.09479885585430e-02 2.09819577823914e-04
4.33446428571429e+00 3.05690725912744e-02 2.09516127999126e-04
4.42767857142857e+00 3.01947959335576e-02 2.09164707689469e-04
4.52089285714286e+00 2.98251017842030e-02 2.08767574050158e-04
4.61410714285714e+00 2.94599340358239e-02 2.08326876752694e-04
4.70732142857143e+00 2.90992372688172e-02 2.07844664200154e-04
4.80053571428571e+00 2.87429567428774e-02 2.07322890348508e-04
4.89375000000000e+00 2.83910383863964e-02 2.06763419918062e-04
4.98696428571429e+00 2.80434287912687e-02 2.06168033684791e-04
5.08017857142857e+00 2.77000752018811e-02 2.05538433320660e-04
5.17339285714286e+00 2.73609255099093e-02 2.04876245808405e-04
5.26660714285714e+00 2.70259282437034e-02 2.04183027684552e-04
5.35982142857143e+00 2.66950325624747e-02 2.03460268457460e-04
5.45303571428571e+00 2.63681882485220e-02 2.02709394742975e-04
5.54625000000000e+00 2.60453456977661e-02 2.01931773192920e-04
5.63946428571429e+00 2.57264559146474e-02 2.01128713648275e-04
5.73267857142857e+00 2.54114705023438e-02 2.00301472039705e-04
5.82589285714286e+00 2.51003416576965e-02 1.99451253046257e-04
5.91910714285714e+00 2.47930221617562e-02 1.98579212713169e-04
6.01232142857143e+00 2.44894653742439e-02 1.97686460455610e-04
6.10553571428571e+00 2.41896252264260e-02 1.96774061769894e-04
6.19875000000000e+00 2.38934562126171e-02 1.95843039978339e-04
6.29196428571429e+00 2.36009133852572e-02 1.94894378239672e-04
6.38517857142857e+00 2.33119523461671e-02 1.93929021402336e-04
6.47839285714286e+00 2.30265292416759e-02 1.92947877706503e-04
6.57160714285714e+00 2.27446007541552e-02 1.91951820500890e-04
6.66482142857143e+00 2.24661240967860e-02 1.90941689473018e-04
6.75803571428571e+00 2.21910570070279e-02 1.89918292536971e-04
6.85125000000000e+00 2.19193577389602e-02 1.88882406918156e-04
6.94446428571429e+00 2.16509850585879e-02 1.87834780504661e-04
7.03767857142857e+00 2.13858982359893e-02 1.86776133092306e-04
7.13089285714286e+00 2.11240570406844e-02 1.85707157527696e-04
7.22410714285714e+00 2.08654217340225e-02 1.84628520889592e-04
7.31732142857143e+00 2.06099530642685e-02 1.83540865269621e-04
7.41053571428571e+00 2.03576122606159e-02 1.82444809149817e-04
7.50375000000000e+00 2.01083610262624e-02 1.81340948097736e-04
7.59696428571428e+00 1.98621615339704e-02 1.80229855713761e-04
7.69017857142857e+00 1.96189764189912e-02 1.79112084501527e-04
7.78339285714286e+00 1.93787687746932e-02 1.77988166665376e-04
7.87660714285714e+00 1.91415021456967e-02 1.76858614955104e-04
7.96982142857143e+00 1.89071405232791e-02 1.75723923172635e-04
8.06303571428571e+00 1.86756483398853e-02 1.74584567214874e-04
8.15625000000000e+00 1.84469904628547e-02 1.73441005528244e-04
8.24946428571429e+00 1.82211321902451e-02 1.72293679795566e-04
8.34267857142857e+00 1.79980392444400e-02 1.71143015564416e-04
8.43589285714286e+00 1.77776777680438e-02 1.69989422820762e-04
8.52910714285714e+00 1.75600143176745e-02 1.68833296612005e-04
8.62232142857143e+00 1.73450158596814e-02 1.67675017380130e-04
8.71553571428571e+00 1.71326497651117e-02 1.66514951774427e-04
8.80875000000000e+00 1.69228838040163e-02 1.65353452952121e-04
8.90196428571429e+00 1.67156861415390e-02 1.64190861090230e-04
8.99517857142857e+00 1.65110253321290e-02 1.63027503851112e-04
9.08839285714286e+00 1.63088703157009e-02 1.61863696805509e-04
9.18160714285714e+00 1.61091904120116e-02 1.60699743903784e-04
9.27482142857143e+00 1.59119553166797e-02 1.59535937695869e-04
9.36803571428571e+00 1.57171350965689e-02 1.58372559979320e-04
9.46125000000000e+00 1.55247001846129e-02 1.57209881998677e-04
9.55446428571429e+00 1.53346213761643e-02 1.56048164835522e-04
9.64767857142857e+00 1.51468698237462e-02 1.54887659760825e-04
9.74089285714286e+00 1.49614170334709e-02 1.53728608553301e-04
9.83410714285714e+00 1.47782348599379e-02 1.52571243863257e-04
9.92732142857143e+00 1.45972955025402e-02 1.51415789356893e-04
1.00205357142857e+01 1.44185715012307e-02 1.50262460388614e-04
1.01137500000000e+01 1.42420357311133e-02 1.49111463405010e-04
1.02069642857143e+01 1.40676614025254e-02 1.47962997442678e-04
1.03001785714286e+01 1.38954220498350e-02 1.46817254086078e-04
1.03933928571429e+01 1.37252915331804e-02 1.45674416558669e-04
1.04866071428571e+01 1.35572440327466e-02 1.44534661199449e-04
1.05798214285714e+01 1.33912540448438e-02 1.43398157320916e-04
1.06730357142857e+01 1.32272963780429e-02 1.42265067435794e-04
1.07662500000000e+01 1.30653461493492e-02 1.41135547159962e-04
1.08594642857143e+01 1.29053787818927e-02 1.40009746382912e-04
1.09526785714286e+01 1.27473699967522e-02 1.38887808828003e-04
1.10458928571429e+01 1.25912958137637e-02 1.37769871591144e-04
1.11391071428571e+01 1.24371325463671e-02 1.36656066324500e-04
1.12323214285714e+01 1.22848567980096e-02 1.35546519085107e-04
1.13255357142857e+01 1.21344454585991e-02 1.34441350512459e-04
1.14187500000000e+01 1.19858757009953e-02 1.33340675718745e-04
1.15119642857143e+01 1.18391249788135e-02 1.32244605309351e-04
1.16051785714286e+01 1.16941710191572e-02 1.31153244970023e-04
1.16983928571429e+01 1.15509918231240e-02 1.30066695035719e-04
1.17916071428571e+01 1.14095656611577e-02 1.28985051525670e-04
1.18848214285714e+01 1.12698710697486e-02 1.27908405990186e-04
1.19780357142857e+01 1.11318868481806e-02 1.26836845651221e-04
1.20712500000000e+01 1.09955920553109e-02 1.25770453287257e-04
1.21644642857143e+01 1.08609660074938e-02 1.24709308127529e-04
1.22576785714286e+01 1.07279882721039e-02 1.23653485468040e-04
1.23508928571429e+01 1.05966386678066e-02 1.22603056271835e-04
1.24441071428571e+01 1.04668972603603e-02 1.21558088078136e-04
1.25373214285714e+01 1.03387443595893e-02 1.20518644851935e-04
1.26305357142857e+01 1.02121605163987e-02 1.19484787096219e-04
1.27237500000000e+01 1.00871265198210e-02 1.18456571736217e-04
1.28169642857143e+01 9.96362339505948e-03 1.17434052906159e-04
1.29101785714286e+01 9.84163239770312e-03 1.16417281594374e-04
1.30033928571429e+01 9.72113501381678e-03 1.15406305274753e-04
1.30966071428571e+01 9.60211295614303e-03 1.14401168708167e-04
1.31898214285714e+01 9.48454816132550e-03 1.13401913797672e-04
1.32830357142857e+01 9.36842278717026e-03 1.12408579678725e-04
1.33762500000000e+01 9.25371920993658e-03 1.11421202605769e-04
1.34694642857143e+01 9.14042002249898e-03 1.10439816646767e-04
1.35626785714286e+01 9.02850802917024e-03 1.09464453356634e-04
1.36558928571429e+01 8.91796624565248e-03 1.08495141438758e-04
1.37491071428571e+01 8.80877789559727e-03 1.07531907453626e-04
1.38423214285714e+01 8.70092640805845e-03 1.06574775681220e-04
1.39355357142857e+01 8.59439541497957e-03 1.05623768193948e-04
1.40287500000000e+01 8.48916874870861e-03 1.04678904747437e-04
1.41219642857143e+01 8.38523044027624e-03 1.03740203395365e-04
1.42151785714286e+01 8.28256471475468e-03 1.02807680189904e-04
1.43083928571429e+01 8.18115599110342e-03 1.01881348871692e-04
1.44016071428571e+01 8.08098887905045e-03 1.00961221498015e-04
1.44948214285714e+01 7.98204817675563e-03 1.00047308313251e-04
1.45880357142857e+01 7.88431886850552e-03 9.91396178080927e-05
1.46812500000000e+01 7.78778612243351e-03 9.82381566155922e-05
1.47744642857143e+01 7.69243528891061e-03 9.73429300567906e-05
1.48676785714286e+01 7.59825189637805e-03 9.64539418665223e-05
1.49608928571429e+01 7.50522165111440e-03 9.55711939099945e-05
1.50541071428571e+01 7.41333043440528e-03 9.46946867409099e-05
1.51473214285714e+01 7.32256430039984e-03 9.38244194802700e-05
1.52405357142857e+01 7.23290947399592e-03 9.29603898646193e-05
1.53337500000000e+01 7.14435234874863e-03 9.21025941479672e-05
1.54269642857143e+01 7.05687948536904e-03 9.12510275869693e-05
1.55201785714286e+01 6.97047760797701e-03 9.04056841903588e-05
1.56133928571429e+01 6.88513360381080e-03 8.95665564602219e-05
1.57066071428571e+01 6.80083452065645e-03 8.87336358887982e-05
1.57998214285714e+01 6.71756756488152e-03 8.79069128456781e-05
1.58930357142857e+01 6.63532009949476e-03 8.70863766171927e-05
1.59862500000000e+01 6.55407964222759e-03 8.62720153144382e-05
1.60794642857143e+01 6.47383386413578e-03 8.54638163054978e-05
1.61726785714286e+01 6.39457058622574e-03 8.46617659867285e-05
1.62658928571429e+01 6.31627777912350e-03 8.38658495468044e-05
1.63591071428571e+01 6.23894356073831e-03 8.30760514096789e-05
1.64523214285714e+01 6.16255619445882e-03 8.22923551299764e-05
1.65455357142857e+01 6.08710408737301e-03 8.15147434251912e-05
1.66387500000000e+01 6.01257578850820e-03 8.07431980898483e-05
1.67319642857143e+01 5.93895998753048e-03 7.99777003811517e-05
1.68251785714286e+01 5.86624551170373e-03 7.92182308103850e-05
1.69183928571429e+01 5.79442132553135e-03 7.84647689278792e-05
1.70116071428571e+01 5.72347652863127e-03 7.77172937185538e-05
1.71048214285714e+01 5.65340035408125e-03 7.69757835051604e-05
1.71980357142857e+01 5.58418216678576e-03 7.62402159746334e-05
1.72912500000000e+01 5.51581146186148e-03 7.55105680982680e-05
1.73844642857143e+01 5.44827786342907e-03 7.47868164762649e-05
1.74776785714286e+01 5.38157112186921e-03 7.40689371476189e-05
1.75708928571429e+01 5.31568111344765e-03 7.33569053942404e-05
1.76641071428571e+01 5.25059783838143e-03 7.26506960945959e-05
1.77573214285714e+01 5.18631141932083e-03 7.19502836344376e-05
1.78505357142857e+01 5.12281209985122e-03 7.12556419283417e-05
1.79437500000000e+01 5.06009024301191e-03 7.05667443456864e-05
1.80369642857143e+01 4.99813633017492e-03 6.98835640188781e-05
1.81301785714286e+01 4.93694095856671e-03 6.92060736701232e-05
1.82233928571429e+01 4.87649484088481e-03 6.85342454330749e-05
1.83166071428571e+01 4.81678880353704e-03 6.78680511693983e-05
1.84098214285714e+01 4.75781378524900e-03 6.72074623865190e-05
1.85030357142857e+01 4.69956083568954e-03 6.65524502552019e-05
1.85962500000000e+01 4.64202111411211e-03 6.59029855410711e-05
1.86894642857143e+01 4.58518588831512e-03 6.52590388806416e-05
1.87826785714286e+01 4.52904653240173e-03 6.46205806235327e-05
1.88758928571429e+01 4.47359452639452e-03 6.39875806701006e-05
1.89691071428571e+01 4.41882145463152e-03 6.33600087550920e-05
1.90623214285714e+01 4.36471900448877e-03 6.27378343719762e-05
1.91555357142857e+01 4.31127896511931e-03 6.21210267872710e-05
1.92487500000000e+01 4.25849322620680e-03 6.15095549772824e-05
1.93419642857143e+01 4.20635377700241e-03 6.09033878755473e-05
1.94351785714286e+01 4.15485270429815e-03 6.03024942291430e-05
1.95283928571429e+01 4.10398219204458e-03 5.97068424508894e-05
1.96216071428571e+01 4.05373451988908e-03 5.91164008737623e-05
1.97148214285714e+01 4.00410206200397e-03 5.85311376813443e-05
1.98080357142857e+01 3.95507728592968e-03 5.79510209194538e-05
1.99012500000000e+01 3.90665275143129e-03 5.73760184377994e-05
1.99944642857143e+01 3.85882110960703e-03 5.68060981119919e-05
2.00876785714286e+01 3.81157510105337e-03 5.62412277127028e-05
2.01808928571429e+01 3.76490755548972e-03 5.56813747711370e-05
2.02741071428571e+01 3.71881139042577e-03 5.51265068074107e-05
2.03673214285714e+01 3.67327961008641e-03 5.45765912666852e-05
2.04605357142857e+01 3.62830530435047e-03 5.40315955285583e-05
2.05537500000000e+01 3.58388164770178e-03 5.34914868533118e-05
2.06469642857143e+01 3.54000189840436e-03 5.29562325812710e-05
2.07401785714286e+01 3.49665939684008e-03 5.24258000136673e-05
2.08333928571429e+01 3.45384756514324e-03 5.19001562901863e-05
2.09266071428571e+01 3.41155990598506e-03 5.13792685941375e-05
2.10198214285714e+01 3.36979000158755e-03 5.08631040938476e-05
2.11130357142857e+01 3.32853151274978e-03 5.03516299501962e-05
2.12062500000000e+01 3.28777817788572e-03 4.98448132671368e-05
2.12994642857143e+01 3.24752381226158e-03 4.93426212708448e-05
2.13926785714286e+01 3.20776230648887e-03 4.88450212012416e-05
2.14858928571429e+01 3.16848762617090e-03 4.83519802005320e-05
2.15791071428571e+01 3.12969381079392e-03 4.78634654976542e-05
2.16723214285714e+01 3.09137497282237e-03 4.73794443545255e-05
2.17655357142857e+01 3.05352529680568e-03 4.68998840720352e-05
2.18587500000000e+01 3.01613903849555e-03 4.64247519445385e-05
2.19519642857143e+01 2.97921052414119e-03 4.59540154209549e-05
2.20451785714286e+01 2.94273414912244e-03 4.54876420059856e-05
2.21383928571429e+01 2.90670437760976e-03 4.50255991586575e-05
2.22316071428571e+01 2.87111574155227e-03 4.45678544582490e-05
2.23248214285714e+01 2.83596283984778e-03 4.41143755550024e-05
2.24180357142857e+01 2.80124033752336e-03 4.36651301748492e-05
2.25112500000000e+01 2.76694296492552e-03 4.32200860775726e-05
2.26044642857143e+01 2.73306551706934e-03 4.27792112017682e-05
2.26976785714286e+01 2.69960285239785e-03 4.23424735748888e-05
2.27908928571429e+01 2.66654989245661e-03 4.19098412208737e-05
2.28841071428571e+01 2.63390162096992e-03 4.14812823095142e-05
2.29773214285714e+01 2.60165308307938e-03 4.10567651112804e-05
2.30705357142857e+01 2.56979938459222e-03 4.06362580009781e-05
2.31637500000000e+01 2.53833569123835e-03 4.02197294193177e-05
2.32569642857143e+01 2.50725722806943e-03 3.98071480034203e-05
2.33501785714286e+01 2.47655927833241e-03 3.93984825048959e-05
2.34433928571429e+01 2.44623718315922e-03 3.89937017057455e-05
2.35366071428571e+01 2.41628634072325e-03 3.85927745528807e-05
2.36298214285714e+01 2.38670220554087e-03 3.81956701167377e-05
2.37230357142857e+01 2.35748028778180e-03 3.78023575940520e-05
2.38162500000000e+01 2.32861615258763e-03 3.74128062725633e-05
2.39094642857143e+01 2.30010541951707e-03 3.70269856485831e-05
2.40026785714286e+01 2.27194376152283e-03 3.66448653523707e-05
2.40958928571429e+01 2.24412690465658e-03 3.62664150715571e-05
2.41891071428571e+01 2.21665062729867e-03 3.58916046723693e-05
2.42823214285714e+01 2.18951075951735e-03 3.55204041617107e-05
2.43755357142857e+01 2.16270318243605e-03 3.51527836892071e-05
2.44687500000000e+01 2.13622382760825e-03 3.47887135148079e-05
2.45619642857143e+01 2.11006867650571e-03 3.44281641147440e-05
2.46551785714286e+01 2.08423375958853e-03 3.40711061135528e-05
2.47483928571429e+01 2.05871515602577e-03 3.37175102143357e-05
2.48416071428571e+01 2.03350899299172e-03 3.33673473080502e-05
2.49348214285714e+01 2.00861144507803e-03 3.30205884387832e-05
2.50280357142857e+01 1.98401873371335e-03 3.26772048051911e-05
2.51212500000000e+01 1.95972712658979e-03 3.23371677307613e-05
2.52144642857143e+01 1.93573293719092e-03 3.20004487593599e-05
2.53076785714286e+01 1.91203252394633e-03 3.16670195932993e-05
2.54008928571429e+01 1.88862228996757e-03 3.13368520298156e-05
2.54941071428571e+01 1.86549868240518e-03 3.10099180596489e-05
2.55873214285714e+01 1.84265819190944e-03 3.06861898352363e-05
2.56805357142857e+01 1.82009735209789e-03 3.03656396716602e-05
2.57737500000000e+01 1.79781273902917e-03 3.00482400193613e-05
2.58669642857143e+01 1.77580097076792e-03 2.97339635503257e-05
2.59601785714286e+01 1.75405870661571e-03 2.94227831016589e-05
2.60533928571429e+01 1.73258264686220e-03 2.91146716177193e-05
2.61466071428571e+01 1.71136953219747e-03 2.88096022390716e-05
2.62398214285714e+01 1.69041614321737e-03 2.85075482733590e-05
2.63330357142857e+01 1.66971929993498e-03 2.82084831958475e-05
2.64262500000000e+01 1.64927586129803e-03 2.79123806243927e-05
2.65194642857143e+01 1.62908272478770e-03 2.76192143972178e-05
2.66126785714286e+01 1.60913682571898e-03 2.73289585214949e-05
2.67058928571429e+01 1.58943513700649e-03 2.70415871206226e-05
2.67991071428571e+01 1.56997466862737e-03 2.67570745145270e-05
2.68923214285714e+01 1.55075246716748e-03 2.64753951929901e-05
2.69855357142857e+01 1.53176561537322e-03 2.61965238158625e-05
2.70787500000000e+01 1.51301123170881e-03 2.59204351900996e-05
2.71719642857143e+01 1.49448646998660e-03 2.56471043399822e-05
2.72651785714286e+01 1.47618851873028e-03 2.53765064602519e-05
2.73583928571429e+01 1.45811460095493e-03 2.51086168680689e-05
2.74516071428571e+01 1.44026197367600e-03 2.48434110755295e-05
2.75448214285714e+01 1.42262792749303e-03 2.45808647652448e-05
2.76380357142857e+01 1.40520978617848e-03 2.43209537902850e-05
2.77312500000000e+01 1.38800490627159e-03 2.40636541531163e-05
2.78244642857143e+01 1.37101067673779e-03 2.38089420690218e-05
2.79176785714286e+01 1.35422451838891e-03 2.35567939233817e-05
2.80108928571429e+01 1.33764388367697e-03 2.33071862278895e-05
2.81041071428571e+01 1.32126625624523e-03 2.30600956860646e-05
2.81973214285714e+01 1.30508915054627e-03 2.28154991708890e-05
2.82905357142857e+01 1.28911011146483e-03 2.25733737245380e-05
2.83837500000000e+01 1.27332671394521e-03 2.23336965390658e-05
2.84769642857143e+01 1.25773656267752e-03 2.20964450136994e-05
2.85701785714286e+01 1.24233729156973e-03 2.18615967158924e-05
2.86633928571429e+01 1.22712656355449e-03 2.16291293414192e-05
2.87566071428571e+01 1.21210207017869e-03 2.13990207735781e-05
2.88498214285714e+01 1.19726153125301e-03 2.11712490627118e-05
2.89430357142857e+01 1.18260269450600e-03 2.09457924257692e-05
2.90362500000000e+01 1.16812333524217e-03 2.07226292285957e-05
2.91294642857143e+01 1.15382125605314e-03 2.05017380377086e-05
2.92226785714286e+01 1.13969428633663e-03 2.02830975847884e-05
2.93158928571429e+01 1.12574028211587e-03 2.00666867303008e-05
2.94091071428571e+01 1.11195712566416e-03 1.98524845170112e-05
