Energy (eV)          EEDF (eV^-(3/2))     First Anisotropy
1.14166666666667e-01 4.97954522089074e-02 5.33421338142871e-05
3.42500000000000e-01 4.83820170612824e-02 8.71258137857759e-05
5.70833333333333e-01 4.70087020187857e-02 1.12507697749057e-04
7.99166666666667e-01 4.56743682837488e-02 1.30328437815360e-04
1.02750000000000e+00 4.43779093773804e-02 1.44026524591987e-04
1.25583333333333e+00 4.31182502242826e-02 1.54947305647040e-04
1.48416666666667e+00 4.18943462788583e-02 1.63809427570650e-04
1.71250000000000e+00 4.07051826337669e-02 1.71059948281802e-04
1.94083333333333e+00 3.95497731850013e-02 1.77003738709156e-04
2.16916666666667e+00 3.84271598324188e-02 1.81861949896479e-04
2.39750000000000e+00 3.73364116637679e-02 1.85802281569247e-04
2.62583333333333e+00 3.62766241870131e-02 1.88956212392432e-04
2.85416666666667e+00 3.52469185927872e-02 1.91429527849492e-04
3.08250000000000e+00 3.42464410117080e-02 1.93309113733912e-04
3.31083333333333e+00 3.32743618086244e-02 1.94667534806856e-04
3.53916666666667e+00 3.23298749037237e-02 1.95566235910176e-04
3.76750000000000e+00 3.14121970942104e-02 1.96057847417066e-04
3.99583333333333e+00 3.05205674062701e-02 1.96187887450935e-04
4.22416666666667e+00 2.96542464709158e-02 1.95996048660091e-04
4.45250000000000e+00 2.88125159034831e-02 1.95517188931082e-04
4.68083333333333e+00 2.79946777088731e-02 1.94782106120473e-04
4.90916666666667e+00 2.72000537081177e-02 1.93818154717725e-04
5.13750000000000e+00 2.64279849702868e-02 1.92649742504270e-04
5.36583333333333e+00 2.56778312667535e-02 1.91298734510018e-04
5.59416666666667e+00 2.49489705445799e-02 1.89784786632268e-04
5.82250000000000e+00 2.42407984061476e-02 1.88125623179556e-04
6.05083333333333e+00 2.35527276084676e-02 1.86337269083035e-04
6.27916666666667e+00 2.28841875796960e-02 1.84434247081180e-04
6.50750000000000e+00 2.22346239423273e-02 1.82429745793644e-04
6.73583333333333e+00 2.16034980538620e-02 1.80335763317447e-04
6.96416666666667e+00 2.09902865630068e-02 1.78163231845666e-04
7.19250000000000e+00 2.03944809726865e-02 1.75922125895452e-04
7.42083333333333e+00 1.98155872186732e-02 1.73621556243366e-04
7.64916666666667e+00 1.92531252622697e-02 1.71269852887694e-04
7.87750000000000e+00 1.87066286897521e-02 1.68874638167281e-04
8.10583333333333e+00 1.81756443258347e-02 1.66442890988030e-04
8.33416666666667e+00 1.76597318598761e-02 1.63981004371848e-04
8.56250000000000e+00 1.71584634786730e-02 1.61494836776272e-04
8.79083333333333e+00 1.66714235118880e-02 1.58989757584003e-04
9.01916666666667e+00 1.61982080890470e-02 1.56470688360126e-04
9.24750000000000e+00 1.57384248028770e-02 1.53942139993222e-04
9.47583333333333e+00 1.52916923840593e-02 1.51408245842922e-04
9.70416666666667e+00 1.48576403865009e-02 1.48872792116217e-04
9.93250000000000e+00 1.44359088786546e-02 1.46339245528922e-04
1.01608333333333e+01 1.40261481439523e-02 1.43810777601886e-04
1.03891666666667e+01 1.36280183969610e-02 1.41290287950134e-04
1.06175000000000e+01 1.32411894939693e-02 1.38780425636583e-04
1.08458333333333e+01 1.28653406589689e-02 1.36283606543154e-04
1.10741666666667e+01 1.25001602281804e-02 1.33802031697200e-04
1.13025000000000e+01 1.21453453806850e-02 1.31337704162374e-04
1.15308333333333e+01 1.18006018881744e-02 1.28892441875334e-04
1.17591666666667e+01 1.14656438800409e-02 1.26467892081076e-04
1.19875000000000e+01 1.11401935969134e-02 1.24065544607150e-04
1.22158333333333e+01 1.08239811610522e-02 1.21686741717461e-04
1.24441666666667e+01 1.05167443604096e-02 1.19332689551912e-04
1.26725000000000e+01 1.02182284230592e-02 1.17004468679736e-04
1.29008333333333e+01 9.92818580654173e-03 1.14703041731925e-04
1.31291666666667e+01 9.64637599941057e-03 1.12429262559783e-04
1.33575000000000e+01 9.37256531473546e-03 1.10183884705789e-04
1.35858333333333e+01 9.10652669684076e-03 1.07967567356317e-04
1.38141666666667e+01 8.84803953895735e-03 1.05780882736050e-04
1.40425000000000e+01 8.59688949414987e-03 1.03624322961290e-04
1.42708333333333e+01 8.35286829801635e-03 1.01498304705942e-04
1.44991666666667e+01 8.11577360116803e-03 9.94031752132707e-05
1.47275000000000e+01 7.88540879608034e-03 9.73392178767253e-05
1.49558333333333e+01 7.66158285443945e-03 9.53066559092895e-05
1.51841666666667e+01 7.44411017326680e-03 9.33056572590516e-05
1.54125000000000e+01 7.23281041632960e-03 9.13363391779970e-05
1.56408333333333e+01 7.02750836492694e-03 8.93987711121922e-05
1.58691666666667e+01 6.82803377656583e-03 8.74929787396492e-05
1.60975000000000e+01 6.63422123968827e-03 8.56189477266234e-05
1.63258333333333e+01 6.44591003678877e-03 8.37766260038484e-05
1.65541666666667e+01 6.26294401463241e-03 8.19659270956186e-05
1.67825000000000e+01 6.08517145116558e-03 8.01867332184808e-05
1.70108333333333e+01 5.91244492994745e-03 7.84388970705617e-05
1.72391666666667e+01 5.74462122097896e-03 7.67222445840629e-05
1.74675000000000e+01 5.58156115876364e-03 7.50365774879803e-05
1.76958333333333e+01 5.42312952711905e-03 7.33816747092237e-05
1.79241666666667e+01 5.26919494975873e-03 7.17572946531096e-05
1.81525000000000e+01 5.11962977855910e-03 7.01631773266272e-05
1.83808333333333e+01 4.97430998789407e-03 6.85990454287329e-05
1.86091666666667e+01 4.83311507417927e-03 6.70646062423633e-05
1.88375000000000e+01 4.69592795348309e-03 6.55595533955401e-05
1.90658333333333e+01 4.56263486459781e-03 6.40835677020150e-05
1.92941666666667e+01 4.43312527681843e-03 6.26363187320677e-05
1.95225000000000e+01 4.30729179610984e-03 6.12174662738449e-05
1.97508333333333e+01 4.18503007619299e-03 5.98266609730515e-05
1.99791666666667e+01 4.06623873388823e-03 5.84635456371224e-05
2.02075000000000e+01 3.95081926311854e-03 5.71277564475270e-05
2.04358333333333e+01 3.83867595334832e-03 5.58189234375093e-05
2.06641666666667e+01 3.72971581187520e-03 5.45366715742157e-05
2.08925000000000e+01 3.62384848501042e-03 5.32806217634849e-05
2.11208333333333e+01 3.52098618326282e-03 5.20503911970385e-05
2.13491666666667e+01 3.42104361001212e-03 5.08455942491989e-05
2.15775000000000e+01 3.32393788926402e-03 4.96658433083263e-05
2.18058333333333e+01 3.22958849702179e-03 4.85107490188525e-05
2.20341666666667e+01 3.13791719582000e-03 4.73799210228447e-05
2.22625000000000e+01 3.04884796850283e-03 4.62729686463422e-05
2.24908333333333e+01 2.96230695527186e-03 4.51895010568533e-05
2.27191666666667e+01 2.87822239360114e-03 4.41291278748613e-05
2.29475000000000e+01 2.79652455753404e-03 4.30914597385245e-05
2.31758333333333e+01 2.71714569993806e-03 4.20761083934255e-05
2.34041666666667e+01 2.64001999736082e-03 4.10826871949265e-05
2.36325000000000e+01 2.56508349438362e-03 4.01108115707939e-05
2.38608333333333e+01 2.49227405065267e-03 3.91600990569080e-05
2.40891666666667e+01 2.42153129027144e-03 3.82301697079383e-05
2.43175000000000e+01 2.35279655078793e-03 3.73206464742594e-05
2.45458333333333e+01 2.28601283460741e-03 3.64311551948256e-05
2.47741666666667e+01 2.22112476254941e-03 3.55613249308166e-05
2.50025000000000e+01 2.15807852708131e-03 3.47107882705724e-05
2.52308333333333e+01 2.09682184775038e-03 3.38791812888097e-05
2.54591666666667e+01 2.03730392856381e-03 3.30661438155500e-05
2.56875000000000e+01 1.97947541511401e-03 3.22713196806161e-05
2.59158333333333e+01 1.92328835369746e-03 3.14943566467110e-05
2.61441666666667e+01 1.86869615220421e-03 3.07349066239980e-05
2.63725000000000e+01 1.81565354080991e-03 2.99926258638863e-05
2.66008333333333e+01 1.76411653447665e-03 2.92671748721311e-05
2.68291666666667e+01 1.71404239706373e-03 2.85582185778163e-05
2.70575000000000e+01 1.66538960528888e-03 2.78654264846442e-05
2.72858333333333e+01 1.61811781433138e-03 2.71884725690939e-05
2.75141666666667e+01 1.57218782489949e-03 2.65270354112073e-05
2.77425000000000e+01 1.52756155018826e-03 2.58807983103212e-05
2.79708333333333e+01 1.48420198432828e-03 2.52494491724059e-05
2.81991666666667e+01 1.44207317216688e-03 2.46326806089124e-05
2.84275000000000e+01 1.40114017897267e-03 2.40301900228194e-05
2.86558333333333e+01 1.36136906149462e-03 2.34416794885129e-05
2.88841666666667e+01 1.32272684023387e-03 2.28668558239941e-05
2.91125000000000e+01 1.28518147166620e-03 2.23054306522169e-05
2.93408333333333e+01 1.24870182169546e-03 2.17571202762368e-05
2.95691666666667e+01 1.21325764021122e-03 2.12216457292717e-05
2.97975000000000e+01 1.17881953561935e-03 2.06987328155444e-05
3.00258333333333e+01 1.14535895049187e-03 2.01881119829087e-05
3.02541666666667e+01 1.11284813822228e-03 1.96895183545720e-05
3.04825000000000e+01 1.08126013967216e-03 1.92026917530108e-05
3.07108333333333e+01 1.05056876083567e-03 1.87273765718520e-05
3.09391666666667e+01 1.02074855141996e-03 1.82633217924851e-05
3.11675000000000e+01 9.91774783431674e-04 1.78102809940767e-05
3.13958333333333e+01 9.63623430689410e-04 1.73680122261232e-05
3.16241666666667e+01 9.36271149170794e-04 1.69362780126881e-05
3.18525000000000e+01 9.09695257377388e-04 1.65148453510753e-05
3.20808333333333e+01 8.83873717542302e-04 1.61034855861784e-05
3.23091666666667e+01 8.58785117598414e-04 1.57019744046564e-05
3.25375000000000e+01 8.34408653173778e-04 1.53100918244343e-05
3.27658333333333e+01 8.10724110354115e-04 1.49276220717231e-05
3.29941666666667e+01 7.87711849138683e-04 1.45543535670943e-05
3.32225000000000e+01 7.65352786930563e-04 1.41900789076388e-05
3.34508333333333e+01 7.43628382725407e-04 1.38345947473305e-05
3.36791666666667e+01 7.22520621932389e-04 1.34877017766536e-05
3.39075000000000e+01 7.02012001235086e-04 1.31492046989658e-05
3.41358333333333e+01 6.82085514088471e-04 1.28189121147102e-05
3.43641666666667e+01 6.62724636792481e-04 1.24966364959916e-05
3.45925000000000e+01 6.43913314609533e-04 1.21821941584446e-05
3.48208333333333e+01 6.25635948461547e-04 1.18754051496597e-05
3.50491666666667e+01 6.07877382152875e-04 1.15760932198832e-05
3.52775000000000e+01 5.90622889640029e-04 1.12840857904845e-05
3.55058333333333e+01 5.73858162829434e-04 1.09992138468477e-05
3.57341666666667e+01 5.57569299854986e-04 1.07213119061811e-05
3.59625000000000e+01 5.41742793404232e-04 1.04502179835004e-05
3.61908333333333e+01 5.26365519525793e-04 1.01857734891436e-05
3.64191666666667e+01 5.11424726874599e-04 9.92782319451535e-06
3.66475000000000e+01 4.96908026006745e-04 9.67621519635087e-06
3.68758333333333e+01 4.82803379113053e-04 9.43080081893705e-06
3.71041666666667e+01 4.69099090152175e-04 9.19143457847856e-06
3.73325000000000e+01 4.55783795033677e-04 8.95797414627896e-06
3.75608333333333e+01 4.42846452201093e-04 8.73028025568818e-06
3.77891666666667e+01 4.30276333579695e-04 8.50821666566126e-06
3.80175000000000e+01 4.18063015574002e-04 8.29165012338240e-06
3.82458333333333e+01 4.06196370430071e-04 8.08045027591048e-06
3.84741666666667e+01 3.94666557930706e-04 7.87448963340055e-06
3.87025000000000e+01 3.83464017139788e-04 7.67364353160319e-06
3.89308333333333e+01 3.72579458479303e-04 7.47779004813999e-06
3.91591666666667e+01 3.62003856110348e-04 7.28680996577326e-06
3.93875000000000e+01 3.51728440362259e-04 7.10058673513328e-06
3.96158333333333e+01 3.41744690465246e-04 6.91900639552490e-06
3.98441666666667e+01 3.32044327560609e-04 6.74195753855864e-06
4.00725000000000e+01 3.22619307757814e-04 6.56933127139034e-06
4.03008333333333e+01 3.13461815468483e-04 6.40102114193603e-06
4.05291666666667e+01 3.04564256993907e-04 6.23692310311647e-06
4.07575000000000e+01 2.95919254157933e-04 6.07693547683656e-06
4.09858333333333e+01 2.87519638192566e-04 5.92095888346733e-06
4.12141666666667e+01 2.79358443855118e-04 5.76889620690348e-06
4.14425000000000e+01 2.71428903589134e-04 5.62065255946139e-06
4.16708333333333e+01 2.63724441915943e-04 5.47613521547451e-06
4.18991666666667e+01 2.56238670037747e-04 5.33525357731929e-06
4.21275000000000e+01 2.48965380482747e-04 5.19791914136907e-06
4.23558333333333e+01 2.41898541960790e-04 5.06404543554017e-06
4.25841666666667e+01 2.35032294412284e-04 4.93354798640428e-06
4.28125000000000e+01 2.28360944097337e-04 4.80634428630137e-06
4.30408333333333e+01 2.21878958877111e-04 4.68235373466737e-06
4.32691666666667e+01 2.15580963671740e-04 4.56149760632029e-06
4.34975000000000e+01 2.09461735956665e-04 4.44369901980600e-06
4.37258333333333e+01 2.03516201434444e-04 4.32888288233579e-06
4.39541666666667e+01 1.97739429867929e-04 4.21697585930677e-06
4.41825000000000e+01 1.92126630949990e-04 4.10790634392972e-06
4.44108333333333e+01 1.86673150333492e-04 4.00160440560431e-06
4.46391666666667e+01 1.81374465808733e-04 3.89800176071245e-06
4.48675000000000e+01 1.76226183515593e-04 3.79703174355784e-06
4.50958333333333e+01 1.71224034302031e-04 3.69862925800659e-06
4.53241666666667e+01 1.66363870217362e-04 3.60273074957456e-06
4.55525000000000e+01 1.61641661038420e-04 3.50927417769099e-06
4.57808333333333e+01 1.57053490929398e-04 3.41819897043501e-06
4.60091666666667e+01 1.52595555224878e-04 3.32944599792284e-06
4.62375000000000e+01 1.48264157243965e-04 3.24295754589428e-06
4.64658333333333e+01 1.44055705226529e-04 3.15867727337923e-06
4.66941666666667e+01 1.39966709382063e-04 3.07655018737794e-06
4.69225000000000e+01 1.35993778967902e-04 2.99652261775812e-06
4.71508333333333e+01 1.32133619478994e-04 2.91854217768979e-06
4.73791666666667e+01 1.28383029940632e-04 2.84255773960211e-06
4.76075000000000e+01 1.24738900228859e-04 2.76851941136951e-06
4.78358333333333e+01 1.21198208492781e-04 2.69637849935843e-06
4.80641666666667e+01 1.17758018671042e-04 2.62608748563630e-06
4.82925000000000e+01 1.14415478034314e-04 2.55760000541786e-06
4.85208333333333e+01 1.11167814820928e-04 2.49087081257265e-06
4.87491666666667e+01 1.08012335958592e-04 2.42585575805540e-06
4.89775000000000e+01 1.04946424810566e-04 2.36251176857824e-06
4.92058333333333e+01 1.01967539006950e-04 2.30079681443390e-06
4.94341666666667e+01 9.90732083546913e-05 2.24066988911148e-06
4.96625000000000e+01 9.62610327705563e-05 2.18209098915615e-06
4.98908333333333e+01 9.35286802918831e-05 2.12502108416882e-06
5.01191666666667e+01 9.08738851593298e-05 2.06942209756798e-06
5.03475000000000e+01 8.82944459211461e-05 2.01525688759516e-06
5.05758333333333e+01 8.57882236085455e-05 1.96248921935791e-06
5.08041666666667e+01 8.33531399769195e-05 1.91108374669585e-06
5.10325000000000e+01 8.09871757672108e-05 1.86100599428756e-06
5.12608333333333e+01 7.86883690322801e-05 1.81222233161058e-06
5.14891666666667e+01 7.64548135234939e-05 1.76469995586748e-06
5.17175000000000e+01 7.42846570961756e-05 1.71840687514887e-06
5.19458333333333e+01 7.21761001744711e-05 1.67331188418975e-06
5.21741666666667e+01 7.01273942712992e-05 1.62938454831086e-06
5.24025000000000e+01 6.81368405259365e-05 1.58659518759125e-06
5.26308333333333e+01 6.62027882959202e-05 1.54491485430693e-06
5.28591666666667e+01 6.43236337993426e-05 1.50431531784162e-06
5.30875000000000e+01 6.24978187736151e-05 1.46476904982265e-06
5.33158333333333e+01 6.07238291838971e-05 1.42624920313349e-06
5.35441666666667e+01 5.90001939776235e-05 1.38872959774843e-06
5.37725000000000e+01 5.73254838544039e-05 1.35218470678512e-06
5.40008333333333e+01 5.56983100813347e-05 1.31658963698903e-06
5.42291666666667e+01 5.41173233504849e-05 1.28192011544654e-06
5.44575000000000e+01 5.25812126507189e-05 1.24815247650846e-06
5.46858333333333e+01 5.10887041810465e-05 1.21526364364964e-06
5.49141666666667e+01 4.96385603025590e-05 1.18323111701599e-06
5.51425000000000e+01 4.82295785037275e-05 1.15203296117393e-06
5.53708333333333e+01 4.68605904036781e-05 1.12164778825407e-06
5.55991666666667e+01 4.55304607907721e-05 1.09205474628855e-06
5.58275000000000e+01 4.42380866736331e-05 1.06323350774245e-06
5.60558333333333e+01 4.29823963669049e-05 1.03516425385581e-06
5.62841666666667e+01 4.17623486093163e-05 1.00782766372870e-06
5.65125000000000e+01 4.05769316933308e-05 9.81204903591929e-07
5.67408333333333e+01 3.94251626265621e-05 9.55277612266799e-07
5.69691666666667e+01 3.83060863227538e-05 9.30027890956637e-07
5.71975000000000e+01 3.72187748035357e-05 9.05438293215510e-07
5.74258333333333e+01 3.61623264292371e-05 8.81491811449916e-07
5.76541666666667e+01 3.51358651567533e-05 8.58171867376977e-07
5.78825000000000e+01 3.41385398074342e-05 8.35462302651329e-07
5.81108333333333e+01 3.31695233615510e-05 8.13347366337702e-07
5.83391666666667e+01 3.22280122775227e-05 7.91811705997369e-07
5.85675000000000e+01 3.13132258204550e-05 7.70840358934959e-07
5.87958333333333e+01 3.04244054149946e-05 7.50418740575245e-07
5.90241666666667e+01 2.95608140208417e-05 7.30532636141079e-07
5.92525000000000e+01 2.87217355169155e-05 7.11168192483506e-07
5.94808333333333e+01 2.79064741077626e-05 6.92311907300257e-07
5.97091666666667e+01 2.71143537507043e-05 6.73950621369962e-07
5.99375000000000e+01 2.63447175910178e-05 6.56071510930499e-07
6.01658333333333e+01 2.55969274174677e-05 6.38662077680764e-07
6.03941666666667e+01 2.48703631368200e-05 6.21710141537537e-07
6.06225000000000e+01 2.41644222558115e-05 6.05203833528676e-07
6.08508333333333e+01 2.34785193817394e-05 5.89131586523468e-07
6.10791666666667e+01 2.28120857404256e-05 5.73482128480083e-07
6.13075000000000e+01 2.21645687010988e-05 5.58244475821861e-07
6.15358333333333e+01 2.15354313183127e-05 5.43407924845096e-07
6.17641666666667e+01 2.09241518897688e-05 5.28962045426661e-07
6.19925000000000e+01 2.03302235205554e-05 5.14896674853190e-07
6.22208333333333e+01 1.97531537029745e-05 5.01201909858519e-07
6.24491666666667e+01 1.91924639109281e-05 4.87868100762603e-07
6.26775000000000e+01 1.86476892002531e-05 4.74885845724968e-07
6.29058333333333e+01 1.81183778233194e-05 4.62245983367214e-07
6.31341666666667e+01 1.76040908569579e-05 4.49939587315845e-07
6.33625000000000e+01 1.71044018358995e-05 4.37957960852905e-07
6.35908333333333e+01 1.66188963992681e-05 4.26292630081957e-07
6.38191666666667e+01 1.61471719492760e-05 4.14935338848894e-07
6.40475000000000e+01 1.56888373150253e-05 4.03878043764151e-07
6.42758333333333e+01 1.52435124282560e-05 3.93112907873359e-07
6.45041666666667e+01 1.48108280102652e-05 3.82632295931693e-07
6.47325000000000e+01 1.43904252635554e-05 3.72428769773490e-07
6.49608333333333e+01 1.39819555744164e-05 3.62495082451370e-07
6.51891666666667e+01 1.35850802257352e-05 3.52824173841055e-07
6.54175000000000e+01 1.31994701141841e-05 3.43409166335585e-07
6.56458333333333e+01 1.28248054774159e-05 3.34243359419254e-07
6.58741666666667e+01 1.24607756306231e-05 3.25320225581100e-07
6.61025000000000e+01 1.21070787071511e-05 3.16633406312273e-07
6.63308333333333e+01 1.17634214082690e-05 3.08176707083379e-07
6.65591666666667e+01 1.14295187615153e-05 2.99944093546183e-07
6.67875000000000e+01 1.11050938827943e-05 2.91929687813942e-07
6.70158333333333e+01 1.07898777468556e-05 2.84127763812933e-07
6.72441666666667e+01 1.04836089656240e-05 2.76532743753110e-07
6.74725000000000e+01 1.01860335700002e-05 2.69139194672414e-07
6.77008333333333e+01 9.89690479933434e-06 2.61941824135294e-07
6.79291666666667e+01 9.61598289808847e-06 2.54935476954249e-07
6.81575000000000e+01 9.34303491570883e-06 2.48115131980281e-07
6.83858333333333e+01 9.07783451352184e-06 2.41475898123127e-07
6.86141666666667e+01 8.82016177821318e-06 2.35013011306683e-07
6.88425000000000e+01 8.56980303827455e-06 2.28721831488897e-07
6.90708333333333e+01 8.32655068688051e-06 2.22597838980192e-07
6.92991666666667e+01 8.09020301079335e-06 2.16636631616855e-07
6.95275000000000e+01 7.86056402201170e-06 2.10833921994671e-07
6.97558333333333e+01 7.63744329530551e-06 2.05185534063709e-07
6.99841666666667e+01 7.42065581127120e-06 1.99687400504722e-07
7.02125000000000e+01 7.21002180192294e-06 1.94335560161844e-07
7.04408333333333e+01 7.00536660167262e-06 1.89126154893437e-07
7.06691666666667e+01 6.80652050336534e-06 1.84055427137524e-07
7.08975000000000e+01 6.61331861665826e-06 1.79119717529801e-07
7.11258333333333e+01 6.42560073133310e-06 1.74315461991676e-07
7.13541666666667e+01 6.24321118523841e-06 1.69639189471648e-07
7.15825000000000e+01 6.06599873439693e-06 1.65087519735773e-07
7.18108333333333e+01 5.89381642762998e-06 1.60657160675381e-07
7.20391666666667e+01 5.72652148542185e-06 1.56344906212169e-07
