Energy (eV)          EEDF (eV^-(3/2))     First Anisotropy
9.28571428571429e-05 2.15116566936246e+02 4.06833946476518e-02
2.78571428571429e-04 2.13794573985818e+02 6.71993330240843e-02
4.64285714285714e-04 2.12480705307295e+02 8.87623688393634e-02
6.50000000000000e-04 2.11174910972490e+02 1.05175447064045e-01
8.35714285714286e-04 2.09877141360792e+02 1.18890235890374e-01
1.02142857142857e-03 2.08587347156516e+02 1.30832689004873e-01
1.20714285714286e-03 2.07305479347793e+02 1.41481502420143e-01
1.39285714285714e-03 2.06031489221837e+02 1.51125460385017e-01
1.57857142857143e-03 2.04765328366615e+02 1.59955902665127e-01
1.76428571428571e-03 2.03506948668841e+02 1.68107932088724e-01
1.95000000000000e-03 2.02256302308480e+02 1.75681461659175e-01
2.13571428571429e-03 2.01013341761480e+02 1.82753035510444e-01
2.32142857142857e-03 1.99778019794011e+02 1.89382952816298e-01
2.50714285714286e-03 1.98550289464153e+02 1.95619802492011e-01
2.69285714285714e-03 1.97330104117004e+02 2.01503477772769e-01
2.87857142857143e-03 1.96117417385094e+02 2.07067254374688e-01
3.06428571428571e-03 1.94912183186522e+02 2.12339264638153e-01
3.25000000000000e-03 1.93714355721356e+02 2.17343572086169e-01
3.43571428571429e-03 1.92523889472255e+02 2.22100970796161e-01
3.62142857142857e-03 1.91340739200561e+02 2.26629591644650e-01
3.80714285714286e-03 1.90164859946602e+02 2.30945370062732e-01
3.99285714285714e-03 1.88996207026096e+02 2.35062411893018e-01
4.17857142857143e-03 1.87834736029816e+02 2.38993284179628e-01
4.36428571428571e-03 1.86680402821854e+02 2.42749247504959e-01
4.55000000000000e-03 1.85533163536737e+02 2.46340445360372e-01
4.73571428571429e-03 1.84392974579321e+02 2.49776058883264e-01
4.92142857142857e-03 1.83259792621662e+02 2.53064434694490e-01
5.10714285714286e-03 1.82133574602761e+02 2.56213191498210e-01
5.29285714285714e-03 1.81014277725611e+02 2.59229309359874e-01
5.47857142857143e-03 1.79901859456530e+02 2.62119205649993e-01
5.66428571428571e-03 1.78796277523516e+02 2.64888798765347e-01
5.85000000000000e-03 1.77697489913769e+02 2.67543563425993e-01
6.03571428571429e-03 1.76605454873231e+02 2.70088577904422e-01
6.22142857142857e-03 1.75520130903913e+02 2.72528564862223e-01
6.40714285714286e-03 1.74441476763359e+02 2.74867926897303e-01
6.59285714285714e-03 1.73369451462079e+02 2.77110777422690e-01
6.77857142857143e-03 1.72304014262727e+02 2.79260968145560e-01
6.96428571428571e-03 1.71245124678532e+02 2.81322112501068e-01
7.15000000000000e-03 1.70192742471083e+02 2.83297607037983e-01
7.33571428571429e-03 1.69146827649685e+02 2.85190650067538e-01
7.52142857142857e-03 1.68107340468992e+02 2.87004258262777e-01
7.70714285714286e-03 1.67074241428309e+02 2.88741281516739e-01
7.89285714285714e-03 1.66047491269307e+02 2.90404416123766e-01
8.07857142857143e-03 1.65027050975111e+02 2.91996216967562e-01
8.26428571428571e-03 1.64012881768801e+02 2.93519107835643e-01
8.45000000000000e-03 1.63004945111402e+02 2.94975391337828e-01
8.63571428571429e-03 1.62003202701125e+02 2.96367257599259e-01
8.82142857142857e-03 1.61007616471231e+02 2.97696792162700e-01
9.00714285714286e-03 1.60018148589240e+02 2.98965983205673e-01
9.19285714285714e-03 1.59034761454858e+02 3.00176728017802e-01
9.37857142857143e-03 1.58057417699020e+02 3.01330839226349e-01
9.56428571428571e-03 1.57086080182458e+02 3.02430049908020e-01
9.75000000000000e-03 1.56120711993847e+02 3.03476018821668e-01
9.93571428571429e-03 1.55161276448988e+02 3.04470335118193e-01
1.01214285714286e-02 1.54207737089242e+02 3.05414521961286e-01
1.03071428571429e-02 1.53260057679231e+02 3.06310041010626e-01
1.04928571428571e-02 1.52318202206804e+02 3.07158296171229e-01
1.06785714285714e-02 1.51382134881117e+02 3.07960636363405e-01
1.08642857142857e-02 1.50451820131282e+02 3.08718358806291e-01
1.10500000000000e-02 1.49527222605009e+02 3.09432712349170e-01
1.12357142857143e-02 1.48608307168435e+02 3.10104898619543e-01
1.14214285714286e-02 1.47695038901251e+02 3.10736075448404e-01
1.16071428571429e-02 1.46787383098938e+02 3.11327360174123e-01
1.17928571428571e-02 1.45885305270257e+02 3.11879830240006e-01
1.19785714285714e-02 1.44988771135925e+02 3.12394525681334e-01
1.21642857142857e-02 1.44097746627329e+02 3.12872450971480e-01
1.23500000000000e-02 1.43212197885222e+02 3.13314577194777e-01
1.25357142857143e-02 1.42332091259438e+02 3.13721842312721e-01
1.27214285714286e-02 1.41457393304588e+02 3.14095153567884e-01
1.29071428571429e-02 1.40588070781840e+02 3.14435389829175e-01
1.30928571428571e-02 1.39724090656627e+02 3.14743401547099e-01
1.32785714285714e-02 1.38865420097397e+02 3.15020012466430e-01
1.34642857142857e-02 1.38012026474361e+02 3.15266020803531e-01
1.36500000000000e-02 1.37163877358260e+02 3.15482200762945e-01
1.38357142857143e-02 1.36320940519993e+02 3.15669302351269e-01
1.40214285714286e-02 1.35483183926772e+02 3.15828053177328e-01
1.42071428571429e-02 1.34650575743548e+02 3.15959160222791e-01
1.43928571428571e-02 1.33823084330914e+02 3.16063309468647e-01
1.45785714285714e-02 1.33000678243898e+02 3.16141167145290e-01
1.47642857142857e-02 1.32183326230776e+02 3.16193380518762e-01
1.49500000000000e-02 1.31370997231880e+02 3.16220579009371e-01
1.51357142857143e-02 1.30563660379179e+02 3.16223373769501e-01
1.53214285714286e-02 1.29761284992807e+02 3.16202359101372e-01
1.55071428571429e-02 1.28963840582212e+02 3.16158113858949e-01
1.56928571428571e-02 1.28171296844223e+02 3.16091200906810e-01
1.58785714285714e-02 1.27383623661893e+02 3.16002168076763e-01
1.60642857142857e-02 1.26600791103359e+02 3.15891548713219e-01
1.62500000000000e-02 1.25822769420704e+02 3.15759862536317e-01
1.64357142857143e-02 1.25049529049497e+02 3.15607615098891e-01
1.66214285714286e-02 1.24281040605642e+02 3.15435298946924e-01
1.68071428571429e-02 1.23517274886303e+02 3.15243394770949e-01
1.69928571428571e-02 1.22758202868111e+02 3.15032370784249e-01
1.71785714285714e-02 1.22003795706054e+02 3.14802683483418e-01
1.73642857142857e-02 1.21254024732392e+02 3.14554778038926e-01
1.75500000000000e-02 1.20508861455559e+02 3.14289088985762e-01
1.77357142857143e-02 1.19768277559678e+02 3.14006039623476e-01
1.79214285714286e-02 1.19032244901688e+02 3.13706042994593e-01
1.81071428571429e-02 1.18300735512085e+02 3.13389502857131e-01
1.82928571428571e-02 1.17573721593251e+02 3.13056813030508e-01
1.84785714285714e-02 1.16851175518395e+02 3.12708358019150e-01
1.86642857142857e-02 1.16133069830506e+02 3.12344513299909e-01
1.88500000000000e-02 1.15419377241311e+02 3.11965645891298e-01
1.90357142857143e-02 1.14710070630767e+02 3.11572113732931e-01
1.92214285714286e-02 1.14005123044427e+02 3.11164266529296e-01
1.94071428571429e-02 1.13304507694029e+02 3.10742446589066e-01
1.95928571428571e-02 1.12608197955940e+02 3.10306988166324e-01
1.97785714285714e-02 1.11916167370137e+02 3.09858217984756e-01
1.99642857142857e-02 1.11228389639212e+02 3.09396455454111e-01
2.01500000000000e-02 1.10544838627362e+02 3.08922013150575e-01
2.03357142857143e-02 1.09865488359880e+02 3.08435196196791e-01
2.05214285714286e-02 1.09190313020727e+02 3.07936303002264e-01
2.07071428571429e-02 1.08519286952997e+02 3.07425625999831e-01
2.08928571428571e-02 1.07852384657459e+02 3.06903450998114e-01
2.10785714285714e-02 1.07189580791586e+02 3.06370057630820e-01
2.12642857142857e-02 1.06530850168593e+02 3.05825719523136e-01
2.14500000000000e-02 1.05876167756479e+02 3.05270704705033e-01
2.16357142857143e-02 1.05225508677505e+02 3.04705275004076e-01
2.18214285714286e-02 1.04578848205956e+02 3.04129686703861e-01
2.20071428571429e-02 1.03936161768502e+02 3.03544191198666e-01
2.21928571428571e-02 1.03297424942828e+02 3.02949034366047e-01
2.23785714285714e-02 1.02662613456704e+02 3.02344456958224e-01
2.25642857142857e-02 1.02031703187065e+02 3.01730694732240e-01
2.27500000000000e-02 1.01404670159094e+02 3.01107978811068e-01
2.29357142857143e-02 1.00781490545697e+02 3.00476535096212e-01
2.31214285714286e-02 1.00162140665430e+02 2.99836584859469e-01
2.33071428571429e-02 9.95465969827772e+01 2.99188345330775e-01
2.34928571428571e-02 9.89348361068555e+01 2.98532029095766e-01
2.36785714285714e-02 9.83268347905314e+01 2.97867844441142e-01
2.38642857142857e-02 9.77225699295360e+01 2.97195995458107e-01
2.40500000000000e-02 9.71220185615875e+01 2.96516682361841e-01
2.42357142857143e-02 9.65251578658675e+01 2.95830100927659e-01
2.44214285714286e-02 9.59319651610986e+01 2.95136443027274e-01
2.46071428571429e-02 9.53424179057445e+01 2.94435897161021e-01
2.47928571428571e-02 9.47564936967974e+01 2.93728647882671e-01
2.49785714285714e-02 9.41741702689259e+01 2.93014876107469e-01
2.51642857142857e-02 9.35954254936302e+01 2.92294759195427e-01
2.53500000000000e-02 9.30202373784004e+01 2.91568471236810e-01
2.55357142857143e-02 9.24485840661992e+01 2.90836182513868e-01
2.57214285714286e-02 9.18804438336710e+01 2.90098059989929e-01
2.59071428571429e-02 9.13157950912825e+01 2.89354267794286e-01
2.60928571428571e-02 9.07546163821782e+01 2.88604966675324e-01
2.62785714285714e-02 9.01968863813645e+01 2.87850314277582e-01
2.64642857142857e-02 8.96425838949007e+01 2.87090465209615e-01
2.66500000000000e-02 8.90916878590924e+01 2.86325571301290e-01
2.68357142857143e-02 8.85441773399819e+01 2.85555781091616e-01
2.70214285714286e-02 8.80000315316771e+01 2.84781240277272e-01
2.72071428571429e-02 8.74592297564413e+01 2.84002092156752e-01
2.73928571428571e-02 8.69217514636123e+01 2.83218477111615e-01
2.75785714285714e-02 8.63875762288210e+01 2.82430532857497e-01
2.77642857142857e-02 8.58566837532159e+01 2.81638394500057e-01
2.79500000000000e-02 8.53290538626916e+01 2.80842194768380e-01
2.81357142857143e-02 8.48046665073869e+01 2.80042063528840e-01
2.83214285714286e-02 8.42835017601239e+01 2.79238128198154e-01
2.85071428571429e-02 8.37655398164544e+01 2.78430514152003e-01
2.86928571428571e-02 8.32507609936380e+01 2.77619344233899e-01
2.88785714285714e-02 8.27391457298935e+01 2.76804738983804e-01
2.90642857142857e-02 8.22306745836564e+01 2.75986816684720e-01
2.92500000000000e-02 8.17253282328400e+01 2.75165693575675e-01
2.94357142857143e-02 8.12230874743429e+01 2.74341483390996e-01
2.96214285714286e-02 8.07239332225889e+01 2.73514297742133e-01
2.98071428571429e-02 8.02278465095363e+01 2.72684246494858e-01
2.99928571428571e-02 7.97348084837113e+01 2.71851437304790e-01
3.01785714285714e-02 7.92448004094908e+01 2.71015975826730e-01
3.03642857142857e-02 7.87578036663913e+01 2.70177965753738e-01
3.05500000000000e-02 7.82737997483609e+01 2.69337509012441e-01
3.07357142857143e-02 7.77927702632984e+01 2.68494705326830e-01
3.09214285714286e-02 7.73146969316839e+01 2.67649652572249e-01
3.11071428571429e-02 7.68395615865584e+01 2.66802447124738e-01
3.12928571428571e-02 7.63673461726074e+01 2.65953183422008e-01
3.14785714285714e-02 7.58980327454746e+01 2.65101954155928e-01
3.16642857142857e-02 7.54316034710805e+01 2.64248850305571e-01
3.18500000000000e-02 7.49680406249444e+01 2.63393961316983e-01
3.20357142857143e-02 7.45073265917151e+01 2.62537374690539e-01
3.22214285714286e-02 7.40494438638856e+01 2.61679176309928e-01
3.24071428571429e-02 7.35943750417469e+01 2.60819450766513e-01
3.25928571428571e-02 7.31421028325198e+01 2.59958280944594e-01
3.27785714285714e-02 7.26926100496967e+01 2.59095748198963e-01
3.29642857142857e-02 7.22458796123899e+01 2.58231932383119e-01
3.31500000000000e-02 7.18018945446814e+01 2.57366912015199e-01
3.33357142857143e-02 7.13606379751665e+01 2.56500763887829e-01
3.35214285714286e-02 7.09220931357451e+01 2.55633563374612e-01
3.37071428571429e-02 7.04862433615551e+01 2.54765384731809e-01
3.38928571428571e-02 7.00530720901478e+01 2.53896300706781e-01
3.40785714285714e-02 6.96225628608585e+01 2.53026382702194e-01
3.42642857142857e-02 6.91946993141809e+01 2.52155700800167e-01
3.44500000000000e-02 6.87694651911460e+01 2.51284323916084e-01
3.46357142857143e-02 6.83468443328767e+01 2.50412319429693e-01
3.48214285714286e-02 6.79268206794518e+01 2.49539753471106e-01
3.50071428571429e-02 6.75093782698210e+01 2.48666691202090e-01
3.51928571428571e-02 6.70945012410219e+01 2.47793196446182e-01
3.53785714285714e-02 6.66821738275776e+01 2.46919331841109e-01
3.55642857142857e-02 6.62723803608974e+01 2.46045158859627e-01
3.57500000000000e-02 6.58651052686817e+01 2.45170737952235e-01
3.59357142857143e-02 6.54603330744898e+01 2.44296128198558e-01
3.61214285714286e-02 6.50580483966697e+01 2.43421387574633e-01
3.63071428571429e-02 6.46582359482584e+01 2.42546573215583e-01
3.64928571428571e-02 6.42608805362386e+01 2.41671741066316e-01
3.66785714285714e-02 6.38659670609610e+01 2.40796946023204e-01
3.68642857142857e-02 6.34734805155709e+01 2.39922241952147e-01
3.70500000000000e-02 6.30834059854378e+01 2.39047681821402e-01
3.72357142857143e-02 6.26957286477366e+01 2.38173317372042e-01
3.74214285714286e-02 6.23104337704382e+01 2.37299199368115e-01
3.76071428571429e-02 6.19275067121982e+01 2.36425377842294e-01
3.77928571428571e-02 6.15469329216501e+01 2.35551901765990e-01
3.79785714285714e-02 6.11686979368522e+01 2.34678819181321e-01
3.81642857142857e-02 6.07927873847386e+01 2.33806177216822e-01
3.83500000000000e-02 6.04191869805725e+01 2.32934022211292e-01
3.85357142857143e-02 6.00478825275404e+01 2.32062399402289e-01
3.87214285714286e-02 5.96788599157999e+01 2.31191353160561e-01
3.89071428571429e-02 5.93121051223586e+01 2.30320927220064e-01
3.90928571428571e-02 5.89476042104018e+01 2.29451164366344e-01
3.92785714285714e-02 5.85853433287631e+01 2.28582106559665e-01
3.94642857142857e-02 5.82253087113981e+01 2.27713794948777e-01
3.96500000000000e-02 5.78674866768614e+01 2.26846269986536e-01
3.98357142857143e-02 5.75118636279131e+01 2.25979571135433e-01
4.00214285714286e-02 5.71584260506200e+01 2.25113737087536e-01
4.02071428571429e-02 5.68071605142267e+01 2.24248805980083e-01
4.03928571428571e-02 5.64580536705159e+01 2.23384815101109e-01
4.05785714285714e-02 5.61110922533013e+01 2.22521801004497e-01
4.07642857142857e-02 5.57662630779235e+01 2.21659799522048e-01
4.09500000000000e-02 5.54235530407496e+01 2.20798845871609e-01
4.11357142857143e-02 5.50829491187915e+01 2.19938974378664e-01
4.13214285714286e-02 5.47444383688580e+01 2.19080218682875e-01
4.15071428571429e-02 5.44080079274181e+01 2.18222611940381e-01
4.16928571428571e-02 5.40736450099937e+01 2.17366186545627e-01
4.18785714285714e-02 5.37413369106729e+01 2.16510974239028e-01
4.20642857142857e-02 5.34110710016278e+01 2.15657006117615e-01
4.22500000000000e-02 5.30828347326347e+01 2.14804312736255e-01
4.24357142857143e-02 5.27566156307056e+01 2.13952923844373e-01
4.26214285714286e-02 5.24324012992861e+01 2.13102868580100e-01
4.28071428571429e-02 5.21101794181145e+01 2.12254175660270e-01
4.29928571428571e-02 5.17899377426428e+01 2.11406873117505e-01
4.31785714285714e-02 5.14716641035715e+01 2.10560988401083e-01
4.33642857142857e-02 5.11553464063874e+01 2.09716548386343e-01
4.35500000000000e-02 5.08409726309037e+01 2.08873579469545e-01
4.37357142857143e-02 5.05285308309045e+01 2.08032107318888e-01
4.39214285714286e-02 5.02180091333857e+01 2.07192157057134e-01
4.41071428571429e-02 4.99093957384105e+01 2.06353753440205e-01
4.42928571428571e-02 4.96026789185584e+01 2.05516920608626e-01
4.44785714285714e-02 4.92978470184793e+01 2.04681682182102e-01
4.46642857142857e-02 4.89948884544508e+01 2.03848061267880e-01
4.48500000000000e-02 4.86937917139379e+01 2.03016080549749e-01
4.50357142857143e-02 4.83945453552501e+01 2.02185762052523e-01
4.52214285714286e-02 4.80971380068216e+01 2.01357127313920e-01
4.54071428571429e-02 4.78015583670659e+01 2.00530197552576e-01
4.55928571428571e-02 4.75077952038497e+01 1.99704993433047e-01
4.57785714285714e-02 4.72158373540667e+01 1.98881535154556e-01
4.59642857142857e-02 4.69256737232129e+01 1.98059842458428e-01
4.61500000000000e-02 4.66372932849656e+01 1.97239934711698e-01
4.63357142857143e-02 4.63506850808515e+01 1.96421830684237e-01
4.65214285714286e-02 4.60658382195663e+01 1.95605548710684e-01
4.67071428571429e-02 4.57827418768261e+01 1.94791106848599e-01
4.68928571428571e-02 4.55013852948677e+01 1.93978522656188e-01
4.70785714285714e-02 4.52217577820392e+01 1.93167813275689e-01
4.72642857142857e-02 4.49438487123939e+01 1.92358995439987e-01
4.74500000000000e-02 4.46676475252867e+01 1.91552085551222e-01
4.76357142857143e-02 4.43931437250545e+01 1.90747099469857e-01
4.78214285714286e-02 4.41203268803706e+01 1.89944052667297e-01
4.80071428571429e-02 4.38491866240962e+01 1.89142960374879e-01
4.81928571428571e-02 4.35797126528036e+01 1.88343837373576e-01
4.83785714285714e-02 4.33118947263844e+01 1.87546698072398e-01
4.85642857142857e-02 4.30457226676605e+01 1.86751556514284e-01
4.87500000000000e-02 4.27811863619976e+01 1.85958426450100e-01
4.89357142857143e-02 4.25182757569965e+01 1.85167321138957e-01
4.91214285714286e-02 4.22569808618817e+01 1.84378253492091e-01
4.93071428571429e-02 4.19972917473529e+01 1.83591236213305e-01
4.94928571428571e-02 4.17391985451298e+01 1.82806281600012e-01
4.96785714285714e-02 4.14826914475772e+01 1.82023401616986e-01
4.98642857142857e-02 4.12277607073329e+01 1.81242607901637e-01
5.00500000000000e-02 4.09743966369363e+01 1.80463911833627e-01
5.02357142857143e-02 4.07225896085324e+01 1.79687324345836e-01
5.04214285714286e-02 4.04723300532909e+01 1.78912856060170e-01
5.06071428571429e-02 4.02236084612580e+01 1.78140517419928e-01
5.07928571428571e-02 3.99764153809235e+01 1.77370318501531e-01
5.09785714285714e-02 3.97307414188608e+01 1.76602269083952e-01
5.11642857142857e-02 3.94865772393705e+01 1.75836378653424e-01
5.13500000000000e-02 3.92439135641254e+01 1.75072656469043e-01
5.15357142857143e-02 3.90027411718846e+01 1.74311111383750e-01
5.17214285714286e-02 3.87630508979426e+01 1.73551751972506e-01
5.19071428571429e-02 3.85248336339822e+01 1.72794586657241e-01
5.20928571428571e-02 3.82880803276613e+01 1.72039623528541e-01
5.22785714285714e-02 3.80527819822686e+01 1.71286870411071e-01
5.24642857142857e-02 3.78189296563818e+01 1.70536334867858e-01
5.26500000000000e-02 3.75865144635280e+01 1.69788024262088e-01
5.28357142857143e-02 3.73555275719079e+01 1.69041945587515e-01
5.30214285714286e-02 3.71259602038729e+01 1.68298105589539e-01
5.32071428571429e-02 3.68978036357802e+01 1.67556510883134e-01
5.33928571428571e-02 3.66710491975977e+01 1.66817167784014e-01
5.35785714285714e-02 3.64456882725745e+01 1.66080082370316e-01
5.37642857142857e-02 3.62217122969142e+01 1.65345260486412e-01
5.39500000000000e-02 3.59991127594485e+01 1.64612707801206e-01
5.41357142857143e-02 3.57778812013724e+01 1.63882429647443e-01
5.43214285714286e-02 3.55580092157480e+01 1.63154431136162e-01
5.45071428571429e-02 3.53394884473603e+01 1.62428717268028e-01
5.46928571428571e-02 3.51223105923410e+01 1.61705292773383e-01
5.48785714285714e-02 3.49064673978531e+01 1.60984162170469e-01
5.50642857142857e-02 3.46919506617770e+01 1.60265329768848e-01
5.52500000000000e-02 3.44787522323993e+01 1.59548799724401e-01
5.54357142857143e-02 3.42668640081566e+01 1.58834575887076e-01
5.56214285714286e-02 3.40562779371648e+01 1.58122661909021e-01
5.58071428571429e-02 3.38469860170770e+01 1.57413061349790e-01
5.59928571428571e-02 3.36389802947246e+01 1.56705777524840e-01
5.61785714285714e-02 3.34322528658149e+01 1.56000813560455e-01
5.63642857142857e-02 3.32267958746307e+01 1.55298172396783e-01
5.65500000000000e-02 3.30226015137320e+01 1.54597856839784e-01
5.67357142857143e-02 3.28196620237101e+01 1.53899869416960e-01
5.69214285714286e-02 3.26179696927394e+01 1.53204212479563e-01
5.71071428571429e-02 3.24175168564383e+01 1.52510888302023e-01
5.72928571428571e-02 3.22182958975266e+01 1.51819898938398e-01
5.74785714285714e-02 3.20202992455357e+01 1.51131246274207e-01
5.76642857142857e-02 3.18235193765212e+01 1.50444932029191e-01
5.78500000000000e-02 3.16279488127769e+01 1.49760957806361e-01
5.80357142857143e-02 3.14335801225981e+01 1.49079324955241e-01
5.82214285714286e-02 3.12404059198561e+01 1.48400034668518e-01
5.84071428571429e-02 3.10484188638613e+01 1.47723088076066e-01
5.85928571428571e-02 3.08576116590361e+01 1.47048486108896e-01
