Energy (eV)          EEDF (eV^-(3/2))     First Anisotropy
2.86666666666667e-01 9.61037192200741e-02 1.97480251079038e-04
8.60000000000000e-01 8.56170480734211e-02 3.09344463978567e-04
1.43333333333333e+00 7.62746642475482e-02 3.66271817572628e-04
2.00666666666667e+00 6.79517051827706e-02 3.89032801023395e-04
2.58000000000000e+00 6.05369329835834e-02 3.94198780709837e-04
3.15333333333333e+00 5.39312478488090e-02 3.88850435458249e-04
3.72666666666667e+00 4.80463636269498e-02 3.76932182501034e-04
4.30000000000000e+00 4.28036277677891e-02 3.60909594770598e-04
4.87333333333333e+00 3.81329701448584e-02 3.42419348304062e-04
5.44666666666667e+00 3.39719665840432e-02 3.22584477254335e-04
6.02000000000000e+00 3.02650045164367e-02 3.02188845786198e-04
6.59333333333333e+00 2.69625397162962e-02 2.81782700791494e-04
7.16666666666667e+00 2.40204341488058e-02 2.61750696502491e-04
7.74000000000000e+00 2.13993660388195e-02 2.42357806217245e-04
8.31333333333333e+00 1.90643043327624e-02 2.23781395260919e-04
8.88666666666667e+00 1.69840405108847e-02 2.06134218170212e-04
9.46000000000000e+00 1.51307714696513e-02 1.89481235886822e-04
1.00333333333333e+01 1.34797279305531e-02 1.73852097436446e-04
1.06066666666667e+01 1.20088433992726e-02 1.59250507459778e-04
1.11800000000000e+01 1.06984592404343e-02 1.45661312495962e-04
1.17533333333333e+01 9.53106192121029e-03 1.33055887879361e-04
1.23266666666667e+01 8.49104897593348e-03 1.21396246600007e-04
1.29000000000000e+01 7.56452044157676e-03 1.10638174895877e-04
1.34733333333333e+01 6.73909308957519e-03 1.00733618022049e-04
1.40466666666667e+01 6.00373494055441e-03 9.16324917358664e-05
1.46200000000000e+01 5.34861779867210e-03 8.32840463873511e-05
1.51933333333333e+01 4.76498590036017e-03 7.56378816962721e-05
1.57666666666667e+01 4.24503890375029e-03 6.86446924032788e-05
1.63400000000000e+01 3.78182762244684e-03 6.22568029100277e-05
1.69133333333333e+01 3.36916115104232e-03 5.64285368401304e-05
1.74866666666667e+01 3.00152413002895e-03 5.11164605014660e-05
1.80600000000000e+01 2.67400302364862e-03 4.62795280822427e-05
1.86333333333333e+01 2.38222045123855e-03 4.18791508558667e-05
1.92066666666667e+01 2.12227668754547e-03 3.78792099476556e-05
1.97800000000000e+01 1.89069753684021e-03 3.42460261870818e-05
2.03533333333333e+01 1.68438790069353e-03 3.09482979205349e-05
2.09266666666667e+01 1.50059041452985e-03 2.79570166702955e-05
2.15000000000000e+01 1.33684859149798e-03 2.52453671133143e-05
2.20733333333333e+01 1.19097399173486e-03 2.27886165679437e-05
2.26466666666667e+01 1.06101697549349e-03 2.05639989102675e-05
2.32200000000000e+01 9.45240643610130e-04 1.85505958515520e-05
2.37933333333333e+01 8.42097623953086e-04 1.67292178889731e-05
2.43666666666667e+01 7.50209391840243e-04 1.50822872675060e-05
2.49400000000000e+01 6.68347844338324e-04 1.35937241065598e-05
2.55133333333333e+01 5.95418886716959e-04 1.22488365582731e-05
2.60866666666667e+01 5.30447810548638e-04 1.10342159943840e-05
2.66600000000000e+01 4.72566265587592e-04 9.93763750451726e-06
2.72333333333333e+01 4.21000654288857e-04 8.94796586886868e-06
2.78066666666667e+01 3.75061793115787e-04 8.05506732121488e-06
2.83800000000000e+01 3.34135700838246e-04 7.24972698413149e-06
2.89533333333333e+01 2.97675392678520e-04 6.52357182067676e-06
2.95266666666667e+01 2.65193570145496e-04 5.86899908950739e-06
3.01000000000000e+01 2.36256107777761e-04 5.27911002544394e-06
3.06733333333333e+01 2.10476251054772e-04 4.74764846855488e-06
3.12466666666667e+01 1.87509447609381e-04 4.26894428592337e-06
3.18200000000000e+01 1.67048741940246e-04 3.83786126836206e-06
3.23933333333333e+01 1.48820672946655e-04 3.44974920173619e-06
3.29666666666667e+01 1.32581619243217e-04 3.10039991027517e-06
3.35400000000000e+01 1.18114542926829e-04 2.78600697050786e-06
3.41133333333333e+01 1.05226088859470e-04 2.50312881699384e-06
3.46866666666667e+01 9.37440005571000e-05 2.24865503752390e-06
3.52600000000000e+01 8.35148178237343e-05 2.01977559552350e-06
3.58333333333333e+01 7.44018257505876e-05 1.81395273973201e-06
3.64066666666667e+01 6.62832275741722e-05 1.62889541993958e-06
3.69800000000000e+01 5.90505167552190e-05 1.46253599146866e-06
3.75533333333333e+01 5.26070267841474e-05 1.31300901094696e-06
3.81266666666667e+01 4.68666392680112e-05 1.17863197035282e-06
3.87000000000000e+01 4.17526328850981e-05 1.05788779483565e-06
3.92733333333333e+01 3.71966580006451e-05 9.49408946468282e-07
3.98466666666667e+01 3.31378231969790e-05 8.51963009378640e-07
4.04200000000000e+01 2.95218814098608e-05 7.64439619147536e-07
4.09933333333333e+01 2.63005049134228e-05 6.85838612828653e-07
4.15666666666667e+01 2.34306394353269e-05 6.15259300700288e-07
4.21400000000000e+01 2.08739287023332e-05 5.51890753694130e-07
4.27133333333333e+01 1.85962018063295e-05 4.95003011079243e-07
4.32866666666667e+01 1.65670165202154e-05 4.43939131276055e-07
4.38600000000000e+01 1.47592524142011e-05 3.98108004740379e-07
4.44333333333333e+01 1.31487483894370e-05 3.56977856106776e-07
4.50066666666667e+01 1.17139797716013e-05 3.20070376241392e-07
4.55800000000000e+01 1.04357706176232e-05 2.86955422820995e-07
4.61533333333333e+01 9.29703742781952e-06 2.57246234372973e-07
4.67266666666667e+01 8.28256082934753e-06 2.30595112576398e-07
4.73000000000000e+01 7.37878215829489e-06 2.06689526684941e-07
4.78733333333333e+01 6.57362224709670e-06 1.85248598723258e-07
4.84466666666667e+01 5.85631998939905e-06 1.66019935316205e-07
4.90200000000000e+01 5.21728851031272e-06 1.48776771679109e-07
4.95933333333333e+01 4.64798703705562e-06 1.33315396901708e-07
5.01666666666667e+01 4.14080675347576e-06 1.19452834910590e-07
5.07400000000000e+01 3.68896910301758e-06 1.07024755484264e-07
5.13133333333333e+01 3.28643519274009e-06 9.58835923895782e-08
5.18866666666667e+01 2.92782508480901e-06 8.58968495268837e-08
5.24600000000000e+01 2.60834589003885e-06 7.69455761142677e-08
5.30333333333333e+01 2.32372771050644e-06 6.89229939449873e-08
5.36066666666667e+01 2.07016657322676e-06 6.17332625234492e-08
5.41800000000000e+01 1.84427358757724e-06 5.52903680876820e-08
5.47533333333333e+01 1.64302965246474e-06 4.95171240099000e-08
5.53266666666667e+01 1.46374510661216e-06 4.43442720744775e-08
5.59000000000000e+01 1.30402377952448e-06 3.97096743446682e-08
5.64733333333333e+01 1.16173096644362e-06 3.55575864238443e-08
5.70466666666667e+01 1.03496489840019e-06 3.18380043695168e-08
5.76200000000000e+01 9.22031323888024e-07 2.85060777149632e-08
5.81933333333333e+01 8.21420865027891e-07 2.55215818580683e-08
5.87666666666667e+01 7.31788844985260e-07 2.28484441264434e-08
5.93400000000000e+01 6.51937315545604e-07 2.04543179986103e-08
5.99133333333333e+01 5.80799046416677e-07 1.83102005511888e-08
6.04866666666667e+01 5.17423261863903e-07 1.63900889594332e-08
6.10600000000000e+01 4.60962933025558e-07 1.46706720208075e-08
6.16333333333333e+01 4.10663457285168e-07 1.31310531030060e-08
6.22066666666667e+01 3.65852573119338e-07 1.17525014639142e-08
6.27800000000000e+01 3.25931374929383e-07 1.05182290064101e-08
6.33533333333333e+01 2.90366308605163e-07 9.41318984606687e-09
6.39266666666667e+01 2.58682040648665e-07 8.42390046317724e-09
6.45000000000000e+01 2.30455105069109e-07 7.53827830222404e-09
6.50733333333333e+01 2.05308243714617e-07 6.74549691154959e-09
6.56466666666667e+01 1.82905364266307e-07 6.03585599910328e-09
6.62200000000000e+01 1.62947048175175e-07 5.40066485189688e-09
6.67933333333333e+01 1.45166548900472e-07 4.83213773383629e-09
6.73666666666667e+01 1.29326226874899e-07 4.32330008022458e-09
6.79400000000000e+01 1.15214373320317e-07 3.86790436270630e-09
6.85133333333333e+01 1.02642380736381e-07 3.46035461974793e-09
6.90866666666667e+01 9.14422221829768e-08 3.09563879410037e-09
6.96600000000000e+01 8.14642055087986e-08 2.76926806117050e-09
7.02333333333333e+01 7.25749726988106e-08 2.47722242023149e-09
7.08066666666667e+01 6.46557175587402e-08 2.21590192552179e-09
7.13800000000000e+01 5.76005978067496e-08 1.98208296655905e-09
7.19533333333333e+01 5.13153204791777e-08 1.77287907074915e-09
7.25266666666667e+01 4.57158817145835e-08 1.58570577683292e-09
7.31000000000000e+01 4.07274439979264e-08 1.41824915207566e-09
7.36733333333333e+01 3.62833359484529e-08 1.26843757223994e-09
7.42466666666667e+01 3.23241612629708e-08 1.13441643752583e-09
7.48200000000000e+01 2.87970048534805e-08 1.01452551595008e-09
7.53933333333333e+01 2.56547256307694e-08 9.07278638987776e-10
7.59666666666667e+01 2.28553264678966e-08 8.11345513128388e-10
7.65400000000000e+01 2.03613928871562e-08 7.25535424660651e-10
7.71133333333333e+01 1.81395930111031e-08 6.48782639089006e-10
7.76866666666667e+01 1.61602320847391e-08 5.80133324416737e-10
7.82600000000000e+01 1.43968555901762e-08 5.18733837696813e-10
7.88333333333333e+01 1.28258956787992e-08 4.63820231633859e-10
7.94066666666667e+01 1.14263561887622e-08 4.14708857962903e-10
7.99800000000000e+01 1.01795320208737e-08 3.70787951867605e-10
8.05533333333333e+01 9.06875914265271e-09 3.31510094234198e-10
8.11266666666667e+01 8.07919187471090e-09 2.96385462820458e-10
8.17000000000000e+01 7.19760447098655e-09 2.64975788989615e-10
8.22733333333333e+01 6.41221435500930e-09 2.36888945689757e-10
8.28466666666667e+01 5.71252464653528e-09 2.11774102585324e-10
8.34200000000000e+01 5.08918386567651e-09 1.89317388353125e-10
8.39933333333333e+01 4.53386094920154e-09 1.69238006657576e-10
8.45666666666667e+01 4.03913390637736e-09 1.51284759638757e-10
8.51400000000000e+01 3.59839062052729e-09 1.35232935765580e-10
8.57133333333333e+01 3.20574047725593e-09 1.20881523585240e-10
8.62866666666667e+01 2.85593563671403e-09 1.08050718136543e-10
8.68600000000000e+01 2.54430089375010e-09 9.65796890093046e-11
8.74333333333333e+01 2.26667119319727e-09 8.63245823967345e-11
8.80066666666667e+01 2.01933596412221e-09 7.71567332331373e-11
8.85800000000000e+01 1.79898952632031e-09 6.89610651306348e-11
8.91533333333333e+01 1.60268690947442e-09 6.16346582470190e-11
8.97266666666667e+01 1.42780449376272e-09 5.50854678949622e-11
9.03000000000000e+01 1.27200494397506e-09 4.92311778877667e-11
9.08733333333333e+01 1.13320597072464e-09 4.39981743541502e-11
9.14466666666667e+01 1.00955250073764e-09 3.93206276690004e-11
9.20200000000000e+01 8.99391882956947e-10 3.51396710116227e-11
9.25933333333333e+01 8.01251800644639e-10 3.14026653104260e-11
9.31666666666667e+01 7.13820593924396e-10 2.80625417011668e-11
9.37400000000000e+01 6.35929728858610e-10 2.50772132557634e-11
9.43133333333333e+01 5.66538179838344e-10 2.24090486339544e-11
9.48866666666667e+01 5.04718516311217e-10 2.00244012876142e-11
9.54600000000000e+01 4.49644507260421e-10 1.78931883058129e-11
9.60333333333333e+01 4.00580078517535e-10 1.59885136309545e-11
9.66066666666667e+01 3.56869475153274e-10 1.42863310745944e-11
9.71800000000000e+01 3.17928497024904e-10 1.27651428945368e-11
9.77533333333333e+01 2.83236690863274e-10 1.14057301553591e-11
9.83266666666667e+01 2.52330394428494e-10 1.01909115931811e-11
9.89000000000000e+01 2.24796539462620e-10 9.10532794718457e-12
9.94733333333333e+01 2.00267130976825e-10 8.13524905051429e-12
1.00046666666667e+02 1.78414329006686e-10 7.26840132505707e-12
1.00620000000000e+02 1.58946066944556e-10 6.49381353333899e-12
1.01193333333333e+02 1.41602147756381e-10 5.80167876523733e-12
1.01766666666667e+02 1.26150767001220e-10 5.18323108094723e-12
1.02340000000000e+02 1.12385414155852e-10 4.63063523685874e-12
1.02913333333333e+02 1.00122112657324e-10 4.13688794949014e-12
1.03486666666667e+02 8.91969613853177e-11 3.69572972155662e-12
1.04060000000000e+02 7.94639436997911e-11 3.30156599633846e-12
1.04633333333333e+02 7.07929759668101e-11 2.94939657395720e-12
1.05206666666667e+02 6.30681692192738e-11 2.63475258167765e-12
1.05780000000000e+02 5.61862800057696e-11 2.35364011687531e-12
1.06353333333333e+02 5.00553305680863e-11 2.10248980047075e-12
1.06926666666667e+02 4.45933797171460e-11 1.87811173162034e-12
1.07500000000000e+02 3.97274274835135e-11 1.67765521421764e-12
1.08073333333333e+02 3.53924394908210e-11 1.49857271055495e-12
1.08646666666667e+02 3.15304778815415e-11 1.33858765603522e-12
1.09220000000000e+02 2.80899268343819e-11 1.19566568549064e-12
1.09793333333333e+02 2.50248027312020e-11 1.06798888199976e-12
1.10366666666667e+02 2.22941396625328e-11 9.53932785106334e-13
1.10940000000000e+02 1.98614418184650e-11 8.52045837585882e-13
1.11513333333333e+02 1.76941957306449e-11 7.61030992833343e-13
1.12086666666667e+02 1.57634357829857e-11 6.79729293889833e-13
1.12660000000000e+02 1.40433570167049e-11 6.07105195096262e-13
1.13233333333333e+02 1.25109702528849e-11 5.42233427901007e-13
1.13806666666667e+02 1.11457948790876e-11 4.84287275135319e-13
1.14380000000000e+02 9.92958507752055e-12 4.32528090326206e-13
1.14953333333333e+02 8.84608597368952e-12 3.86295920341522e-13
1.15526666666667e+02 7.88081641571980e-12 3.45001133986552e-13
1.16100000000000e+02 7.02087539998115e-12 3.08116939943338e-13
1.16673333333333e+02 6.25476965192720e-12 2.75172692897367e-13
1.17246666666667e+02 5.57226003636668e-12 2.45747917989872e-13
1.17820000000000e+02 4.96422468786353e-12 2.19466970408269e-13
1.18393333333333e+02 4.42253709889656e-12 1.95994257918795e-13
1.18966666666667e+02 3.93995752152715e-12 1.75029976240601e-13
1.19540000000000e+02 3.51003619173528e-12 1.56306297925681e-13
1.20113333333333e+02 3.12702712962266e-12 1.39583963226502e-13
1.20686666666667e+02 2.78581135304670e-12 1.24649237034716e-13
1.21260000000000e+02 2.48182845095913e-12 1.11311189574877e-13
1.21833333333333e+02 2.21101563440498e-12 9.93992640965846e-14
1.22406666666667e+02 1.96975344337112e-12 8.87611058256245e-14
1.22980000000000e+02 1.75481736470244e-12 7.92606220002214e-14
1.23553333333333e+02 1.56333473709685e-12 7.07762467720126e-14
1.24126666666667e+02 1.39274636217890e-12 6.31993925316851e-14
1.24700000000000e+02 1.24077229522919e-12 5.64330661465784e-14
1.25273333333333e+02 1.10538137414458e-12 5.03906314088165e-14
1.25846666666667e+02 9.84764075874818e-13 4.49947044873374e-14
1.26420000000000e+02 8.77308328248497e-13 4.01761670483159e-14
1.26993333333333e+02 7.81577964918011e-13 3.58732837073726e-14
1.27566666666667e+02 6.96293533028116e-13 3.20309143578720e-14
1.28140000000000e+02 6.20315190606428e-13 2.85998104447310e-14
1.28713333333333e+02 5.52627472774377e-13 2.55359856743535e-14
1.29286666666667e+02 4.92325721474038e-13 2.28001543925031e-14
1.29860000000000e+02 4.38603992812143e-13 2.03572298402102e-14
1.30433333333333e+02 3.90744285756619e-13 1.81758755082083e-14
1.31006666666667e+02 3.48106947038310e-13 1.62281047466795e-14
1.31580000000000e+02 3.10122120857158e-13 1.44889230793714e-14
1.32153333333333e+02 2.76282132853335e-13 1.29360083894425e-14
1.32726666666667e+02 2.46134705725963e-13 1.15494255121976e-14
1.33300000000000e+02 2.19276913619310e-13 1.03113712796970e-14
1.33873333333333e+02 1.95349797083234e-13 9.20594657283768e-15
1.34446666666667e+02 1.74033566058480e-13 8.21895290277478e-15
1.35020000000000e+02 1.55043325234328e-13 7.33771070408794e-15
1.35593333333333e+02 1.38125266467085e-13 6.55089688505178e-15
1.36166666666667e+02 1.23053276967584e-13 5.84839986301839e-15
1.36740000000000e+02 1.09625916850752e-13 5.22119007785514e-15
1.37313333333333e+02 9.76637269219920e-14 4.66120423436317e-15
1.37886666666667e+02 8.70068304373711e-14 4.16124200690113e-15
1.38460000000000e+02 7.75127960343080e-14 3.71487377668601e-15
1.39033333333333e+02 6.90547341573201e-14 3.31635815560282e-15
1.39606666666667e+02 6.15196013410660e-14 2.96056839112040e-15
1.40180000000000e+02 5.48066891630799e-14 2.64292663423971e-15
1.40753333333333e+02 4.88262782900662e-14 2.35934518271640e-15
1.41326666666667e+02 4.34984394919202e-14 2.10617405257635e-15
1.41900000000000e+02 3.87519652328017e-14 1.88015415295330e-15
1.42473333333333e+02 3.45234179922813e-14 1.67837543188950e-15
1.43046666666667e+02 3.07562825016102e-14 1.49823953087468e-15
1.43620000000000e+02 2.74002103089275e-14 1.33742643192360e-15
1.44193333333333e+02 2.44103468789730e-14 1.19386464680519e-15
1.44766666666667e+02 2.17467321671293e-14 1.06570461826022e-15
1.45340000000000e+02 1.93737664777329e-14 9.51294965694374e-16
1.45913333333333e+02 1.72597346787916e-14 8.49161254600666e-16
1.46486666666667e+02 1.53763823675407e-14 7.57987053922851e-16
1.47060000000000e+02 1.36985381974045e-14 6.76597019730960e-16
1.47633333333333e+02 1.22037774661405e-14 6.03941776810634e-16
1.48206666666667e+02 1.08721224364089e-14 5.39084429807435e-16
1.48780000000000e+02 9.68577529627188e-15 4.81188517692215e-16
1.49353333333333e+02 8.62888029362849e-15 4.29507248925026e-16
1.49926666666667e+02 7.68731184272518e-15 3.83373897126298e-16
1.50500000000000e+02 6.84848570978571e-15 3.42193224701367e-16
1.51073333333333e+02 6.10119082623018e-15 3.05433818640261e-16
1.51646666666667e+02 5.43543946574823e-15 2.72621252702907e-16
1.52220000000000e+02 4.84233374020101e-15 2.43331981651429e-16
1.52793333333333e+02 4.31394668037777e-15 2.17187885109820e-16
1.53366666666667e+02 3.84321630112775e-15 1.93851399826235e-16
1.53940000000000e+02 3.42385120523594e-15 1.73021173203230e-16
1.54513333333333e+02 3.05024649960694e-15 1.54428179428713e-16
1.55086666666667e+02 2.71740889220278e-15 1.37832254520883e-16
1.55660000000000e+02 2.42088994781054e-15 1.23019002515643e-16
1.56233333333333e+02 2.15672663519098e-15 1.09797031040209e-16
1.56806666666667e+02 1.92138836558744e-15 9.79954851052362e-17
1.57380000000000e+02 1.71172980018758e-15 8.74618451250729e-17
1.57953333333333e+02 1.52494881300304e-15 7.80599594487996e-17
1.58526666666667e+02 1.35854904354206e-15 6.96682891692209e-17
1.59100000000000e+02 1.21030652859719e-15 6.21783410268819e-17
1.59673333333333e+02 1.07823997920509e-15 5.54932672614894e-17
1.60246666666667e+02 9.60584302874548e-16 4.95266165536992e-17
1.60820000000000e+02 8.55767010076330e-16 4.42012188533134e-17
1.61393333333333e+02 7.62387198076982e-16 3.94481890459457e-17
1.61966666666667e+02 6.79196829378518e-16 3.52060381500793e-17
1.62540000000000e+02 6.05084049562093e-16 3.14198798063881e-17
1.63113333333333e+02 5.39058327460811e-16 2.80407213525674e-17
1.63686666666667e+02 4.80237217761493e-16 2.50248314206785e-17
1.64260000000000e+02 4.27834565627656e-16 2.23331753519870e-17
1.64833333333333e+02 3.81149999813491e-16 1.99309108119309e-17
1.65406666666667e+02 3.39559572936069e-16 1.77869378568220e-17
1.65980000000000e+02 3.02507421371108e-16 1.58734972608114e-17
1.66553333333333e+02 2.69498336185869e-16 1.41658116841316e-17
1.67126666666667e+02 2.40091145184400e-16 1.26417655848997e-17
1.67700000000000e+02 2.13892815907361e-16 1.12816194710917e-17
1.68273333333333e+02 1.90553202787596e-16 1.00677546379094e-17
1.68846666666667e+02 1.69760367812719e-16 8.98444546986748e-18
1.69420000000000e+02 1.51236410959512e-16 8.01765617611009e-18
1.69993333333333e+02 1.34733756083629e-16 7.15485921707342e-18
1.70566666666667e+02 1.20031842314618e-16 6.38487334101641e-18
1.71140000000000e+02 1.06934175899679e-16 5.69771900359419e-18
1.71713333333333e+02 9.52657040807542e-17 5.37790294602208e-18
