Energy (eV)          EEDF (eV^-(3/2))     First Anisotropy
3.91666666666667e-03 2.79868148935123e+00 2.08892666178266e-03
1.17500000000000e-02 2.75860468255072e+00 3.43626611645440e-03
1.95833333333333e-02 2.71910177101386e+00 4.50156871543768e-03
2.74166666666667e-02 2.68016453689661e+00 5.29008365276604e-03
3.52500000000000e-02 2.64178487966220e+00 5.93072156170891e-03
4.30833333333333e-02 2.60395481477065e+00 6.47277911514518e-03
5.09166666666667e-02 2.56666647222538e+00 6.94204389420937e-03
5.87500000000000e-02 2.52991209460594e+00 7.35425192825522e-03
6.65833333333333e-02 2.49368403553582e+00 7.71994685041774e-03
7.44166666666667e-02 2.45797475825144e+00 8.04665568354207e-03
8.22500000000000e-02 2.42277683384853e+00 8.34000520534016e-03
9.00833333333333e-02 2.38808293977087e+00 8.60435178602920e-03
9.79166666666667e-02 2.35388585840085e+00 8.84316269846773e-03
1.05750000000000e-01 2.32017847552095e+00 9.05925994085026e-03
1.13583333333333e-01 2.28695377840511e+00 9.25498299219613e-03
1.21416666666667e-01 2.25420485534758e+00 9.43230154648860e-03
1.29250000000000e-01 2.22192489329351e+00 9.59289595162229e-03
1.37083333333333e-01 2.19010717653972e+00 9.73821590270162e-03
1.44916666666667e-01 2.15874508602022e+00 9.86952446573394e-03
1.52750000000000e-01 2.12783209720234e+00 9.98793162910802e-03
1.60583333333333e-01 2.09736177881012e+00 1.00944201732410e-02
1.68416666666667e-01 2.06732779204281e+00 1.01898661404461e-02
1.76250000000000e-01 2.03772388866889e+00 1.02750551500150e-02
1.84083333333333e-01 2.00854390978460e+00 1.03506954393252e-02
1.91916666666667e-01 1.97978178499646e+00 1.04174286066099e-02
1.99750000000000e-01 1.95143153067194e+00 1.04758384551836e-02
2.07583333333333e-01 1.92348724873878e+00 1.05264582333574e-02
2.15416666666667e-01 1.89594312585099e+00 1.05697767982907e-02
2.23250000000000e-01 1.86879343176914e+00 1.06062438167559e-02
2.31083333333333e-01 1.84203251820259e+00 1.06362740872131e-02
2.38916666666667e-01 1.81565481797197e+00 1.06602513278104e-02
2.46750000000000e-01 1.78965484349986e+00 1.06785314347864e-02
2.54583333333333e-01 1.76402718569663e+00 1.06914452127740e-02
2.62416666666667e-01 1.73876651312806e+00 1.06993008334179e-02
2.70250000000000e-01 1.71386757060234e+00 1.07023859833992e-02
2.78083333333333e-01 1.68932517809910e+00 1.07009696688895e-02
2.85916666666667e-01 1.66513422994829e+00 1.06953038840307e-02
2.93750000000000e-01 1.64128969350255e+00 1.06856250874055e-02
3.01583333333333e-01 1.61778660810869e+00 1.06721554392808e-02
3.09416666666667e-01 1.59462008430190e+00 1.06551039766300e-02
3.17250000000000e-01 1.57178530255497e+00 1.06346676641059e-02
3.25083333333333e-01 1.54927751229098e+00 1.06110322685680e-02
3.32916666666667e-01 1.52709203109593e+00 1.05843732129066e-02
3.40750000000000e-01 1.50522424353750e+00 1.05548563466659e-02
3.48583333333333e-01 1.48366960021796e+00 1.05226385801250e-02
3.56416666666667e-01 1.46242361700697e+00 1.04878685215639e-02
3.64250000000000e-01 1.44148187392415e+00 1.04506870568960e-02
3.72083333333333e-01 1.42084001423079e+00 1.04112278194010e-02
3.79916666666667e-01 1.40049374368415e+00 1.03696176764952e-02
3.87750000000000e-01 1.38043882947887e+00 1.03259771754372e-02
3.95583333333333e-01 1.36067109937605e+00 1.02804208977306e-02
4.03416666666667e-01 1.34118644097988e+00 1.02330578385091e-02
4.11250000000000e-01 1.32198080073359e+00 1.01839917559288e-02
4.19083333333333e-01 1.30305018308452e+00 1.01333214427718e-02
4.26916666666667e-01 1.28439064978355e+00 1.00811410274075e-02
4.34750000000000e-01 1.26599831893175e+00 1.00275402523607e-02
4.42583333333333e-01 1.24786936418010e+00 9.97260468527164e-03
4.50416666666667e-01 1.23000001405188e+00 9.91641596139386e-03
4.58250000000000e-01 1.21238655103671e+00 9.85905200904128e-03
4.66083333333333e-01 1.19502531082354e+00 9.80058721534539e-03
4.73916666666667e-01 1.17791268164604e+00 9.74109262436017e-03
4.81750000000000e-01 1.16104510342088e+00 9.68063612195338e-03
4.89583333333333e-01 1.14441906701286e+00 9.61928256734365e-03
4.97416666666667e-01 1.12803111360294e+00 9.55709395693583e-03
5.05250000000000e-01 1.11187783386824e+00 9.49412957775205e-03
5.13083333333333e-01 1.09595586727786e+00 9.43044611270378e-03
5.20916666666667e-01 1.08026190148335e+00 9.36609777757491e-03
5.28750000000000e-01 1.06479267153795e+00 9.30113644969426e-03
5.36583333333333e-01 1.04954495922188e+00 9.23561175279825e-03
5.44416666666667e-01 1.03451559245483e+00 9.16957117268764e-03
5.52250000000000e-01 1.01970144455217e+00 9.10306016615957e-03
5.60083333333333e-01 1.00509943357856e+00 9.03612222983548e-03
5.67916666666667e-01 9.90706521781991e-01 8.96879899867129e-03
5.75750000000000e-01 9.76519714884940e-01 8.90113033896073e-03
5.83583333333333e-01 9.62536061465069e-01 8.83315440444171e-03
5.91416666666667e-01 9.48752652410345e-01 8.76490772086425e-03
5.99250000000000e-01 9.35166620243233e-01 8.69642526600075e-03
6.07083333333333e-01 9.21775138527401e-01 8.62774051556922e-03
6.14916666666667e-01 9.08575421343341e-01 8.55888551634820e-03
6.22750000000000e-01 8.95564722643842e-01 8.48989095548230e-03
6.30583333333333e-01 8.82740335685645e-01 8.42078619818966e-03
6.38416666666667e-01 8.70099592524979e-01 8.35159935137985e-03
6.46250000000000e-01 8.57639863402691e-01 8.28235732405848e-03
6.54083333333333e-01 8.45358556199815e-01 8.21308585835907e-03
6.61916666666667e-01 8.33253115952436e-01 8.14380958521701e-03
6.69750000000000e-01 8.21321024264958e-01 8.07455207731174e-03
6.77583333333333e-01 8.09559798788584e-01 8.00533587463911e-03
6.85416666666667e-01 7.97966992754929e-01 7.93618253348853e-03
6.93250000000000e-01 7.86540194415986e-01 7.86711267307945e-03
7.01083333333333e-01 7.75277026544583e-01 7.79814599664285e-03
7.08916666666667e-01 7.64175145986126e-01 7.72930133471137e-03
7.16750000000000e-01 7.53232243123943e-01 7.66059668638942e-03
7.24583333333333e-01 7.42446041400800e-01 7.59204923672275e-03
7.32416666666667e-01 7.31814296888173e-01 7.52367539512639e-03
7.40250000000000e-01 7.21334797775728e-01 7.45549083205774e-03
7.48083333333333e-01 7.11005363913001e-01 7.38751049330275e-03
7.55916666666667e-01 7.00823846395623e-01 7.31974863422051e-03
7.63750000000000e-01 6.90788127077746e-01 7.25221885245625e-03
7.71583333333333e-01 6.80896118133057e-01 7.18493409965624e-03
7.79416666666667e-01 6.71145761657356e-01 7.11790671209253e-03
7.87250000000000e-01 6.61535029202832e-01 7.05114843994286e-03
7.95083333333333e-01 6.52061921357592e-01 6.98467045685532e-03
8.02916666666667e-01 6.42724467364024e-01 6.91848338742400e-03
8.10750000000000e-01 6.33520724673867e-01 6.85259733347842e-03
8.18583333333333e-01 6.24448778545494e-01 6.78702188184304e-03
8.26416666666667e-01 6.15506741677479e-01 6.72176612906033e-03
8.34250000000000e-01 6.06692753783489e-01 6.65683870506330e-03
8.42083333333333e-01 5.98004981206561e-01 6.59224777941534e-03
8.49916666666667e-01 5.89441616567333e-01 6.52800108361627e-03
8.57750000000000e-01 5.81000878357817e-01 6.46410593247420e-03
8.65583333333333e-01 5.72681010571961e-01 6.40056922906443e-03
8.73416666666667e-01 5.64480282368001e-01 6.33739748490406e-03
8.81250000000000e-01 5.56396987680231e-01 6.27459683929233e-03
8.89083333333333e-01 5.48429444865173e-01 6.21217306318754e-03
8.96916666666667e-01 5.40575996377513e-01 6.15013157749528e-03
9.04750000000000e-01 5.32835008399042e-01 6.08847747060818e-03
9.12583333333333e-01 5.25204870499766e-01 6.02721550136847e-03
9.20416666666667e-01 5.17683995326931e-01 5.96635011567946e-03
9.28250000000000e-01 5.10270818250328e-01 5.90588546244465e-03
9.36083333333333e-01 5.02963797037720e-01 5.84582539575571e-03
9.43916666666667e-01 4.95761411556458e-01 5.78617349001016e-03
9.51750000000000e-01 4.88662163434398e-01 5.72693305442233e-03
9.59583333333333e-01 4.81664575749043e-01 5.66810713455525e-03
9.67416666666667e-01 4.74767192741270e-01 5.60969852610264e-03
9.75250000000000e-01 4.67968579491139e-01 5.55170978812163e-03
9.83083333333333e-01 4.61267321620182e-01 5.49414324400991e-03
9.90916666666667e-01 4.54662025016759e-01 5.43700099408947e-03
9.98750000000000e-01 4.48151315526102e-01 5.38028493125304e-03
1.00658333333333e+00 4.41733838646910e-01 5.32399672717716e-03
1.01441666666667e+00 4.35408259341220e-01 5.26813785828445e-03
1.02225000000000e+00 4.29173261644925e-01 5.21270963413356e-03
1.03008333333333e+00 4.23027548382117e-01 5.15771314840676e-03
1.03791666666667e+00 4.16969841066827e-01 5.10314931765189e-03
1.04575000000000e+00 4.10998879462678e-01 5.04901892180492e-03
1.05358333333333e+00 4.05113421327062e-01 4.99532254330582e-03
1.06141666666667e+00 3.99312242313353e-01 4.94206060700761e-03
1.06925000000000e+00 3.93594135552977e-01 4.88923341824918e-03
1.07708333333333e+00 3.87957911410235e-01 4.83684110490859e-03
1.08491666666667e+00 3.82402397385292e-01 4.78488365490916e-03
1.09275000000000e+00 3.76926437717381e-01 4.73336095201328e-03
1.10058333333333e+00 3.71528893149852e-01 4.68227272067429e-03
1.10841666666667e+00 3.66208640834174e-01 4.63161856130612e-03
1.11625000000000e+00 3.60964573953105e-01 4.58139798395428e-03
1.12408333333333e+00 3.55795601495533e-01 4.53161035581361e-03
1.13191666666667e+00 3.50700648161712e-01 4.48225493441287e-03
1.13975000000000e+00 3.45678654005288e-01 4.43333089930646e-03
1.14758333333333e+00 3.40728574217536e-01 4.38483730213001e-03
1.15541666666667e+00 3.35849379034007e-01 4.33677309783991e-03
1.16325000000000e+00 3.31040053394371e-01 4.28913717455725e-03
1.17108333333333e+00 3.26299596735665e-01 4.24192830603895e-03
1.17891666666667e+00 3.21627022900505e-01 4.19514518110026e-03
1.18675000000000e+00 3.17021359813775e-01 4.14878643173183e-03
1.19458333333333e+00 3.12481649284518e-01 4.10285058786988e-03
1.20241666666667e+00 3.08006946915832e-01 4.05733610512023e-03
1.21025000000000e+00 3.03596321797499e-01 4.01224139126006e-03
1.21808333333333e+00 2.99248856316163e-01 3.96756476319447e-03
1.22591666666667e+00 2.94963646067016e-01 3.92330447309143e-03
1.23375000000000e+00 2.90739799561509e-01 3.87945873337214e-03
1.24158333333333e+00 2.86576438045474e-01 3.83602567574700e-03
1.24941666666667e+00 2.82472695412690e-01 3.79300337586242e-03
1.25725000000000e+00 2.78427717926868e-01 3.75038987687498e-03
1.26508333333333e+00 2.74440664047397e-01 3.70818315046529e-03
1.27291666666667e+00 2.70510704344840e-01 3.66638112009045e-03
1.28075000000000e+00 2.66637021236460e-01 3.62498168322990e-03
1.28858333333333e+00 2.62818808819254e-01 3.58398267428042e-03
1.29641666666667e+00 2.59055272787454e-01 3.54338188650073e-03
1.30425000000000e+00 2.55345630180857e-01 3.50317709301197e-03
1.31208333333333e+00 2.51689109224873e-01 3.46336601148097e-03
1.31991666666667e+00 2.48084949250041e-01 3.42394632483742e-03
1.32775000000000e+00 2.44532400452520e-01 3.38491570110485e-03
1.33558333333333e+00 2.41030723740841e-01 3.34627175978471e-03
1.34341666666667e+00 2.37579190657478e-01 3.30801209142144e-03
1.35125000000000e+00 2.34177083150867e-01 3.27013427633444e-03
1.35908333333333e+00 2.30823693428577e-01 3.23263585261926e-03
1.36691666666667e+00 2.27518323880962e-01 3.19551433462996e-03
1.37475000000000e+00 2.24260286864102e-01 3.15876723067872e-03
1.38258333333333e+00 2.21048904559142e-01 3.12239201257463e-03
1.39041666666667e+00 2.17883508898018e-01 3.08638613308813e-03
1.39825000000000e+00 2.14763441356768e-01 3.05074704267936e-03
1.40608333333333e+00 2.11688052820783e-01 3.01547216049925e-03
1.41391666666667e+00 2.08656703512597e-01 2.98055889089664e-03
1.42175000000000e+00 2.05668762795052e-01 2.94600463923301e-03
1.42958333333333e+00 2.02723609042203e-01 2.91180678427373e-03
1.43741666666667e+00 1.99820629569179e-01 2.87796269379441e-03
1.44525000000000e+00 1.96959220444690e-01 2.84446973953559e-03
1.45308333333333e+00 1.94138786367358e-01 2.81132527091598e-03
1.46091666666667e+00 1.91358740597627e-01 2.77852662979083e-03
1.46875000000000e+00 1.88618504779152e-01 2.74607116459666e-03
1.47658333333333e+00 1.85917508820319e-01 2.71395620532170e-03
1.48441666666667e+00 1.83255190828196e-01 2.68217907746518e-03
1.49225000000000e+00 1.80630996938345e-01 2.65073711541936e-03
1.50008333333333e+00 1.78044381201331e-01 2.61962763863551e-03
1.50791666666667e+00 1.75494805518672e-01 2.58884796483064e-03
1.51575000000000e+00 1.72981739480671e-01 2.55839542265016e-03
1.52358333333333e+00 1.70504660257691e-01 2.52826732897097e-03
1.53141666666667e+00 1.68063052538089e-01 2.49846100139880e-03
1.53925000000000e+00 1.65656408373656e-01 2.46897377025287e-03
1.54708333333333e+00 1.63284227075476e-01 2.43980295695024e-03
1.55491666666667e+00 1.60946015153795e-01 2.41094588583426e-03
1.56275000000000e+00 1.58641286170709e-01 2.38239989551985e-03
1.57058333333333e+00 1.56369560640399e-01 2.35416231830623e-03
1.57841666666667e+00 1.54130365970920e-01 2.32623049137455e-03
1.58625000000000e+00 1.51923236323765e-01 2.29860176752960e-03
1.59408333333333e+00 1.49747712518302e-01 2.27127349559110e-03
1.60191666666667e+00 1.47603341975440e-01 2.24424303099590e-03
1.60975000000000e+00 1.45489678583736e-01 2.21750774597014e-03
1.61758333333333e+00 1.43406282607861e-01 2.19106501085140e-03
1.62541666666667e+00 1.41352720634097e-01 2.16491220412873e-03
1.63325000000000e+00 1.39328565442678e-01 2.13904672207736e-03
1.64108333333333e+00 1.37333395920103e-01 2.11346596096608e-03
1.64891666666667e+00 1.35366797006438e-01 2.08816732656700e-03
1.65675000000000e+00 1.33428359573578e-01 2.06314824328216e-03
1.66458333333333e+00 1.31517680341252e-01 2.03840613719352e-03
1.67241666666667e+00 1.29634361826086e-01 2.01393844507157e-03
1.68025000000000e+00 1.27778012225501e-01 1.98974262302235e-03
1.68808333333333e+00 1.25948245337256e-01 1.96581613033886e-03
1.69591666666667e+00 1.24144680510224e-01 1.94215643803653e-03
1.70375000000000e+00 1.22366942533661e-01 1.91876103704686e-03
1.71158333333333e+00 1.20614661560131e-01 1.89562742283148e-03
1.71941666666667e+00 1.18887473057968e-01 1.87275310347035e-03
1.72725000000000e+00 1.17185017705636e-01 1.85013560742729e-03
1.73508333333333e+00 1.15506941317918e-01 1.82777246888960e-03
1.74291666666667e+00 1.13852894799991e-01 1.80566123543351e-03
1.75075000000000e+00 1.12222534046669e-01 1.78379947538485e-03
1.75858333333333e+00 1.10615519871682e-01 1.76218476384929e-03
1.76641666666667e+00 1.09031517963357e-01 1.74081468997828e-03
1.77425000000000e+00 1.07470198788476e-01 1.71968686394678e-03
1.78208333333333e+00 1.05931237524549e-01 1.69879890364091e-03
1.78991666666667e+00 1.04414314017027e-01 1.67814844154584e-03
1.79775000000000e+00 1.02919112687579e-01 1.65773313136154e-03
1.80558333333333e+00 1.01445322469213e-01 1.63755063531597e-03
1.81341666666667e+00 9.99926367649985e-02 1.61759863069574e-03
1.82125000000000e+00 9.85607533605350e-02 1.59787481611930e-03
1.82908333333333e+00 9.71493743618140e-02 1.57837689944565e-03
1.83691666666667e+00 9.57582061553979e-02 1.55910260396682e-03
1.84475000000000e+00 9.43869593248900e-02 1.54004967435707e-03
1.85258333333333e+00 9.30353485914163e-02 1.52121586514840e-03
1.86041666666667e+00 9.17030927752213e-02 1.50259894660337e-03
1.86825000000000e+00 9.03899147159495e-02 1.48419671035746e-03
1.87608333333333e+00 8.90955412156370e-02 1.46600695843445e-03
1.88391666666667e+00 8.78197030016819e-02 1.44802750881626e-03
1.89175000000000e+00 8.65621346507577e-02 1.43025620079516e-03
1.89958333333333e+00 8.53225745342096e-02 1.41269088450293e-03
1.90741666666667e+00 8.41007647823579e-02 1.39532942619437e-03
1.91525000000000e+00 8.28964512118719e-02 1.37816971332457e-03
1.92308333333333e+00 8.17093832734705e-02 1.36120964456726e-03
1.93091666666667e+00 8.05393140175166e-02 1.34444713482719e-03
1.93875000000000e+00 7.93860000246907e-02 1.32788012005719e-03
1.94658333333333e+00 7.82492013558972e-02 1.31150654774234e-03
1.95441666666667e+00 7.71286815191111e-02 1.29532438165555e-03
1.96225000000000e+00 7.60242074031956e-02 1.27933160642817e-03
1.97008333333333e+00 7.49355492299224e-02 1.26352621847796e-03
1.97791666666667e+00 7.38624805220298e-02 1.24790623052131e-03
1.98575000000000e+00 7.28047780400391e-02 1.23246967591051e-03
1.99358333333333e+00 7.17622217362980e-02 1.21721459998424e-03
2.00141666666667e+00 7.07345947242133e-02 1.20213906434933e-03
2.00925000000000e+00 6.97216832179245e-02 1.18724115099714e-03
2.01708333333333e+00 6.87232764882870e-02 1.17251895405630e-03
2.02491666666667e+00 6.77391668332398e-02 1.15797058385626e-03
2.03275000000000e+00 6.67691495202041e-02 1.14359417083429e-03
2.04058333333333e+00 6.58130227439247e-02 1.12938785767149e-03
2.04841666666667e+00 6.48705875979350e-02 1.11534980314962e-03
2.05625000000000e+00 6.39416480195547e-02 1.10147818585945e-03
2.06408333333333e+00 6.30260107495106e-02 1.08777119670196e-03
2.07191666666667e+00 6.21234853044633e-02 1.07422704254926e-03
2.07975000000000e+00 6.12338839244833e-02 1.06084394976502e-03
2.08758333333333e+00 6.03570215343758e-02 1.04762015705323e-03
2.09541666666667e+00 5.94927157172341e-02 1.03455391893354e-03
2.10325000000000e+00 5.86407866642789e-02 1.02164350908336e-03
2.11108333333333e+00 5.78010571378168e-02 1.00888721351802e-03
2.11891666666667e+00 5.69733524457835e-02 9.96283333890136e-04
2.12675000000000e+00 5.61575003938396e-02 9.83830190662648e-04
2.13458333333333e+00 5.53533312498918e-02 9.71526116604736e-04
2.14241666666667e+00 5.45606777195945e-02 9.59369459924256e-04
2.15025000000000e+00 5.37793749005956e-02 9.47358587280644e-04
2.15808333333333e+00 5.30092602485571e-02 9.35491877581580e-04
2.16591666666667e+00 5.22501735535797e-02 9.23767724957311e-04
2.17375000000000e+00 5.15019568965022e-02 9.12184541621601e-04
2.18158333333333e+00 5.07644546163560e-02 9.00740751954909e-04
2.18941666666667e+00 5.00375132876830e-02 8.89434795328826e-04
2.19725000000000e+00 4.93209816787924e-02 8.78265128823028e-04
2.20508333333333e+00 4.86147107205901e-02 8.67230221581503e-04
2.21291666666667e+00 4.79185534847573e-02 8.56328557494746e-04
2.22075000000000e+00 4.72323651438768e-02 8.45558637780065e-04
2.22858333333333e+00 4.65560029415777e-02 8.34918975598122e-04
2.23641666666667e+00 4.58893261715460e-02 8.24408098600273e-04
2.24425000000000e+00 4.52321961394330e-02 8.14024551379274e-04
2.25208333333333e+00 4.45844761342618e-02 8.03766890333783e-04
2.25991666666667e+00 4.39460314082392e-02 7.93633686087869e-04
2.26775000000000e+00 4.33167291403654e-02 7.83623525818808e-04
2.27558333333333e+00 4.26964384090488e-02 7.73735008357884e-04
2.28341666666667e+00 4.20850301726905e-02 7.63966746488589e-04
2.29125000000000e+00 4.14823772349187e-02 7.54317369157836e-04
2.29908333333333e+00 4.08883542183596e-02 7.44785516802042e-04
2.30691666666667e+00 4.03028375459679e-02 7.35369843530199e-04
2.31475000000000e+00 3.97257054078112e-02 7.26069019224500e-04
2.32258333333333e+00 3.91568377359485e-02 7.16881725081144e-04
2.33041666666667e+00 3.85961161864801e-02 7.07806655684187e-04
2.33825000000000e+00 3.80434241078108e-02 6.98842521001214e-04
2.34608333333333e+00 3.74986465165904e-02 6.89988042128832e-04
2.35391666666667e+00 3.69616700804558e-02 6.81241953262905e-04
2.36175000000000e+00 3.64323830877069e-02 6.72603003594607e-04
2.36958333333333e+00 3.59106754242636e-02 6.64069953251035e-04
2.37741666666667e+00 3.53964385570748e-02 6.55641575167116e-04
2.38525000000000e+00 3.48895655051440e-02 6.47316656887166e-04
2.39308333333333e+00 3.43899508174585e-02 6.39093996691482e-04
2.40091666666667e+00 3.38974905570426e-02 6.30972405374974e-04
2.40875000000000e+00 3.34120822732696e-02 6.22950707958955e-04
2.41658333333333e+00 3.29336249807245e-02 6.15027739995133e-04
2.42441666666667e+00 3.24620191438760e-02 6.07202349255631e-04
2.43225000000000e+00 3.19971666506179e-02 5.99473397359640e-04
2.44008333333333e+00 3.15389707920251e-02 5.91839756246490e-04
2.44791666666667e+00 3.10873362476220e-02 5.84300309781603e-04
2.45575000000000e+00 3.06421690600977e-02 5.76853955302308e-04
2.46358333333333e+00 3.02033766159176e-02 5.69499600252142e-04
2.47141666666667e+00 2.97708676311661e-02 5.62236163707027e-04
