Energy (eV)          EEDF (eV^-(3/2))     First Anisotropy
1.12916666666667e-03 9.83697837136726e+00 5.80400688010763e-03
3.38750000000000e-03 9.74302482009686e+00 9.57047010539254e-03
5.64583333333333e-03 9.64996862446172e+00 1.25981409809453e-02
7.90416666666667e-03 9.55780121404958e+00 1.48765154888411e-02
1.01625000000000e-02 9.46651409994751e+00 1.67587766524584e-02
1.24208333333333e-02 9.37609887406551e+00 1.83789909332875e-02
1.46791666666667e-02 9.28654720953225e+00 1.98068006430141e-02
1.69375000000000e-02 9.19785085829406e+00 2.10844160262487e-02
1.91958333333333e-02 9.11000165074584e+00 2.22399334321945e-02
2.14541666666667e-02 9.02299149623615e+00 2.32932822630088e-02
2.37125000000000e-02 8.93681238086702e+00 2.42592679617258e-02
2.59708333333333e-02 8.85145636701670e+00 2.51492840897158e-02
2.82291666666667e-02 8.76691559351759e+00 2.59723461795348e-02
3.04875000000000e-02 8.68318227393252e+00 2.67357509618128e-02
3.27458333333333e-02 8.60024869598111e+00 2.74455153141154e-02
3.50041666666667e-02 8.51810722152802e+00 2.81066794112098e-02
3.72625000000000e-02 8.43675028512841e+00 2.87235223437139e-02
3.95208333333333e-02 8.35617039342190e+00 2.92997192868033e-02
4.17791666666667e-02 8.27636012500276e+00 2.98384588098659e-02
4.40375000000000e-02 8.19731212914181e+00 3.03425320223906e-02
4.62958333333333e-02 8.11901912517171e+00 3.08144013386235e-02
4.85541666666667e-02 8.04147390227983e+00 3.12562545131458e-02
5.08125000000000e-02 7.96466931835665e+00 3.16700475782384e-02
5.30708333333333e-02 7.88859829938338e+00 3.20575392613002e-02
5.53291666666667e-02 7.81325383917218e+00 3.24203190579721e-02
5.75875000000000e-02 7.73862899831133e+00 3.27598302706523e-02
5.98458333333333e-02 7.66471690356059e+00 3.30773889850388e-02
6.21041666666667e-02 7.59151074755493e+00 3.33742000035341e-02
6.43625000000000e-02 7.51900378782714e+00 3.36513702447466e-02
6.66208333333333e-02 7.44718934621379e+00 3.39099199991416e-02
6.88791666666667e-02 7.37606080853362e+00 3.41507926077956e-02
7.11375000000000e-02 7.30561162367415e+00 3.43748627596479e-02
7.33958333333333e-02 7.23583530300992e+00 3.45829435596564e-02
7.56541666666667e-02 7.16672542006337e+00 3.47757927337500e-02
7.79125000000000e-02 7.09827560964572e+00 3.49541180311040e-02
8.01708333333333e-02 7.03047956728854e+00 3.51185818706362e-02
8.24291666666667e-02 6.96333104889268e+00 3.52698054974515e-02
8.46875000000000e-02 6.89682386991635e+00 3.54083726480719e-02
8.69458333333333e-02 6.83095190482033e+00 3.55348327216968e-02
8.92041666666667e-02 6.76570908670927e+00 3.56497036679276e-02
9.14625000000000e-02 6.70108940656142e+00 3.57534745606139e-02
9.37208333333333e-02 6.63708691268764e+00 3.58466078309253e-02
9.59791666666667e-02 6.57369571036835e+00 3.59295413365033e-02
9.82375000000000e-02 6.51090996112040e+00 3.60026902225793e-02
1.00495833333333e-01 6.44872388217003e+00 3.60664485364159e-02
1.02754166666667e-01 6.38713174608779e+00 3.61211907299660e-02
1.05012500000000e-01 6.32612788024271e+00 3.61672731390987e-02
1.07270833333333e-01 6.26570666551951e+00 3.62050349982080e-02
1.09529166666667e-01 6.20586253749581e+00 3.62347996669870e-02
1.11787500000000e-01 6.14658998436801e+00 3.62568758722747e-02
1.14045833333333e-01 6.08788354652364e+00 3.62715582555924e-02
1.16304166666667e-01 6.02973781743031e+00 3.62791284318141e-02
1.18562500000000e-01 5.97214744171309e+00 3.62798559616034e-02
1.20820833333333e-01 5.91510711473137e+00 3.62739987092080e-02
1.23079166666667e-01 5.85861158336602e+00 3.62618036987378e-02
1.25337500000000e-01 5.80265564423098e+00 3.62435079047123e-02
1.27595833333333e-01 5.74723414325589e+00 3.62193384752235e-02
1.29854166666667e-01 5.69234197638445e+00 3.61895134371863e-02
1.32112500000000e-01 5.63797408790573e+00 3.61542423503643e-02
1.34370833333333e-01 5.58412547004350e+00 3.61137264338208e-02
1.36629166666667e-01 5.53079116357672e+00 3.60681591562378e-02
1.38887500000000e-01 5.47796625627838e+00 3.60177267855100e-02
1.41145833333333e-01 5.42564588251204e+00 3.59626084450788e-02
1.43404166666667e-01 5.37382522378392e+00 3.59029766152002e-02
1.45662500000000e-01 5.32249950727863e+00 3.58389976012607e-02
1.47920833333333e-01 5.27166400546351e+00 3.57708315389576e-02
1.50179166666667e-01 5.22131403658017e+00 3.56986328254338e-02
1.52437500000000e-01 5.17144496326820e+00 3.56225505233278e-02
1.54695833333333e-01 5.12205219217755e+00 3.55427283285072e-02
1.56954166666667e-01 5.07313117440638e+00 3.54593049451463e-02
1.59212500000000e-01 5.02467740420486e+00 3.53724144382032e-02
1.61470833333333e-01 4.97668641859592e+00 3.52821861737545e-02
1.63729166666667e-01 4.92915379776525e+00 3.51887451486354e-02
1.65987500000000e-01 4.88207516383839e+00 3.50922123009764e-02
1.68245833333333e-01 4.83544618050990e+00 3.49927044305857e-02
1.70504166666667e-01 4.78926255339076e+00 3.48903344912826e-02
1.72762500000000e-01 4.74352002885267e+00 3.47852118669036e-02
1.75020833333333e-01 4.69821439366570e+00 3.46774422772857e-02
1.77279166666667e-01 4.65334147530764e+00 3.45671280396123e-02
1.79537500000000e-01 4.60889714087011e+00 3.44543683156600e-02
1.81795833333333e-01 4.56487729670483e+00 3.43392590075754e-02
1.84054166666667e-01 4.52127788869872e+00 3.42218929931983e-02
1.86312500000000e-01 4.47809490123722e+00 3.41023603490932e-02
1.88570833333333e-01 4.43532435685907e+00 3.39807482392981e-02
1.90829166666667e-01 4.39296231650068e+00 3.38571411285772e-02
1.93087500000000e-01 4.35100487851241e+00 3.37316209848596e-02
1.95345833333333e-01 4.30944817832186e+00 3.36042671633886e-02
1.97604166666667e-01 4.26828838865051e+00 3.34751566010721e-02
1.99862500000000e-01 4.22752171857929e+00 3.33443640012516e-02
2.02120833333333e-01 4.18714441322013e+00 3.32119617151087e-02
2.04379166666667e-01 4.14715275390778e+00 3.30780199196913e-02
2.06637500000000e-01 4.10754305731108e+00 3.29426067873834e-02
2.08895833333333e-01 4.06831167511286e+00 3.28057883659971e-02
2.11154166666667e-01 4.02945499417922e+00 3.26676287425830e-02
2.13412500000000e-01 3.99096943571352e+00 3.25281901995654e-02
2.15670833333333e-01 3.95285145494444e+00 3.23875330946035e-02
2.17929166666667e-01 3.91509754127493e+00 3.22457160119300e-02
2.20187500000000e-01 3.87770421747614e+00 3.21027959067719e-02
2.22445833333333e-01 3.84066803938344e+00 3.19588279858204e-02
2.24704166666667e-01 3.80398559602708e+00 3.18138658475607e-02
2.26962500000000e-01 3.76765350886341e+00 3.16679616163210e-02
2.29220833333333e-01 3.73166843147887e+00 3.15211658239990e-02
2.31479166666667e-01 3.69602704970393e+00 3.13735275406037e-02
2.33737500000000e-01 3.66072608087945e+00 3.12250944990763e-02
2.35995833333333e-01 3.62576227356830e+00 3.10759129787524e-02
2.38254166666667e-01 3.59113240765436e+00 3.09260279271549e-02
2.40512500000000e-01 3.55683329364169e+00 3.07754830765612e-02
2.42770833333333e-01 3.52286177237385e+00 3.06243208295645e-02
2.45029166666667e-01 3.48921471511916e+00 3.04725823730036e-02
2.47287500000000e-01 3.45588902290089e+00 3.03203077870941e-02
2.49545833333333e-01 3.42288162622400e+00 3.01675359333663e-02
2.51804166666667e-01 3.39018948514802e+00 3.00143045614928e-02
2.54062500000000e-01 3.35780958864646e+00 2.98606504116976e-02
2.56320833333333e-01 3.32573895434081e+00 2.97066091052658e-02
2.58579166666667e-01 3.29397462856215e+00 2.95522152449238e-02
2.60837500000000e-01 3.26251368573814e+00 2.93975025111398e-02
2.63095833333333e-01 3.23135322813414e+00 2.92425035553467e-02
2.65354166666667e-01 3.20049038590462e+00 2.90872500944481e-02
2.67612500000000e-01 3.16992231650617e+00 2.89317730015438e-02
2.69870833333333e-01 3.13964620444558e+00 2.87761022019574e-02
2.72129166666667e-01 3.10965926132198e+00 2.86202667623661e-02
2.74387500000000e-01 3.07995872526450e+00 2.84642949764263e-02
2.76645833333333e-01 3.05054186068709e+00 2.83082142636577e-02
2.78904166666667e-01 3.02140595832234e+00 2.81520512536359e-02
2.81162500000000e-01 2.99254833468238e+00 2.79958318669286e-02
2.83420833333333e-01 2.96396633182036e+00 2.78395812168658e-02
2.85679166666667e-01 2.93565731735666e+00 2.76833236891837e-02
2.87937500000000e-01 2.90761868396186e+00 2.75270830186387e-02
2.90195833333333e-01 2.87984784912473e+00 2.73708821936584e-02
2.92454166666667e-01 2.85234225517149e+00 2.72147435317890e-02
2.94712500000000e-01 2.82509936876976e+00 2.70586887523112e-02
2.96970833333333e-01 2.79811668070290e+00 2.69027388837569e-02
2.99229166666667e-01 2.77139170588293e+00 2.67469143354678e-02
3.01487500000000e-01 2.74492198287446e+00 2.65912349665007e-02
3.03745833333333e-01 2.71870507367514e+00 2.64357199959824e-02
3.06004166666667e-01 2.69273856372293e+00 2.62803880710532e-02
3.08262500000000e-01 2.66702006143897e+00 2.61252573323255e-02
3.10520833333333e-01 2.64154719801398e+00 2.59703453270378e-02
3.12779166666667e-01 2.61631762741045e+00 2.58156690736272e-02
3.15037500000000e-01 2.59132902592347e+00 2.56612451239756e-02
3.17295833333333e-01 2.56657909197300e+00 2.55070894793111e-02
3.19554166666667e-01 2.54206554610141e+00 2.53532176516411e-02
3.21812500000000e-01 2.51778613055146e+00 2.51996447229969e-02
3.24070833333333e-01 2.49373860906425e+00 2.50463852640248e-02
3.26329166666667e-01 2.46992076687259e+00 2.48934533924793e-02
3.28587500000000e-01 2.44633041029525e+00 2.47408628296610e-02
3.30845833333333e-01 2.42296536654056e+00 2.45886268216380e-02
3.33104166666667e-01 2.39982348369592e+00 2.44367581949870e-02
3.35362500000000e-01 2.37690263033763e+00 2.42852694105966e-02
3.37620833333333e-01 2.35420069533992e+00 2.41341724874510e-02
3.39879166666667e-01 2.33171558786101e+00 2.39834790557903e-02
3.42137500000000e-01 2.30944523696786e+00 2.38332004084437e-02
3.44395833333333e-01 2.28738759145040e+00 2.36833474271072e-02
3.46654166666667e-01 2.26554061980457e+00 2.35339306330765e-02
3.48912500000000e-01 2.24390230987121e+00 2.33849602362516e-02
3.51170833333333e-01 2.22247066865547e+00 2.32364460638463e-02
3.53429166666667e-01 2.20124372230703e+00 2.30883976088337e-02
3.55687500000000e-01 2.18021951577260e+00 2.29408240767578e-02
3.57945833333333e-01 2.15939611262029e+00 2.27937343168054e-02
3.60204166666667e-01 2.13877159501739e+00 2.26471368680942e-02
3.62462500000000e-01 2.11834406339578e+00 2.25010400044183e-02
3.64720833333333e-01 2.09811163628118e+00 2.23554516676082e-02
3.66979166666667e-01 2.07807245026874e+00 2.22103795117838e-02
3.69237500000000e-01 2.05822465970084e+00 2.20658309461487e-02
3.71495833333333e-01 2.03856643650101e+00 2.19218130705721e-02
3.73754166666667e-01 2.01909597014768e+00 2.17783327179148e-02
3.76012500000000e-01 1.99981146736368e+00 2.16353964949797e-02
3.78270833333333e-01 1.98071115195489e+00 2.14930107202427e-02
3.80529166666667e-01 1.96179326478217e+00 2.13511814643621e-02
3.82787500000000e-01 1.94305606346227e+00 2.12099145893795e-02
3.85045833333333e-01 1.92449782221092e+00 2.10692156885332e-02
3.87304166666667e-01 1.90611683181321e+00 2.09290901250450e-02
3.89562500000000e-01 1.88791139933539e+00 2.07895430696617e-02
3.91820833333333e-01 1.86987984797235e+00 2.06505794424912e-02
3.94079166666667e-01 1.85202051701662e+00 2.05122039501520e-02
3.96337500000000e-01 1.83433176158056e+00 2.03744211217405e-02
3.98595833333333e-01 1.81681195244809e+00 2.02372352526219e-02
4.00854166666667e-01 1.79945947604257e+00 2.01006504400277e-02
4.03112500000000e-01 1.78227273415891e+00 1.99646706175302e-02
4.05370833333333e-01 1.76525014381943e+00 1.98292995007208e-02
4.07629166666667e-01 1.74839013724077e+00 1.96945406213345e-02
4.09887500000000e-01 1.73169116157550e+00 1.95603973603075e-02
4.12145833333333e-01 1.71515167877208e+00 1.94268728952797e-02
4.14404166666667e-01 1.69877016554079e+00 1.92939702333184e-02
4.16662500000000e-01 1.68254511310464e+00 1.91616922426268e-02
4.18920833333333e-01 1.66647502706312e+00 1.90300416018125e-02
4.21179166666667e-01 1.65055842735750e+00 1.88990208312775e-02
4.23437500000000e-01 1.63479384803044e+00 1.87686323236428e-02
4.25695833333333e-01 1.61917983709363e+00 1.86388782947239e-02
4.27954166666667e-01 1.60371495649242e+00 1.85097608136502e-02
4.30212500000000e-01 1.58839778187390e+00 1.83812818320682e-02
4.32470833333333e-01 1.57322690245826e+00 1.82534431367648e-02
4.34729166666667e-01 1.55820092100285e+00 1.81262463785775e-02
4.36987500000000e-01 1.54331845357848e+00 1.79996931004321e-02
4.39245833333333e-01 1.52857812944423e+00 1.78737846915580e-02
4.41504166666667e-01 1.51397859101129e+00 1.77485224152488e-02
4.43762500000000e-01 1.49951849362690e+00 1.76239074357871e-02
4.46020833333333e-01 1.48519650545273e+00 1.74999407741986e-02
4.48279166666667e-01 1.47101130742840e+00 1.73766233349117e-02
4.50537500000000e-01 1.45696159306291e+00 1.72539559316221e-02
4.52795833333333e-01 1.44304606831644e+00 1.71319392445353e-02
4.55054166666667e-01 1.42926345156361e+00 1.70105738459745e-02
4.57312500000000e-01 1.41561247339213e+00 1.68898602252348e-02
4.59570833333333e-01 1.40209187648793e+00 1.67697987472599e-02
4.61829166666667e-01 1.38870041559824e+00 1.66503896772488e-02
4.64087500000000e-01 1.37543685733717e+00 1.65316332045423e-02
4.66345833333333e-01 1.36229998007407e+00 1.64135294026851e-02
4.68604166666667e-01 1.34928857389654e+00 1.62960782530772e-02
4.70862500000000e-01 1.33640144042267e+00 1.61792796679348e-02
4.73120833333333e-01 1.32363739269249e+00 1.60631334516918e-02
4.75379166666667e-01 1.31099525513101e+00 1.59476393237373e-02
4.77637500000000e-01 1.29847386336687e+00 1.58327969404910e-02
4.79895833333333e-01 1.28607206412680e+00 1.57186058580979e-02
4.82154166666667e-01 1.27378871519875e+00 1.56050655542902e-02
4.84412500000000e-01 1.26162268525665e+00 1.54921754496199e-02
4.86670833333333e-01 1.24957285375787e+00 1.53799348714000e-02
4.88929166666667e-01 1.23763811090647e+00 1.52683430747289e-02
4.91187500000000e-01 1.22581735748383e+00 1.51573992629150e-02
4.93445833333333e-01 1.21410950474906e+00 1.50471025526240e-02
4.95704166666667e-01 1.20251347440233e+00 1.49374519941013e-02
4.97962500000000e-01 1.19102819842128e+00 1.48284465908224e-02
5.00220833333333e-01 1.17965261896417e+00 1.47200852658043e-02
5.02479166666667e-01 1.16838568833345e+00 1.46123668810616e-02
5.04737500000000e-01 1.15722636881764e+00 1.45052902565144e-02
5.06995833333333e-01 1.14617363259721e+00 1.43988541374239e-02
5.09254166666667e-01 1.13522646170840e+00 1.42930572131136e-02
5.11512500000000e-01 1.12438384789037e+00 1.41878981351677e-02
5.13770833333333e-01 1.11364479249376e+00 1.40833754859519e-02
5.16029166666667e-01 1.10300830644475e+00 1.39794877966311e-02
5.18287500000000e-01 1.09247341009733e+00 1.38762335646850e-02
5.20545833333333e-01 1.08203913314442e+00 1.37736112234783e-02
5.22804166666667e-01 1.07170451458225e+00 1.36716191596052e-02
5.25062500000000e-01 1.06146860256753e+00 1.35702557297503e-02
5.27320833333333e-01 1.05133045433110e+00 1.34695192312720e-02
5.29579166666667e-01 1.04128913614261e+00 1.33694079188990e-02
5.31837500000000e-01 1.03134372317244e+00 1.32699200209675e-02
5.34095833333333e-01 1.02149329940779e+00 1.31710537109795e-02
5.36354166666667e-01 1.01173695761772e+00 1.30728071236806e-02
5.38612500000000e-01 1.00207379921963e+00 1.29751783706977e-02
5.40870833333333e-01 9.92502934197699e-01 1.28781655130385e-02
5.43129166666667e-01 9.83023481068342e-01 1.27817665765760e-02
5.45387500000000e-01 9.73634566751089e-01 1.26859795671101e-02
5.47645833333333e-01 9.64335326489294e-01 1.25908024437786e-02
5.49904166666667e-01 9.55124903816008e-01 1.24962331339715e-02
5.52162500000000e-01 9.46002450429119e-01 1.24022695478367e-02
5.54420833333333e-01 9.36967126114286e-01 1.23089095525747e-02
5.56679166666667e-01 9.28018098711230e-01 1.22161509868034e-02
5.58937500000000e-01 9.19154543992980e-01 1.21239916745344e-02
5.61195833333333e-01 9.10375645590963e-01 1.20324294003155e-02
5.63454166666667e-01 9.01680594961754e-01 1.19414619230702e-02
5.65712500000000e-01 8.93068591270256e-01 1.18510869895665e-02
5.67970833333333e-01 8.84538841316908e-01 1.17613023103779e-02
5.70229166666667e-01 8.76090559504887e-01 1.16721055732196e-02
5.72487500000000e-01 8.67722967727103e-01 1.15834944559256e-02
5.74745833333333e-01 8.59435295295452e-01 1.14954666032044e-02
5.77004166666667e-01 8.51226778908491e-01 1.14080196394902e-02
5.79262500000000e-01 8.43096662542104e-01 1.13211511814494e-02
5.81520833333333e-01 8.35044197380755e-01 1.12348588155022e-02
5.83779166666667e-01 8.27068641785636e-01 1.11491401102066e-02
5.86037500000000e-01 8.19169261188883e-01 1.10639926283151e-02
5.88295833333333e-01 8.11345328026766e-01 1.09794139050351e-02
5.90554166666667e-01 8.03596121708328e-01 1.08954014599647e-02
5.92812500000000e-01 7.95920928513021e-01 1.08119528087157e-02
5.95070833333333e-01 7.88319041525780e-01 1.07290654418883e-02
5.97329166666667e-01 7.80789760606158e-01 1.06467368365778e-02
5.99587500000000e-01 7.73332392289268e-01 1.05649644675787e-02
6.01845833333333e-01 7.65946249722688e-01 1.04837457870496e-02
6.04104166666667e-01 7.58630652636094e-01 1.04030782356066e-02
6.06362500000000e-01 7.51384927245396e-01 1.03229592531268e-02
6.08620833333333e-01 7.44208406191422e-01 1.02433862590795e-02
6.10879166666667e-01 7.37100428510058e-01 1.01643566632210e-02
6.13137500000000e-01 7.30060339539463e-01 1.00858678760144e-02
6.15395833333333e-01 7.23087490860485e-01 1.00079172896029e-02
6.17654166666667e-01 7.16181240267304e-01 9.93050228812397e-03
6.19912500000000e-01 7.09340951677633e-01 9.85362025775549e-03
6.22170833333333e-01 7.02565995074806e-01 9.77726856831293e-03
6.24429166666667e-01 6.95855746478942e-01 9.70144458319675e-03
6.26687500000000e-01 6.89209587860007e-01 9.62614566907971e-03
6.28945833333333e-01 6.82626907081552e-01 9.55136917810638e-03
6.31204166666667e-01 6.76107097872375e-01 9.47711245748591e-03
6.33462500000000e-01 6.69649559742372e-01 9.40337285883739e-03
6.35720833333333e-01 6.63253697927851e-01 9.33014772096853e-03
6.37979166666667e-01 6.56918923363721e-01 9.25743437912849e-03
6.40237500000000e-01 6.50644652602014e-01 9.18523017402386e-03
6.42495833333333e-01 6.44430307758750e-01 9.11353243515727e-03
6.44754166666667e-01 6.38275316486633e-01 9.04233848975363e-03
6.47012500000000e-01 6.32179111896172e-01 8.97164567145769e-03
6.49270833333333e-01 6.26141132504040e-01 8.90145130421532e-03
6.51529166666667e-01 6.20160822206284e-01 8.83175271088421e-03
6.53787500000000e-01 6.14237630201953e-01 8.76254722162538e-03
6.56045833333333e-01 6.08371010942911e-01 8.69383215830872e-03
6.58304166666667e-01 6.02560424107563e-01 8.62560484281928e-03
6.60562500000000e-01 5.96805334526896e-01 8.55786260515554e-03
6.62820833333333e-01 5.91105212135718e-01 8.49060276834103e-03
6.65079166666667e-01 5.85459531946884e-01 8.42382265643892e-03
6.67337500000000e-01 5.79867773979681e-01 8.35751960236582e-03
6.69595833333333e-01 5.74329423212443e-01 8.29169093329263e-03
6.71854166666667e-01 5.68843969557282e-01 8.22633397837901e-03
6.74112500000000e-01 5.63410907790735e-01 8.16144607631306e-03
6.76370833333333e-01 5.58029737507717e-01 8.09702456118624e-03
6.78629166666667e-01 5.52699963096755e-01 8.03306676995581e-03
6.80887500000000e-01 5.47421093672818e-01 7.96957004972189e-03
6.83145833333333e-01 5.42192643032579e-01 7.90653174405999e-03
6.85404166666667e-01 5.37014129630133e-01 7.84394920022326e-03
6.87662500000000e-01 5.31885076511955e-01 7.78181977616514e-03
6.89920833333333e-01 5.26805011273415e-01 7.72014082731347e-03
6.92179166666667e-01 5.21773466034998e-01 7.65890971352241e-03
6.94437500000000e-01 5.16789977379302e-01 7.59812380585085e-03
6.96695833333333e-01 5.11854086308779e-01 7.53778047376397e-03
6.98954166666667e-01 5.06965338222451e-01 7.47787709184232e-03
7.01212500000000e-01 5.02123282854876e-01 7.41841104632589e-03
7.03470833333333e-01 4.97327474235090e-01 7.35937972272839e-03
7.05729166666667e-01 4.92577470663802e-01 7.30078051231359e-03
7.07987500000000e-01 4.87872834654274e-01 7.24261081841225e-03
7.10245833333333e-01 4.83213132892425e-01 7.18486804443549e-03
7.12504166666667e-01 4.78597936214496e-01 7.12754960012727e-03
