Energy (eV)          EEDF (eV^-(3/2))     First Anisotropy
3.41000000000000e-02 3.62350743809758e-02 1.92236143639507e-05
1.02300000000000e-01 3.59856865287489e-02 3.17411208485454e-05
1.70500000000000e-01 3.57380150881984e-02 4.18951736057678e-05
2.38700000000000e-01 3.54920482460410e-02 4.96052099545552e-05
3.06900000000000e-01 3.52477742703646e-02 5.60321038155119e-05
3.75100000000000e-01 3.50051815100124e-02 6.16147686958266e-05
4.43300000000000e-01 3.47642583940199e-02 6.65803437008303e-05
5.11500000000000e-01 3.45249934310606e-02 7.10659918898316e-05
5.79700000000000e-01 3.42873752088977e-02 7.51626824239977e-05
6.47900000000000e-01 3.40513923938395e-02 7.89347105125141e-05
7.16100000000000e-01 3.38170337301983e-02 8.24296708389747e-05
7.84300000000000e-01 3.35842880397540e-02 8.56840613679449e-05
8.52500000000000e-01 3.33531442212204e-02 8.87266619356065e-05
9.20700000000000e-01 3.31235912497162e-02 9.15806855144634e-05
9.88900000000000e-01 3.28956181762387e-02 9.42652090920824e-05
1.05710000000000e+00 3.26692141271416e-02 9.67961600367146e-05
1.12530000000000e+00 3.24443683036168e-02 9.91870166559670e-05
1.19350000000000e+00 3.22210699811787e-02 1.01449318540073e-04
1.26170000000000e+00 3.19993085091531e-02 1.03593046534615e-04
1.32990000000000e+00 3.17790733101689e-02 1.05626911065621e-04
1.39810000000000e+00 3.15603538796540e-02 1.07558574598445e-04
1.46630000000000e+00 3.13431397853338e-02 1.09394825829263e-04
1.53450000000000e+00 3.11274206667339e-02 1.11141717889745e-04
1.60270000000000e+00 3.09131862346859e-02 1.12804679303761e-04
1.67090000000000e+00 3.07004262708364e-02 1.14388604024542e-04
1.73910000000000e+00 3.04891306271602e-02 1.15897925208063e-04
1.80730000000000e+00 3.02792892254753e-02 1.17336676197200e-04
1.87550000000000e+00 3.00708920569634e-02 1.18708541343575e-04
1.94370000000000e+00 2.98639291816913e-02 1.20016898676973e-04
2.01190000000000e+00 2.96583907281378e-02 1.21264855976925e-04
2.08010000000000e+00 2.94542668927223e-02 1.22455281461152e-04
2.14830000000000e+00 2.92515479393371e-02 1.23590830048730e-04
2.21650000000000e+00 2.90502241988837e-02 1.24673965959870e-04
2.28470000000000e+00 2.88502860688109e-02 1.25706982263354e-04
2.35290000000000e+00 2.86517240126569e-02 1.26692017865097e-04
2.42110000000000e+00 2.84545285595948e-02 1.27631072339369e-04
2.48930000000000e+00 2.82586903039808e-02 1.28526018931467e-04
2.55750000000000e+00 2.80641999049050e-02 1.29378616002694e-04
2.62570000000000e+00 2.78710480857466e-02 1.30190517142151e-04
2.69390000000000e+00 2.76792256337311e-02 1.30963280132286e-04
2.76210000000000e+00 2.74887233994908e-02 1.31698374924884e-04
2.83030000000000e+00 2.72995322966287e-02 1.32397190759290e-04
2.89850000000000e+00 2.71116433012847e-02 1.33061042534302e-04
2.96670000000000e+00 2.69250474517056e-02 1.33691176528365e-04
3.03490000000000e+00 2.67397358478173e-02 1.34288775548701e-04
3.10310000000000e+00 2.65556996508005e-02 1.34854963578485e-04
3.17130000000000e+00 2.63729300826692e-02 1.35390809981446e-04
3.23950000000000e+00 2.61914184258516e-02 1.35897333314956e-04
3.30770000000000e+00 2.60111560227747e-02 1.36375504795969e-04
3.37590000000000e+00 2.58321342754514e-02 1.36826251458252e-04
3.44410000000000e+00 2.56543446450701e-02 1.37250459034326e-04
3.51230000000000e+00 2.54777786515874e-02 1.37648974591391e-04
3.58050000000000e+00 2.53024278733241e-02 1.38022608946844e-04
3.64870000000000e+00 2.51282839465629e-02 1.38372138885870e-04
3.71690000000000e+00 2.49553385651501e-02 1.38698309200905e-04
3.78510000000000e+00 2.47835834800987e-02 1.39001834570486e-04
3.85330000000000e+00 2.46130104991957e-02 1.39283401292913e-04
3.92150000000000e+00 2.44436114866107e-02 1.39543668888544e-04
3.98970000000000e+00 2.42753783625084e-02 1.39783271582864e-04
4.05790000000000e+00 2.41083031026629e-02 1.40002819681177e-04
4.12610000000000e+00 2.39423777380748e-02 1.40202900844710e-04
4.19430000000000e+00 2.37775943545916e-02 1.40384081276782e-04
4.26250000000000e+00 2.36139450925298e-02 1.40546906826834e-04
4.33070000000000e+00 2.34514221463003e-02 1.40691904019300e-04
4.39890000000000e+00 2.32900177640357e-02 1.40819581013659e-04
4.46710000000000e+00 2.31297242472210e-02 1.40930428501305e-04
4.53530000000000e+00 2.29705339503263e-02 1.41024920544351e-04
4.60350000000000e+00 2.28124392804419e-02 1.41103515361042e-04
4.67170000000000e+00 2.26554326969162e-02 1.41166656061984e-04
4.73990000000000e+00 2.24995067109965e-02 1.41214771340934e-04
4.80810000000000e+00 2.23446538854710e-02 1.41248276123668e-04
4.87630000000000e+00 2.21908668343148e-02 1.41267572178052e-04
4.94450000000000e+00 2.20381382223371e-02 1.41273048688220e-04
5.01270000000000e+00 2.18864607648318e-02 1.41265082795440e-04
5.08090000000000e+00 2.17358272272294e-02 1.41244040108091e-04
5.14910000000000e+00 2.15862304247526e-02 1.41210275182900e-04
5.21730000000000e+00 2.14376632220733e-02 1.41164131979528e-04
5.28550000000000e+00 2.12901185329722e-02 1.41105944290258e-04
5.35370000000000e+00 2.11435893200011e-02 1.41036036146512e-04
5.42190000000000e+00 2.09980685941466e-02 1.40954722203757e-04
5.49010000000000e+00 2.08535494144975e-02 1.40862308106243e-04
5.55830000000000e+00 2.07100248879135e-02 1.40759090832858e-04
5.62650000000000e+00 2.05674881686961e-02 1.40645359025323e-04
5.69470000000000e+00 2.04259324582624e-02 1.40521393299894e-04
5.76290000000000e+00 2.02853510048207e-02 1.40387466543530e-04
5.83110000000000e+00 2.01457371030485e-02 1.40243844195585e-04
5.89930000000000e+00 2.00070840937727e-02 1.40090784515827e-04
5.96750000000000e+00 1.98693853636520e-02 1.39928538839668e-04
6.03570000000000e+00 1.97326343448614e-02 1.39757351821330e-04
6.10390000000000e+00 1.95968245147789e-02 1.39577461665681e-04
6.17210000000000e+00 1.94619493956743e-02 1.39389100349424e-04
6.24030000000000e+00 1.93280025544007e-02 1.39192493832190e-04
6.30850000000000e+00 1.91949776020870e-02 1.38987862258177e-04
6.37670000000000e+00 1.90628681938337e-02 1.38775420148836e-04
6.44490000000000e+00 1.89316680284101e-02 1.38555376587102e-04
6.51310000000000e+00 1.88013708479534e-02 1.38327935393616e-04
6.58130000000000e+00 1.86719704376709e-02 1.38093295295435e-04
6.64950000000000e+00 1.85434606255430e-02 1.37851650087612e-04
6.71770000000000e+00 1.84158352820291e-02 1.37603188787930e-04
6.78590000000000e+00 1.82890883197751e-02 1.37348095785295e-04
6.85410000000000e+00 1.81632136933231e-02 1.37086550982060e-04
6.92230000000000e+00 1.80382053988231e-02 1.36818729930551e-04
6.99050000000000e+00 1.79140574737466e-02 1.36544803964141e-04
7.05870000000000e+00 1.77907639966021e-02 1.36264940323144e-04
7.12690000000000e+00 1.76683190866530e-02 1.35979302275754e-04
7.19510000000000e+00 1.75467169036364e-02 1.35688049234319e-04
7.26330000000000e+00 1.74259516474856e-02 1.35391336867126e-04
7.33150000000000e+00 1.73060175580523e-02 1.35089317205960e-04
7.39970000000000e+00 1.71869089148327e-02 1.34782138749639e-04
7.46790000000000e+00 1.70686200366944e-02 1.34469946563657e-04
7.53610000000000e+00 1.69511452816053e-02 1.34152882376192e-04
7.60430000000000e+00 1.68344790463645e-02 1.33831084670611e-04
7.67250000000000e+00 1.67186157663352e-02 1.33504688774627e-04
7.74070000000000e+00 1.66035499151792e-02 1.33173826946261e-04
7.80890000000000e+00 1.64892760045934e-02 1.32838628456798e-04
7.87710000000000e+00 1.63757885840479e-02 1.32499219670804e-04
7.94530000000000e+00 1.62630822405259e-02 1.32155724123386e-04
8.01350000000000e+00 1.61511515982658e-02 1.31808262594770e-04
8.08170000000000e+00 1.60399913185048e-02 1.31456953182375e-04
8.14990000000000e+00 1.59295960992239e-02 1.31101911370440e-04
8.21810000000000e+00 1.58199606748954e-02 1.30743250097301e-04
8.28630000000000e+00 1.57110798162315e-02 1.30381079820477e-04
8.35450000000000e+00 1.56029483299350e-02 1.30015508579602e-04
8.42270000000000e+00 1.54955610584516e-02 1.29646642057300e-04
8.49090000000000e+00 1.53889128797238e-02 1.29274583638136e-04
8.55910000000000e+00 1.52829987069467e-02 1.28899434465638e-04
8.62730000000000e+00 1.51778134883253e-02 1.28521293497529e-04
8.69550000000000e+00 1.50733522068335e-02 1.28140257559221e-04
8.76370000000000e+00 1.49696098799750e-02 1.27756421395663e-04
8.83190000000000e+00 1.48665815595455e-02 1.27369877721576e-04
8.90010000000000e+00 1.47642623313967e-02 1.26980717270133e-04
8.96830000000000e+00 1.46626473152018e-02 1.26589028840192e-04
9.03650000000000e+00 1.45617316642231e-02 1.26194899342089e-04
9.10470000000000e+00 1.44615105650803e-02 1.25798413842059e-04
9.17290000000000e+00 1.43619792375214e-02 1.25399655605361e-04
9.24110000000000e+00 1.42631329341943e-02 1.24998706138111e-04
9.30930000000000e+00 1.41649669404206e-02 1.24595645227903e-04
9.37750000000000e+00 1.40674765739707e-02 1.24190550983278e-04
9.44570000000000e+00 1.39706571848404e-02 1.23783499872032e-04
9.51390000000000e+00 1.38745041550293e-02 1.23374566758446e-04
9.58210000000000e+00 1.37790128983201e-02 1.22963824939460e-04
9.65030000000000e+00 1.36841788600605e-02 1.22551346179834e-04
9.71850000000000e+00 1.35899975169451e-02 1.22137200746331e-04
9.78670000000000e+00 1.34964643768006e-02 1.21721457440952e-04
9.85490000000000e+00 1.34035749783709e-02 1.21304183633263e-04
9.92310000000000e+00 1.33113248911045e-02 1.20885445291841e-04
9.99130000000000e+00 1.32197097149431e-02 1.20465307014872e-04
1.00595000000000e+01 1.31287250801118e-02 1.20043832059931e-04
1.01277000000000e+01 1.30383666469108e-02 1.19621082372950e-04
1.01959000000000e+01 1.29486301055082e-02 1.19197118616445e-04
1.02641000000000e+01 1.28595111757345e-02 1.18772000196984e-04
1.03323000000000e+01 1.27710056068784e-02 1.18345785291943e-04
1.04005000000000e+01 1.26831091774843e-02 1.17918530875570e-04
1.04687000000000e+01 1.25958176951506e-02 1.17490292744374e-04
1.05369000000000e+01 1.25091269963300e-02 1.17061125541872e-04
1.06051000000000e+01 1.24230329461306e-02 1.16631082782719e-04
1.06733000000000e+01 1.23375314381192e-02 1.16200216876178e-04
1.07415000000000e+01 1.22526183941249e-02 1.15768579149051e-04
1.08097000000000e+01 1.21682897640449e-02 1.15336219868044e-04
1.08779000000000e+01 1.20845415256512e-02 1.14903188261538e-04
1.09461000000000e+01 1.20013696843988e-02 1.14469532540852e-04
1.10143000000000e+01 1.19187702732350e-02 1.14035299920977e-04
1.10825000000000e+01 1.18367393524107e-02 1.13600536640813e-04
1.11507000000000e+01 1.17552730092916e-02 1.13165287982922e-04
1.12189000000000e+01 1.16743673581726e-02 1.12729598292774e-04
1.12871000000000e+01 1.15940185400916e-02 1.12293510997568e-04
1.13553000000000e+01 1.15142227226460e-02 1.11857068624612e-04
1.14235000000000e+01 1.14349760998097e-02 1.11420312819244e-04
1.14917000000000e+01 1.13562748917515e-02 1.10983284362348e-04
1.15599000000000e+01 1.12781153446548e-02 1.10546023187456e-04
1.16281000000000e+01 1.12004937305389e-02 1.10108568397437e-04
1.16963000000000e+01 1.11234063470806e-02 1.09670958280847e-04
1.17645000000000e+01 1.10468495174383e-02 1.09233230327875e-04
1.18327000000000e+01 1.09708195900758e-02 1.08795421245910e-04
1.19009000000000e+01 1.08953129385890e-02 1.08357566974782e-04
1.19691000000000e+01 1.08203259615324e-02 1.07919702701653e-04
1.20373000000000e+01 1.07458550822474e-02 1.07481862875585e-04
1.21055000000000e+01 1.06718967486916e-02 1.07044081221743e-04
1.21737000000000e+01 1.05984474332699e-02 1.06606390755324e-04
1.22419000000000e+01 1.05255036326656e-02 1.06168823795173e-04
1.23101000000000e+01 1.04530618676735e-02 1.05731411977078e-04
1.23783000000000e+01 1.03811186830344e-02 1.05294186266805e-04
1.24465000000000e+01 1.03096706472694e-02 1.04857176972817e-04
1.25147000000000e+01 1.02387143525172e-02 1.04420413758739e-04
1.25829000000000e+01 1.01682464143708e-02 1.03983925655558e-04
1.26511000000000e+01 1.00982634717167e-02 1.03547741073552e-04
1.27193000000000e+01 1.00287621865738e-02 1.03111887813964e-04
1.27875000000000e+01 9.95973924393514e-03 1.02676393080431e-04
1.28557000000000e+01 9.89119135160892e-03 1.02241283490167e-04
1.29239000000000e+01 9.82311524006203e-03 1.01806585084930e-04
1.29921000000000e+01 9.75550766226387e-03 1.01372323341747e-04
1.30603000000000e+01 9.68836539353152e-03 1.00938523183395e-04
1.31285000000000e+01 9.62168523137595e-03 1.00505208988702e-04
1.31967000000000e+01 9.55546399534924e-03 1.00072404602617e-04
1.32649000000000e+01 9.48969852689292e-03 9.96401333460639e-05
1.33331000000000e+01 9.42438568918728e-03 9.92084180256187e-05
1.34013000000000e+01 9.35952236700176e-03 9.87772809429679e-05
1.34695000000000e+01 9.29510546654639e-03 9.83467439041809e-05
1.35377000000000e+01 9.23113191532419e-03 9.79168282288060e-05
1.36059000000000e+01 9.16759866198466e-03 9.74875547587623e-05
1.36741000000000e+01 9.10450267617818e-03 9.70589438670797e-05
1.37423000000000e+01 9.04184094841153e-03 9.66310154664469e-05
1.38105000000000e+01 8.97961048990431e-03 9.62037890175834e-05
1.38787000000000e+01 8.91780833244643e-03 9.57772835374655e-05
1.39469000000000e+01 8.85643152825646e-03 9.53515176073913e-05
1.40151000000000e+01 8.79547714984108e-03 9.49265093808598e-05
1.40833000000000e+01 8.73494228985547e-03 9.45022765913167e-05
1.41515000000000e+01 8.67482406096457e-03 9.40788365597510e-05
1.42197000000000e+01 8.61511959570543e-03 9.36562062021472e-05
1.42879000000000e+01 8.55582604635038e-03 9.32344020367764e-05
1.43561000000000e+01 8.49694058477125e-03 9.28134401913464e-05
1.44243000000000e+01 8.43846040230445e-03 9.23933364100437e-05
1.44925000000000e+01 8.38038270961704e-03 9.19741060604163e-05
1.45607000000000e+01 8.32270473657363e-03 9.15557641401305e-05
1.46289000000000e+01 8.26542373210428e-03 9.11383252835915e-05
1.46971000000000e+01 8.20853696407332e-03 9.07218037684595e-05
1.47653000000000e+01 8.15204171914896e-03 9.03062135220280e-05
1.48335000000000e+01 8.09593530267394e-03 8.98915681274809e-05
1.49017000000000e+01 8.04021503853696e-03 8.94778808300366e-05
1.49699000000000e+01 7.98487826904506e-03 8.90651645429803e-05
1.50381000000000e+01 7.92992235479685e-03 8.86534318535848e-05
1.51063000000000e+01 7.87534467455661e-03 8.82426950289101e-05
1.51745000000000e+01 7.82114262512928e-03 8.78329660215089e-05
1.52427000000000e+01 7.76731362123627e-03 8.74242564750213e-05
1.53109000000000e+01 7.71385509539218e-03 8.70165777296662e-05
1.53791000000000e+01 7.66076449778234e-03 8.66099408276376e-05
1.54473000000000e+01 7.60803929614113e-03 8.62043565183885e-05
1.55155000000000e+01 7.55567697563129e-03 8.57998352638280e-05
1.55837000000000e+01 7.50367503872392e-03 8.53963872434440e-05
1.56519000000000e+01 7.45203100507932e-03 8.49940223592999e-05
1.57201000000000e+01 7.40074241142878e-03 8.45927502409444e-05
1.57883000000000e+01 7.34980681145698e-03 8.41925802502606e-05
1.58565000000000e+01 7.29922177568540e-03 8.37935214861995e-05
1.59247000000000e+01 7.24898489135639e-03 8.33955827894453e-05
1.59929000000000e+01 7.19909376231811e-03 8.29987727469973e-05
1.60611000000000e+01 7.14954600891021e-03 8.26030996966544e-05
1.61293000000000e+01 7.10033926785036e-03 8.22085717314335e-05
1.61975000000000e+01 7.05147119212153e-03 8.18151967039126e-05
1.62657000000000e+01 7.00293945086002e-03 8.14229822304914e-05
1.63339000000000e+01 6.95474172924430e-03 8.10319356955724e-05
1.64021000000000e+01 6.90687572838459e-03 8.06420642556763e-05
1.64703000000000e+01 6.85933916521322e-03 8.02533748434744e-05
1.65385000000000e+01 6.81212977237574e-03 7.98658741717690e-05
1.66067000000000e+01 6.76524529812274e-03 7.94795687373961e-05
1.66749000000000e+01 6.71868350620250e-03 7.90944648250451e-05
1.67431000000000e+01 6.67244217575427e-03 7.87105685110321e-05
1.68113000000000e+01 6.62651910120241e-03 7.83278856670021e-05
1.68795000000000e+01 6.58091209215112e-03 7.79464219635612e-05
1.69477000000000e+01 6.53561897328000e-03 7.75661828738561e-05
1.70159000000000e+01 6.49063758424031e-03 7.71871736770850e-05
1.70841000000000e+01 6.44596577955187e-03 7.68093994619439e-05
1.71523000000000e+01 6.40160142850080e-03 7.64328651300257e-05
1.72205000000000e+01 6.35754241503785e-03 7.60575753991581e-05
1.72887000000000e+01 6.31378663767746e-03 7.56835348066768e-05
1.73569000000000e+01 6.27033200939755e-03 7.53107477126468e-05
1.74251000000000e+01 6.22717645753996e-03 7.49392183030305e-05
1.74933000000000e+01 6.18431792371162e-03 7.45689505928074e-05
1.75615000000000e+01 6.14175436368632e-03 7.41999484290309e-05
1.76297000000000e+01 6.09948374730726e-03 7.38322154938434e-05
1.76979000000000e+01 6.05750405839017e-03 7.34657553074254e-05
1.77661000000000e+01 6.01581329462716e-03 7.31005712309013e-05
1.78343000000000e+01 5.97440946749126e-03 7.27366664692148e-05
1.79025000000000e+01 5.93329060214149e-03 7.23740440739386e-05
1.79707000000000e+01 5.89245473732874e-03 7.20127069460272e-05
1.80389000000000e+01 5.85189992530217e-03 7.16526578385390e-05
1.81071000000000e+01 5.81162423171636e-03 7.12938993593149e-05
1.81753000000000e+01 5.77162573553900e-03 7.09364339736148e-05
1.82435000000000e+01 5.73190252895930e-03 7.05802640066838e-05
1.83117000000000e+01 5.69245271729695e-03 7.02253916463007e-05
1.83799000000000e+01 5.65327441891179e-03 6.98718189452927e-05
1.84481000000000e+01 5.61436576511406e-03 6.95195478239727e-05
1.85163000000000e+01 5.57572490007522e-03 6.91685800725678e-05
1.85845000000000e+01 5.53734998073950e-03 6.88189173535959e-05
1.86527000000000e+01 5.49923917673594e-03 6.84705612042042e-05
1.87209000000000e+01 5.46139067029112e-03 6.81235130384748e-05
1.87891000000000e+01 5.42380265614243e-03 6.77777741496765e-05
1.88573000000000e+01 5.38647334145198e-03 6.74333457124951e-05
1.89255000000000e+01 5.34940094572109e-03 6.70902287852268e-05
1.89937000000000e+01 5.31258370070535e-03 6.67484243119248e-05
1.90619000000000e+01 5.27601985033030e-03 6.64079331245146e-05
1.91301000000000e+01 5.23970765060766e-03 6.60687559448836e-05
1.91983000000000e+01 5.20364536955214e-03 6.57308933869300e-05
1.92665000000000e+01 5.16783128709884e-03 6.53943459585730e-05
1.93347000000000e+01 5.13226369502121e-03 6.50591140637419e-05
1.94029000000000e+01 5.09694089684955e-03 6.47251980043159e-05
1.94711000000000e+01 5.06186120779013e-03 6.43925979820547e-05
1.95393000000000e+01 5.02702295464480e-03 6.40613141004874e-05
1.96075000000000e+01 4.99242447573120e-03 6.37313463667565e-05
1.96757000000000e+01 4.95806412080349e-03 6.34026946934510e-05
1.97439000000000e+01 4.92394025097366e-03 6.30753589004065e-05
1.98121000000000e+01 4.89005123863332e-03 6.27493387164776e-05
1.98803000000000e+01 4.85639546737611e-03 6.24246337812688e-05
1.99485000000000e+01 4.82297133192057e-03 6.21012436468408e-05
2.00167000000000e+01 4.78977723803362e-03 6.17791677794066e-05
2.00849000000000e+01 4.75681160245445e-03 6.14584055609932e-05
2.01531000000000e+01 4.72407285281906e-03 6.11389562910534e-05
2.02213000000000e+01 4.69155942758523e-03 6.08208191880786e-05
2.02895000000000e+01 4.65926977595807e-03 6.05039933911817e-05
2.03577000000000e+01 4.62720235781603e-03 6.01884779616455e-05
2.04259000000000e+01 4.59535564363742e-03 5.98742718844494e-05
2.04941000000000e+01 4.56372811442751e-03 5.95613740697668e-05
2.05623000000000e+01 4.53231826164605e-03 5.92497833544589e-05
2.06305000000000e+01 4.50112458713529e-03 5.89394985035236e-05
2.06987000000000e+01 4.47014560304857e-03 5.86305182115167e-05
2.07669000000000e+01 4.43937983177934e-03 5.83228411039757e-05
2.08351000000000e+01 4.40882580589064e-03 5.80164657388045e-05
2.09033000000000e+01 4.37848206804518e-03 5.77113906076312e-05
2.09715000000000e+01 4.34834717093577e-03 5.74076141371500e-05
2.10397000000000e+01 4.31841967721632e-03 5.71051346904450e-05
2.11079000000000e+01 4.28869815943327e-03 5.68039505682962e-05
2.11761000000000e+01 4.25918119995751e-03 5.65040600104511e-05
2.12443000000000e+01 4.22986739091676e-03 5.62054611968839e-05
2.13125000000000e+01 4.20075533412841e-03 5.59081522490373e-05
2.13807000000000e+01 4.17184364103284e-03 5.56121312310418e-05
2.14489000000000e+01 4.14313093262721e-03 5.53173961509055e-05
2.15171000000000e+01 4.11461583939965e-03 5.50239449617066e-05
