Energy (eV)          EEDF (eV^-(3/2))     First Anisotropy
1.06382978723404e-03 6.15324893673285e-01 2.86903744798846e-08
3.19148936170213e-03 6.15324874372325e-01 8.43136043029398e-08
5.31914893617021e-03 6.15324828115735e-01 2.02413132159275e-07
7.44680851063830e-03 6.15324752361958e-01 3.52969384456017e-07
9.57446808510638e-03 6.15324648158258e-01 5.23360062550697e-07
1.17021276595745e-02 6.15324516868825e-01 7.13907701566164e-07
1.38297872340426e-02 6.15324357379555e-01 9.24992165254884e-07
1.59574468085106e-02 6.15324170038015e-01 1.14301677486526e-06
1.80851063829787e-02 6.15323958089082e-01 1.36013494289524e-06
2.02127659574468e-02 6.15323723393268e-01 1.57779230027053e-06
2.23404255319149e-02 6.15323467631639e-01 1.79762329558447e-06
2.44680851063830e-02 6.15323191480547e-01 2.02349551433710e-06
2.65957446808511e-02 6.15322895078623e-01 2.25633754103424e-06
2.87234042553191e-02 6.15322578646510e-01 2.49517625726199e-06
3.08510638297872e-02 6.15322242451555e-01 2.73291923143469e-06
3.29787234042553e-02 6.15321888403755e-01 2.97013132130969e-06
3.51063829787234e-02 6.15321516369633e-01 3.21520122179950e-06
3.72340425531915e-02 6.15321126042417e-01 3.46853802494403e-06
3.93617021276596e-02 6.15320717189453e-01 3.73031915854480e-06
4.14893617021277e-02 6.15320289467631e-01 4.00359324590485e-06
4.36170212765957e-02 6.15319841976636e-01 4.28921798264933e-06
4.57446808510638e-02 6.15319374244636e-01 4.58525400787645e-06
4.78723404255319e-02 6.15318885842353e-01 4.89143261892522e-06
5.00000000000000e-02 6.15318376377373e-01 5.20161158789095e-06
5.21276595744681e-02 6.15317846688119e-01 5.50934614443535e-06
5.42553191489362e-02 6.15317297615130e-01 5.82037551670509e-06
5.63829787234043e-02 6.15316728755600e-01 6.14080382359287e-06
5.85106382978723e-02 6.15316139729744e-01 6.47050544211969e-06
6.06382978723404e-02 6.15315530177270e-01 6.80949497370118e-06
6.27659574468085e-02 6.15314899732215e-01 7.15818488876479e-06
6.48936170212766e-02 6.15314247975154e-01 7.51697771683109e-06
6.70212765957447e-02 6.15313574485411e-01 7.88591055953096e-06
6.91489361702128e-02 6.15312878855336e-01 8.26320426175714e-06
7.12765957446809e-02 6.15312160993117e-01 8.63263285679199e-06
7.34042553191489e-02 6.15311423301960e-01 8.99507895723224e-06
7.55319148936170e-02 6.15310665433948e-01 9.36625509192141e-06
7.76595744680851e-02 6.15309887051082e-01 9.74612671961867e-06
7.97872340425532e-02 6.15309087824783e-01 1.01346863792688e-05
8.19148936170213e-02 6.15308267430799e-01 1.05320554358686e-05
8.40425531914894e-02 6.15307425533038e-01 1.09384447691893e-05
8.61702127659574e-02 6.15306561785524e-01 1.13539090985781e-05
8.82978723404255e-02 6.15305675855126e-01 1.17783512949752e-05
9.04255319148936e-02 6.15304767421707e-01 1.22117100057917e-05
9.25531914893617e-02 6.15303836171338e-01 1.26540704479204e-05
9.46808510638298e-02 6.15302881780084e-01 1.31055541070309e-05
9.68085106382979e-02 6.15301903924528e-01 1.35661870317986e-05
9.89361702127660e-02 6.15300902285424e-01 1.40359965774180e-05
1.01063829787234e-01 6.15299876543532e-01 1.44919968316823e-05
1.03191489361702e-01 6.15298829790975e-01 1.49323191661962e-05
1.05319148936170e-01 6.15297761896034e-01 1.53785061744479e-05
1.07446808510638e-01 6.15296672726183e-01 1.58305734633034e-05
1.09574468085106e-01 6.15295562147309e-01 1.62885423665399e-05
1.11702127659574e-01 6.15294430023807e-01 1.67524338557522e-05
1.13829787234043e-01 6.15293276218664e-01 1.72222685939429e-05
1.15957446808511e-01 6.15292100593527e-01 1.76980669658886e-05
1.18085106382979e-01 6.15290903008774e-01 1.81798491170101e-05
1.20212765957447e-01 6.15289683323572e-01 1.86676349767878e-05
1.22340425531915e-01 6.15288441395935e-01 1.91614442955702e-05
1.24468085106383e-01 6.15287177082766e-01 1.96612966743326e-05
1.26595744680851e-01 6.15285890239906e-01 2.01672115673749e-05
1.28723404255319e-01 6.15284580722174e-01 2.06792083185151e-05
1.30851063829787e-01 6.15283248383400e-01 2.11973061752609e-05
1.32978723404255e-01 6.15281893076462e-01 2.17215243013896e-05
1.35106382978723e-01 6.15280514653312e-01 2.22518817928433e-05
1.37234042553191e-01 6.15279112965004e-01 2.27883977012800e-05
1.39361702127660e-01 6.15277687861720e-01 2.33310910329271e-05
1.41489361702128e-01 6.15276239192790e-01 2.38799807639083e-05
1.43617021276596e-01 6.15274766806713e-01 2.44350858461588e-05
1.45744680851064e-01 6.15273270551177e-01 2.49964252207553e-05
1.47872340425532e-01 6.15271750273072e-01 2.55640178277301e-05
1.50000000000000e-01 6.15270205818509e-01 2.61378826017845e-05
1.52127659574468e-01 6.15268637032830e-01 2.67180384962800e-05
1.54255319148936e-01 6.15267043760625e-01 2.73045044734156e-05
1.56382978723404e-01 6.15265425845739e-01 2.78972995159523e-05
1.58510638297872e-01 6.15263783131282e-01 2.84964426231245e-05
1.60638297872340e-01 6.15262115459645e-01 2.91019528236155e-05
1.62765957446809e-01 6.15260422672500e-01 2.97138491849695e-05
1.64893617021277e-01 6.15258704610814e-01 3.03321507977972e-05
1.67021276595745e-01 6.15256961114852e-01 3.09568767972763e-05
1.69148936170213e-01 6.15255192024184e-01 3.15880463495494e-05
1.71276595744681e-01 6.15253397177695e-01 3.22256782709956e-05
1.73404255319149e-01 6.15251576413629e-01 3.28697901719581e-05
1.75531914893617e-01 6.15249729569690e-01 3.35203970357060e-05
1.77659574468085e-01 6.15247856483246e-01 3.41775038480209e-05
1.79787234042553e-01 6.15245956992238e-01 3.48410970306469e-05
1.81914893617021e-01 6.15244030936292e-01 3.55111414775699e-05
1.84042553191489e-01 6.15242078157904e-01 3.61875734332589e-05
1.86170212765957e-01 6.15240098504276e-01 3.68702928514730e-05
1.88297872340426e-01 6.15238091829248e-01 3.75591654208828e-05
1.90425531914894e-01 6.15236057994819e-01 3.82540350932257e-05
1.92553191489362e-01 6.15233996871648e-01 3.89547457576402e-05
1.94680851063830e-01 6.15231908338203e-01 3.96611605551326e-05
1.96808510638298e-01 6.15229792279214e-01 4.03731820580008e-05
1.98936170212766e-01 6.15227648582759e-01 4.10907665546587e-05
2.01063829787234e-01 6.15225477137348e-01 4.17672117373067e-05
2.03191489361702e-01 6.15223283033915e-01 4.24010889706905e-05
2.05319148936170e-01 6.15221066256524e-01 4.30379927317850e-05
2.07446808510638e-01 6.15218826788956e-01 4.36779083858552e-05
2.09574468085106e-01 6.15216564614889e-01 4.43208198968134e-05
2.11702127659574e-01 6.15214279717888e-01 4.49667116882773e-05
2.13829787234043e-01 6.15211972081400e-01 4.56155686198140e-05
2.15957446808511e-01 6.15209641688743e-01 4.62673759824670e-05
2.18085106382979e-01 6.15207288523096e-01 4.69221194855347e-05
2.20212765957447e-01 6.15204912567493e-01 4.75797852420769e-05
2.22340425531915e-01 6.15202513804818e-01 4.82403597608906e-05
2.24468085106383e-01 6.15200092217794e-01 4.89038299306518e-05
2.26595744680851e-01 6.15197647788978e-01 4.95701830116764e-05
2.28723404255319e-01 6.15195180500758e-01 5.02394066254062e-05
2.30851063829787e-01 6.15192690335343e-01 5.09114887505885e-05
2.32978723404255e-01 6.15190177274761e-01 5.15864177093295e-05
2.35106382978723e-01 6.15187641300852e-01 5.22641821541169e-05
2.37234042553191e-01 6.15185082395264e-01 5.29447710752825e-05
2.39361702127660e-01 6.15182500539447e-01 5.36281737732274e-05
2.41489361702128e-01 6.15179895714652e-01 5.43143798612651e-05
2.43617021276596e-01 6.15177267901923e-01 5.50033792594443e-05
2.45744680851064e-01 6.15174617082096e-01 5.56951621802572e-05
2.47872340425532e-01 6.15171943235796e-01 5.63897191316607e-05
2.50000000000000e-01 6.15169246343430e-01 5.70870408969192e-05
2.52127659574468e-01 6.15166526385188e-01 5.77871185388058e-05
2.54255319148936e-01 6.15163783341036e-01 5.84899433957953e-05
2.56382978723404e-01 6.15161017190716e-01 5.91955070617536e-05
2.58510638297872e-01 6.15158227913742e-01 5.99038013807564e-05
2.60638297872340e-01 6.15155415489401e-01 6.06148184586221e-05
2.62765957446809e-01 6.15152579896743e-01 6.13285506473249e-05
2.64893617021277e-01 6.15149721114588e-01 6.20449905280066e-05
2.67021276595745e-01 6.15146839121515e-01 6.27641309214543e-05
2.69148936170213e-01 6.15143933895868e-01 6.34859648752591e-05
2.71276595744681e-01 6.15141005415749e-01 6.42104855373255e-05
2.73404255319149e-01 6.15138053659030e-01 6.49376858706987e-05
2.75531914893617e-01 6.15135078603377e-01 6.56675581916337e-05
2.77659574468085e-01 6.15132080226299e-01 6.64000917592389e-05
2.79787234042553e-01 6.15129058505393e-01 6.71352700336720e-05
2.81914893617021e-01 6.15126013418638e-01 6.78730696974865e-05
2.84042553191489e-01 6.15122944944715e-01 6.86134581607277e-05
2.86170212765957e-01 6.15119853063522e-01 6.93563909861993e-05
2.88297872340426e-01 6.15116737756711e-01 7.01018127637718e-05
2.90425531914894e-01 6.15113599008101e-01 7.08496614882960e-05
2.92553191489362e-01 6.15110436803808e-01 7.15998759005603e-05
2.94680851063830e-01 6.15107251131995e-01 7.23524018889653e-05
2.96808510638298e-01 6.15104041982428e-01 7.31071989359389e-05
2.98936170212766e-01 6.15100809345669e-01 7.38642449035053e-05
3.01063829787234e-01 6.15097553212246e-01 7.46070087794659e-05
3.03191489361702e-01 6.15094275303356e-01 7.53722135670961e-05
3.05319148936170e-01 6.15090972397452e-01 7.62120749470060e-05
3.07446808510638e-01 6.15087641404659e-01 7.71242573577598e-05
3.09574468085106e-01 6.15084279362134e-01 7.81064870611090e-05
3.11702127659574e-01 6.15080883429713e-01 7.91565491423134e-05
3.13829787234043e-01 6.15077450885715e-01 8.02722858009965e-05
3.15957446808511e-01 6.15073979122903e-01 8.14515946848301e-05
3.18085106382979e-01 6.15070465644595e-01 8.26924272797858e-05
3.20212765957447e-01 6.15066908060911e-01 8.39927873733957e-05
3.22340425531915e-01 6.15063304085167e-01 8.53507295410354e-05
3.24468085106383e-01 6.15059651530391e-01 8.67643577060277e-05
3.26595744680851e-01 6.15055948305972e-01 8.82318237465552e-05
3.28723404255319e-01 6.15052192414422e-01 8.97513261373690e-05
3.30851063829787e-01 6.15048381948263e-01 9.13211086362947e-05
3.32978723404255e-01 6.15044515087016e-01 9.29394590070698e-05
3.35106382978723e-01 6.15040590094302e-01 9.46047078042373e-05
3.37234042553192e-01 6.15036605315049e-01 9.63152271823275e-05
3.39361702127660e-01 6.15032559172789e-01 9.80694297453388e-05
3.41489361702128e-01 6.15028450167054e-01 9.98657674192860e-05
3.43617021276596e-01 6.15024276870869e-01 1.01702730373051e-04
3.45744680851064e-01 6.15020037928319e-01 1.03578845987631e-04
3.47872340425532e-01 6.15015732052215e-01 1.05492677825190e-04
3.50000000000000e-01 6.15011358021832e-01 1.07442824641546e-04
3.52127659574468e-01 6.15006914680725e-01 1.09427919426862e-04
3.54255319148936e-01 6.15002400934628e-01 1.11446628495642e-04
3.56382978723404e-01 6.14997815749411e-01 1.13497650577923e-04
3.58510638297872e-01 6.14993158149126e-01 1.15579715948610e-04
3.60638297872340e-01 6.14988427214100e-01 1.17691585585983e-04
3.62765957446809e-01 6.14983622079104e-01 1.19832050339180e-04
3.64893617021277e-01 6.14978741931583e-01 1.21999930143181e-04
3.67021276595745e-01 6.14973786009944e-01 1.24194073226652e-04
3.69148936170213e-01 6.14968753601902e-01 1.26413355372171e-04
3.71276595744681e-01 6.14963644042880e-01 1.28656679133664e-04
3.73404255319149e-01 6.14958456714472e-01 1.30922972971081e-04
3.75531914893617e-01 6.14953191042959e-01 1.33211190350665e-04
3.77659574468085e-01 6.14947846497887e-01 1.35520307886897e-04
3.79787234042553e-01 6.14942422590782e-01 1.37849323257919e-04
3.81914893617021e-01 6.14936918873930e-01 1.40197254121799e-04
3.84042553191489e-01 6.14931334939219e-01 1.42563136440523e-04
3.86170212765957e-01 6.14925670417089e-01 1.44946022690340e-04
3.88297872340426e-01 6.14919924975547e-01 1.47344981556865e-04
3.90425531914894e-01 6.14914098319174e-01 1.49759099487039e-04
3.92553191489362e-01 6.14908190188037e-01 1.52187484026182e-04
3.94680851063830e-01 6.14902200356463e-01 1.54629266939410e-04
3.96808510638298e-01 6.14896128631735e-01 1.57083606948553e-04
3.98936170212766e-01 6.14889974852688e-01 1.59549690776974e-04
4.01063829787234e-01 6.14883738888369e-01 1.61972419923710e-04
4.03191489361702e-01 6.14877425519810e-01 1.64392878004018e-04
4.05319148936170e-01 6.14871031440127e-01 1.66905446790271e-04
4.07446808510638e-01 6.14864553478115e-01 1.69507195265053e-04
4.09574468085106e-01 6.14857988593796e-01 1.72195269657845e-04
4.11702127659574e-01 6.14851333874235e-01 1.74966889682171e-04
4.13829787234043e-01 6.14844586529502e-01 1.77819346739599e-04
4.15957446808511e-01 6.14837743888747e-01 1.80750002228353e-04
4.18085106382979e-01 6.14830803396392e-01 1.83756285835960e-04
4.20212765957447e-01 6.14823762608447e-01 1.86835693903656e-04
4.22340425531915e-01 6.14816619188930e-01 1.89985787840393e-04
4.24468085106383e-01 6.14809370906400e-01 1.93204192553540e-04
4.26595744680851e-01 6.14802015630594e-01 1.96488594955433e-04
4.28723404255319e-01 6.14794551329158e-01 1.99836742489372e-04
4.30851063829787e-01 6.14786976064489e-01 2.03246441688552e-04
4.32978723404255e-01 6.14779287990659e-01 2.06715556800877e-04
4.35106382978723e-01 6.14771485350438e-01 2.10242008418050e-04
4.37234042553191e-01 6.14763566472403e-01 2.13823772150399e-04
4.39361702127660e-01 6.14755529768133e-01 2.17458877350763e-04
4.41489361702128e-01 6.14747373729486e-01 2.21145405841476e-04
4.43617021276596e-01 6.14739096925964e-01 2.24881490691966e-04
4.45744680851064e-01 6.14730698002142e-01 2.28665315047240e-04
4.47872340425532e-01 6.14722175675188e-01 2.32495110948839e-04
4.50000000000000e-01 6.14713528732445e-01 2.36369158197302e-04
4.52127659574468e-01 6.14704756029086e-01 2.40285783247073e-04
4.54255319148936e-01 6.14695856485845e-01 2.44243358135189e-04
4.56382978723404e-01 6.14686829086805e-01 2.48240299435965e-04
4.58510638297872e-01 6.14677672877258e-01 2.52275067239801e-04
4.60638297872340e-01 6.14668386961619e-01 2.56346164145047e-04
4.62765957446809e-01 6.14658970501410e-01 2.60452134271471e-04
4.64893617021277e-01 6.14649422713301e-01 2.64591562340642e-04
4.67021276595745e-01 6.14639742867197e-01 2.68763072732982e-04
4.69148936170213e-01 6.14629930284397e-01 2.72965328588293e-04
4.71276595744681e-01 6.14619984335797e-01 2.77197030898659e-04
4.73404255319149e-01 6.14609904440144e-01 2.81456917537549e-04
4.75531914893617e-01 6.14599690062355e-01 2.85743762298366e-04
4.77659574468085e-01 6.14589340711882e-01 2.90056373444144e-04
4.79787234042553e-01 6.14578855941169e-01 2.94393592063814e-04
4.81914893617021e-01 6.14568235344176e-01 2.98754290940038e-04
4.84042553191489e-01 6.14557478554946e-01 3.03137373104964e-04
4.86170212765957e-01 6.14546585246269e-01 3.07541770243842e-04
4.88297872340426e-01 6.14535555128396e-01 3.11966442502178e-04
4.90425531914894e-01 6.14524387947735e-01 3.16410379631838e-04
4.92553191489362e-01 6.14513083485516e-01 3.20872602206699e-04
4.94680851063830e-01 6.14501641556419e-01 3.25352162965915e-04
4.96808510638298e-01 6.14490062007166e-01 3.29848148265126e-04
4.98936170212766e-01 6.14478344715076e-01 3.34359678197699e-04
5.01063829787234e-01 6.14466489586685e-01 3.38833638023177e-04
5.03191489361702e-01 6.14454500756363e-01 3.43275837074726e-04
5.05319148936170e-01 6.14442377720371e-01 3.47744028513854e-04
5.07446808510638e-01 6.14430120028568e-01 3.52236732236803e-04
5.09574468085106e-01 6.14417727282837e-01 3.56752503079013e-04
5.11702127659574e-01 6.14405199135443e-01 3.61289931792552e-04
5.13829787234043e-01 6.14392535287428e-01 3.65847644319423e-04
5.15957446808511e-01 6.14379735487052e-01 3.70424301066645e-04
5.18085106382979e-01 6.14366799528274e-01 3.75018596229965e-04
5.20212765957447e-01 6.14353727249269e-01 3.79629257087013e-04
5.22340425531915e-01 6.14340518530989e-01 3.84255043353070e-04
5.24468085106383e-01 6.14327173295757e-01 3.88894746533008e-04
5.26595744680851e-01 6.14313691505900e-01 3.93547189276139e-04
5.28723404255319e-01 6.14300073162413e-01 3.98211224744038e-04
5.30851063829787e-01 6.14286318303669e-01 4.02885736012866e-04
5.32978723404255e-01 6.14272427004147e-01 4.07569635489847e-04
5.35106382978723e-01 6.14258399373203e-01 4.12261864311919e-04
5.37234042553192e-01 6.14244235553871e-01 4.16961391777030e-04
5.39361702127660e-01 6.14229935721691e-01 4.21667214774559e-04
5.41489361702128e-01 6.14215500083576e-01 4.26378357251017e-04
5.43617021276596e-01 6.14200928876697e-01 4.31093869675765e-04
5.45744680851064e-01 6.14186222367406e-01 4.35812828492240e-04
5.47872340425532e-01 6.14171380850183e-01 4.40534335620394e-04
5.50000000000000e-01 6.14156404646608e-01 4.45257517950390e-04
5.52127659574468e-01 6.14141294104365e-01 4.49981526830961e-04
5.54255319148936e-01 6.14126049596268e-01 4.54705537605362e-04
5.56382978723404e-01 6.14110671519313e-01 4.59428749119709e-04
5.58510638297872e-01 6.14095160293753e-01 4.64150383269763e-04
5.60638297872340e-01 6.14079516362200e-01 4.68869684537087e-04
5.62765957446809e-01 6.14063740188750e-01 4.73585919531252e-04
5.64893617021277e-01 6.14047832258125e-01 4.78298376578235e-04
5.67021276595745e-01 6.14031793074847e-01 4.83006365275797e-04
5.69148936170213e-01 6.14015623162421e-01 4.87709216056183e-04
5.71276595744681e-01 6.13999323062554e-01 4.92406279761505e-04
5.73404255319149e-01 6.13982893334383e-01 4.97096927188740e-04
5.75531914893617e-01 6.13966334553731e-01 5.01780548575084e-04
5.77659574468085e-01 6.13949647312388e-01 5.06456552748978e-04
5.79787234042553e-01 6.13932832217436e-01 5.11124366231047e-04
5.81914893617021e-01 6.13915889890601e-01 5.15783432562590e-04
5.84042553191489e-01 6.13898820967635e-01 5.20433211465623e-04
5.86170212765957e-01 6.13881626097735e-01 5.25073178429148e-04
5.88297872340426e-01 6.13864305942960e-01 5.29702824659835e-04
5.90425531914894e-01 6.13846861177663e-01 5.34321656960025e-04
5.92553191489362e-01 6.13829292487926e-01 5.38929199284089e-04
5.94680851063830e-01 6.13811600570887e-01 5.43524994590606e-04
5.96808510638298e-01 6.13793786134053e-01 5.48108605604729e-04
5.98936170212766e-01 6.13775849894593e-01 5.52679613772401e-04
6.01063829787234e-01 6.13757792578748e-01 5.57353054051114e-04
6.03191489361702e-01 6.13739607415111e-01 5.62354919035074e-04
6.05319148936170e-01 6.13721280482575e-01 5.67789447808239e-04
6.07446808510638e-01 6.13702798343963e-01 5.73643769226109e-04
6.09574468085106e-01 6.13684148033118e-01 5.79905308380744e-04
6.11702127659574e-01 6.13665317042363e-01 5.86561779510726e-04
6.13829787234043e-01 6.13646293310291e-01 5.93601179473404e-04
6.15957446808511e-01 6.13627065209854e-01 6.01011781389045e-04
6.18085106382979e-01 6.13607621536781e-01 6.08782128443640e-04
6.20212765957447e-01 6.13587951498274e-01 6.16901027829911e-04
6.22340425531915e-01 6.13568044702012e-01 6.25357544823094e-04
6.24468085106383e-01 6.13547891145429e-01 6.34140997007026e-04
6.26595744680851e-01 6.13527481205266e-01 6.43240948626218e-04
6.28723404255319e-01 6.13506805627405e-01 6.52647205063566e-04
6.30851063829787e-01 6.13485855516942e-01 6.62349807436358e-04
6.32978723404255e-01 6.13464622328542e-01 6.72339027318736e-04
6.35106382978723e-01 6.13443097857017e-01 6.82605361588368e-04
6.37234042553191e-01 6.13421274228164e-01 6.93139527389687e-04
6.39361702127660e-01 6.13399143889828e-01 7.03932457179660e-04
6.41489361702128e-01 6.13376699603199e-01 7.14975293890022e-04
6.43617021276596e-01 6.13353934434333e-01 7.26259386249085e-04
6.45744680851064e-01 6.13330841745890e-01 7.37776284149923e-04
6.47872340425532e-01 6.13307415189082e-01 7.49517734114378e-04
6.50000000000000e-01 6.13283648695830e-01 7.61475674908170e-04
6.52127659574468e-01 6.13259536471126e-01 7.73642233210862e-04
6.54255319148936e-01 6.13235072985585e-01 7.86009719395604e-04
6.56382978723404e-01 6.13210252968192e-01 7.98570623396123e-04
6.58510638297872e-01 6.13185071399237e-01 8.11317610673641e-04
6.60638297872340e-01 6.13159523503427e-01 8.24243518284052e-04
6.62765957446809e-01 6.13133604743178e-01 8.37341350981557e-04
6.64893617021277e-01 6.13107310812085e-01 8.50604277445757e-04
6.67021276595745e-01 6.13080637628549e-01 8.64025626600506e-04
6.69148936170213e-01 6.13053581329576e-01 8.77598883993117e-04
6.71276595744681e-01 6.13026138264738e-01 8.91317688228054e-04
