Energy (eV)          EEDF (eV^-(3/2))     First Anisotropy
1.09000000000000e-02 2.01874049508947e-01 1.07039399842082e-04
3.27000000000000e-02 2.00478332254722e-01 1.76735607647474e-04
5.45000000000000e-02 1.99092264713229e-01 2.33266355462063e-04
7.63000000000000e-02 1.97715780168518e-01 2.76186033209706e-04
9.81000000000000e-02 1.96348812365693e-01 3.11959100905111e-04
1.19900000000000e-01 1.94991295507901e-01 3.43029810989162e-04
1.41700000000000e-01 1.93643164253182e-01 3.70663126738965e-04
1.63500000000000e-01 1.92304353711339e-01 3.95622957118782e-04
1.85300000000000e-01 1.90974799440808e-01 4.18415962395495e-04
2.07100000000000e-01 1.89654437445560e-01 4.39400254974269e-04
2.28900000000000e-01 1.88343204172024e-01 4.58840939420488e-04
2.50700000000000e-01 1.87041036506023e-01 4.76941319460571e-04
2.72500000000000e-01 1.85747871769740e-01 4.93861713301862e-04
2.94300000000000e-01 1.84463647718701e-01 5.09731434188137e-04
3.16100000000000e-01 1.83188302538775e-01 5.24656759200453e-04
3.37900000000000e-01 1.81921774843203e-01 5.38726422579635e-04
3.59700000000000e-01 1.80664003669644e-01 5.52015517379815e-04
3.81500000000000e-01 1.79414928477235e-01 5.64588337792927e-04
4.03300000000000e-01 1.78174489143683e-01 5.76500495417169e-04
4.25100000000000e-01 1.76942625962368e-01 5.87800525117712e-04
4.46900000000000e-01 1.75719279639469e-01 5.98531124058294e-04
4.68700000000000e-01 1.74504391291111e-01 6.08730121913468e-04
4.90500000000000e-01 1.73297902440531e-01 6.18431250654279e-04
5.12300000000000e-01 1.72099755015264e-01 6.27664762576132e-04
5.34100000000000e-01 1.70909891344342e-01 6.36457931813216e-04
5.55900000000000e-01 1.69728254155529e-01 6.44835465269604e-04
5.77700000000000e-01 1.68554786572552e-01 6.52819842318097e-04
5.99500000000000e-01 1.67389432112374e-01 6.60431597896764e-04
6.21300000000000e-01 1.66232134682467e-01 6.67689560197712e-04
6.43100000000000e-01 1.65082838578118e-01 6.74611051606634e-04
6.64900000000000e-01 1.63941488479744e-01 6.81212059658009e-04
6.86700000000000e-01 1.62808029450231e-01 6.87507383341200e-04
7.08500000000000e-01 1.61682406932290e-01 6.93510759001097e-04
7.30300000000000e-01 1.60564566745830e-01 6.99234969236456e-04
7.52100000000000e-01 1.59454455085350e-01 7.04691937544635e-04
7.73900000000000e-01 1.58352018517349e-01 7.09892810949039e-04
7.95700000000000e-01 1.57257203977756e-01 7.14848032440900e-04
8.17500000000000e-01 1.56169958769374e-01 7.19567404744078e-04
8.39300000000000e-01 1.55090230559344e-01 7.24060146652732e-04
8.61100000000000e-01 1.54017967376626e-01 7.28334942984049e-04
8.82900000000000e-01 1.52953117609498e-01 7.32399989018457e-04
9.04700000000000e-01 1.51895630003069e-01 7.36263030161150e-04
9.26500000000000e-01 1.50845453656818e-01 7.39931397445967e-04
9.48300000000000e-01 1.49802538022137e-01 7.43412039408677e-04
9.70100000000000e-01 1.48766832899902e-01 7.46711550779028e-04
9.91900000000000e-01 1.47738288438056e-01 7.49836198376214e-04
1.01370000000000e+00 1.46716855129210e-01 7.52791944538425e-04
1.03550000000000e+00 1.45702483808257e-01 7.55584468371514e-04
1.05730000000000e+00 1.44695125650011e-01 7.58219185063667e-04
1.07910000000000e+00 1.43694732166851e-01 7.60701263479733e-04
1.10090000000000e+00 1.42701255206391e-01 7.63035642222038e-04
1.12270000000000e+00 1.41714646949161e-01 7.65227044320402e-04
1.14450000000000e+00 1.40734859906306e-01 7.67279990694133e-04
1.16630000000000e+00 1.39761846917297e-01 7.69198812511270e-04
1.18810000000000e+00 1.38795561147666e-01 7.70987662555192e-04
1.20990000000000e+00 1.37835956086750e-01 7.72650525696469e-04
1.23170000000000e+00 1.36882985545449e-01 7.74191228555762e-04
1.25350000000000e+00 1.35936603654006e-01 7.75613448434494e-04
1.27530000000000e+00 1.34996764859800e-01 7.76920721581178e-04
1.29710000000000e+00 1.34063423925150e-01 7.78116450854125e-04
1.31890000000000e+00 1.33136535925141e-01 7.79203912834663e-04
1.34070000000000e+00 1.32216056245458e-01 7.80186264439108e-04
1.36250000000000e+00 1.31301940580241e-01 7.81066549072939e-04
1.38430000000000e+00 1.30394144929955e-01 7.81847702366409e-04
1.40610000000000e+00 1.29492625599264e-01 7.82532557526424e-04
1.42790000000000e+00 1.28597339194937e-01 7.83123850336285e-04
1.44970000000000e+00 1.27708242623754e-01 7.83624223832199e-04
1.47150000000000e+00 1.26825293090431e-01 7.84036232681912e-04
1.49330000000000e+00 1.25948448095566e-01 7.84362347289089e-04
1.51510000000000e+00 1.25077665433586e-01 7.84604957644837e-04
1.53690000000000e+00 1.24212903190722e-01 7.84766376945507e-04
1.55870000000000e+00 1.23354119742985e-01 7.84848844994125e-04
1.58050000000000e+00 1.22501273754168e-01 7.84854531401696e-04
1.60230000000000e+00 1.21654324173856e-01 7.84785538603155e-04
1.62410000000000e+00 1.20813230235445e-01 7.84643904700890e-04
1.64590000000000e+00 1.19977951454185e-01 7.84431606148174e-04
1.66770000000000e+00 1.19148447625231e-01 7.84150560283985e-04
1.68950000000000e+00 1.18324678821703e-01 7.83802627729182e-04
1.71130000000000e+00 1.17506605392770e-01 7.83389614653376e-04
1.73310000000000e+00 1.16694187961739e-01 7.82913274921473e-04
1.75490000000000e+00 1.15887387424159e-01 7.82375312127629e-04
1.77670000000000e+00 1.15086164945939e-01 7.81777381524053e-04
1.79850000000000e+00 1.14290481961480e-01 7.81121091851436e-04
1.82030000000000e+00 1.13500300171818e-01 7.80408007077232e-04
1.84210000000000e+00 1.12715581542779e-01 7.79639648047592e-04
1.86390000000000e+00 1.11936288303152e-01 7.78817494058342e-04
1.88570000000000e+00 1.11162382942866e-01 7.77942984349949e-04
1.90750000000000e+00 1.10393828211191e-01 7.77017519531045e-04
1.92930000000000e+00 1.09630587114938e-01 7.76042462934774e-04
1.95110000000000e+00 1.08872622916682e-01 7.75019141911951e-04
1.97290000000000e+00 1.08119899132994e-01 7.73948849064809e-04
1.99470000000000e+00 1.07372379532684e-01 7.72832843424665e-04
2.01650000000000e+00 1.06630028135058e-01 7.71672351576570e-04
2.03830000000000e+00 1.05892809208184e-01 7.70468568734103e-04
2.06010000000000e+00 1.05160687267175e-01 7.69222659767298e-04
2.08190000000000e+00 1.04433627072478e-01 7.67935760185727e-04
2.10370000000000e+00 1.03711593628180e-01 7.66608977079542e-04
2.12550000000000e+00 1.02994552180324e-01 7.65243390020795e-04
2.14730000000000e+00 1.02282468215232e-01 7.63840051927007e-04
2.16910000000000e+00 1.01575307457851e-01 7.62399989889059e-04
2.19090000000000e+00 1.00873035870094e-01 7.60924205964943e-04
2.21270000000000e+00 1.00175619649210e-01 7.59413677941672e-04
2.23450000000000e+00 9.94830252261537e-02 7.57869360066733e-04
2.25630000000000e+00 9.87952192639674e-02 7.56292183750226e-04
2.27810000000000e+00 9.81121686561799e-02 7.54683058239803e-04
2.29990000000000e+00 9.74338405252115e-02 7.53042871269535e-04
2.32170000000000e+00 9.67602022207912e-02 7.51372489683624e-04
2.34350000000000e+00 9.60912213183859e-02 7.49672760036505e-04
2.36530000000000e+00 9.54268656176390e-02 7.47944509170554e-04
2.38710000000000e+00 9.47671031408209e-02 7.46188544772242e-04
2.40890000000000e+00 9.41119021312899e-02 7.44405655907829e-04
2.43070000000000e+00 9.34612310519631e-02 7.42596613539550e-04
2.45250000000000e+00 9.28150585837991e-02 7.40762171023160e-04
2.47430000000000e+00 9.21733536242899e-02 7.38903064587723e-04
2.49610000000000e+00 9.15360852859641e-02 7.37020013798488e-04
2.51790000000000e+00 9.09032228949004e-02 7.35113722003471e-04
2.53970000000000e+00 9.02747359892507e-02 7.33184876764590e-04
2.56150000000000e+00 8.96505943177742e-02 7.31234150274064e-04
2.58330000000000e+00 8.90307678383811e-02 7.29262199756434e-04
2.60510000000000e+00 8.84152267166867e-02 7.27269667857196e-04
2.62690000000000e+00 8.78039413245754e-02 7.25257183018452e-04
2.64870000000000e+00 8.71968822387745e-02 7.23225359842041e-04
2.67050000000000e+00 8.65940202394381e-02 7.21174799440794e-04
2.69230000000000e+00 8.59953263087402e-02 7.19106089778412e-04
2.71410000000000e+00 8.54007716294787e-02 7.17019805998346e-04
2.73590000000000e+00 8.48103275836876e-02 7.14916510742066e-04
2.75770000000000e+00 8.42239657512603e-02 7.12796754457520e-04
2.77950000000000e+00 8.36416579085807e-02 7.10661075697736e-04
2.80130000000000e+00 8.30633760271655e-02 7.08510001410054e-04
2.82310000000000e+00 8.24890922723146e-02 7.06344047216550e-04
2.84490000000000e+00 8.19187790017718e-02 7.04163717685894e-04
2.86670000000000e+00 8.13524087643937e-02 7.01969506596950e-04
2.88850000000000e+00 8.07899542988288e-02 6.99761897194341e-04
2.91030000000000e+00 8.02313885322052e-02 6.97541362436543e-04
2.93210000000000e+00 7.96766845788275e-02 6.95308365236428e-04
2.95390000000000e+00 7.91258157388825e-02 6.93063358694899e-04
2.97570000000000e+00 7.85787554971546e-02 6.90806786327799e-04
2.99750000000000e+00 7.80354775217487e-02 6.88539082285998e-04
3.01930000000000e+00 7.74959556628236e-02 6.86260671569300e-04
3.04110000000000e+00 7.69601639513328e-02 6.83971970234421e-04
3.06290000000000e+00 7.64280765977746e-02 6.81673385596754e-04
3.08470000000000e+00 7.58996679909508e-02 6.79365316426710e-04
3.10650000000000e+00 7.53749126967341e-02 6.77048153140684e-04
3.12830000000000e+00 7.48537854568435e-02 6.74722277986395e-04
3.15010000000000e+00 7.43362611876289e-02 6.72388065223422e-04
3.17190000000000e+00 7.38223149788637e-02 6.70045881298883e-04
3.19370000000000e+00 7.33119220925455e-02 6.67696085018151e-04
3.21550000000000e+00 7.28050579617056e-02 6.65339027711017e-04
3.23730000000000e+00 7.23016981892265e-02 6.62975053393561e-04
3.25910000000000e+00 7.18018185466676e-02 6.60604498925712e-04
3.28090000000000e+00 7.13053949730988e-02 6.58227694164515e-04
3.30270000000000e+00 7.08124035739426e-02 6.55844962113639e-04
3.32450000000000e+00 7.03228206198238e-02 6.53456619068804e-04
3.34630000000000e+00 6.98366225454276e-02 6.51062974759512e-04
3.36810000000000e+00 6.93537859483650e-02 6.48664332487296e-04
3.38990000000000e+00 6.88742875880465e-02 6.46260989260251e-04
3.41170000000000e+00 6.83981043845634e-02 6.43853235924288e-04
3.43350000000000e+00 6.79252134175769e-02 6.41441357291100e-04
3.45530000000000e+00 6.74555919252151e-02 6.39025632262911e-04
3.47710000000000e+00 6.69892173029769e-02 6.36606333954130e-04
3.49890000000000e+00 6.65260671026445e-02 6.34183729809994e-04
3.52070000000000e+00 6.60661190312024e-02 6.31758081722426e-04
3.54250000000000e+00 6.56093509497648e-02 6.29329646142927e-04
3.56430000000000e+00 6.51557408725097e-02 6.26898674192795e-04
3.58610000000000e+00 6.47052669656207e-02 6.24465411770762e-04
3.60790000000000e+00 6.42579075462361e-02 6.22030099658043e-04
3.62970000000000e+00 6.38136410814052e-02 6.19592973620763e-04
3.65150000000000e+00 6.33724461870520e-02 6.17154264510132e-04
3.67330000000000e+00 6.29343016269455e-02 6.14714198360242e-04
3.69510000000000e+00 6.24991863116782e-02 6.12272996483494e-04
3.71690000000000e+00 6.20670792976502e-02 6.09830875563928e-04
3.73870000000000e+00 6.16379597860616e-02 6.07388047748289e-04
3.76050000000000e+00 6.12118071219115e-02 6.04944720735102e-04
3.78230000000000e+00 6.07886007930033e-02 6.02501097861677e-04
3.80410000000000e+00 6.03683204289580e-02 6.00057378189163e-04
3.82590000000000e+00 5.99509458002331e-02 5.97613756585654e-04
3.84770000000000e+00 5.95364568171493e-02 5.95170423807427e-04
3.86950000000000e+00 5.91248335289232e-02 5.92727566578416e-04
3.89130000000000e+00 5.87160561227073e-02 5.90285367667876e-04
3.91310000000000e+00 5.83101049226364e-02 5.87844005966374e-04
3.93490000000000e+00 5.79069603888798e-02 5.85403656560076e-04
3.95670000000000e+00 5.75066031167019e-02 5.82964490803337e-04
3.97850000000000e+00 5.71090138355273e-02 5.80526676389927e-04
4.00030000000000e+00 5.67141734080137e-02 5.78090377422584e-04
4.02210000000000e+00 5.63220628291303e-02 5.75655754481006e-04
4.04390000000000e+00 5.59326632252438e-02 5.73222964688495e-04
4.06570000000000e+00 5.55459558532091e-02 5.70792161777079e-04
4.08750000000000e+00 5.51619220994675e-02 5.68363496151408e-04
4.10930000000000e+00 5.47805434791510e-02 5.65937114951151e-04
4.13110000000000e+00 5.44018016351922e-02 5.63513162112139e-04
4.15290000000000e+00 5.40256783374407e-02 5.61091778426230e-04
4.17470000000000e+00 5.36521554817860e-02 5.58673101599955e-04
4.19650000000000e+00 5.32812150892857e-02 5.56257266311933e-04
4.21830000000000e+00 5.29128393053003e-02 5.53844404268973e-04
4.24010000000000e+00 5.25470103986336e-02 5.51434644261227e-04
4.26190000000000e+00 5.21837107606796e-02 5.49028112216129e-04
4.28370000000000e+00 5.18229229045745e-02 5.46624931251211e-04
4.30550000000000e+00 5.14646294643555e-02 5.44225221725873e-04
4.32730000000000e+00 5.11088131941244e-02 5.41829101292061e-04
4.34910000000000e+00 5.07554569672177e-02 5.39436684944010e-04
4.37090000000000e+00 5.04045437753825e-02 5.37048085066966e-04
4.39270000000000e+00 5.00560567279574e-02 5.34663411484831e-04
4.41450000000000e+00 4.97099790510598e-02 5.32282771507016e-04
4.43630000000000e+00 4.93662940867783e-02 5.29906269974322e-04
4.45810000000000e+00 4.90249852923711e-02 5.27534009303815e-04
4.47990000000000e+00 4.86860362394696e-02 5.25166089532935e-04
4.50170000000000e+00 4.83494306132877e-02 5.22802608362685e-04
4.52350000000000e+00 4.80151522118366e-02 5.20443661200043e-04
4.54530000000000e+00 4.76831849451446e-02 5.18089341199490e-04
4.56710000000000e+00 4.73535128344832e-02 5.15739739303665e-04
4.58890000000000e+00 4.70261200115974e-02 5.13394944283435e-04
4.61070000000000e+00 4.67009907179422e-02 5.11055042777021e-04
4.63250000000000e+00 4.63781093039243e-02 5.08720119328464e-04
4.65430000000000e+00 4.60574602281484e-02 5.06390256425296e-04
4.67610000000000e+00 4.57390280566694e-02 5.04065534535514e-04
4.69790000000000e+00 4.54227974622493e-02 5.01746032143948e-04
4.71970000000000e+00 4.51087532236198e-02 4.99431825787805e-04
4.74150000000000e+00 4.47968802247494e-02 4.97122990091641e-04
4.76330000000000e+00 4.44871634541157e-02 4.94819597801576e-04
4.78510000000000e+00 4.41795880039832e-02 4.92521719818926e-04
4.80690000000000e+00 4.38741390696852e-02 4.90229425233256e-04
4.82870000000000e+00 4.35708019489120e-02 4.87942781354833e-04
4.85050000000000e+00 4.32695620410025e-02 4.85661853746376e-04
4.87230000000000e+00 4.29704048462416e-02 4.83386706254208e-04
4.89410000000000e+00 4.26733159651626e-02 4.81117401038944e-04
4.91590000000000e+00 4.23782810978537e-02 4.78853998605599e-04
4.93770000000000e+00 4.20852860432699e-02 4.76596557833101e-04
4.95950000000000e+00 4.17943166985494e-02 4.74345136003230e-04
4.98130000000000e+00 4.15053590583349e-02 4.72099788829119e-04
5.00310000000000e+00 4.12183992140991e-02 4.69860570483194e-04
5.02490000000000e+00 4.09334233534759e-02 4.67627533624624e-04
5.04670000000000e+00 4.06504177595949e-02 4.65400729426238e-04
5.06850000000000e+00 4.03693688104215e-02 4.63180207601028e-04
5.09030000000000e+00 4.00902629781010e-02 4.60966016428110e-04
5.11210000000000e+00 3.98130868283080e-02 4.58758202778251e-04
5.13390000000000e+00 3.95378270195990e-02 4.56556812138970e-04
5.15570000000000e+00 3.92644703027707e-02 4.54361888639090e-04
5.17750000000000e+00 3.89930035202223e-02 4.52173475072973e-04
5.19930000000000e+00 3.87234136053219e-02 4.49991612924283e-04
5.22110000000000e+00 3.84556875817777e-02 4.47816342389294e-04
5.24290000000000e+00 3.81898125630135e-02 4.45647702399844e-04
5.26470000000000e+00 3.79257757515484e-02 4.43485730645885e-04
5.28650000000000e+00 3.76635644383807e-02 4.41330463597582e-04
5.30830000000000e+00 3.74031660023760e-02 4.39181936526988e-04
5.33010000000000e+00 3.71445679096603e-02 4.37040183529536e-04
5.35190000000000e+00 3.68877577130160e-02 4.34905237545014e-04
5.37370000000000e+00 3.66327230512833e-02 4.32777130378074e-04
5.39550000000000e+00 3.63794516487650e-02 4.30655892718617e-04
5.41730000000000e+00 3.61279313146356e-02 4.28541554161685e-04
5.43910000000000e+00 3.58781499423545e-02 4.26434143227046e-04
5.46090000000000e+00 3.56300955090834e-02 4.24333687378452e-04
5.48270000000000e+00 3.53837560751076e-02 4.22240213042468e-04
5.50450000000000e+00 3.51391197832610e-02 4.20153745627183e-04
5.52630000000000e+00 3.48961748583559e-02 4.18074309540401e-04
5.54810000000000e+00 3.46549096066156e-02 4.16001928207556e-04
5.56990000000000e+00 3.44153124151122e-02 4.13936624089471e-04
5.59170000000000e+00 3.41773717512069e-02 4.11878418699637e-04
5.61350000000000e+00 3.39410761619956e-02 4.09827332621309e-04
5.63530000000000e+00 3.37064142737571e-02 4.07783385524249e-04
5.65710000000000e+00 3.34733747914061e-02 4.05746596181169e-04
5.67890000000000e+00 3.32419464979491e-02 4.03716982484035e-04
5.70070000000000e+00 3.30121182539448e-02 4.01694561459983e-04
5.72250000000000e+00 3.27838789969676e-02 3.99679349286882e-04
5.74430000000000e+00 3.25572177410754e-02 3.97671361308821e-04
5.76610000000000e+00 3.23321235762809e-02 3.95670612051284e-04
5.78790000000000e+00 3.21085856680262e-02 3.93677115235979e-04
5.80970000000000e+00 3.18865932566611e-02 3.91690883795470e-04
5.83150000000000e+00 3.16661356569261e-02 3.89711929887584e-04
5.85330000000000e+00 3.14472022574368e-02 3.87740264909624e-04
5.87510000000000e+00 3.12297825201743e-02 3.85775899512261e-04
5.89690000000000e+00 3.10138659799774e-02 3.83818843613194e-04
5.91870000000000e+00 3.07994422440387e-02 3.81869106410648e-04
5.94050000000000e+00 3.05865009914048e-02 3.79926696396595e-04
5.96230000000000e+00 3.03750319724794e-02 3.77991621369771e-04
5.98410000000000e+00 3.01650250085297e-02 3.76063888448544e-04
6.00590000000000e+00 2.99564699911968e-02 3.74143504083430e-04
6.02770000000000e+00 2.97493568820090e-02 3.72230474069513e-04
6.04950000000000e+00 2.95436757118984e-02 3.70324803558648e-04
6.07130000000000e+00 2.93394165807215e-02 3.68426497071397e-04
6.09310000000000e+00 2.91365696567823e-02 3.66535558508869e-04
6.11490000000000e+00 2.89351251763593e-02 3.64651991164286e-04
6.13670000000000e+00 2.87350734432354e-02 3.62775797734420e-04
6.15850000000000e+00 2.85364048282311e-02 3.60906980330765e-04
6.18030000000000e+00 2.83391097687413e-02 3.59045540490575e-04
6.20210000000000e+00 2.81431787682748e-02 3.57191479187753e-04
6.22390000000000e+00 2.79486023959973e-02 3.55344796843506e-04
6.24570000000000e+00 2.77553712862775e-02 3.53505493336855e-04
6.26750000000000e+00 2.75634761382359e-02 3.51673568014962e-04
6.28930000000000e+00 2.73729077152978e-02 3.49849019703295e-04
6.31110000000000e+00 2.71836568447482e-02 3.48031846715635e-04
6.33290000000000e+00 2.69957144172905e-02 3.46222046863901e-04
6.35470000000000e+00 2.68090713866078e-02 3.44419617467836e-04
6.37650000000000e+00 2.66237187689278e-02 3.42624555364530e-04
6.39830000000000e+00 2.64396476425903e-02 3.40836856917779e-04
6.42010000000000e+00 2.62568491476176e-02 3.39056518027311e-04
6.44190000000000e+00 2.60753144852879e-02 3.37283534137827e-04
6.46370000000000e+00 2.58950349177125e-02 3.35517900247952e-04
6.48550000000000e+00 2.57160017674144e-02 3.33759610919007e-04
6.50730000000000e+00 2.55382064169110e-02 3.32008660283600e-04
6.52910000000000e+00 2.53616403082993e-02 3.30265042054157e-04
6.55090000000000e+00 2.51862949428440e-02 3.28528749531302e-04
6.57270000000000e+00 2.50121618805684e-02 3.26799775612034e-04
6.59450000000000e+00 2.48392327398480e-02 3.25078112797845e-04
6.61630000000000e+00 2.46674991970073e-02 3.23363753202684e-04
6.63810000000000e+00 2.44969529859189e-02 3.21656688560743e-04
6.65990000000000e+00 2.43275858976061e-02 3.19956910234203e-04
6.68170000000000e+00 2.41593897798469e-02 3.18264409220856e-04
6.70350000000000e+00 2.39923565367828e-02 3.16579176161506e-04
6.72530000000000e+00 2.38264781285278e-02 3.14901201347282e-04
6.74710000000000e+00 2.36617465707827e-02 3.13230474726915e-04
6.76890000000000e+00 2.34981539344497e-02 3.11566985913844e-04
6.79070000000000e+00 2.33356923452515e-02 3.09910724193226e-04
6.81250000000000e+00 2.31743539833519e-02 3.08261678528767e-04
6.83430000000000e+00 2.30141310829794e-02 3.06619837569504e-04
6.85610000000000e+00 2.28550159320536e-02 3.04985189656522e-04
6.87790000000000e+00 2.26970008718140e-02 3.03357722829434e-04
