Energy (eV)          EEDF (eV^-(3/2))     First Anisotropy
2.43750000000000e-02 1.80476320042795e-01 1.37556048477680e-04
7.31250000000000e-02 1.77889904690057e-01 2.26277226218961e-04
1.21875000000000e-01 1.75340555387876e-01 2.96423767201112e-04
1.70625000000000e-01 1.72827740940679e-01 3.48342737251629e-04
2.19375000000000e-01 1.70350937765574e-01 3.90523198066438e-04
2.68125000000000e-01 1.67909629783174e-01 4.26211506877145e-04
3.16875000000000e-01 1.65503308310058e-01 4.57105893774247e-04
3.65625000000000e-01 1.63131471952775e-01 4.84242664184077e-04
4.14375000000000e-01 1.60793626503368e-01 5.08316186434382e-04
4.63125000000000e-01 1.58489284836403e-01 5.29822172337312e-04
5.11875000000000e-01 1.56217966807462e-01 5.49131192853005e-04
5.60625000000000e-01 1.53979199153103e-01 5.66530156140528e-04
6.09375000000000e-01 1.51772515392248e-01 5.82247418159357e-04
6.58125000000000e-01 1.49597455728980e-01 5.96468837227868e-04
7.06875000000000e-01 1.47453566956743e-01 6.09348496482120e-04
7.55625000000000e-01 1.45340402363908e-01 6.21016125965504e-04
8.04375000000000e-01 1.43257521640691e-01 6.31582396135118e-04
8.53125000000000e-01 1.41204490787411e-01 6.41142790342761e-04
9.01875000000000e-01 1.39180882024059e-01 6.49780500358876e-04
9.50625000000000e-01 1.37186273701163e-01 6.57568632989052e-04
9.99375000000000e-01 1.35220250211930e-01 6.64571920039508e-04
1.04812500000000e+00 1.33282401905650e-01 6.70848063193218e-04
1.09687500000000e+00 1.31372325002339e-01 6.76448805828546e-04
1.14562500000000e+00 1.29489621508604e-01 6.81420797432560e-04
1.19437500000000e+00 1.27633899134714e-01 6.85806298270232e-04
1.24312500000000e+00 1.25804771212866e-01 6.89643759461101e-04
1.29187500000000e+00 1.24001856616608e-01 6.92968304762152e-04
1.34062500000000e+00 1.22224779681435e-01 6.95812133989883e-04
1.38937500000000e+00 1.20473170126507e-01 6.98204863370804e-04
1.43812500000000e+00 1.18746662977498e-01 7.00173814676713e-04
1.48687500000000e+00 1.17044898490548e-01 7.01744262431675e-04
1.53562500000000e+00 1.15367522077303e-01 7.02939646533378e-04
1.58437500000000e+00 1.13714184231037e-01 7.03781756144599e-04
1.63312500000000e+00 1.12084540453817e-01 7.04290889562311e-04
1.68187500000000e+00 1.10478251184732e-01 7.04485993877368e-04
1.73062500000000e+00 1.08894981729133e-01 7.04384787534737e-04
1.77937500000000e+00 1.07334402188899e-01 7.04003868347752e-04
1.82812500000000e+00 1.05796187393695e-01 7.03358809075870e-04
1.87687500000000e+00 1.04280016833219e-01 7.02464242318381e-04
1.92562500000000e+00 1.02785574590417e-01 7.01333936188455e-04
1.97437500000000e+00 1.01312549275661e-01 6.99980861997320e-04
2.02312500000000e+00 9.98606339618607e-02 6.98417254986050e-04
2.07187500000000e+00 9.84295261205161e-02 6.96654668984917e-04
2.12062500000000e+00 9.70189275586774e-02 6.94704025749228e-04
2.16937500000000e+00 9.56285443568135e-02 6.92575659612431e-04
2.21812500000000e+00 9.42580868075688e-02 6.90279358006283e-04
2.26687500000000e+00 9.29072693553988e-02 6.87824398321845e-04
2.31562500000000e+00 9.15758105370702e-02 6.85219581521397e-04
2.36437500000000e+00 9.02634329230134e-02 6.82473262856747e-04
2.41312500000000e+00 8.89698630595163e-02 6.79593380003593e-04
2.46187500000000e+00 8.76948314117457e-02 6.76587478882465e-04
2.51062500000000e+00 8.64380723075861e-02 6.73462737403215e-04
2.55937500000000e+00 8.51993238822826e-02 6.70225987341215e-04
2.60812500000000e+00 8.39783280238773e-02 6.66883734528549e-04
2.65687500000000e+00 8.27748303194280e-02 6.63442177522460e-04
2.70562500000000e+00 8.15885800019975e-02 6.59907224894459e-04
2.75437500000000e+00 8.04193298984022e-02 6.56284511267400e-04
2.80312500000000e+00 7.92668363777101e-02 6.52579412214096e-04
2.85187500000000e+00 7.81308593004765e-02 6.48797058118461e-04
2.90062500000000e+00 7.70111619687073e-02 6.44942347089711e-04
2.94937500000000e+00 7.59075110765396e-02 6.41019957010579e-04
2.99812500000000e+00 7.48196766616285e-02 6.37034356792218e-04
3.04687500000000e+00 7.37474320572312e-02 6.32989816901302e-04
3.09562500000000e+00 7.26905538449778e-02 6.28890419218238e-04
3.14437500000000e+00 7.16488218083183e-02 6.24740066279638e-04
3.19312500000000e+00 7.06220188866373e-02 6.20542489953283e-04
3.24187500000000e+00 6.96099311300262e-02 6.16301259589182e-04
3.29062500000000e+00 6.86123476547034e-02 6.12019789686333e-04
3.33937500000000e+00 6.76290605990737e-02 6.07701347111175e-04
3.38812500000000e+00 6.66598650804168e-02 6.03349057900373e-04
3.43687500000000e+00 6.57045591521973e-02 5.98965913678111e-04
3.48562500000000e+00 6.47629437619857e-02 5.94554777714933e-04
3.53437500000000e+00 6.38348227099834e-02 5.90118390653225e-04
3.58312500000000e+00 6.29200026081407e-02 5.85659375922197e-04
3.63187500000000e+00 6.20182928398621e-02 5.81180244863275e-04
3.68062500000000e+00 6.11295055202883e-02 5.76683401585296e-04
3.72937500000000e+00 6.02534554571474e-02 5.72171147567065e-04
3.77812500000000e+00 5.93899601121675e-02 5.67645686023723e-04
3.82687500000000e+00 5.85388395630420e-02 5.63109126051911e-04
3.87562500000000e+00 5.76999164659400e-02 5.58563486567556e-04
3.92437500000000e+00 5.68730160185540e-02 5.54010700049192e-04
3.97312500000000e+00 5.60579659236776e-02 5.49452616098690e-04
4.02187500000000e+00 5.52545963533040e-02 5.44891004830264e-04
4.07062500000000e+00 5.44627399132406e-02 5.40327560098029e-04
4.11937500000000e+00 5.36822316082294e-02 5.35763902571617e-04
4.16812500000000e+00 5.29129088075677e-02 5.31201582668516e-04
4.21687500000000e+00 5.21546112112220e-02 5.26642083351437e-04
4.26562500000000e+00 5.14071808164267e-02 5.22086822798173e-04
4.31437500000000e+00 5.06704618847616e-02 5.17537156951131e-04
4.36312500000000e+00 4.99443009097020e-02 5.12994381953085e-04
4.41187500000000e+00 4.92285465846332e-02 5.08459736475434e-04
4.46062500000000e+00 4.85230497713229e-02 5.03934403944593e-04
4.50937500000000e+00 4.78276634688467e-02 4.99419514671920e-04
4.55812500000000e+00 4.71422427829578e-02 4.94916147892387e-04
4.60687500000000e+00 4.64666448958965e-02 4.90425333716490e-04
4.65562500000000e+00 4.58007290366314e-02 4.85948055000021e-04
4.70437500000000e+00 4.51443564515281e-02 4.81485249135701e-04
4.75312500000000e+00 4.44973903754376e-02 4.77037809770668e-04
4.80187500000000e+00 4.38596960031992e-02 4.72606588453550e-04
4.85062500000000e+00 4.32311404615519e-02 4.68192396214391e-04
4.89937500000000e+00 4.26115927814480e-02 4.63796005080800e-04
4.94812500000000e+00 4.20009238707641e-02 4.59418149533354e-04
4.99687500000000e+00 4.13990064874026e-02 4.55059527903151e-04
5.04562500000000e+00 4.08057152127788e-02 4.50720803714165e-04
5.09437500000000e+00 4.02209264256882e-02 4.46402606973020e-04
5.14312500000000e+00 3.96445182765480e-02 4.42105535408607e-04
5.19187500000000e+00 3.90763706620081e-02 4.37830155663781e-04
5.24062500000000e+00 3.85163651999256e-02 4.33577004441308e-04
5.28937500000000e+00 3.79643852046981e-02 4.29346589606158e-04
5.33812500000000e+00 3.74203156629506e-02 4.25139391246007e-04
5.38687500000000e+00 3.68840432095705e-02 4.20955862691814e-04
5.43562500000000e+00 3.63554561040866e-02 4.16796431500221e-04
5.48437500000000e+00 3.58344442073860e-02 4.12661500399383e-04
5.53312500000000e+00 3.53208989587650e-02 4.08551448199815e-04
5.58187500000000e+00 3.48147133533090e-02 4.04466630671740e-04
5.63062500000000e+00 3.43157819195961e-02 4.00407381390305e-04
5.67937500000000e+00 3.38240006977211e-02 3.96374012550084e-04
5.72812500000000e+00 3.33392672176330e-02 3.92366815750031e-04
5.77687500000000e+00 3.28614804777847e-02 3.88386062750110e-04
5.82562500000000e+00 3.23905409240874e-02 3.84432006200922e-04
5.87437500000000e+00 3.19263504291668e-02 3.80504880347195e-04
5.92312500000000e+00 3.14688122719173e-02 3.76604901706234e-04
5.97187500000000e+00 3.10178311173482e-02 3.72732269722405e-04
6.02062500000000e+00 3.05733129967195e-02 3.68887167398571e-04
6.06937500000000e+00 3.01351652879619e-02 3.65069761905348e-04
6.11812500000000e+00 2.97032966963779e-02 3.61280205169034e-04
6.16687500000000e+00 2.92776172356187e-02 3.57518634439108e-04
6.21562500000000e+00 2.88580382089347e-02 3.53785172835984e-04
6.26437500000000e+00 2.84444721906939e-02 3.50079929879854e-04
6.31312500000000e+00 2.80368330081654e-02 3.46403002001279e-04
6.36187500000000e+00 2.76350357235641e-02 3.42754473034239e-04
6.41062500000000e+00 2.72389966163527e-02 3.39134414692328e-04
6.45937500000000e+00 2.68486331657973e-02 3.35542887028604e-04
6.50812500000000e+00 2.64638640337725e-02 3.31979938879848e-04
6.55687500000000e+00 2.60846090478142e-02 3.28445608295739e-04
6.60562500000000e+00 2.57107891844135e-02 3.24939922953408e-04
6.65437500000000e+00 2.53423265525518e-02 3.21462900558038e-04
6.70312500000000e+00 2.49791443774706e-02 3.18014549229963e-04
6.75187500000000e+00 2.46211669846741e-02 3.14594867878727e-04
6.80062500000000e+00 2.42683197841620e-02 3.11203846564537e-04
6.84937500000000e+00 2.39205292548866e-02 3.07841466847639e-04
6.89812500000000e+00 2.35777229294346e-02 3.04507702126032e-04
6.94687500000000e+00 2.32398293789266e-02 3.01202517961842e-04
6.99562500000000e+00 2.29067781981341e-02 2.97925872396858e-04
7.04437500000000e+00 2.25784999908096e-02 2.94677716257521e-04
7.09312500000000e+00 2.22549263552268e-02 2.91457993449783e-04
7.14187500000000e+00 2.19359898699281e-02 2.88266641244181e-04
7.19062500000000e+00 2.16216240796759e-02 2.85103590551412e-04
7.23937500000000e+00 2.13117634816064e-02 2.81968766188818e-04
7.28812500000000e+00 2.10063435115805e-02 2.78862087138017e-04
7.33687500000000e+00 2.07053005307311e-02 2.75783466793981e-04
7.38562500000000e+00 2.04085718122030e-02 2.72732813205907e-04
7.43437500000000e+00 2.01160955280825e-02 2.69710029310107e-04
7.48312500000000e+00 1.98278107365153e-02 2.66715013155179e-04
7.53187500000000e+00 1.95436573690077e-02 2.63747658119753e-04
7.58062500000000e+00 1.92635762179105e-02 2.60807853123048e-04
7.62937500000000e+00 1.89875089240827e-02 2.57895482828422e-04
7.67812500000000e+00 1.87153979647309e-02 2.55010427840228e-04
7.72687500000000e+00 1.84471866414237e-02 2.52152564894157e-04
7.77562500000000e+00 1.81828190682781e-02 2.49321767041259e-04
7.82437500000000e+00 1.79222401603143e-02 2.46517903825883e-04
7.87312500000000e+00 1.76653956219783e-02 2.43740841457721e-04
7.92187500000000e+00 1.74122319358283e-02 2.40990442978145e-04
7.97062500000000e+00 1.71626963513839e-02 2.38266568421004e-04
8.01937500000000e+00 1.69167368741343e-02 2.35569074968118e-04
8.06812500000000e+00 1.66743022547048e-02 2.32897817099551e-04
8.11687500000000e+00 1.64353419781782e-02 2.30252646738901e-04
8.16562500000000e+00 1.61998062535690e-02 2.27633413393748e-04
8.21437500000000e+00 1.59676460034489e-02 2.25039964291381e-04
8.26312500000000e+00 1.57388128537208e-02 2.22472144510012e-04
8.31187500000000e+00 1.55132591235391e-02 2.19929797105568e-04
8.36062500000000e+00 1.52909378153749e-02 2.17412763234227e-04
8.40937500000000e+00 1.50718026052235e-02 2.14920882270818e-04
8.45812500000000e+00 1.48558078329515e-02 2.12453991923228e-04
8.50687500000000e+00 1.46429084927835e-02 2.10011928342948e-04
8.55562500000000e+00 1.44330602239241e-02 2.07594526231848e-04
8.60437500000000e+00 1.42262193013145e-02 2.05201618945331e-04
8.65312500000000e+00 1.40223426265222e-02 2.02833038591956e-04
8.70187500000000e+00 1.38213877187606e-02 2.00488616129659e-04
8.75062500000000e+00 1.36233127060370e-02 1.98168181458668e-04
8.79937500000000e+00 1.34280763164289e-02 1.95871563511192e-04
8.84812500000000e+00 1.32356378694835e-02 1.93598590338049e-04
8.89687500000000e+00 1.30459572677417e-02 1.91349089192256e-04
8.94562500000000e+00 1.28589949883831e-02 1.89122886609708e-04
8.99437500000000e+00 1.26747120749909e-02 1.86919808487043e-04
9.04312500000000e+00 1.24930701294349e-02 1.84739680156760e-04
9.09187500000000e+00 1.23140313038700e-02 1.82582326459695e-04
9.14062500000000e+00 1.21375582928509e-02 1.80447571814908e-04
9.18937500000000e+00 1.19636143255584e-02 1.78335240287094e-04
9.23812500000000e+00 1.17921631581378e-02 1.76245155651581e-04
9.28687500000000e+00 1.16231690661469e-02 1.74177141456968e-04
9.33562500000000e+00 1.14565968371124e-02 1.72131021085502e-04
9.38437500000000e+00 1.12924117631926e-02 1.70106617811273e-04
9.43312500000000e+00 1.11305796339457e-02 1.68103754856246e-04
9.48187500000000e+00 1.09710667292016e-02 1.66122255444243e-04
9.53062500000000e+00 1.08138398120355e-02 1.64161942852931e-04
9.57937500000000e+00 1.06588661218429e-02 1.62222640463839e-04
9.62812500000000e+00 1.05061133675130e-02 1.60304171810522e-04
9.67687500000000e+00 1.03555497207006e-02 1.58406360624880e-04
9.72562500000000e+00 1.02071438091941e-02 1.56529030881715e-04
9.77437500000000e+00 1.00608647103789e-02 1.54672006841578e-04
9.82312500000000e+00 9.91668194479354e-03 1.52835113091936e-04
9.87187500000000e+00 9.77456546977970e-03 1.51018174586747e-04
9.92062500000000e+00 9.63448567322170e-03 1.49221016684468e-04
9.96937500000000e+00 9.49641336737665e-03 1.47443465184537e-04
1.00181250000000e+01 9.36031978279270e-03 1.45685346362398e-04
1.00668750000000e+01 9.22617656231449e-03 1.43946487003104e-04
1.01156250000000e+01 9.09395575517448e-03 1.42226714433547e-04
1.01643750000000e+01 8.96362981116902e-03 1.40525856553319e-04
1.02131250000000e+01 8.83517157491782e-03 1.38843741864316e-04
1.02618750000000e+01 8.70855428020576e-03 1.37180199499069e-04
1.03106250000000e+01 8.58375154440568e-03 1.35535059247863e-04
1.03593750000000e+01 8.46073736298124e-03 1.33908151584680e-04
1.04081250000000e+01 8.33948610406838e-03 1.32299307691976e-04
1.04568750000000e+01 8.21997250313462e-03 1.30708359484374e-04
1.05056250000000e+01 8.10217165771481e-03 1.29135139631289e-04
1.05543750000000e+01 7.98605902222227e-03 1.27579481578496e-04
1.06031250000000e+01 7.87161040283436e-03 1.26041219568690e-04
1.06518750000000e+01 7.75880195245139e-03 1.24520188661087e-04
1.07006250000000e+01 7.64761016572764e-03 1.23016224750069e-04
1.07493750000000e+01 7.53801187417371e-03 1.21529164582907e-04
1.07981250000000e+01 7.42998424132901e-03 1.20058845776606e-04
1.08468750000000e+01 7.32350475800341e-03 1.18605106833892e-04
1.08956250000000e+01 7.21855123758715e-03 1.17167787158355e-04
1.09443750000000e+01 7.11510181142791e-03 1.15746727068805e-04
1.09931250000000e+01 7.01313492427415e-03 1.14341767812830e-04
1.10418750000000e+01 6.91262932978370e-03 1.12952751579601e-04
1.10906250000000e+01 6.81356408609685e-03 1.11579521511957e-04
1.11393750000000e+01 6.71591855147271e-03 1.10221921717767e-04
1.11881250000000e+01 6.61967237998828e-03 1.08879797280613e-04
1.12368750000000e+01 6.52480551729896e-03 1.07552994269819e-04
1.12856250000000e+01 6.43129819646005e-03 1.06241359749816e-04
1.13343750000000e+01 6.33913093380789e-03 1.04944741788901e-04
1.13831250000000e+01 6.24828452490024e-03 1.03662989467396e-04
1.14318750000000e+01 6.15874004051467e-03 1.02395952885217e-04
1.14806250000000e+01 6.07047882270442e-03 1.01143483168883e-04
1.15293750000000e+01 5.98348248091070e-03 9.99054324779771e-05
1.15781250000000e+01 5.89773288813079e-03 9.86816540110913e-05
1.16268750000000e+01 5.81321217714093e-03 9.74720020112543e-05
1.16756250000000e+01 5.72990273677349e-03 9.62763317708661e-05
1.17243750000000e+01 5.64778720824736e-03 9.50944996361659e-05
1.17731250000000e+01 5.56684848155102e-03 9.39263630112287e-05
1.18218750000000e+01 5.48706969187739e-03 9.27717803615219e-05
1.18706250000000e+01 5.40843421610980e-03 9.16306112170368e-05
1.19193750000000e+01 5.33092566935832e-03 9.05027161749974e-05
1.19681250000000e+01 5.25452790154571e-03 8.93879569021789e-05
1.20168750000000e+01 5.17922499404231e-03 8.82861961368329e-05
1.20656250000000e+01 5.10500125634917e-03 8.71972976902371e-05
1.21143750000000e+01 5.03184122282865e-03 8.61211264478910e-05
1.21631250000000e+01 4.95972964948198e-03 8.50575483703566e-05
1.22118750000000e+01 4.88865151077290e-03 8.40064304937722e-05
1.22606250000000e+01 4.81859199649689e-03 8.29676409300356e-05
1.23093750000000e+01 4.74953650869520e-03 8.19410488666748e-05
1.23581250000000e+01 4.68147065861321e-03 8.09265245664238e-05
1.24068750000000e+01 4.61438026370223e-03 7.99239393665033e-05
1.24556250000000e+01 4.54825134466445e-03 7.89331656776246e-05
1.25043750000000e+01 4.48307012254006e-03 7.79540769827199e-05
1.25531250000000e+01 4.41882301583622e-03 7.69865478354213e-05
1.26018750000000e+01 4.35549663769718e-03 7.60304538582866e-05
1.26506250000000e+01 4.29307779311489e-03 7.50856717407775e-05
1.26993750000000e+01 4.23155347617964e-03 7.41520792370199e-05
1.27481250000000e+01 4.17091086737006e-03 7.32295551633321e-05
1.27968750000000e+01 4.11113733088201e-03 7.23179793955377e-05
1.28456250000000e+01 4.05222041199571e-03 7.14172328660896e-05
1.28943750000000e+01 3.99414783448058e-03 7.05271975609800e-05
1.29431250000000e+01 3.93690749803735e-03 6.96477565164643e-05
1.29918750000000e+01 3.88048747577675e-03 6.87787938156084e-05
1.30406250000000e+01 3.82487601173436e-03 6.79201945846572e-05
1.30893750000000e+01 3.77006151842110e-03 6.70718449892409e-05
1.31381250000000e+01 3.71603257440877e-03 6.62336322304193e-05
1.31868750000000e+01 3.66277792195026e-03 6.54054445405670e-05
1.32356250000000e+01 3.61028646463380e-03 6.45871711791184e-05
1.32843750000000e+01 3.55854726507086e-03 6.37787024281714e-05
1.33331250000000e+01 3.50754954261718e-03 6.29799295879575e-05
1.33818750000000e+01 3.45728267112648e-03 6.21907449721833e-05
1.34306250000000e+01 3.40773617673630e-03 6.14110419032440e-05
1.34793750000000e+01 3.35889973568566e-03 6.06407147073290e-05
1.35281250000000e+01 3.31076317216391e-03 5.98796587094099e-05
1.35768750000000e+01 3.26331645619047e-03 5.91277702281274e-05
1.36256250000000e+01 3.21654970152493e-03 5.83849465705756e-05
1.36743750000000e+01 3.17045316360707e-03 5.76510860269870e-05
1.37231250000000e+01 3.12501723752649e-03 5.69260878653326e-05
1.37718750000000e+01 3.08023245602123e-03 5.62098523258326e-05
1.38206250000000e+01 3.03608948750516e-03 5.55022806153850e-05
1.38693750000000e+01 2.99257913412357e-03 5.48032749019155e-05
1.39181250000000e+01 2.94969232983669e-03 5.41127383086617e-05
1.39668750000000e+01 2.90742013853062e-03 5.34305749083822e-05
1.40156250000000e+01 2.86575375215538e-03 5.27566897174998e-05
1.40643750000000e+01 2.82468448888957e-03 5.20909886901890e-05
1.41131250000000e+01 2.78420379133145e-03 5.14333787124019e-05
1.41618750000000e+01 2.74430322471583e-03 5.07837675958452e-05
1.42106250000000e+01 2.70497447515656e-03 5.01420640719017e-05
1.42593750000000e+01 2.66620934791423e-03 4.95081777855106e-05
1.43081250000000e+01 2.62799976568865e-03 4.88820192890036e-05
1.43568750000000e+01 2.59033776693584e-03 4.82635000358950e-05
1.44056250000000e+01 2.55321550420910e-03 4.76525323746456e-05
1.44543750000000e+01 2.51662524252390e-03 4.70490295423827e-05
1.45031250000000e+01 2.48055935774617e-03 4.64529056585976e-05
1.45518750000000e+01 2.44501033500369e-03 4.58640757188098e-05
1.46006250000000e+01 2.40997076712025e-03 4.52824555882060e-05
1.46493750000000e+01 2.37543335307226e-03 4.47079619952603e-05
1.46981250000000e+01 2.34139089646749e-03 4.41405125253284e-05
1.47468750000000e+01 2.30783630404557e-03 4.35800256142296e-05
1.47956250000000e+01 2.27476258419998e-03 4.30264205418125e-05
1.48443750000000e+01 2.24216284552130e-03 4.24796174255056e-05
1.48931250000000e+01 2.21003029536124e-03 4.19395372138588e-05
1.49418750000000e+01 2.17835823841729e-03 4.14061016800758e-05
1.49906250000000e+01 2.14714007533768e-03 4.08792334155400e-05
1.50393750000000e+01 2.11636930134627e-03 4.03588558233363e-05
1.50881250000000e+01 2.08603950488720e-03 3.98448931117713e-05
1.51368750000000e+01 2.05614436628897e-03 3.93372702878930e-05
1.51856250000000e+01 2.02667765644759e-03 3.88359131510076e-05
1.52343750000000e+01 1.99763323552866e-03 3.83407482862043e-05
1.52831250000000e+01 1.96900505168811e-03 3.78517030578826e-05
1.53318750000000e+01 1.94078713981112e-03 3.73687056032855e-05
1.53806250000000e+01 1.91297362026923e-03 3.68916848260417e-05
