Energy (eV)          EEDF (eV^-(3/2))     First Anisotropy
6.26984126984127e-03 3.25300899781495e-01 1.53202428241745e-04
1.88095238095238e-02 3.23522332155119e-01 2.53140181490012e-04
3.13492063492063e-02 3.21753488760394e-01 3.34596341224052e-04
4.38888888888889e-02 3.19994316438478e-01 3.96737132547899e-04
5.64285714285714e-02 3.18244762307535e-01 4.48777269390138e-04
6.89682539682540e-02 3.16504773784666e-01 4.94193591891896e-04
8.15079365079365e-02 3.14774298569445e-01 5.34781881290124e-04
9.40476190476190e-02 3.13053284646220e-01 5.71624505092262e-04
1.06587301587302e-01 3.11341680292427e-01 6.05437967084138e-04
1.19126984126984e-01 3.09639434049101e-01 6.36727733382036e-04
1.31666666666667e-01 3.07946494765645e-01 6.65867282245958e-04
1.44206349206349e-01 3.06262811543711e-01 6.93142484627757e-04
1.56746031746032e-01 3.04588333787688e-01 7.18778342132175e-04
1.69285714285714e-01 3.02923011156605e-01 7.42956001444648e-04
1.81825396825397e-01 3.01266793595488e-01 7.65824057268978e-04
1.94365079365079e-01 2.99619631332461e-01 7.87506348087387e-04
2.06904761904762e-01 2.97981474849079e-01 8.08107480228809e-04
2.19444444444444e-01 2.96352274914871e-01 8.27716852867000e-04
2.31984126984127e-01 2.94731982552602e-01 8.46411652516053e-04
2.44523809523810e-01 2.93120549067645e-01 8.64259122937661e-04
2.57063492063492e-01 2.91517926017776e-01 8.81318315839973e-04
2.69603174603175e-01 2.89924065238604e-01 8.97641460147419e-04
2.82142857142857e-01 2.88338918816878e-01 9.13275048109972e-04
2.94682539682540e-01 2.86762439112818e-01 9.28260706141960e-04
3.07222222222222e-01 2.85194578736240e-01 9.42635901398790e-04
3.19761904761905e-01 2.83635290566372e-01 9.56434519860598e-04
3.32301587301587e-01 2.82084527730275e-01 9.69687344925256e-04
3.44841269841270e-01 2.80542243616155e-01 9.82422452211610e-04
3.57380952380952e-01 2.79008391871562e-01 9.94665547596039e-04
3.69920634920635e-01 2.77482926388512e-01 1.00644024631621e-03
3.82460317460317e-01 2.75965801319676e-01 1.01776831316695e-03
3.95000000000000e-01 2.74456971060208e-01 1.02866986759383e-03
4.07539682539683e-01 2.72956390262447e-01 1.03916355971797e-03
4.20079365079365e-01 2.71464013819149e-01 1.04926672276724e-03
4.32619047619048e-01 2.69979796876915e-01 1.05899550515521e-03
4.45158730158730e-01 2.68503694820635e-01 1.06836498596968e-03
4.57698412698413e-01 2.67035663285818e-01 1.07738927587348e-03
4.70238095238095e-01 2.65575658144091e-01 1.08608160665125e-03
4.82777777777778e-01 2.64123635511560e-01 1.09445440730427e-03
4.95317460317460e-01 2.62679551747278e-01 1.10251937696977e-03
5.07857142857143e-01 2.61243363442881e-01 1.11028754446081e-03
5.20396825396825e-01 2.59815027433160e-01 1.11776932381311e-03
5.32936507936508e-01 2.58394500783284e-01 1.12497456365986e-03
5.45476190476190e-01 2.56981740798609e-01 1.13191259130180e-03
5.58015873015873e-01 2.55576705012654e-01 1.13859225255100e-03
5.70555555555556e-01 2.54179351196227e-01 1.14502194745684e-03
5.83095238095238e-01 2.52789637346071e-01 1.15120966279434e-03
5.95634920634921e-01 2.51407521693385e-01 1.15716300131307e-03
6.08174603174603e-01 2.50032962693074e-01 1.16288920848042e-03
6.20714285714286e-01 2.48665919031718e-01 1.16839519664373e-03
6.33253968253968e-01 2.47306349617375e-01 1.17368756768185e-03
6.45793650793651e-01 2.45954213584967e-01 1.17877263134656e-03
6.58333333333333e-01 2.44609470294931e-01 1.18365642650717e-03
6.70873015873016e-01 2.43272079325727e-01 1.18834473633298e-03
6.83412698412698e-01 2.41942000480880e-01 1.19284310427297e-03
6.95952380952381e-01 2.40619193779735e-01 1.19715684848610e-03
7.08492063492064e-01 2.39303619464077e-01 1.20129107499264e-03
7.21031746031746e-01 2.37995237989319e-01 1.20525068996424e-03
7.33571428571429e-01 2.36694010030737e-01 1.20904041094471e-03
7.46111111111111e-01 2.35399896475049e-01 1.21266477738061e-03
7.58650793650794e-01 2.34112858426301e-01 1.21612816025060e-03
7.71190476190476e-01 2.32832857197806e-01 1.21943477113953e-03
7.83730158730159e-01 2.31559854317709e-01 1.22258867054672e-03
7.96269841269841e-01 2.30293811521262e-01 1.22559377611736e-03
8.08809523809524e-01 2.29034690754545e-01 1.22845386836410e-03
8.21349206349206e-01 2.27782454173239e-01 1.23117259972176e-03
8.33888888888889e-01 2.26537064136849e-01 1.23375349939867e-03
8.46428571428571e-01 2.25298483213697e-01 1.23619997963022e-03
8.58968253968254e-01 2.24066674173810e-01 1.23851534128847e-03
8.71507936507937e-01 2.22841599993655e-01 1.24070277902620e-03
8.84047619047619e-01 2.21623223849297e-01 1.24276538621587e-03
8.96587301587302e-01 2.20411509120902e-01 1.24470615947856e-03
9.09126984126984e-01 2.19206419386144e-01 1.24652800304895e-03
9.21666666666667e-01 2.18007918424486e-01 1.24823373277851e-03
9.34206349206349e-01 2.16815970210831e-01 1.24982608000830e-03
9.46746031746032e-01 2.15630538919587e-01 1.25130769511954e-03
9.59285714285714e-01 2.14451588918548e-01 1.25268115129564e-03
9.71825396825397e-01 2.13279084771570e-01 1.25394894642469e-03
9.84365079365079e-01 2.12112991237449e-01 1.25511350805766e-03
9.96904761904762e-01 2.10953273265271e-01 1.25617719411341e-03
1.00944444444444e+00 2.09799896001472e-01 1.25714230069963e-03
1.02198412698413e+00 2.08652824766151e-01 1.25801105595964e-03
1.03452380952381e+00 2.07512025092659e-01 1.25878562581530e-03
1.04706349206349e+00 2.06377462691405e-01 1.25946812424221e-03
1.05960317460317e+00 2.05249103460264e-01 1.26006060877443e-03
1.07214285714286e+00 2.04126913473233e-01 1.26056507705155e-03
1.08468253968254e+00 2.03010859010756e-01 1.26098347463458e-03
1.09722222222222e+00 2.01900906527029e-01 1.26131770269714e-03
1.10976190476190e+00 2.00797022659652e-01 1.26156961373713e-03
1.12230158730159e+00 1.99699174218980e-01 1.26174100798993e-03
1.13484126984127e+00 1.98607328216403e-01 1.26183364062841e-03
1.14738095238095e+00 1.97521451833767e-01 1.26184922886450e-03
1.15992063492064e+00 1.96441512432352e-01 1.26178944762407e-03
1.17246031746032e+00 1.95367477542850e-01 1.26165592589141e-03
1.18500000000000e+00 1.94299314891787e-01 1.26145025338692e-03
1.19753968253968e+00 1.93236992372880e-01 1.26117398716680e-03
1.21007936507937e+00 1.92180478055388e-01 1.26082864730733e-03
1.22261904761905e+00 1.91129740174671e-01 1.26041571322870e-03
1.23515873015873e+00 1.90084747156926e-01 1.25993662992294e-03
1.24769841269841e+00 1.89045467592296e-01 1.25939281411999e-03
1.26023809523810e+00 1.88011870242661e-01 1.25878565001506e-03
1.27277777777778e+00 1.86983924032727e-01 1.25811648560493e-03
1.28531746031746e+00 1.85961598073224e-01 1.25738663852392e-03
1.29785714285714e+00 1.84944861635612e-01 1.25659740183162e-03
1.31039682539683e+00 1.83933684159371e-01 1.25575003980581e-03
1.32293650793651e+00 1.82928035243564e-01 1.25484578431553e-03
1.33547619047619e+00 1.81927884668639e-01 1.25388584031234e-03
1.34801587301587e+00 1.80933202372598e-01 1.25287139128290e-03
1.36055555555556e+00 1.79943958457816e-01 1.25180359512374e-03
1.37309523809524e+00 1.78960123183062e-01 1.25068358056852e-03
1.38563492063492e+00 1.77981666984003e-01 1.24951245237233e-03
1.39817460317460e+00 1.77008560450721e-01 1.24829129646584e-03
1.41071428571429e+00 1.76040774334110e-01 1.24702117592212e-03
1.42325396825397e+00 1.75078279538310e-01 1.24570312745026e-03
1.43579365079365e+00 1.74121047140017e-01 1.24433816630445e-03
1.44833333333333e+00 1.73169048367253e-01 1.24292729116931e-03
1.46087301587302e+00 1.72222254605359e-01 1.24147148022613e-03
1.47341269841270e+00 1.71280637389826e-01 1.23997168772126e-03
1.48595238095238e+00 1.70344168424499e-01 1.23842884862597e-03
1.49849206349206e+00 1.69412819561498e-01 1.23684388327845e-03
1.51103174603175e+00 1.68486562806854e-01 1.23521769355372e-03
1.52357142857143e+00 1.67565370313689e-01 1.23355115951194e-03
1.53611111111111e+00 1.66649214399417e-01 1.23184514383182e-03
1.54865079365079e+00 1.65738067526718e-01 1.23010049623050e-03
1.56119047619048e+00 1.64831902308846e-01 1.22831804973892e-03
1.57373015873016e+00 1.63930691503144e-01 1.22649861743430e-03
1.58626984126984e+00 1.63034408027300e-01 1.22464299666612e-03
1.59880952380952e+00 1.62143024941311e-01 1.22275197511599e-03
1.61134920634921e+00 1.61256515447039e-01 1.22082631979150e-03
1.62388888888889e+00 1.60374852903844e-01 1.21886678307804e-03
1.63642857142857e+00 1.59498010811208e-01 1.21687410683330e-03
1.64896825396825e+00 1.58625962813490e-01 1.21484901882673e-03
1.66150793650794e+00 1.57758682693999e-01 1.21279222960257e-03
1.67404761904762e+00 1.56896144389794e-01 1.21070443640197e-03
1.68658730158730e+00 1.56038321975182e-01 1.20858632707831e-03
1.69912698412698e+00 1.55185189666211e-01 1.20643857664353e-03
1.71166666666667e+00 1.54336721815009e-01 1.20426184421942e-03
1.72420634920635e+00 1.53492892923818e-01 1.20205677679097e-03
1.73674603174603e+00 1.52653677629302e-01 1.19982401295487e-03
1.74928571428571e+00 1.51819050706795e-01 1.19756417957170e-03
1.76182539682540e+00 1.50988987064895e-01 1.19527788880448e-03
1.77436507936508e+00 1.50163461758778e-01 1.19296574171439e-03
1.78690476190476e+00 1.49342449975270e-01 1.19062833185482e-03
1.79944444444444e+00 1.48525927036856e-01 1.18826624202596e-03
1.81198412698413e+00 1.47713868396524e-01 1.18588004139980e-03
1.82452380952381e+00 1.46906249650402e-01 1.18347028896924e-03
1.83706349206349e+00 1.46103046523541e-01 1.18103753699652e-03
1.84960317460317e+00 1.45304234873713e-01 1.17858232786861e-03
1.86214285714286e+00 1.44509790686476e-01 1.17610519130734e-03
1.87468253968254e+00 1.43719690087185e-01 1.17360664768019e-03
1.88722222222222e+00 1.42933909327443e-01 1.17108721131277e-03
1.89976190476190e+00 1.42152424788694e-01 1.16854738744214e-03
1.91230158730159e+00 1.41375212977509e-01 1.16598766950970e-03
1.92484126984127e+00 1.40602250536997e-01 1.16340854234278e-03
1.93738095238095e+00 1.39833514233893e-01 1.16081048533885e-03
1.94992063492064e+00 1.39068980961955e-01 1.15819396951398e-03
1.96246031746032e+00 1.38308627737454e-01 1.15555945487700e-03
1.97500000000000e+00 1.37552431710035e-01 1.15290739348899e-03
1.98753968253968e+00 1.36800370150385e-01 1.15023823252622e-03
2.00007936507936e+00 1.36052420453469e-01 1.14755241142121e-03
2.01261904761905e+00 1.35308560134192e-01 1.14485035931616e-03
2.02515873015873e+00 1.34568766837754e-01 1.14213249800689e-03
2.03769841269841e+00 1.33833018327868e-01 1.13939924489149e-03
2.05023809523810e+00 1.33101292489826e-01 1.13665101020107e-03
2.06277777777778e+00 1.32373567326351e-01 1.13388819452976e-03
2.07531746031746e+00 1.31649820967453e-01 1.13111119166982e-03
2.08785714285714e+00 1.30930031659175e-01 1.12832039145209e-03
2.10039682539683e+00 1.30214177766504e-01 1.12551617706328e-03
2.11293650793651e+00 1.29502237769391e-01 1.12269892265075e-03
2.12547619047619e+00 1.28794190272146e-01 1.11986899605411e-03
2.13801587301587e+00 1.28090013992681e-01 1.11702676154298e-03
2.15055555555556e+00 1.27389687765272e-01 1.11417257721817e-03
2.16309523809524e+00 1.26693190536740e-01 1.11130679268912e-03
2.17563492063492e+00 1.26000501375415e-01 1.10842975170725e-03
2.18817460317460e+00 1.25311599460841e-01 1.10554179480613e-03
2.20071428571429e+00 1.24626464086403e-01 1.10264325678351e-03
2.21325396825397e+00 1.23945074655660e-01 1.09973446444926e-03
2.22579365079365e+00 1.23267410690901e-01 1.09681573916557e-03
2.23833333333333e+00 1.22593451823292e-01 1.09388739939376e-03
2.25087301587302e+00 1.21923177795365e-01 1.09094975825522e-03
2.26341269841270e+00 1.21256568457509e-01 1.08800312134732e-03
2.27595238095238e+00 1.20593603776128e-01 1.08504778919457e-03
2.28849206349206e+00 1.19934263824210e-01 1.08208405970705e-03
2.30103174603175e+00 1.19278528783698e-01 1.07911222581699e-03
2.31357142857143e+00 1.18626378942108e-01 1.07613257336092e-03
2.32611111111111e+00 1.17977794700334e-01 1.07314538344588e-03
2.33865079365079e+00 1.17332756563602e-01 1.07015093482361e-03
2.35119047619048e+00 1.16691245143733e-01 1.06714950160014e-03
2.36373015873016e+00 1.16053241155887e-01 1.06414135118188e-03
2.37626984126984e+00 1.15418725426024e-01 1.06112674656120e-03
2.38880952380952e+00 1.14787678882236e-01 1.05810594967849e-03
2.40134920634921e+00 1.14160082554310e-01 1.05507921492090e-03
2.41388888888889e+00 1.13535917580953e-01 1.05204679248144e-03
2.42642857142857e+00 1.12915165201378e-01 1.04900893060223e-03
2.43896825396825e+00 1.12297806757368e-01 1.04596587339767e-03
2.45150793650794e+00 1.11683823690249e-01 1.04291785889977e-03
2.46404761904762e+00 1.11073197547797e-01 1.03986512121880e-03
2.47658730158730e+00 1.10465909976167e-01 1.03680789271174e-03
2.48912698412698e+00 1.09861942721861e-01 1.03374640187247e-03
2.50166666666667e+00 1.09261277628811e-01 1.03068087143586e-03
2.51420634920635e+00 1.08663896644995e-01 1.02761152046645e-03
2.52674603174603e+00 1.08069781814681e-01 1.02453856645504e-03
2.53928571428571e+00 1.07478915280312e-01 1.02146222327373e-03
2.55182539682540e+00 1.06891279279693e-01 1.01838269933681e-03
2.56436507936508e+00 1.06306856152320e-01 1.01530019962053e-03
2.57690476190476e+00 1.05725628331945e-01 1.01221492769103e-03
2.58944444444444e+00 1.05147578348359e-01 1.00912708372170e-03
2.60198412698413e+00 1.04572688824693e-01 1.00603686270909e-03
2.61452380952381e+00 1.04000942483476e-01 1.00294445642682e-03
2.62706349206349e+00 1.03432322139491e-01 9.99850055387275e-04
2.63960317460317e+00 1.02866810701478e-01 9.96753846919355e-04
2.65214285714286e+00 1.02304391169533e-01 9.93656013437957e-04
2.66468253968254e+00 1.01745046640910e-01 9.90556734334261e-04
2.67722222222222e+00 1.01188760303160e-01 9.87456187874077e-04
2.68976190476190e+00 1.00635515435752e-01 9.84354549334024e-04
2.70230158730159e+00 1.00085295407567e-01 9.81251989322463e-04
2.71484126984127e+00 9.95380836824598e-02 9.78148675608856e-04
2.72738095238095e+00 9.89938638126612e-02 9.75044774961388e-04
2.73992063492063e+00 9.84526194403287e-02 9.71940451339661e-04
2.75246031746032e+00 9.79143342951264e-02 9.68835864265256e-04
2.76500000000000e+00 9.73789921995608e-02 9.65731170592561e-04
2.77753968253968e+00 9.68465770626328e-02 9.62626526288385e-04
2.79007936507936e+00 9.63170728813200e-02 9.59522084678643e-04
2.80261904761905e+00 9.57904637382426e-02 9.56417994867128e-04
2.81515873015873e+00 9.52667338067805e-02 9.53314403450565e-04
2.82769841269841e+00 9.47458673449661e-02 9.50211456241787e-04
2.84023809523810e+00 9.42278486969012e-02 9.47109296569037e-04
2.85277777777778e+00 9.37126622905039e-02 9.44008063741526e-04
2.86531746031746e+00 9.32002926424183e-02 9.40907894710168e-04
2.87785714285714e+00 9.26907243521380e-02 9.37808925736995e-04
2.89039682539683e+00 9.21839421033590e-02 9.34711290745451e-04
2.90293650793651e+00 9.16799306618056e-02 9.31615119830582e-04
2.91547619047619e+00 9.11786748799426e-02 9.28520540868217e-04
2.92801587301587e+00 9.06801596913175e-02 9.25427681132262e-04
2.94055555555556e+00 9.01843701118543e-02 9.22336665693931e-04
2.95309523809524e+00 8.96912912377551e-02 9.19247615975919e-04
2.96563492063492e+00 8.92009082500219e-02 9.16160651311494e-04
2.97817460317460e+00 8.87132064090108e-02 9.13075890511640e-04
2.99071428571429e+00 8.82281710556674e-02 9.09993450311755e-04
3.00325396825397e+00 8.77457876095010e-02 9.06913443968356e-04
3.01579365079365e+00 8.72660415729266e-02 9.03835982769607e-04
3.02833333333333e+00 8.67889185260197e-02 9.00761177554372e-04
3.04087301587302e+00 8.63144041276974e-02 8.97689137205095e-04
3.05341269841270e+00 8.58424841137618e-02 8.94619967284950e-04
3.06595238095238e+00 8.53731443010710e-02 8.91553771502334e-04
3.07849206349206e+00 8.49063705824844e-02 8.88490653183456e-04
3.09103174603175e+00 8.44421489279938e-02 8.85430713809413e-04
3.10357142857143e+00 8.39804653828318e-02 8.82374051693006e-04
3.11611111111111e+00 8.35213060714800e-02 8.79320763398458e-04
3.12865079365079e+00 8.30646571927974e-02 8.76270945169309e-04
3.14119047619048e+00 8.26105050211027e-02 8.73224691508311e-04
3.15373015873016e+00 8.21588359043460e-02 8.70182093892571e-04
3.16626984126984e+00 8.17096362679611e-02 8.67143242150368e-04
3.17880952380952e+00 8.12628926101692e-02 8.64108226502010e-04
3.19134920634921e+00 8.08185915016391e-02 8.61077133552421e-04
3.20388888888889e+00 8.03767195892293e-02 8.58050048328439e-04
3.21642857142857e+00 7.99372635914158e-02 8.55027055635775e-04
3.22896825396825e+00 7.95002102992888e-02 8.52008238706721e-04
3.24150793650794e+00 7.90655465748353e-02 8.48993677975635e-04
3.25404761904762e+00 7.86332593545372e-02 8.45983452387694e-04
3.26658730158730e+00 7.82033356449612e-02 8.42977640715471e-04
3.27912698412698e+00 7.77757625237140e-02 8.39976320245732e-04
3.29166666666667e+00 7.73505271377806e-02 8.36979565590210e-04
3.30420634920635e+00 7.69276167069850e-02 8.33987449955376e-04
3.31674603174603e+00 7.65070185197360e-02 8.31000046419373e-04
3.32928571428571e+00 7.60887199339416e-02 8.28017426657010e-04
3.34182539682540e+00 7.56727083754020e-02 8.25039659784654e-04
3.35436507936508e+00 7.52589713411383e-02 8.22066813592049e-04
3.36690476190476e+00 7.48474963952879e-02 8.19098955781389e-04
3.37944444444444e+00 7.44382711699801e-02 8.16136152729215e-04
3.39198412698413e+00 7.40312833637815e-02 8.13178468364239e-04
3.40452380952381e+00 7.36265207448985e-02 8.10225965362422e-04
3.41706349206349e+00 7.32239711472162e-02 8.07278706349614e-04
3.42960317460317e+00 7.28236224711370e-02 8.04336752699127e-04
3.44214285714286e+00 7.24254626820765e-02 8.01400163441376e-04
3.45468253968254e+00 7.20294798135450e-02 7.98468996423850e-04
3.46722222222222e+00 7.16356619633241e-02 7.95543309478226e-04
3.47976190476190e+00 7.12439972942703e-02 7.92623159252302e-04
3.49230158730159e+00 7.08544740328589e-02 7.89708600150840e-04
3.50484126984127e+00 7.04670804721502e-02 7.86799685461440e-04
3.51738095238095e+00 7.00818049680983e-02 7.83896468487206e-04
3.52992063492063e+00 6.96986359403207e-02 7.80999001412296e-04
3.54246031746032e+00 6.93175618706890e-02 7.78107334272698e-04
3.55500000000000e+00 6.89385713061843e-02 7.75221516049067e-04
3.56753968253968e+00 6.85616528553332e-02 7.72341595766403e-04
3.58007936507936e+00 6.81867951889448e-02 7.69467621392069e-04
3.59261904761905e+00 6.78139870387462e-02 7.66599638835474e-04
3.60515873015873e+00 6.74432172001327e-02 7.63737693008894e-04
3.61769841269841e+00 6.70744745287245e-02 7.60881828895579e-04
3.63023809523810e+00 6.67077479410735e-02 7.58032090478808e-04
3.64277777777778e+00 6.63430264133423e-02 7.55188519769684e-04
3.65531746031746e+00 6.59802989839524e-02 7.52351157837477e-04
3.66785714285714e+00 6.56195547502580e-02 7.49520045846504e-04
3.68039682539683e+00 6.52607828692235e-02 7.46695224015557e-04
3.69293650793651e+00 6.49039725561441e-02 7.43876730673182e-04
3.70547619047619e+00 6.45491130871966e-02 7.41064603258056e-04
3.71801587301587e+00 6.41961937962260e-02 7.38258879326045e-04
3.73055555555556e+00 6.38452040753940e-02 7.35459595538975e-04
3.74309523809524e+00 6.34961333739411e-02 7.32666786746338e-04
3.75563492063492e+00 6.31489712006428e-02 7.29880486957017e-04
3.76817460317460e+00 6.28037071207047e-02 7.27100730317238e-04
3.78071428571429e+00 6.24603307563847e-02 7.24327550127818e-04
3.79325396825397e+00 6.21188317857930e-02 7.21560977951642e-04
3.80579365079365e+00 6.17791999452592e-02 7.18801044557382e-04
3.81833333333333e+00 6.14414250263313e-02 7.16047780869424e-04
3.83087301587302e+00 6.11054968763721e-02 7.13301217012907e-04
3.84341269841270e+00 6.07714053973964e-02 7.10561381445891e-04
3.85595238095238e+00 6.04391405483528e-02 7.07828301876082e-04
3.86849206349206e+00 6.01086923422219e-02 7.05102006183754e-04
3.88103174603175e+00 5.97800508465888e-02 7.02382521493512e-04
3.89357142857143e+00 5.94532061825156e-02 6.99669873330487e-04
3.90611111111111e+00 5.91281485267415e-02 6.96964086511015e-04
3.91865079365079e+00 5.88048681088768e-02 6.94265186039363e-04
3.93119047619048e+00 5.84833552119515e-02 6.91573196205237e-04
3.94373015873016e+00 5.81636001713235e-02 6.88888139763491e-04
3.95626984126984e+00 5.78455933767990e-02 6.86210038799518e-04
