Energy (eV)          EEDF (eV^-(3/2))     First Anisotropy
5.00000000000000e-03 4.43750357300721e-01 4.18271274873998e-01
1.50000000000000e-02 4.01923229813321e-01 3.53782222609583e-01
2.50000000000000e-02 3.72993912778805e-01 2.41081568767014e-01
3.50000000000000e-02 3.53706916059919e-01 1.68765203440475e-01
4.50000000000000e-02 3.39240872090709e-01 1.30198360414106e-01
5.50000000000000e-02 3.27667243977097e-01 1.06095511512892e-01
6.50000000000000e-02 3.18021769788131e-01 8.95689835901814e-02
7.50000000000000e-02 3.09753447259061e-01 7.75193322452386e-02
8.50000000000000e-02 3.02517903339083e-01 6.83394433753448e-02
9.50000000000000e-02 2.96085558583992e-01 6.11109695024825e-02
1.05000000000000e-01 2.90295709438587e-01 5.52703816094549e-02
1.15000000000000e-01 2.85031482262101e-01 5.04524311376375e-02
1.25000000000000e-01 2.80205223211059e-01 4.64098742027760e-02
1.35000000000000e-01 2.75749507421546e-01 4.29693199832035e-02
1.45000000000000e-01 2.71611359214419e-01 4.00055425536530e-02
1.55000000000000e-01 2.67748398910815e-01 3.74258271883371e-02
1.65000000000000e-01 2.64126193776751e-01 3.51600540119340e-02
1.75000000000000e-01 2.60716388108429e-01 3.31542051661346e-02
1.85000000000000e-01 2.57495352743524e-01 3.13659907004335e-02
1.95000000000000e-01 2.54443189968342e-01 2.97618277104286e-02
2.05000000000000e-01 2.51542987201439e-01 2.83147079704529e-02
2.15000000000000e-01 2.48780248374251e-01 2.70026632795005e-02
2.25000000000000e-01 2.46142454545538e-01 2.58076416903573e-02
2.35000000000000e-01 2.43618720036180e-01 2.47146717075883e-02
2.45000000000000e-01 2.41199520204021e-01 2.37112318560513e-02
2.55000000000000e-01 2.38876473664970e-01 2.27867690416834e-02
2.65000000000000e-01 2.36642166395684e-01 2.19323262712946e-02
2.75000000000000e-01 2.34490008410711e-01 2.11402518097231e-02
2.85000000000000e-01 2.32414116033739e-01 2.04039697157382e-02
2.95000000000000e-01 2.30409214467563e-01 1.97177971540434e-02
3.05000000000000e-01 2.28470556602931e-01 1.90767977216455e-02
3.15000000000000e-01 2.26593854923234e-01 1.84766627671314e-02
3.25000000000000e-01 2.24775224049505e-01 1.79136146607235e-02
3.35000000000000e-01 2.23011131991089e-01 1.73843274191914e-02
3.45000000000000e-01 2.21298358565666e-01 1.68858611577005e-02
3.55000000000000e-01 2.19633959759549e-01 1.64156076373152e-02
3.65000000000000e-01 2.18015237038203e-01 1.59712447766527e-02
3.75000000000000e-01 2.16439710804219e-01 1.55506984517308e-02
3.85000000000000e-01 2.14905097347857e-01 1.51521102568904e-02
3.95000000000000e-01 2.13409288752840e-01 1.47738101688905e-02
4.05000000000000e-01 2.11950335314079e-01 1.44142932655721e-02
4.15000000000000e-01 2.10526430099726e-01 1.40721998143047e-02
4.25000000000000e-01 2.09135895351218e-01 1.37462981745061e-02
4.35000000000000e-01 2.07777170464825e-01 1.34354700608728e-02
4.45000000000000e-01 2.06448801339043e-01 1.31386977955546e-02
4.55000000000000e-01 2.05149430905714e-01 1.28550532429522e-02
4.65000000000000e-01 2.03877790690453e-01 1.25836881735833e-02
4.75000000000000e-01 2.02632693270997e-01 1.23238258462088e-02
4.85000000000000e-01 2.01413025521211e-01 1.20747536322234e-02
4.95000000000000e-01 2.00217742544553e-01 1.18358165347811e-02
5.05000000000000e-01 1.99045862214255e-01 1.16064114785311e-02
5.15000000000000e-01 1.97896460248846e-01 1.13859822651322e-02
5.25000000000000e-01 1.96768665761229e-01 1.11740151056981e-02
5.35000000000000e-01 1.95661657227707e-01 1.09700346546318e-02
5.45000000000000e-01 1.94574658830302e-01 1.07736004804015e-02
5.55000000000000e-01 1.93506937131626e-01 1.05843039181118e-02
5.65000000000000e-01 1.92457798046680e-01 1.04017652565261e-02
5.75000000000000e-01 1.91426584080321e-01 1.02256312188045e-02
5.85000000000000e-01 1.90412671802919e-01 1.00555727017877e-02
5.95000000000000e-01 1.89415469539964e-01 9.89128274338225e-03
6.05000000000000e-01 1.88434415254243e-01 9.73247469165009e-03
6.15000000000000e-01 1.87468974601634e-01 9.57888055262229e-03
6.25000000000000e-01 1.86518639143718e-01 9.43024949681098e-03
6.35000000000000e-01 1.85582924702271e-01 9.28634650691609e-03
6.45000000000000e-01 1.84661369842335e-01 9.14695115139100e-03
6.55000000000000e-01 1.83753534471993e-01 9.01185647041336e-03
6.65000000000000e-01 1.82858998548252e-01 8.88086796242138e-03
6.75000000000000e-01 1.81977360879509e-01 8.75380266078127e-03
6.85000000000000e-01 1.81108238016096e-01 8.63048829136875e-03
6.95000000000000e-01 1.80251263221235e-01 8.51076250291294e-03
7.05000000000000e-01 1.79406085515513e-01 8.39447216287495e-03
7.15000000000000e-01 1.78572368788660e-01 8.28147271244098e-03
7.25000000000000e-01 1.77749790973025e-01 8.17162757491885e-03
7.35000000000000e-01 1.76938043273676e-01 8.06480761245218e-03
7.45000000000000e-01 1.76136829450535e-01 7.96089062650801e-03
7.55000000000000e-01 1.75345865148375e-01 7.85976089808044e-03
7.65000000000000e-01 1.74564877270919e-01 7.76130876396885e-03
7.75000000000000e-01 1.73793603395581e-01 7.66543022587579e-03
7.85000000000000e-01 1.73031791225743e-01 7.57202658940026e-03
7.95000000000000e-01 1.72279198077701e-01 7.48100413028141e-03
8.05000000000000e-01 1.71535590399687e-01 7.39227378553281e-03
8.15000000000000e-01 1.70800743320594e-01 7.30575086732604e-03
8.25000000000000e-01 1.70074440226222e-01 7.22135479768807e-03
8.35000000000000e-01 1.69356472361057e-01 7.13900886227234e-03
8.45000000000000e-01 1.68646638453767e-01 7.05863998162096e-03
8.55000000000000e-01 1.67944744364733e-01 6.98017849848353e-03
8.65000000000000e-01 1.67250602754071e-01 6.90355797989636e-03
8.75000000000000e-01 1.66564032768753e-01 6.82871503283833e-03
8.85000000000000e-01 1.65884859747503e-01 6.75558913238922e-03
8.95000000000000e-01 1.65212914942276e-01 6.68412246141240e-03
9.05000000000000e-01 1.64548035255221e-01 6.61425976087163e-03
9.15000000000000e-01 1.63890062990101e-01 6.54594818996782e-03
9.25000000000000e-01 1.63238845617227e-01 6.47913719535043e-03
9.35000000000000e-01 1.62594235551031e-01 6.41377838872498e-03
9.45000000000000e-01 1.61956089939482e-01 6.34982543223403e-03
9.55000000000000e-01 1.61324270464584e-01 6.28723393104366e-03
9.65000000000000e-01 1.60698643153273e-01 6.22596133261183e-03
9.75000000000000e-01 1.60079078198062e-01 6.16596683215662e-03
9.85000000000000e-01 1.59465449786842e-01 6.10721128388503e-03
9.95000000000000e-01 1.58857635941285e-01 6.04965711757721e-03
1.00500000000000e+00 1.58255518363327e-01 5.99326826015309e-03
1.01500000000000e+00 1.57658982289254e-01 5.93801006187847e-03
1.02500000000000e+00 1.57067916350951e-01 5.88384922688992e-03
1.03500000000000e+00 1.56482212443876e-01 5.83075374775019e-03
1.04500000000000e+00 1.55901765601401e-01 5.77869284376364e-03
1.05500000000000e+00 1.55326473875124e-01 5.72763690280115e-03
1.06500000000000e+00 1.54756238220841e-01 5.67755742640105e-03
1.07500000000000e+00 1.54190962389843e-01 5.62842697793747e-03
1.08500000000000e+00 1.53630552825253e-01 5.58021913365903e-03
1.09500000000000e+00 1.53074918563112e-01 5.53290843640739e-03
1.10500000000000e+00 1.52523971137972e-01 5.48647035184965e-03
1.11500000000000e+00 1.51977624492742e-01 5.44088122707009e-03
1.12500000000000e+00 1.51435794892558e-01 5.39611825136926e-03
1.13500000000000e+00 1.50898400842468e-01 5.35215941913608e-03
1.14500000000000e+00 1.50365363008730e-01 5.30898349466832e-03
1.15500000000000e+00 1.49836604143534e-01 5.26656997881972e-03
1.16500000000000e+00 1.49312049012966e-01 5.22489907736526e-03
1.17500000000000e+00 1.48791624328061e-01 5.18395167098271e-03
1.18500000000000e+00 1.48275258678770e-01 5.14370928675609e-03
1.19500000000000e+00 1.47762882470710e-01 5.10415407111012e-03
1.20500000000000e+00 1.47254427864548e-01 5.06526876409258e-03
1.21500000000000e+00 1.46749828717891e-01 5.02703667492679e-03
1.22500000000000e+00 1.46249020529563e-01 4.98944165876189e-03
1.23500000000000e+00 1.45751940386139e-01 4.95246809455438e-03
1.24500000000000e+00 1.45258526910652e-01 4.91610086401695e-03
1.25500000000000e+00 1.44768720213336e-01 4.88032533157073e-03
1.26500000000000e+00 1.44282461844338e-01 4.84512732525172e-03
1.27500000000000e+00 1.43799694748285e-01 4.81049311851597e-03
1.28500000000000e+00 1.43320363220634e-01 4.77640941289339e-03
1.29500000000000e+00 1.42844412865707e-01 4.74286332144733e-03
1.30500000000000e+00 1.42371790556345e-01 4.70984235299399e-03
1.31500000000000e+00 1.41902444395108e-01 4.67733439704146e-03
1.32500000000000e+00 1.41436323676937e-01 4.64532770941148e-03
1.33500000000000e+00 1.40973378853226e-01 4.61381089851123e-03
1.34500000000000e+00 1.40513561497234e-01 4.58277291221262e-03
1.35500000000000e+00 1.40056824270783e-01 4.55220302531423e-03
1.36500000000000e+00 1.39603120892171e-01 4.52209082755770e-03
1.37500000000000e+00 1.39152406105271e-01 4.49242621216428e-03
1.38500000000000e+00 1.38704635649739e-01 4.46319936486916e-03
1.39500000000000e+00 1.38259766232298e-01 4.43440075342777e-03
1.40500000000000e+00 1.37817755499053e-01 4.40602111757046e-03
1.41500000000000e+00 1.37378562008784e-01 4.37805145938275e-03
1.42500000000000e+00 1.36942145207177e-01 4.35048303409166e-03
1.43500000000000e+00 1.36508465401965e-01 4.32330734123756e-03
1.44500000000000e+00 1.36077483738929e-01 4.29651611621215e-03
1.45500000000000e+00 1.35649162178723e-01 4.27010132214578e-03
1.46500000000000e+00 1.35223463474500e-01 4.24405514212731e-03
1.47500000000000e+00 1.34800351150297e-01 4.21836997174088e-03
1.48500000000000e+00 1.34379789480152e-01 4.19303841190460e-03
1.49500000000000e+00 1.33961743467916e-01 4.16805326199546e-03
1.50500000000000e+00 1.33546178827753e-01 4.14340751324876e-03
1.51500000000000e+00 1.33133061965267e-01 4.11909434242200e-03
1.52500000000000e+00 1.32722359959268e-01 4.09510710570465e-03
1.53500000000000e+00 1.32314040544126e-01 4.07143933286683e-03
1.54500000000000e+00 1.31908072092695e-01 4.04808472163745e-03
1.55500000000000e+00 1.31504423599798e-01 4.02503713229696e-03
1.56500000000000e+00 1.31103064666235e-01 4.00229058247853e-03
1.57500000000000e+00 1.30703965483302e-01 3.97983924216763e-03
1.58500000000000e+00 1.30307096817802e-01 3.95767742889075e-03
1.59500000000000e+00 1.29912429997524e-01 3.93579960308560e-03
1.60500000000000e+00 1.29519936897185e-01 3.91420036364346e-03
1.61500000000000e+00 1.29129589924796e-01 3.89287444361869e-03
1.62500000000000e+00 1.28741362008461e-01 3.87181670609527e-03
1.63500000000000e+00 1.28355226583577e-01 3.85102214020605e-03
1.64500000000000e+00 1.27971157580420e-01 3.83048585729823e-03
1.65500000000000e+00 1.27589129412117e-01 3.81020308723556e-03
1.66500000000000e+00 1.27209116962973e-01 3.79016917483543e-03
1.67500000000000e+00 1.26831095577150e-01 3.77037957643336e-03
1.68500000000000e+00 1.26455041047686e-01 3.75082985657055e-03
1.69500000000000e+00 1.26080929605836e-01 3.73151568479765e-03
1.70500000000000e+00 1.25708737910727e-01 3.71243283259187e-03
1.71500000000000e+00 1.25338443039317e-01 3.69357717038200e-03
1.72500000000000e+00 1.24970022476650e-01 3.67494466467617e-03
1.73500000000000e+00 1.24603454106382e-01 3.65653137528989e-03
1.74500000000000e+00 1.24238716201592e-01 3.63833345266948e-03
1.75500000000000e+00 1.23875787415848e-01 3.62034713530641e-03
1.76500000000000e+00 1.23514646774531e-01 3.60256874724019e-03
1.77500000000000e+00 1.23155273666400e-01 3.58499469564552e-03
1.78500000000000e+00 1.22797647835402e-01 3.56762146850056e-03
1.79500000000000e+00 1.22441749372700e-01 3.55044563233320e-03
1.80500000000000e+00 1.22087558708935e-01 3.53346383004258e-03
1.81500000000000e+00 1.21735056606692e-01 3.51667277879233e-03
1.82500000000000e+00 1.21384224153177e-01 3.50006926797312e-03
1.83500000000000e+00 1.21035042753097e-01 3.48365015723273e-03
1.84500000000000e+00 1.20687494121730e-01 3.46741237456830e-03
1.85500000000000e+00 1.20341560278183e-01 3.45135291448188e-03
1.86500000000000e+00 1.19997223538834e-01 3.43546883619636e-03
1.87500000000000e+00 1.19654466510944e-01 3.41975726192635e-03
1.88500000000000e+00 1.19313272086448e-01 3.40421537520459e-03
1.89500000000000e+00 1.18973623435903e-01 3.38884041926280e-03
1.90500000000000e+00 1.18635504002596e-01 3.37362969546159e-03
1.91500000000000e+00 1.18298897496811e-01 3.35858056177099e-03
1.92500000000000e+00 1.17963787890242e-01 3.34369043129869e-03
1.93500000000000e+00 1.17630159410551e-01 3.32895677086269e-03
1.94500000000000e+00 1.17297996536069e-01 3.31437709960858e-03
1.95500000000000e+00 1.16967283990629e-01 3.29994898766978e-03
1.96500000000000e+00 1.16638006738535e-01 3.28567005486752e-03
1.97500000000000e+00 1.16310149979656e-01 3.27153796945180e-03
1.98500000000000e+00 1.15983699144645e-01 3.25755044687966e-03
1.99500000000000e+00 1.15658639890280e-01 3.24370524862998e-03
2.00500000000000e+00 1.15334958094919e-01 3.23000018105465e-03
2.01500000000000e+00 1.15012639854069e-01 3.21643309426294e-03
2.02500000000000e+00 1.14691671476066e-01 3.20300188103938e-03
2.03500000000000e+00 1.14372039477861e-01 3.18970447579406e-03
2.04500000000000e+00 1.14053730580907e-01 3.17653885354416e-03
2.05500000000000e+00 1.13736731707152e-01 3.16350302892315e-03
2.06500000000000e+00 1.13421029975123e-01 3.15059505521985e-03
2.07500000000000e+00 1.13106612696108e-01 3.13781302344676e-03
2.08500000000000e+00 1.12793467370433e-01 3.12515506143370e-03
2.09500000000000e+00 1.12481581683822e-01 3.11261933294761e-03
2.10500000000000e+00 1.12170943503844e-01 3.10020403683747e-03
2.11500000000000e+00 1.11861540876454e-01 3.08790740620332e-03
2.12500000000000e+00 1.11553362022603e-01 3.07572770759053e-03
2.13500000000000e+00 1.11246395334936e-01 3.06366324020417e-03
2.14500000000000e+00 1.10940629374562e-01 3.05171233514645e-03
2.15500000000000e+00 1.10636052867907e-01 3.03987335467597e-03
2.16500000000000e+00 1.10332654703627e-01 3.02814469148642e-03
2.17500000000000e+00 1.10030423929609e-01 3.01652476800647e-03
2.18500000000000e+00 1.09729349750026e-01 3.00501203571779e-03
2.19500000000000e+00 1.09429421522466e-01 2.99360497449309e-03
2.20500000000000e+00 1.09130628755127e-01 2.98230209195005e-03
2.21500000000000e+00 1.08832961104076e-01 2.97110192282471e-03
2.22500000000000e+00 1.08536408370562e-01 2.96000302836101e-03
2.23500000000000e+00 1.08240960498404e-01 2.94900399571661e-03
2.24500000000000e+00 1.07946607571419e-01 2.93810343738536e-03
2.25500000000000e+00 1.07653339810927e-01 2.92729999063365e-03
2.26500000000000e+00 1.07361147573292e-01 2.91659231695350e-03
2.27500000000000e+00 1.07070021347536e-01 2.90597910152873e-03
2.28500000000000e+00 1.06779951752987e-01 2.89545905271610e-03
2.29500000000000e+00 1.06490929536993e-01 2.88503090153991e-03
2.30500000000000e+00 1.06202945572679e-01 2.87469340119868e-03
2.31500000000000e+00 1.05915990856753e-01 2.86444532658504e-03
2.32500000000000e+00 1.05630056507362e-01 2.85428547381943e-03
2.33500000000000e+00 1.05345133761989e-01 2.84421265979523e-03
2.34500000000000e+00 1.05061213975403e-01 2.83422572173432e-03
2.35500000000000e+00 1.04778288617642e-01 2.82432351675403e-03
2.36500000000000e+00 1.04496349272052e-01 2.81450492144661e-03
2.37500000000000e+00 1.04215387633353e-01 2.80476883146870e-03
2.38500000000000e+00 1.03935395505758e-01 2.79511416114084e-03
2.39500000000000e+00 1.03656364801125e-01 2.78553984305770e-03
2.40500000000000e+00 1.03378287537146e-01 2.77604482770595e-03
2.41500000000000e+00 1.03101155835583e-01 2.76662808309451e-03
2.42500000000000e+00 1.02824961920528e-01 2.75728859439245e-03
2.43500000000000e+00 1.02549698116705e-01 2.74802536357519e-03
2.44500000000000e+00 1.02275356847813e-01 2.73883740908171e-03
2.45500000000000e+00 1.02001930634889e-01 2.72972376547762e-03
2.46500000000000e+00 1.01729412094717e-01 2.72068348312775e-03
2.47500000000000e+00 1.01457793938263e-01 2.71171562787657e-03
2.48500000000000e+00 1.01187068969142e-01 2.70281928073580e-03
2.49500000000000e+00 1.00917230082116e-01 2.69399353758006e-03
2.50500000000000e+00 1.00648270261626e-01 2.68523750885007e-03
2.51500000000000e+00 1.00380182580346e-01 2.67655031926203e-03
2.52500000000000e+00 1.00112960197773e-01 2.66793110752478e-03
2.53500000000000e+00 9.98465963588409e-02 2.65937902606372e-03
2.54500000000000e+00 9.95810843925605e-02 2.65089324074985e-03
2.55500000000000e+00 9.93164177106910e-02 2.64247293063680e-03
2.56500000000000e+00 9.90525898064332e-02 2.63411728770375e-03
2.57500000000000e+00 9.87895942531502e-02 2.62582551660340e-03
2.58500000000000e+00 9.85274247031125e-02 2.61759683441658e-03
2.59500000000000e+00 9.82660748862669e-02 2.60943047041266e-03
2.60500000000000e+00 9.80055386090300e-02 2.60132566581465e-03
2.61500000000000e+00 9.77458097531040e-02 2.59328167357110e-03
2.62500000000000e+00 9.74868822743157e-02 2.58529775813143e-03
2.63500000000000e+00 9.72287502014777e-02 2.57737319522770e-03
2.64500000000000e+00 9.69714076352702e-02 2.56950727166111e-03
2.65500000000000e+00 9.67148487471455e-02 2.56169928509291e-03
2.66500000000000e+00 9.64590677782516e-02 2.55394854384104e-03
2.67500000000000e+00 9.62040590383773e-02 2.54625436667939e-03
2.68500000000000e+00 9.59498169049157e-02 2.53861608264357e-03
2.69500000000000e+00 9.56963358218485e-02 2.53103303083993e-03
2.70500000000000e+00 9.54436102987477e-02 2.52350456025965e-03
2.71500000000000e+00 9.51916349097966e-02 2.51603002959525e-03
2.72500000000000e+00 9.49404042928287e-02 2.50860880706291e-03
2.73500000000000e+00 9.46899131483840e-02 2.50124027022847e-03
2.74500000000000e+00 9.44401562387830e-02 2.49392380583607e-03
2.75500000000000e+00 9.41911283872168e-02 2.48665880964248e-03
2.76500000000000e+00 9.39428244768545e-02 2.47944468625257e-03
2.77500000000000e+00 9.36952394499663e-02 2.47228084895953e-03
2.78500000000000e+00 9.34483683070626e-02 2.46516671958977e-03
2.79500000000000e+00 9.32022061060483e-02 2.45810172834947e-03
2.80500000000000e+00 9.29567479613927e-02 2.45108531367416e-03
2.81500000000000e+00 9.27119890433135e-02 2.44411692208360e-03
2.82500000000000e+00 9.24679245769760e-02 2.43719600803834e-03
2.83500000000000e+00 9.22245498417058e-02 2.43032203379845e-03
2.84500000000000e+00 9.19818601702163e-02 2.42349446928691e-03
2.85500000000000e+00 9.17398509478485e-02 2.41671279195485e-03
2.86500000000000e+00 9.14985176118253e-02 2.40997648665017e-03
2.87500000000000e+00 9.12578556505184e-02 2.40328504548880e-03
2.88500000000000e+00 9.10178606027276e-02 2.39663796772829e-03
2.89500000000000e+00 9.07785280569728e-02 2.39003475964436e-03
2.90500000000000e+00 9.05398536507987e-02 2.38347493440996e-03
2.91500000000000e+00 9.03018330700908e-02 2.37695801197702e-03
2.92500000000000e+00 9.00644620484033e-02 2.37048351895926e-03
2.93500000000000e+00 8.98277363662989e-02 2.36405098851984e-03
2.94500000000000e+00 8.95916518506993e-02 2.35765996025997e-03
2.95500000000000e+00 8.93562043742469e-02 2.35130998010868e-03
2.96500000000000e+00 8.91213898546776e-02 2.34500060021646e-03
2.97500000000000e+00 8.88872042542036e-02 2.33873137885129e-03
2.98500000000000e+00 8.86536435789073e-02 2.33250188029513e-03
2.99500000000000e+00 8.84207038781446e-02 2.32631167474309e-03
3.00500000000000e+00 8.81883812439587e-02 2.32016033820601e-03
3.01500000000000e+00 8.79566718105034e-02 2.31404745241311e-03
3.02500000000000e+00 8.77255717534761e-02 2.30797260471712e-03
3.03500000000000e+00 8.74950772895600e-02 2.30193538800182e-03
3.04500000000000e+00 8.72651846758757e-02 2.29593540059199e-03
3.05500000000000e+00 8.70358902094416e-02 2.28997224616286e-03
3.06500000000000e+00 8.68071902266432e-02 2.28404553365286e-03
3.07500000000000e+00 8.65790811027110e-02 2.27815487717845e-03
3.08500000000000e+00 8.63515592512075e-02 2.27229989594943e-03
3.09500000000000e+00 8.61246211235211e-02 2.26648021418759e-03
3.10500000000000e+00 8.58982632083699e-02 2.26069546104511e-03
3.11500000000000e+00 8.56724820313121e-02 2.25494527052512e-03
3.12500000000000e+00 8.54472741542649e-02 2.24922928140442e-03
3.13500000000000e+00 8.52226361750312e-02 2.24354713715749e-03
3.14500000000000e+00 8.49985647268334e-02 2.23789848588091e-03
3.15500000000000e+00 8.47750564778550e-02 2.23228298022023e-03
