Energy (eV)          EEDF (eV^-(3/2))     First Anisotropy
1.25000000000000e-03 5.34875182561940e-01 1.93069257792032e+00
3.75000000000000e-03 4.86607868113932e-01 1.54993866251085e+00
6.25000000000000e-03 4.57378249436398e-01 9.74321582724107e-01
8.75000000000000e-03 4.37891788977727e-01 6.82027173604547e-01
1.12500000000000e-02 4.23276890756170e-01 5.26137439184842e-01
1.37500000000000e-02 4.11584917018485e-01 4.28706829140527e-01
1.62500000000000e-02 4.01841549299144e-01 3.61897650841643e-01
1.87500000000000e-02 3.93490034476403e-01 3.13182944757627e-01
2.12500000000000e-02 3.86182402061262e-01 2.76067251710418e-01
2.37500000000000e-02 3.79686671890882e-01 2.46838881610927e-01
2.62500000000000e-02 3.73840457980716e-01 2.23220207054834e-01
2.87500000000000e-02 3.68525661538140e-01 2.03734988496015e-01
3.12500000000000e-02 3.63653708555915e-01 1.87383925646446e-01
3.37500000000000e-02 3.59156465255818e-01 1.73466210763712e-01
3.62500000000000e-02 3.54980398017730e-01 1.61475705120360e-01
3.87500000000000e-02 3.51082679999800e-01 1.51037671547360e-01
4.12500000000000e-02 3.47428514440362e-01 1.41868695507434e-01
4.37500000000000e-02 3.43989245224428e-01 1.33750442944223e-01
4.62500000000000e-02 3.40740992293151e-01 1.26511981362202e-01
4.87500000000000e-02 3.37663646156318e-01 1.20017570324411e-01
5.12500000000000e-02 3.34740113776930e-01 1.14158042981654e-01
5.37500000000000e-02 3.31955744007235e-01 1.08844603386252e-01
5.62500000000000e-02 3.29297883607617e-01 1.04004284480071e-01
5.87500000000000e-02 3.26755529783232e-01 9.95765699737727e-02
6.12500000000000e-02 3.24319055108929e-01 9.55108462791066e-02
6.37500000000000e-02 3.21979987469276e-01 9.17644558212005e-02
6.62500000000000e-02 3.19730832317869e-01 8.83011923527721e-02
6.87500000000000e-02 3.17564927851638e-01 8.50901254186209e-02
7.12500000000000e-02 3.15476326046938e-01 8.21046728988550e-02
7.37500000000000e-02 3.13459694206695e-01 7.93218626108094e-02
7.62500000000000e-02 3.11510232916397e-01 7.67217394734609e-02
7.87500000000000e-02 3.09623607233022e-01 7.42868858135870e-02
8.12500000000000e-02 3.07795888625718e-01 7.20020303928282e-02
8.37500000000000e-02 3.06023505713380e-01 6.98537275799915e-02
8.62500000000000e-02 3.04303202246718e-01 6.78300924095487e-02
8.87500000000000e-02 3.02632001092903e-01 6.59205804870744e-02
9.12500000000000e-02 3.01007173222365e-01 6.41158041265200e-02
9.37500000000000e-02 2.99426210886577e-01 6.24073779454093e-02
9.62500000000000e-02 2.97886804325094e-01 6.07877885540353e-02
9.87500000000000e-02 2.96386821458875e-01 5.92502840627862e-02
1.01250000000000e-01 2.94924290121955e-01 5.77887799776644e-02
1.03750000000000e-01 2.93497382459992e-01 5.63977787162340e-02
1.06250000000000e-01 2.92104401186143e-01 5.50723004978981e-02
1.08750000000000e-01 2.90743767435097e-01 5.38078237760475e-02
1.11250000000000e-01 2.89414009997341e-01 5.26002337094789e-02
1.13750000000000e-01 2.88113755749623e-01 5.14457774349708e-02
1.16250000000000e-01 2.86841721125592e-01 5.03410251161240e-02
1.18750000000000e-01 2.85596704493817e-01 4.92828359164621e-02
1.21250000000000e-01 2.84377579329769e-01 4.82683281853913e-02
1.23750000000000e-01 2.83183288084547e-01 4.72948532607553e-02
1.26250000000000e-01 2.82012836666731e-01 4.63599723862285e-02
1.28750000000000e-01 2.80865289465236e-01 4.54614363198336e-02
1.31250000000000e-01 2.79739764850740e-01 4.45971672745116e-02
1.33750000000000e-01 2.78635431101510e-01 4.37652428853652e-02
1.36250000000000e-01 2.77551502706471e-01 4.29638819430722e-02
1.38750000000000e-01 2.76487237004357e-01 4.21914316705618e-02
1.41250000000000e-01 2.75441931122943e-01 4.14463563516609e-02
1.43750000000000e-01 2.74414919186774e-01 4.07272271469583e-02
1.46250000000000e-01 2.73405569765595e-01 4.00327129547529e-02
1.48750000000000e-01 2.72413283539036e-01 3.93615721940965e-02
1.51250000000000e-01 2.71437491155891e-01 3.87126454031594e-02
1.53750000000000e-01 2.70477651268878e-01 3.80848485600305e-02
1.56250000000000e-01 2.69533248727889e-01 3.74771670450436e-02
1.58750000000000e-01 2.68603792916626e-01 3.68886501738641e-02
1.61250000000000e-01 2.67688816219196e-01 3.63184062393473e-02
1.63750000000000e-01 2.66787872604659e-01 3.57655980077720e-02
1.66250000000000e-01 2.65900536318807e-01 3.52294386215901e-02
1.68750000000000e-01 2.65026400673579e-01 3.47091878665384e-02
1.71250000000000e-01 2.64165076925480e-01 3.42041487658495e-02
1.73750000000000e-01 2.63316193235287e-01 3.37136644685898e-02
1.76250000000000e-01 2.62479393702051e-01 3.32371154029354e-02
1.78750000000000e-01 2.61654337465140e-01 3.27739166684082e-02
1.81250000000000e-01 2.60840697868630e-01 3.23235156439905e-02
1.83750000000000e-01 2.60038161682940e-01 3.18853897915994e-02
1.86250000000000e-01 2.59246428379050e-01 3.14590446364948e-02
1.88750000000000e-01 2.58465209451116e-01 3.10440119082345e-02
1.91250000000000e-01 2.57694227783639e-01 3.06398478275105e-02
1.93750000000000e-01 2.56933217059740e-01 3.02461315256286e-02
1.96250000000000e-01 2.56181921207357e-01 2.98624635848410e-02
1.98750000000000e-01 2.55440093880498e-01 2.94884646888771e-02
2.01250000000000e-01 2.54707497972913e-01 2.91237743740891e-02
2.03750000000000e-01 2.53983905161794e-01 2.87680498725595e-02
2.06250000000000e-01 2.53269095479285e-01 2.84209650393519e-02
2.08750000000000e-01 2.52562856909826e-01 2.80822093568978e-02
2.11250000000000e-01 2.51864985011441e-01 2.77514870100759e-02
2.13750000000000e-01 2.51175282559322e-01 2.74285160262200e-02
2.16250000000000e-01 2.50493559210130e-01 2.71130274747983e-02
2.18750000000000e-01 2.49819631185582e-01 2.68047647219705e-02
2.21250000000000e-01 2.49153320974031e-01 2.65034827357230e-02
2.23750000000000e-01 2.48494457048796e-01 2.62089474375754e-02
2.26250000000000e-01 2.47842873602152e-01 2.59209350972806e-02
2.28750000000000e-01 2.47198410293932e-01 2.56392317672366e-02
2.31250000000000e-01 2.46560912013790e-01 2.53636327535772e-02
2.33750000000000e-01 2.45930228656253e-01 2.50939421212282e-02
2.36250000000000e-01 2.45306214907729e-01 2.48299722303907e-02
2.38750000000000e-01 2.44688730044734e-01 2.45715433021398e-02
2.41250000000000e-01 2.44077637742622e-01 2.43184830110504e-02
2.43750000000000e-01 2.43472805894181e-01 2.40706261028961e-02
2.46250000000000e-01 2.42874106437477e-01 2.38278140356357e-02
2.48750000000000e-01 2.42281415192399e-01 2.35898946420537e-02
2.51250000000000e-01 2.41694611705375e-01 2.33567218125502e-02
2.53750000000000e-01 2.41113579101772e-01 2.31281551966878e-02
2.56250000000000e-01 2.40538203945540e-01 2.29040599221986e-02
2.58750000000000e-01 2.39968376105662e-01 2.26843063302939e-02
2.61250000000000e-01 2.39403988629026e-01 2.24687697261766e-02
2.63750000000000e-01 2.38844937619353e-01 2.22573301437334e-02
2.66250000000000e-01 2.38291122121839e-01 2.20498721234985e-02
2.68750000000000e-01 2.37742444013178e-01 2.18462845030137e-02
2.71250000000000e-01 2.37198807896688e-01 2.16464602187688e-02
2.73750000000000e-01 2.36660121002240e-01 2.14502961189955e-02
2.76250000000000e-01 2.36126293090738e-01 2.12576927866515e-02
2.78750000000000e-01 2.35597236362907e-01 2.10685543719202e-02
2.81250000000000e-01 2.35072865372142e-01 2.08827884336316e-02
2.83750000000000e-01 2.34553096941226e-01 2.07003057890798e-02
2.86250000000000e-01 2.34037850082688e-01 2.05210203717127e-02
2.88750000000000e-01 2.33527045922640e-01 2.03448490962138e-02
2.91250000000000e-01 2.33020607627878e-01 2.01717117305317e-02
2.93750000000000e-01 2.32518460336113e-01 2.00015307744400e-02
2.96250000000000e-01 2.32020531089156e-01 1.98342313442607e-02
2.98750000000000e-01 2.31526748768900e-01 1.96697410633673e-02
3.01250000000000e-01 2.31037044035987e-01 1.95079899581430e-02
3.03750000000000e-01 2.30551349270993e-01 1.93489103590738e-02
3.06250000000000e-01 2.30069598518034e-01 1.91924368066920e-02
3.08750000000000e-01 2.29591727430659e-01 1.90385059620890e-02
3.11250000000000e-01 2.29117673219929e-01 1.88870565217331e-02
3.13750000000000e-01 2.28647374604572e-01 1.87380291363776e-02
3.16250000000000e-01 2.28180771763110e-01 1.85913663337961e-02
3.18750000000000e-01 2.27717806287882e-01 1.84470124451686e-02
3.21250000000000e-01 2.27258421140852e-01 1.83049135349028e-02
3.23750000000000e-01 2.26802560611137e-01 1.81650173336967e-02
3.26250000000000e-01 2.26350170274167e-01 1.80272731746883e-02
3.28750000000000e-01 2.25901196952403e-01 1.78916319325256e-02
3.31250000000000e-01 2.25455588677541e-01 1.77580459651805e-02
3.33750000000000e-01 2.25013294654144e-01 1.76264690583927e-02
3.36250000000000e-01 2.24574265224621e-01 1.74968563725830e-02
3.38750000000000e-01 2.24138451835514e-01 1.73691643921103e-02
3.41250000000000e-01 2.23705807005016e-01 1.72433508767839e-02
3.43750000000000e-01 2.23276284291675e-01 1.71193748154713e-02
3.46250000000000e-01 2.22849838264242e-01 1.69971963817206e-02
3.48750000000000e-01 2.22426424472589e-01 1.68767768912914e-02
3.51250000000000e-01 2.22005999419677e-01 1.67580787615024e-02
3.53750000000000e-01 2.21588520534514e-01 1.66410654723098e-02
3.56250000000000e-01 2.21173946146062e-01 1.65257015290077e-02
3.58750000000000e-01 2.20762235458064e-01 1.64119524264961e-02
3.61250000000000e-01 2.20353348524737e-01 1.62997846150403e-02
3.63750000000000e-01 2.19947246227312e-01 1.61891654674307e-02
3.66250000000000e-01 2.19543890251366e-01 1.60800632474944e-02
3.68750000000000e-01 2.19143243064937e-01 1.59724470798900e-02
3.71250000000000e-01 2.18745267897371e-01 1.58662869211179e-02
3.73750000000000e-01 2.18349928718881e-01 1.57615535316952e-02
3.76250000000000e-01 2.17957190220786e-01 1.56582184494397e-02
3.78750000000000e-01 2.17567017796409e-01 1.55562539638138e-02
3.81250000000000e-01 2.17179377522596e-01 1.54556330912725e-02
3.83750000000000e-01 2.16794236141845e-01 1.53563295515857e-02
3.86250000000000e-01 2.16411561045016e-01 1.52583177450749e-02
3.88750000000000e-01 2.16031320254592e-01 1.51615727307247e-02
3.91250000000000e-01 2.15653482408480e-01 1.50660702051358e-02
3.93750000000000e-01 2.15278016744335e-01 1.49717864822796e-02
3.96250000000000e-01 2.14904893084366e-01 1.48786984740257e-02
3.98750000000000e-01 2.14534081820634e-01 1.47867836713944e-02
4.01250000000000e-01 2.14165553900796e-01 1.46960201265056e-02
4.03750000000000e-01 2.13799280814308e-01 1.46063864352136e-02
4.06250000000000e-01 2.13435234579036e-01 1.45178617203723e-02
4.08750000000000e-01 2.13073387728290e-01 1.44304256157080e-02
4.11250000000000e-01 2.12713713298250e-01 1.43440582503007e-02
4.13750000000000e-01 2.12356184815775e-01 1.42587402336164e-02
4.16250000000000e-01 2.12000776286570e-01 1.41744526410692e-02
4.18750000000000e-01 2.11647462183721e-01 1.40911770001201e-02
4.21250000000000e-01 2.11296217436564e-01 1.40088952768619e-02
4.23750000000000e-01 2.10947017419878e-01 1.39275898630653e-02
4.26250000000000e-01 2.10599837943410e-01 1.38472435637060e-02
4.28750000000000e-01 2.10254655241693e-01 1.37678395849183e-02
4.31250000000000e-01 2.09911445964164e-01 1.36893615223577e-02
4.33750000000000e-01 2.09570187165575e-01 1.36117933499763e-02
4.36250000000000e-01 2.09230856296666e-01 1.35351194091826e-02
4.38750000000000e-01 2.08893431195116e-01 1.34593243983711e-02
4.41250000000000e-01 2.08557890076747e-01 1.33843933628069e-02
4.43750000000000e-01 2.08224211526975e-01 1.33103116848532e-02
4.46250000000000e-01 2.07892374492504e-01 1.32370650745306e-02
4.48750000000000e-01 2.07562358273249e-01 1.31646395603885e-02
4.51250000000000e-01 2.07234142514485e-01 1.30930214806763e-02
4.53750000000000e-01 2.06907707199215e-01 1.30221974748129e-02
4.56250000000000e-01 2.06583032640744e-01 1.29521544751338e-02
4.58750000000000e-01 2.06260099475458e-01 1.28828796989100e-02
4.61250000000000e-01 2.05938888655799e-01 1.28143606406206e-02
4.63750000000000e-01 2.05619381443427e-01 1.27465850644881e-02
4.66250000000000e-01 2.05301559402574e-01 1.26795409972419e-02
4.68750000000000e-01 2.04985404393565e-01 1.26132167211085e-02
4.71250000000000e-01 2.04670898566519e-01 1.25476007670444e-02
4.73750000000000e-01 2.04358024355213e-01 1.24826819081708e-02
4.76250000000000e-01 2.04046764471110e-01 1.24184491534124e-02
4.78750000000000e-01 2.03737101897542e-01 1.23548917413424e-02
4.81250000000000e-01 2.03429019884043e-01 1.22919991342141e-02
4.83750000000000e-01 2.03122501940832e-01 1.22297610121835e-02
4.86250000000000e-01 2.02817531833434e-01 1.21681672677082e-02
4.88750000000000e-01 2.02514093577446e-01 1.21072080001089e-02
4.91250000000000e-01 2.02212171433429e-01 1.20468735103119e-02
4.93750000000000e-01 2.01911749901931e-01 1.19871542957461e-02
4.96250000000000e-01 2.01612813718641e-01 1.19280410453898e-02
4.98750000000000e-01 2.01315347849661e-01 1.18695246349615e-02
5.01250000000000e-01 2.01019337486893e-01 1.18115961222698e-02
5.03750000000000e-01 2.00724768043548e-01 1.17542467427018e-02
5.06250000000000e-01 2.00431625149758e-01 1.16974679048260e-02
5.08750000000000e-01 2.00139894648306e-01 1.16412511861358e-02
5.11250000000000e-01 1.99849562590451e-01 1.15855883289256e-02
5.13750000000000e-01 1.99560615231860e-01 1.15304712362807e-02
5.16250000000000e-01 1.99273039028637e-01 1.14758919681823e-02
5.18750000000000e-01 1.98986820633451e-01 1.14218427377200e-02
5.21250000000000e-01 1.98701946891751e-01 1.13683159074229e-02
5.23750000000000e-01 1.98418404838080e-01 1.13153039856978e-02
5.26250000000000e-01 1.98136181692466e-01 1.12627996233550e-02
5.28750000000000e-01 1.97855264856912e-01 1.12107956102497e-02
5.31250000000000e-01 1.97575641911954e-01 1.11592848720082e-02
5.33750000000000e-01 1.97297300613312e-01 1.11082604668400e-02
5.36250000000000e-01 1.97020228888612e-01 1.10577155824537e-02
5.38750000000000e-01 1.96744414834189e-01 1.10076435330514e-02
5.41250000000000e-01 1.96469846711959e-01 1.09580377564045e-02
5.43750000000000e-01 1.96196512946369e-01 1.09088918110145e-02
5.46250000000000e-01 1.95924402121409e-01 1.08601993733476e-02
5.48750000000000e-01 1.95653502977701e-01 1.08119542351470e-02
5.51250000000000e-01 1.95383804409651e-01 1.07641503008243e-02
5.53750000000000e-01 1.95115295462660e-01 1.07167815849124e-02
5.56250000000000e-01 1.94847965330406e-01 1.06698422095824e-02
5.58750000000000e-01 1.94581803352181e-01 1.06233264022465e-02
5.61250000000000e-01 1.94316799010293e-01 1.05772284932143e-02
5.63750000000000e-01 1.94052941927520e-01 1.05315429133995e-02
5.66250000000000e-01 1.93790221864623e-01 1.04862641921089e-02
5.68750000000000e-01 1.93528628717915e-01 1.04413869548725e-02
5.71250000000000e-01 1.93268152516880e-01 1.03969059213421e-02
5.73750000000000e-01 1.93008783421848e-01 1.03528159032401e-02
5.76250000000000e-01 1.92750511721718e-01 1.03091118023591e-02
5.78750000000000e-01 1.92493327831730e-01 1.02657886086183e-02
5.81250000000000e-01 1.92237222291287e-01 1.02228413981653e-02
5.83750000000000e-01 1.91982185761822e-01 1.01802653315380e-02
5.86250000000000e-01 1.91728209024710e-01 1.01380556518560e-02
5.88750000000000e-01 1.91475282979229e-01 1.00962076830635e-02
5.91250000000000e-01 1.91223398640557e-01 1.00547168282322e-02
5.93750000000000e-01 1.90972547137817e-01 1.00135785678890e-02
5.96250000000000e-01 1.90722719712162e-01 9.97278845839167e-03
5.98750000000000e-01 1.90473907714898e-01 9.93234213034655e-03
6.01250000000000e-01 1.90226102605645e-01 9.89223528706007e-03
6.03750000000000e-01 1.89979295950545e-01 9.85246370303727e-03
6.06250000000000e-01 1.89733479420493e-01 9.81302322251465e-03
6.08750000000000e-01 1.89488644789419e-01 9.77390975802961e-03
6.11250000000000e-01 1.89244783932592e-01 9.73511928902049e-03
6.13750000000000e-01 1.89001888824968e-01 9.69664786045710e-03
6.16250000000000e-01 1.88759951539569e-01 9.65849158152010e-03
6.18750000000000e-01 1.88518964245892e-01 9.62064662430595e-03
6.21250000000000e-01 1.88278919208354e-01 9.58310922255123e-03
6.23750000000000e-01 1.88039808784764e-01 9.54587567040199e-03
6.26250000000000e-01 1.87801625424833e-01 9.50894232121136e-03
6.28750000000000e-01 1.87564361668704e-01 9.47230558635437e-03
6.31250000000000e-01 1.87328010145516e-01 9.43596193408613e-03
6.33750000000000e-01 1.87092563571999e-01 9.39990788841549e-03
6.36250000000000e-01 1.86858014751095e-01 9.36414002800645e-03
6.38750000000000e-01 1.86624356570599e-01 9.32865498511848e-03
6.41250000000000e-01 1.86391582001839e-01 9.29344944455179e-03
6.43750000000000e-01 1.86159684098372e-01 9.25852014262984e-03
6.46250000000000e-01 1.85928655994708e-01 9.22386386620677e-03
6.48750000000000e-01 1.85698490905061e-01 9.18947745168708e-03
6.51250000000000e-01 1.85469182122123e-01 9.15535778407417e-03
6.53750000000000e-01 1.85240723015857e-01 9.12150179604831e-03
6.56250000000000e-01 1.85013107032321e-01 9.08790646705460e-03
6.58750000000000e-01 1.84786327692505e-01 9.05456882241362e-03
6.61250000000000e-01 1.84560378591200e-01 9.02148593245389e-03
6.63750000000000e-01 1.84335253395882e-01 8.98865491166689e-03
6.66250000000000e-01 1.84110945845617e-01 8.95607291787448e-03
6.68750000000000e-01 1.83887449749988e-01 8.92373715142114e-03
6.71250000000000e-01 1.83664758988046e-01 8.89164485438743e-03
6.73750000000000e-01 1.83442867507269e-01 8.85979330980280e-03
6.76250000000000e-01 1.83221769322556e-01 8.82817984089623e-03
6.78750000000000e-01 1.83001458515224e-01 8.79680181036069e-03
6.81250000000000e-01 1.82781929232038e-01 8.76565661961926e-03
6.83750000000000e-01 1.82563175684243e-01 8.73474170811794e-03
6.86250000000000e-01 1.82345192146632e-01 8.70405455264012e-03
6.88750000000000e-01 1.82127972956611e-01 8.67359266662593e-03
6.91250000000000e-01 1.81911512513300e-01 8.64335359950341e-03
6.93750000000000e-01 1.81695805276636e-01 8.61333493604621e-03
6.96250000000000e-01 1.81480845766498e-01 8.58353429573855e-03
6.98750000000000e-01 1.81266628561849e-01 8.55394933215070e-03
7.01250000000000e-01 1.81053148299890e-01 8.52457773233173e-03
7.03750000000000e-01 1.80840399675232e-01 8.49541721621772e-03
7.06250000000000e-01 1.80628377439080e-01 8.46646553604780e-03
7.08750000000000e-01 1.80417076398430e-01 8.43772047579350e-03
7.11250000000000e-01 1.80206491415290e-01 8.40917985060252e-03
7.13750000000000e-01 1.79996617405900e-01 8.38084150625085e-03
7.16250000000000e-01 1.79787449339977e-01 8.35270331861093e-03
7.18750000000000e-01 1.79578982239969e-01 8.32476319312603e-03
7.21250000000000e-01 1.79371211180321e-01 8.29701906429781e-03
7.23750000000000e-01 1.79164131286755e-01 8.26946889518287e-03
7.26250000000000e-01 1.78957737735562e-01 8.24211067690206e-03
7.28750000000000e-01 1.78752025752909e-01 8.21494242816023e-03
7.31250000000000e-01 1.78546990614154e-01 8.18796219477391e-03
7.33750000000000e-01 1.78342627643171e-01 8.16116804920997e-03
7.36250000000000e-01 1.78138932211693e-01 8.13455809013264e-03
7.38750000000000e-01 1.77935899738664e-01 8.10813044195724e-03
7.41250000000000e-01 1.77733525689596e-01 8.08188325442216e-03
7.43750000000000e-01 1.77531805575943e-01 8.05581470215866e-03
7.46250000000000e-01 1.77330734954488e-01 8.02992298427008e-03
7.48750000000000e-01 1.77130309426729e-01 8.00420632393273e-03
7.51250000000000e-01 1.76930524638291e-01 7.97866296798677e-03
7.53750000000000e-01 1.76731376278330e-01 7.95329118654875e-03
7.56250000000000e-01 1.76532860078964e-01 7.92808927262523e-03
7.58750000000000e-01 1.76334971814699e-01 7.90305554173365e-03
7.61250000000000e-01 1.76137707301877e-01 7.87818833153708e-03
7.63750000000000e-01 1.75941062398122e-01 7.85348600147728e-03
7.66250000000000e-01 1.75745033001803e-01 7.82894693241887e-03
7.68750000000000e-01 1.75549615051501e-01 7.80456952630293e-03
7.71250000000000e-01 1.75354804525488e-01 7.78035220580953e-03
7.73750000000000e-01 1.75160597441211e-01 7.75629341401796e-03
7.76250000000000e-01 1.74966989854787e-01 7.73239161407369e-03
7.78750000000000e-01 1.74773977860507e-01 7.70864528887139e-03
7.81250000000000e-01 1.74581557590343e-01 7.68505294074184e-03
7.83750000000000e-01 1.74389725213470e-01 7.66161309113611e-03
7.86250000000000e-01 1.74198476935787e-01 7.63832428032740e-03
7.88750000000000e-01 1.74007808999453e-01 7.61518506710745e-03
