Energy (eV)          EEDF (eV^-(3/2))     First Anisotropy
2.58620689655172e-02 4.39733135499180e-02 2.16733989236476e-05
7.75862068965517e-02 4.37121272212153e-02 3.58030176342192e-05
1.29310344827586e-01 4.34524922485186e-02 4.73013441798890e-05
1.81034482758621e-01 4.31943994181669e-02 5.60594579194226e-05
2.32758620689655e-01 4.29378395703151e-02 6.33826867396306e-05
2.84482758620690e-01 4.26828035995625e-02 6.97638840809736e-05
3.36206896551724e-01 4.24292824545993e-02 7.54577716455355e-05
3.87931034482759e-01 4.21772671378795e-02 8.06179737835860e-05
4.39655172413793e-01 4.19267487059146e-02 8.53462495068456e-05
4.91379310344828e-01 4.16777182670434e-02 8.97144304796375e-05
5.43103448275862e-01 4.14301669831115e-02 9.37756241422814e-05
5.94827586206897e-01 4.11840860684573e-02 9.75705055279993e-05
6.46551724137931e-01 4.09394667896007e-02 1.01131108646139e-04
6.98275862068966e-01 4.06963004649341e-02 1.04483239445514e-04
7.50000000000000e-01 4.04545784644145e-02 1.07648079980819e-04
8.01724137931034e-01 4.02142922092565e-02 1.10643293698485e-04
8.53448275862069e-01 3.99754331716296e-02 1.13483810078341e-04
9.05172413793103e-01 3.97379928743562e-02 1.16182395953656e-04
9.56896551724138e-01 3.95019628906097e-02 1.18750080677128e-04
1.00862068965517e+00 3.92673348436157e-02 1.21196478611655e-04
1.06034482758621e+00 3.90341004061217e-02 1.23530037771375e-04
1.11206896551724e+00 3.88022513003745e-02 1.25758234110074e-04
1.16379310344828e+00 3.85717793000502e-02 1.27887726758501e-04
1.21551724137931e+00 3.83426762235601e-02 1.29924481340027e-04
1.26724137931034e+00 3.81149339400072e-02 1.31873869826697e-04
1.31896551724138e+00 3.78885443667666e-02 1.33740753644572e-04
1.37068965517241e+00 3.76634994692351e-02 1.35529551111683e-04
1.42241379310345e+00 3.74397912621337e-02 1.37244294784953e-04
1.47413793103448e+00 3.72174118043575e-02 1.38888678472561e-04
1.52586206896552e+00 3.69963532036193e-02 1.40466096881332e-04
1.57758620689655e+00 3.67766076144924e-02 1.41979680485852e-04
1.62931034482759e+00 3.65581672381635e-02 1.43432324256179e-04
1.68103448275862e+00 3.63410243234514e-02 1.44826713421549e-04
1.73275862068966e+00 3.61251711625524e-02 1.46165344735349e-04
1.78448275862069e+00 3.59106000947898e-02 1.47450544889225e-04
1.83620689655172e+00 3.56973035049809e-02 1.48684487622779e-04
1.88793103448276e+00 3.54852738231826e-02 1.49869207720422e-04
1.93965517241379e+00 3.52745035255155e-02 1.51006614281900e-04
1.99137931034483e+00 3.50649851305569e-02 1.52098501522809e-04
2.04310344827586e+00 3.48567112024473e-02 1.53146558298855e-04
2.09482758620690e+00 3.46496743494905e-02 1.54152377523634e-04
2.14655172413793e+00 3.44438672238992e-02 1.55117463659171e-04
2.19827586206897e+00 3.42392825224712e-02 1.56043240292044e-04
2.25000000000000e+00 3.40359129834753e-02 1.56931056088721e-04
2.30172413793103e+00 3.38337513892731e-02 1.57782190114282e-04
2.35344827586207e+00 3.36327905650962e-02 1.58597857336227e-04
2.40517241379310e+00 3.34330233796298e-02 1.59379213573171e-04
2.45689655172414e+00 3.32344427422279e-02 1.60127359361834e-04
2.50862068965517e+00 3.30370416052130e-02 1.60843343436377e-04
2.56034482758621e+00 3.28408129627647e-02 1.61528166705532e-04
2.61206896551724e+00 3.26457498506761e-02 1.62182785098481e-04
2.66379310344828e+00 3.24518453468385e-02 1.62808112920301e-04
2.71551724137931e+00 3.22590925687795e-02 1.63405025196718e-04
2.76724137931034e+00 3.20674846756524e-02 1.63974359797915e-04
2.81896551724138e+00 3.18770148672389e-02 1.64516920139629e-04
2.87068965517241e+00 3.16876763837142e-02 1.65033476944370e-04
2.92241379310345e+00 3.14994625060524e-02 1.65524770566075e-04
2.97413793103448e+00 3.13123665538292e-02 1.65991512458445e-04
3.02586206896552e+00 3.11263818869588e-02 1.66434386510357e-04
3.07758620689655e+00 3.09415019047918e-02 1.66854050978821e-04
3.12931034482759e+00 3.07577200458875e-02 1.67251139606657e-04
3.18103448275862e+00 3.05750297883549e-02 1.67626263313832e-04
3.23275862068966e+00 3.03934246478760e-02 1.67980011136129e-04
3.28448275862069e+00 3.02128981792339e-02 1.68312951079710e-04
3.33620689655172e+00 3.00334439754925e-02 1.68625631567821e-04
3.38793103448276e+00 2.98550556677725e-02 1.68918582159964e-04
3.43965517241379e+00 2.96777269255418e-02 1.69192314834168e-04
3.49137931034483e+00 2.95014514548241e-02 1.69447324593243e-04
3.54310344827586e+00 2.93262229995533e-02 1.69684090015039e-04
3.59482758620690e+00 2.91520353408210e-02 1.69903074376826e-04
3.64655172413793e+00 2.89788822966586e-02 1.70104726119070e-04
3.69827586206897e+00 2.88067577222839e-02 1.70289479852727e-04
3.75000000000000e+00 2.86356555084693e-02 1.70457756749667e-04
3.80172413793103e+00 2.84655695827482e-02 1.70609964894420e-04
3.85344827586207e+00 2.82964939087222e-02 1.70746500078168e-04
3.90517241379310e+00 2.81284224862788e-02 1.70867746528692e-04
3.95689655172414e+00 2.79613493500756e-02 1.70974077182694e-04
4.00862068965517e+00 2.77952685706399e-02 1.71065853928648e-04
4.06034482758621e+00 2.76301742537164e-02 1.71143428377358e-04
4.11206896551724e+00 2.74660605400605e-02 1.71207142063086e-04
4.16379310344828e+00 2.73029216056220e-02 1.71257327144486e-04
4.21551724137931e+00 2.71407516601532e-02 1.71294306570993e-04
4.26724137931035e+00 2.69795449481965e-02 1.71318394228237e-04
4.31896551724138e+00 2.68192957484785e-02 1.71329895585139e-04
4.37068965517241e+00 2.66599983737088e-02 1.71329107811003e-04
4.42241379310345e+00 2.65016471707366e-02 1.71316320368195e-04
4.47413793103448e+00 2.63442365192664e-02 1.71291815105525e-04
4.52586206896552e+00 2.61877608327490e-02 1.71255866336291e-04
4.57758620689655e+00 2.60322145578160e-02 1.71208741392648e-04
4.62931034482759e+00 2.58775921740854e-02 1.71150700684319e-04
4.68103448275862e+00 2.57238881942930e-02 1.71081998209270e-04
4.73275862068965e+00 2.55710971631047e-02 1.71002881596089e-04
4.78448275862069e+00 2.54192136579227e-02 1.70913592134716e-04
4.83620689655172e+00 2.52682322883565e-02 1.70814365259637e-04
4.88793103448276e+00 2.51181476960335e-02 1.70705430567576e-04
4.93965517241379e+00 2.49689545547106e-02 1.70587012264278e-04
4.99137931034483e+00 2.48206475691716e-02 1.70459329171108e-04
5.04310344827586e+00 2.46732214759581e-02 1.70322594722372e-04
5.09482758620690e+00 2.45266710428746e-02 1.70177017392387e-04
5.14655172413793e+00 2.43809910688037e-02 1.70022800684216e-04
5.19827586206897e+00 2.42361763837997e-02 1.69860143525715e-04
5.25000000000000e+00 2.40922218480629e-02 1.69689240250777e-04
5.30172413793103e+00 2.39491223526044e-02 1.69510280573012e-04
5.35344827586207e+00 2.38068728187810e-02 1.69323449890169e-04
5.40517241379310e+00 2.36654681983765e-02 1.69128929562811e-04
5.45689655172414e+00 2.35249034726335e-02 1.68926896881312e-04
5.50862068965517e+00 2.33851736528686e-02 1.68717525026381e-04
5.56034482758621e+00 2.32462737800293e-02 1.68500983420013e-04
5.61206896551724e+00 2.31081989245181e-02 1.68277437681740e-04
5.66379310344828e+00 2.29709441862602e-02 1.68047049955746e-04
5.71551724137931e+00 2.28345046937980e-02 1.67809978864026e-04
5.76724137931034e+00 2.26988756048539e-02 1.67566379454355e-04
5.81896551724138e+00 2.25640521059112e-02 1.67316403519220e-04
5.87068965517241e+00 2.24300294120443e-02 1.67060199541112e-04
5.92241379310345e+00 2.22968027669731e-02 1.66797912990595e-04
5.97413793103448e+00 2.21643674422160e-02 1.66529686269734e-04
6.02586206896552e+00 2.20327187376043e-02 1.66255658651355e-04
6.07758620689655e+00 2.19018519808861e-02 1.65975966570979e-04
6.12931034482759e+00 2.17717625275619e-02 1.65690743564547e-04
6.18103448275862e+00 2.16424457609275e-02 1.65400120541852e-04
6.23275862068965e+00 2.15138970912801e-02 1.65104225723342e-04
6.28448275862069e+00 2.13861119563894e-02 1.64803184573355e-04
6.33620689655172e+00 2.12590858211226e-02 1.64497120069045e-04
6.38793103448276e+00 2.11328141772849e-02 1.64186152633096e-04
6.43965517241379e+00 2.10072925436532e-02 1.63870400385897e-04
6.49137931034483e+00 2.08825164652292e-02 1.63549979077960e-04
6.54310344827586e+00 2.07584815136729e-02 1.63225002019242e-04
6.59482758620690e+00 2.06351832869469e-02 1.62895580328211e-04
6.64655172413793e+00 2.05126174091607e-02 1.62561822861321e-04
6.69827586206897e+00 2.03907795305968e-02 1.62223836446718e-04
6.75000000000000e+00 2.02696653270079e-02 1.61881725813972e-04
6.80172413793103e+00 2.01492705000146e-02 1.61535593521005e-04
6.85344827586207e+00 2.00295907767688e-02 1.61185540128089e-04
6.90517241379310e+00 1.99106219099735e-02 1.60831664356505e-04
6.95689655172414e+00 1.97923596772135e-02 1.60474063017368e-04
7.00862068965517e+00 1.96747998813271e-02 1.60112830937816e-04
7.06034482758621e+00 1.95579383500819e-02 1.59748061179869e-04
7.11206896551724e+00 1.94417709360274e-02 1.59379844967322e-04
7.16379310344828e+00 1.93262935165085e-02 1.59008271891415e-04
7.21551724137931e+00 1.92115019930336e-02 1.58633429838856e-04
7.26724137931034e+00 1.90973922916175e-02 1.58255404917591e-04
7.31896551724138e+00 1.89839603624726e-02 1.57874281661519e-04
7.37068965517241e+00 1.88712021798660e-02 1.57490142957226e-04
7.42241379310345e+00 1.87591137421271e-02 1.57103070236701e-04
7.47413793103448e+00 1.86476910710504e-02 1.56713143405212e-04
7.52586206896552e+00 1.85369302122124e-02 1.56320440767337e-04
7.57758620689655e+00 1.84268272346767e-02 1.55925039219072e-04
7.62931034482759e+00 1.83173782308560e-02 1.55527014174946e-04
7.68103448275862e+00 1.82085793165139e-02 1.55126439749086e-04
7.73275862068965e+00 1.81004266302008e-02 1.54723388683605e-04
7.78448275862069e+00 1.79929163335455e-02 1.54317932275260e-04
7.83620689655172e+00 1.78860446109753e-02 1.53910140556257e-04
7.88793103448276e+00 1.77798076695809e-02 1.53500082222256e-04
7.93965517241379e+00 1.76742017391144e-02 1.53087824802793e-04
7.99137931034483e+00 1.75692230714548e-02 1.52673434590592e-04
8.04310344827586e+00 1.74648679408778e-02 1.52256976569315e-04
8.09482758620690e+00 1.73611326437885e-02 1.51838514584084e-04
8.14655172413793e+00 1.72580134985902e-02 1.51418111270648e-04
8.19827586206897e+00 1.71555068456785e-02 1.50995828216173e-04
8.25000000000000e+00 1.70536090469348e-02 1.50571725889806e-04
8.30172413793103e+00 1.69523164859756e-02 1.50145863571708e-04
8.35344827586207e+00 1.68516255678975e-02 1.49718299470281e-04
8.40517241379310e+00 1.67515327192686e-02 1.49289090828843e-04
8.45689655172414e+00 1.66520343876430e-02 1.48858293857535e-04
8.50862068965517e+00 1.65531270417951e-02 1.48425963663798e-04
8.56034482758621e+00 1.64548071714736e-02 1.47992154406376e-04
8.61206896551724e+00 1.63570712872768e-02 1.47556919227154e-04
8.66379310344828e+00 1.62599159206408e-02 1.47120310396458e-04
8.71551724137931e+00 1.61633376233787e-02 1.46682379246517e-04
8.76724137931035e+00 1.60673329678981e-02 1.46243176103603e-04
8.81896551724138e+00 1.59718985469647e-02 1.45802750433924e-04
8.87068965517241e+00 1.58770309735824e-02 1.45361150777194e-04
8.92241379310345e+00 1.57827268809779e-02 1.44918424884389e-04
8.97413793103448e+00 1.56889829221637e-02 1.44474619652861e-04
9.02586206896552e+00 1.55957957701386e-02 1.44029781060266e-04
9.07758620689655e+00 1.55031621176625e-02 1.43583954302966e-04
9.12931034482759e+00 1.54110786771392e-02 1.43137183731390e-04
9.18103448275862e+00 1.53195421805993e-02 1.42689512980857e-04
9.23275862068965e+00 1.52285493792842e-02 1.42240984908385e-04
9.28448275862069e+00 1.51380970438318e-02 1.41791641528430e-04
9.33620689655172e+00 1.50481819640616e-02 1.41341524144440e-04
9.38793103448276e+00 1.49588009488605e-02 1.40890673286036e-04
9.43965517241379e+00 1.48699508261632e-02 1.40439128833310e-04
9.49137931034483e+00 1.47816284425570e-02 1.39986929955478e-04
9.54310344827586e+00 1.46938306634537e-02 1.39534115048467e-04
9.59482758620690e+00 1.46065543728839e-02 1.39080721860045e-04
9.64655172413793e+00 1.45197964733857e-02 1.38626787428883e-04
9.69827586206897e+00 1.44335538859839e-02 1.38172348202799e-04
9.75000000000000e+00 1.43478235498132e-02 1.37717439979228e-04
9.80172413793103e+00 1.42626024222780e-02 1.37262097844703e-04
9.85344827586207e+00 1.41778874788549e-02 1.36806356259937e-04
9.90517241379310e+00 1.40936757130698e-02 1.36350249137190e-04
9.95689655172414e+00 1.40099641361358e-02 1.35893809782381e-04
1.00086206896552e+01 1.39267497771039e-02 1.35437070969441e-04
1.00603448275862e+01 1.38440296823422e-02 1.34980064520957e-04
1.01120689655172e+01 1.37618009167499e-02 1.34522821820203e-04
1.01637931034483e+01 1.36800605619920e-02 1.34065374412147e-04
1.02155172413793e+01 1.35988057162782e-02 1.33607752359743e-04
1.02672413793103e+01 1.35180334966473e-02 1.33149985182191e-04
1.03189655172414e+01 1.34377410364584e-02 1.32692102834176e-04
1.03706896551724e+01 1.33579254853346e-02 1.32234133775120e-04
1.04224137931034e+01 1.32785840113681e-02 1.31776106256857e-04
1.04741379310345e+01 1.31997137979472e-02 1.31318048036642e-04
1.05258620689655e+01 1.31213120467005e-02 1.30859986048394e-04
1.05775862068966e+01 1.30433759751159e-02 1.30401947665846e-04
1.06293103448276e+01 1.29659028164858e-02 1.29943958848798e-04
1.06810344827586e+01 1.28888898219949e-02 1.29486045379443e-04
1.07327586206897e+01 1.28123342577088e-02 1.29028232585834e-04
1.07844827586207e+01 1.27362334073645e-02 1.28570545025324e-04
1.08362068965517e+01 1.26605845701105e-02 1.28113007697638e-04
1.08879310344828e+01 1.25853850604513e-02 1.27655644264640e-04
1.09396551724138e+01 1.25106322102268e-02 1.27198477951181e-04
1.09913793103448e+01 1.24363233664266e-02 1.26741532422717e-04
1.10431034482759e+01 1.23624558911351e-02 1.26284830051747e-04
1.10948275862069e+01 1.22890271634433e-02 1.25828393072712e-04
1.11465517241379e+01 1.22160345766831e-02 1.25372243323045e-04
1.11982758620690e+01 1.21434755409833e-02 1.24916401946743e-04
1.12500000000000e+01 1.20713474811935e-02 1.24460890528017e-04
1.13017241379310e+01 1.19996478368286e-02 1.24005729425863e-04
1.13534482758621e+01 1.19283740638829e-02 1.23550938615988e-04
1.14051724137931e+01 1.18575236328205e-02 1.23096538511462e-04
1.14568965517241e+01 1.17870940285206e-02 1.22642548340429e-04
1.15086206896552e+01 1.17170827520307e-02 1.22188987225835e-04
1.15603448275862e+01 1.16474873180228e-02 1.21735873942804e-04
1.16120689655172e+01 1.15783052571383e-02 1.21283226640941e-04
1.16637931034483e+01 1.15095341140772e-02 1.20831063904599e-04
1.17155172413793e+01 1.14411714475441e-02 1.20379403193767e-04
1.17672413793103e+01 1.13732148319122e-02 1.19928261631579e-04
1.18189655172414e+01 1.13056618553735e-02 1.19477656772278e-04
1.18706896551724e+01 1.12385101198843e-02 1.19027605082058e-04
1.19224137931034e+01 1.11717572427751e-02 1.18578122949291e-04
1.19741379310345e+01 1.11054008544081e-02 1.18129226457068e-04
1.20258620689655e+01 1.10394386003312e-02 1.17680931122923e-04
1.20775862068966e+01 1.09738681395170e-02 1.17233252891209e-04
1.21293103448276e+01 1.09086871443099e-02 1.16786206672597e-04
1.21810344827586e+01 1.08438933019549e-02 1.16339807315456e-04
1.22327586206897e+01 1.07794843123683e-02 1.15894069386597e-04
1.22844827586207e+01 1.07154578901842e-02 1.15449006920495e-04
1.23362068965517e+01 1.06518117630791e-02 1.15004634373611e-04
1.23879310344828e+01 1.05885436717187e-02 1.14560965220092e-04
1.24396551724138e+01 1.05256513712118e-02 1.14118012660052e-04
1.24913793103448e+01 1.04631326294850e-02 1.13675790310744e-04
1.25431034482759e+01 1.04009852272317e-02 1.13234310837658e-04
1.25948275862069e+01 1.03392069593177e-02 1.12793586864327e-04
1.26465517241379e+01 1.02777956327244e-02 1.12353630766653e-04
1.26982758620690e+01 1.02167490684327e-02 1.11914454437666e-04
1.27500000000000e+01 1.01560650998756e-02 1.11476070181666e-04
1.28017241379310e+01 1.00957415728869e-02 1.11038489397555e-04
1.28534482758621e+01 1.00357763470386e-02 1.10601723242485e-04
1.29051724137931e+01 9.97616729414106e-03 1.10165783279767e-04
1.29568965517241e+01 9.91691229819165e-03 1.09730680195067e-04
1.30086206896552e+01 9.85800925667031e-03 1.09296424649100e-04
1.30603448275862e+01 9.79945607863884e-03 1.08863027084587e-04
1.31120689655172e+01 9.74125068647709e-03 1.08430497505508e-04
1.31637931034483e+01 9.68339101445260e-03 1.07998846315362e-04
1.32155172413793e+01 9.62587500867064e-03 1.07568083081983e-04
1.32672413793103e+01 9.56870062830682e-03 1.07138217159741e-04
1.33189655172414e+01 9.51186584421997e-03 1.06709258297260e-04
1.33706896551724e+01 9.45536863890215e-03 1.06281215432811e-04
1.34224137931034e+01 9.39920700767309e-03 1.05854097493891e-04
1.34741379310345e+01 9.34337895692257e-03 1.05427913215994e-04
1.35258620689655e+01 9.28788250571175e-03 1.05002670935377e-04
1.35775862068966e+01 9.23271568444971e-03 1.04578379375333e-04
1.36293103448276e+01 9.17787653484505e-03 1.04155046486889e-04
1.36810344827586e+01 9.12336311104267e-03 1.03732680218498e-04
1.37327586206897e+01 9.06917347794714e-03 1.03311288341247e-04
1.37844827586207e+01 9.01530571274795e-03 1.02890878249035e-04
1.38362068965517e+01 8.96175790365724e-03 1.02471457715547e-04
1.38879310344828e+01 8.90852814986156e-03 1.02053033778416e-04
1.39396551724138e+01 8.85561456260509e-03 1.01635613300748e-04
1.39913793103448e+01 8.80301526396402e-03 1.01219203519816e-04
1.40431034482759e+01 8.75072838679937e-03 1.00803810958483e-04
1.40948275862069e+01 8.69875207580674e-03 1.00389442147575e-04
1.41465517241379e+01 8.64708448596336e-03 9.99761034616373e-05
1.41982758620690e+01 8.59572378393723e-03 9.95638009312610e-05
1.42500000000000e+01 8.54466814691722e-03 9.91525409536795e-05
1.43017241379310e+01 8.49391576256659e-03 9.87423292446969e-05
1.43534482758621e+01 8.44346483002341e-03 9.83331713658699e-05
1.44051724137931e+01 8.39331355876473e-03 9.79250732398529e-05
1.44568965517241e+01 8.34346016856048e-03 9.75180401277092e-05
1.45086206896552e+01 8.29390289044378e-03 9.71120773072089e-05
1.45603448275862e+01 8.24463996527133e-03 9.67071899184914e-05
1.46120689655172e+01 8.19566964502631e-03 9.63033827876626e-05
1.46637931034483e+01 8.14699019173326e-03 9.59006610941882e-05
1.47155172413793e+01 8.09859987741324e-03 9.54990293860785e-05
1.47672413793103e+01 8.05049698500867e-03 9.50984920750499e-05
1.48189655172414e+01 8.00267980732965e-03 9.46990539207231e-05
1.48706896551724e+01 7.95514664700917e-03 9.43007190694940e-05
1.49224137931034e+01 7.90789581740067e-03 9.39034916917014e-05
1.49741379310345e+01 7.86092564124238e-03 9.35073758365185e-05
1.50258620689655e+01 7.81423445186300e-03 9.31123752661342e-05
1.50775862068966e+01 7.76782059217440e-03 9.27184940828354e-05
1.51293103448276e+01 7.72168241462836e-03 9.23257358032127e-05
1.51810344827586e+01 7.67581828207227e-03 9.19341039720600e-05
1.52327586206897e+01 7.63022656647284e-03 9.15436020223511e-05
1.52844827586207e+01 7.58490565006646e-03 9.11542331152619e-05
1.53362068965517e+01 7.53985392439675e-03 9.07660007443877e-05
1.53879310344828e+01 7.49506979027171e-03 9.03789078439369e-05
1.54396551724138e+01 7.45055165858050e-03 8.99929572367738e-05
1.54913793103448e+01 7.40629794935781e-03 8.96081520727464e-05
1.55431034482759e+01 7.36230709174191e-03 8.92244949580839e-05
1.55948275862069e+01 7.31857752476717e-03 8.88419885324558e-05
1.56465517241379e+01 7.27510769617841e-03 8.84606353372545e-05
1.56982758620690e+01 7.23189606349683e-03 8.80804376651200e-05
1.57500000000000e+01 7.18894109312536e-03 8.77013981280210e-05
1.58017241379310e+01 7.14624126030754e-03 8.73235188184187e-05
1.58534482758621e+01 7.10379504988404e-03 8.69468017305852e-05
1.59051724137931e+01 7.06160095542298e-03 8.65712491728456e-05
1.59568965517241e+01 7.01965747917929e-03 8.61968629485685e-05
1.60086206896552e+01 6.97796313282923e-03 8.58236448988236e-05
1.60603448275862e+01 6.93651643636823e-03 8.54515967784367e-05
1.61120689655172e+01 6.89531591909916e-03 8.50807201144019e-05
1.61637931034483e+01 6.85436011880028e-03 8.47110167401926e-05
1.62155172413793e+01 6.81364758168561e-03 8.43424880064747e-05
1.62672413793103e+01 6.77317686310626e-03 8.39751351774106e-05
1.63189655172414e+01 6.73294652674144e-03 8.36089598185553e-05
