Energy (eV)          EEDF (eV^-(3/2))     First Anisotropy
1.01000000000000e-02 2.25857125013921e-01 1.19634616163718e-04
3.03000000000000e-02 2.24297757448782e-01 1.97532854738521e-04
5.05000000000000e-02 2.22749156102405e-01 2.60718336600531e-04
7.07000000000000e-02 2.21211246642387e-01 3.08692000276703e-04
9.09000000000000e-02 2.19683955249571e-01 3.48678775699044e-04
1.11100000000000e-01 2.18167208614468e-01 3.83410415361518e-04
1.31300000000000e-01 2.16660933933736e-01 4.14300652357415e-04
1.51500000000000e-01 2.15165058906685e-01 4.42203226371201e-04
1.71700000000000e-01 2.13679511731805e-01 4.67684370348650e-04
1.91900000000000e-01 2.12204221103318e-01 4.91144298139658e-04
2.12100000000000e-01 2.10739116207758e-01 5.12879277537120e-04
2.32300000000000e-01 2.09284126720573e-01 5.33116507891781e-04
2.52500000000000e-01 2.07839182802743e-01 5.52035148412385e-04
2.72700000000000e-01 2.06404215097435e-01 5.69779707757875e-04
2.92900000000000e-01 2.04979154726672e-01 5.86468950007145e-04
3.13100000000000e-01 2.03563933288022e-01 6.02202033992008e-04
3.33300000000000e-01 2.02158482851322e-01 6.17062873760550e-04
3.53500000000000e-01 2.00762735955412e-01 6.31123315125267e-04
3.73700000000000e-01 1.99376625604899e-01 6.44445500767643e-04
3.93900000000000e-01 1.98000085266942e-01 6.57083664911126e-04
4.14100000000000e-01 1.96633048868056e-01 6.69085518027308e-04
4.34300000000000e-01 1.95275450790944e-01 6.80493331111692e-04
4.54500000000000e-01 1.93927225871344e-01 6.91344795965391e-04
4.74700000000000e-01 1.92588309394901e-01 7.01673715874584e-04
4.94900000000000e-01 1.91258637094065e-01 7.11510566077214e-04
5.15100000000000e-01 1.89938145145002e-01 7.20882952995993e-04
5.35300000000000e-01 1.88626770164533e-01 7.29815993863981e-04
5.55500000000000e-01 1.87324449207088e-01 7.38332633093809e-04
5.75700000000000e-01 1.86031119761689e-01 7.46453907900722e-04
5.95900000000000e-01 1.84746719748948e-01 7.54199172856147e-04
6.16100000000000e-01 1.83471187518086e-01 7.61586290932160e-04
6.36300000000000e-01 1.82204461843975e-01 7.68631796999409e-04
6.56500000000000e-01 1.80946481924198e-01 7.75351038521234e-04
6.76700000000000e-01 1.79697187376132e-01 7.81758297246623e-04
6.96900000000000e-01 1.78456518234050e-01 7.87866894974498e-04
7.17100000000000e-01 1.77224414946239e-01 7.93689285888419e-04
7.37300000000000e-01 1.76000818372147e-01 7.99237137508349e-04
7.57500000000000e-01 1.74785669779540e-01 8.04521401945491e-04
7.77700000000000e-01 1.73578910841684e-01 8.09552378857681e-04
7.97900000000000e-01 1.72380483634547e-01 8.14339771269227e-04
8.18100000000000e-01 1.71190330634017e-01 8.18892735230305e-04
8.38300000000000e-01 1.70008394713139e-01 8.23219924136564e-04
8.58500000000000e-01 1.68834619139379e-01 8.27329528402299e-04
8.78700000000000e-01 1.67668947571893e-01 8.31229311076451e-04
8.98900000000000e-01 1.66511324058831e-01 8.34926639903601e-04
9.19100000000000e-01 1.65361693034642e-01 8.38428516259933e-04
9.39300000000000e-01 1.64219999317415e-01 8.41741601333574e-04
9.59500000000000e-01 1.63086188106228e-01 8.44872239867949e-04
9.79700000000000e-01 1.61960204978514e-01 8.47826481743512e-04
9.99900000000000e-01 1.60841995887452e-01 8.50610101637443e-04
1.02010000000000e+00 1.59731507159375e-01 8.53228616969732e-04
1.04030000000000e+00 1.58628685491186e-01 8.55687304317209e-04
1.06050000000000e+00 1.57533477947809e-01 8.57991214455579e-04
1.08070000000000e+00 1.56445831959641e-01 8.60145186168985e-04
1.10090000000000e+00 1.55365695320032e-01 8.62153858950474e-04
1.12110000000000e+00 1.54293016182777e-01 8.64021684702578e-04
1.14130000000000e+00 1.53227743059631e-01 8.65752938533912e-04
1.16150000000000e+00 1.52169824817833e-01 8.67351728737718e-04
1.18170000000000e+00 1.51119210677655e-01 8.68822006027991e-04
1.20190000000000e+00 1.50075850209964e-01 8.70167572100972e-04
1.22210000000000e+00 1.49039693333799e-01 8.71392087582712e-04
1.24230000000000e+00 1.48010690313971e-01 8.72499079416633e-04
1.26250000000000e+00 1.46988791758673e-01 8.73491947739572e-04
1.28270000000000e+00 1.45973948617110e-01 8.74373972289872e-04
1.30290000000000e+00 1.44966112177143e-01 8.75148318387057e-04
1.32310000000000e+00 1.43965234062956e-01 8.75818042517831e-04
1.34330000000000e+00 1.42971266232727e-01 8.76386097560612e-04
1.36350000000000e+00 1.41984160976326e-01 8.76855337677856e-04
1.38370000000000e+00 1.41003870913026e-01 8.77228522901633e-04
1.40390000000000e+00 1.40030348989226e-01 8.77508323436451e-04
1.42410000000000e+00 1.39063548476192e-01 8.77697323701139e-04
1.44430000000000e+00 1.38103422967818e-01 8.77798026129130e-04
1.46450000000000e+00 1.37149926378395e-01 8.77812854745029e-04
1.48470000000000e+00 1.36203012940399e-01 8.77744158533747e-04
1.50490000000000e+00 1.35262637202297e-01 8.77594214617323e-04
1.52510000000000e+00 1.34328754026361e-01 8.77365231253049e-04
1.54530000000000e+00 1.33401318586506e-01 8.77059350665157e-04
1.56550000000000e+00 1.32480286366136e-01 8.76678651721610e-04
1.58570000000000e+00 1.31565613156006e-01 8.76225152466566e-04
1.60590000000000e+00 1.30657255052102e-01 8.75700812518541e-04
1.62610000000000e+00 1.29755168453535e-01 8.75107535342613e-04
1.64630000000000e+00 1.28859310060442e-01 8.74447170405057e-04
1.66650000000000e+00 1.27969636871917e-01 8.73721515218093e-04
1.68670000000000e+00 1.27086106183937e-01 8.72932317281886e-04
1.70690000000000e+00 1.26208675587321e-01 8.72081275930057e-04
1.72710000000000e+00 1.25337302965686e-01 8.71170044084291e-04
1.74730000000000e+00 1.24471946493435e-01 8.70200229924483e-04
1.76750000000000e+00 1.23612564633740e-01 8.69173398479053e-04
1.78770000000000e+00 1.22759116136554e-01 8.68091073139998e-04
1.80790000000000e+00 1.21911560036629e-01 8.66954737107507e-04
1.82810000000000e+00 1.21069855651552e-01 8.65765834768003e-04
1.84830000000000e+00 1.20233962579788e-01 8.64525773009702e-04
1.86850000000000e+00 1.19403840698744e-01 8.63235922478980e-04
1.88870000000000e+00 1.18579450162843e-01 8.61897618780965e-04
1.90890000000000e+00 1.17760751401608e-01 8.60512163627638e-04
1.92910000000000e+00 1.16947705117770e-01 8.59080825936062e-04
1.94930000000000e+00 1.16140272285373e-01 8.57604842879505e-04
1.96950000000000e+00 1.15338414147906e-01 8.56085420894198e-04
1.98970000000000e+00 1.14542092216442e-01 8.54523736644029e-04
2.00990000000000e+00 1.13751268267790e-01 8.52920937945152e-04
2.03010000000000e+00 1.12965904342660e-01 8.51278144652843e-04
2.05030000000000e+00 1.12185962743842e-01 8.49596449512343e-04
2.07050000000000e+00 1.11411406034394e-01 8.47876918975747e-04
2.09070000000000e+00 1.10642197035850e-01 8.46120593986594e-04
2.11090000000000e+00 1.09878298826429e-01 8.44328490733608e-04
2.13110000000000e+00 1.09119674739270e-01 8.42501601375288e-04
2.15130000000000e+00 1.08366288360663e-01 8.40640894736742e-04
2.17150000000000e+00 1.07618103528312e-01 8.38747316980038e-04
2.19170000000000e+00 1.06875084329589e-01 8.36821792249307e-04
2.21190000000000e+00 1.06137195099817e-01 8.34865223291988e-04
2.23210000000000e+00 1.05404400420556e-01 8.32878492057121e-04
2.25230000000000e+00 1.04676665117901e-01 8.30862460271861e-04
2.27250000000000e+00 1.03953954260797e-01 8.28817969997311e-04
2.29270000000000e+00 1.03236233159360e-01 8.26745844164322e-04
2.31290000000000e+00 1.02523467363212e-01 8.24646887090524e-04
2.33310000000000e+00 1.01815622659831e-01 8.22521884979006e-04
2.35330000000000e+00 1.01112665072902e-01 8.20371606399878e-04
2.37350000000000e+00 1.00414560860691e-01 8.18196802755429e-04
2.39370000000000e+00 9.97212765144275e-02 8.15998208729093e-04
2.41390000000000e+00 9.90327787566886e-02 8.13776542719425e-04
2.43410000000000e+00 9.83490345398086e-02 8.11532507259735e-04
2.45430000000000e+00 9.76700110442897e-02 8.09266789423637e-04
2.47450000000000e+00 9.69956756772269e-02 8.06980061217338e-04
2.49470000000000e+00 9.63259960707442e-02 8.04672979959280e-04
2.51490000000000e+00 9.56609400804404e-02 8.02346188647343e-04
2.53510000000000e+00 9.50004757838462e-02 8.00000316314429e-04
2.55530000000000e+00 9.43445714788924e-02 7.97635978372819e-04
2.57550000000000e+00 9.36931956823877e-02 7.95253776947752e-04
2.59570000000000e+00 9.30463171285078e-02 7.92854301200471e-04
2.61590000000000e+00 9.24039047672945e-02 7.90438127641323e-04
2.63610000000000e+00 9.17659277631654e-02 7.88005820433449e-04
2.65630000000000e+00 9.11323554934338e-02 7.85557931687136e-04
2.67650000000000e+00 9.05031575468390e-02 7.83095001745294e-04
2.69670000000000e+00 8.98783037220859e-02 7.80617559460361e-04
2.71690000000000e+00 8.92577640263963e-02 7.78126122463124e-04
2.73710000000000e+00 8.86415086740686e-02 7.75621197423691e-04
2.75730000000000e+00 8.80295080850482e-02 7.73103280304646e-04
2.77750000000000e+00 8.74217328835078e-02 7.70572856607018e-04
2.79770000000000e+00 8.68181538964373e-02 7.68030401609243e-04
2.81790000000000e+00 8.62187421522436e-02 7.65476380599186e-04
2.83810000000000e+00 8.56234688793597e-02 7.62911249099636e-04
2.85830000000000e+00 8.50323055048641e-02 7.60335453087642e-04
2.87850000000000e+00 8.44452236531089e-02 7.57749429207591e-04
2.89870000000000e+00 8.38621951443580e-02 7.55153604978366e-04
2.91890000000000e+00 8.32831919934345e-02 7.52548398994880e-04
2.93910000000000e+00 8.27081864083773e-02 7.49934221124241e-04
2.95930000000000e+00 8.21371507891070e-02 7.47311472696388e-04
2.97950000000000e+00 8.15700577261016e-02 7.44680546689802e-04
2.99970000000000e+00 8.10068799990802e-02 7.42041827912238e-04
3.01990000000000e+00 8.04475905756969e-02 7.39395693176517e-04
3.04010000000000e+00 7.98921626102430e-02 7.36742511471843e-04
3.06030000000000e+00 7.93405694423585e-02 7.34082644130701e-04
3.08050000000000e+00 7.87927845957526e-02 7.31416444991341e-04
3.10070000000000e+00 7.82487817769324e-02 7.28744260556011e-04
3.12090000000000e+00 7.77085348739414e-02 7.26066430145270e-04
3.14110000000000e+00 7.71720179551055e-02 7.23383286048327e-04
3.16130000000000e+00 7.66392052677889e-02 7.20695153669629e-04
3.18150000000000e+00 7.61100712371577e-02 7.18002351671778e-04
3.20170000000000e+00 7.55845904649520e-02 7.15305192114761e-04
3.22190000000000e+00 7.50627377282673e-02 7.12603980591762e-04
3.24210000000000e+00 7.45444879783437e-02 7.09899016361899e-04
3.26230000000000e+00 7.40298163393633e-02 7.07190592479331e-04
3.28250000000000e+00 7.35186981072565e-02 7.04478995919458e-04
3.30270000000000e+00 7.30111087485161e-02 7.01764507702118e-04
3.32290000000000e+00 7.25070238990193e-02 6.99047403011628e-04
3.34310000000000e+00 7.20064193628591e-02 6.96327951314090e-04
3.36330000000000e+00 7.15092711111821e-02 6.93606416471871e-04
3.38350000000000e+00 7.10155552810355e-02 6.90883056855515e-04
3.40370000000000e+00 7.05252481742215e-02 6.88158125452832e-04
3.42390000000000e+00 7.00383262561601e-02 6.85431869975504e-04
3.44410000000000e+00 6.95547661547590e-02 6.82704532963351e-04
3.46430000000000e+00 6.90745446592921e-02 6.79976351885998e-04
3.48450000000000e+00 6.85976387192855e-02 6.77247559242366e-04
3.50470000000000e+00 6.81240254434105e-02 6.74518382657896e-04
3.52490000000000e+00 6.76536820983855e-02 6.71789044979371e-04
3.54510000000000e+00 6.71865861078845e-02 6.69059764367895e-04
3.56530000000000e+00 6.67227150514531e-02 6.66330754389580e-04
3.58550000000000e+00 6.62620466634332e-02 6.63602224104196e-04
3.60570000000000e+00 6.58045588318932e-02 6.60874378152030e-04
3.62590000000000e+00 6.53502295975676e-02 6.58147416838689e-04
3.64610000000000e+00 6.48990371528023e-02 6.55421536218058e-04
3.66630000000000e+00 6.44509598405081e-02 6.52696928173508e-04
3.68650000000000e+00 6.40059761531212e-02 6.49973780497242e-04
3.70670000000000e+00 6.35640647315707e-02 6.47252276967990e-04
3.72690000000000e+00 6.31252043642534e-02 6.44532597427074e-04
3.74710000000000e+00 6.26893739860159e-02 6.41814917852666e-04
3.76730000000000e+00 6.22565526771432e-02 6.39099410432763e-04
3.78750000000000e+00 6.18267196623545e-02 6.36386243636377e-04
3.80770000000000e+00 6.13998543098063e-02 6.33675582283173e-04
3.82790000000000e+00 6.09759361301019e-02 6.30967587611874e-04
3.84810000000000e+00 6.05549447753078e-02 6.28262417347097e-04
3.86830000000000e+00 6.01368600379771e-02 6.25560225764736e-04
3.88850000000000e+00 5.97216618501800e-02 6.22861163756153e-04
3.90870000000000e+00 5.93093302825396e-02 6.20165378891008e-04
3.92890000000000e+00 5.88998455432761e-02 6.17473015478645e-04
3.94910000000000e+00 5.84931879772565e-02 6.14784214628348e-04
3.96930000000000e+00 5.80893380650513e-02 6.12099114308394e-04
3.98950000000000e+00 5.76882764219972e-02 6.09417849403889e-04
4.00970000000000e+00 5.72899837972670e-02 6.06740551773314e-04
4.02990000000000e+00 5.68944410729456e-02 6.04067350304092e-04
4.05010000000000e+00 5.65016292631121e-02 6.01398370967011e-04
4.07030000000000e+00 5.61115295129287e-02 5.98733736869476e-04
4.09050000000000e+00 5.57241230977353e-02 5.96073568307797e-04
4.11070000000000e+00 5.53393914221513e-02 5.93417982818377e-04
4.13090000000000e+00 5.49573160191827e-02 5.90767095227940e-04
4.15110000000000e+00 5.45778785493355e-02 5.88121017702734e-04
4.17130000000000e+00 5.42010607997358e-02 5.85479859796829e-04
4.19150000000000e+00 5.38268446832554e-02 5.82843728499424e-04
4.21170000000000e+00 5.34552122376436e-02 5.80212728281207e-04
4.23190000000000e+00 5.30861456246650e-02 5.77586961139914e-04
4.25210000000000e+00 5.27196271292434e-02 5.74966526644913e-04
4.27230000000000e+00 5.23556391586114e-02 5.72351521980949e-04
4.29250000000000e+00 5.19941642414659e-02 5.69742041991168e-04
4.31270000000000e+00 5.16351850271296e-02 5.67138179219200e-04
4.33290000000000e+00 5.12786842847181e-02 5.64540023950368e-04
4.35310000000000e+00 5.09246449023129e-02 5.61947664252339e-04
4.37330000000000e+00 5.05730498861398e-02 5.59361186014898e-04
4.39350000000000e+00 5.02238823597535e-02 5.56780672988881e-04
4.41370000000000e+00 4.98771255632274e-02 5.54206206824537e-04
4.43390000000000e+00 4.95327628523492e-02 5.51637867109082e-04
4.45410000000000e+00 4.91907776978219e-02 5.49075731403541e-04
4.47430000000000e+00 4.88511536844702e-02 5.46519875278950e-04
4.49450000000000e+00 4.85138745104531e-02 5.43970372351894e-04
4.51470000000000e+00 4.81789239864810e-02 5.41427294319411e-04
4.53490000000000e+00 4.78462860350387e-02 5.38890710993156e-04
4.55510000000000e+00 4.75159446896139e-02 5.36360690333015e-04
4.57530000000000e+00 4.71878840939304e-02 5.33837298480078e-04
4.59550000000000e+00 4.68620885011873e-02 5.31320599789030e-04
4.61570000000000e+00 4.65385422733032e-02 5.28810656859973e-04
4.63590000000000e+00 4.62172298801654e-02 5.26307530569591e-04
4.65610000000000e+00 4.58981358988845e-02 5.23811280101829e-04
4.67630000000000e+00 4.55812450130543e-02 5.21321962978056e-04
4.69650000000000e+00 4.52665420120162e-02 5.18839635086545e-04
4.71670000000000e+00 4.49540117901296e-02 5.16364350711505e-04
4.73690000000000e+00 4.46436393460464e-02 5.13896162561643e-04
4.75710000000000e+00 4.43354097819913e-02 5.11435121798126e-04
4.77730000000000e+00 4.40293083030465e-02 5.08981278062150e-04
4.79750000000000e+00 4.37253202164413e-02 5.06534679501902e-04
4.81770000000000e+00 4.34234309308476e-02 5.04095372799113e-04
4.83790000000000e+00 4.31236259556786e-02 5.01663403195162e-04
4.85810000000000e+00 4.28258909003942e-02 4.99238814516649e-04
4.87830000000000e+00 4.25302114738093e-02 4.96821649200601e-04
4.89850000000000e+00 4.22365734834087e-02 4.94411948319188e-04
4.91870000000000e+00 4.19449628346652e-02 4.92009751603980e-04
4.93890000000000e+00 4.16553655303634e-02 4.89615097469856e-04
4.95910000000000e+00 4.13677676699278e-02 4.87228023038508e-04
4.97930000000000e+00 4.10821554487556e-02 4.84848564161365e-04
4.99950000000000e+00 4.07985151575539e-02 4.82476755442301e-04
5.01970000000000e+00 4.05168331816819e-02 4.80112630259984e-04
5.03990000000000e+00 4.02370960004973e-02 4.77756220789620e-04
5.06010000000000e+00 3.99592901867073e-02 4.75407558024518e-04
5.08030000000000e+00 3.96834024057240e-02 4.73066671797215e-04
5.10050000000000e+00 3.94094194150245e-02 4.70733590800229e-04
5.12070000000000e+00 3.91373280635152e-02 4.68408342606489e-04
5.14090000000000e+00 3.88671152909007e-02 4.66090953689348e-04
5.16110000000000e+00 3.85987681270565e-02 4.63781449442432e-04
5.18130000000000e+00 3.83322736914069e-02 4.61479854198896e-04
5.20150000000000e+00 3.80676191923066e-02 4.59186191250512e-04
5.22170000000000e+00 3.78047919264265e-02 4.56900482866497e-04
5.24190000000000e+00 3.75437792781441e-02 4.54622750311842e-04
5.26210000000000e+00 3.72845687189380e-02 4.52353013865417e-04
5.28230000000000e+00 3.70271478067865e-02 4.50091292837833e-04
5.30250000000000e+00 3.67715041855704e-02 4.47837605588963e-04
5.32270000000000e+00 3.65176255844798e-02 4.45591969545076e-04
5.34290000000000e+00 3.62654998174252e-02 4.43354401215780e-04
5.36310000000000e+00 3.60151147824526e-02 4.41124916210690e-04
5.38330000000000e+00 3.57664584611625e-02 4.38903529255801e-04
5.40350000000000e+00 3.55195189181332e-02 4.36690254209555e-04
5.42370000000000e+00 3.52742843003476e-02 4.34485104078684e-04
5.44390000000000e+00 3.50307428366248e-02 4.32288091033767e-04
5.46410000000000e+00 3.47888828370543e-02 4.30099226424494e-04
5.48430000000000e+00 3.45486926924357e-02 4.27918520794734e-04
5.50450000000000e+00 3.43101608737208e-02 4.25745983897356e-04
5.52470000000000e+00 3.40732759314607e-02 4.23581624708769e-04
5.54490000000000e+00 3.38380264952560e-02 4.21425451443240e-04
5.56510000000000e+00 3.36044012732109e-02 4.19277471566939e-04
5.58530000000000e+00 3.33723890513916e-02 4.17137691811862e-04
5.60550000000000e+00 3.31419786932876e-02 4.15006118189409e-04
5.62570000000000e+00 3.29131591392774e-02 4.12882756003716e-04
5.64590000000000e+00 3.26859194060975e-02 4.10767609864921e-04
5.66610000000000e+00 3.24602485863153e-02 4.08660683702096e-04
5.68630000000000e+00 3.22361358478056e-02 4.06561980775983e-04
5.70650000000000e+00 3.20135704332306e-02 4.04471503691541e-04
5.72670000000000e+00 3.17925416595235e-02 4.02389254410283e-04
5.74690000000000e+00 3.15730389173756e-02 4.00315234262412e-04
5.76710000000000e+00 3.13550516707274e-02 3.98249443958748e-04
5.78730000000000e+00 3.11385694562628e-02 3.96191883602468e-04
5.80750000000000e+00 3.09235818829064e-02 3.94142552700681e-04
5.82770000000000e+00 3.07100786313255e-02 3.92101450175789e-04
5.84790000000000e+00 3.04980494534339e-02 3.90068574376613e-04
5.86810000000000e+00 3.02874841719008e-02 3.88043923089429e-04
5.88830000000000e+00 3.00783726796619e-02 3.86027493548807e-04
5.90850000000000e+00 2.98707049394341e-02 3.84019282448228e-04
5.92870000000000e+00 2.96644709832341e-02 3.82019285950571e-04
5.94890000000000e+00 2.94596609118998e-02 3.80027499698434e-04
5.96910000000000e+00 2.92562648946150e-02 3.78043918824178e-04
5.98930000000000e+00 2.90542731684377e-02 3.76068537960005e-04
6.00950000000000e+00 2.88536760378313e-02 3.74101351247742e-04
6.02970000000000e+00 2.86544638741994e-02 3.72142352348449e-04
6.04990000000000e+00 2.84566271154236e-02 3.70191534451995e-04
6.07010000000000e+00 2.82601562654045e-02 3.68248890286343e-04
6.09030000000000e+00 2.80650418936057e-02 3.66314412126755e-04
6.11050000000000e+00 2.78712746346015e-02 3.64388091804862e-04
6.13070000000000e+00 2.76788451876272e-02 3.62469920717546e-04
6.15090000000000e+00 2.74877443161324e-02 3.60559889835708e-04
6.17110000000000e+00 2.72979628473380e-02 3.58657989712869e-04
6.19130000000000e+00 2.71094916717959e-02 3.56764210493645e-04
6.21150000000000e+00 2.69223217429515e-02 3.54878541922162e-04
6.23170000000000e+00 2.67364440767098e-02 3.53000973350197e-04
6.25190000000000e+00 2.65518497510038e-02 3.51131493745239e-04
6.27210000000000e+00 2.63685299053664e-02 3.49270091698478e-04
6.29230000000000e+00 2.61864757405053e-02 3.47416755432617e-04
6.31250000000000e+00 2.60056785178803e-02 3.45571472809593e-04
6.33270000000000e+00 2.58261295592842e-02 3.43734231338119e-04
6.35290000000000e+00 2.56478202464258e-02 3.41905018181121e-04
6.37310000000000e+00 2.54707420205168e-02 3.40083820163110e-04
