Energy (eV)          EEDF (eV^-(3/2))     First Anisotropy
3.70000000000000e-04 6.87625303217997e+01 3.63768446650028e-02
1.11000000000000e-03 6.79760118439126e+01 5.99264335283777e-02
1.85000000000000e-03 6.71984897091589e+01 7.87341899810568e-02
2.59000000000000e-03 6.64298610156941e+01 9.27961285126815e-02
3.33000000000000e-03 6.56700240386967e+01 1.04338043968227e-01
4.07000000000000e-03 6.49188782168945e+01 1.14207277863083e-01
4.81000000000000e-03 6.41763241392544e+01 1.22845198554126e-01
5.55000000000000e-03 6.34422635318250e+01 1.30520032109386e-01
6.29000000000000e-03 6.27165992447307e+01 1.37410783833262e-01
7.03000000000000e-03 6.19992352393140e+01 1.43644751624486e-01
7.77000000000000e-03 6.12900765754253e+01 1.49316741498815e-01
8.51000000000000e-03 6.05890293988579e+01 1.54499891201767e-01
9.25000000000000e-03 5.98960009289269e+01 1.59252211974455e-01
9.99000000000000e-03 5.92108994461898e+01 1.63620764150713e-01
1.07300000000000e-02 5.85336342803082e+01 1.67644441305234e-01
1.14700000000000e-02 5.78641157980475e+01 1.71355894209044e-01
1.22100000000000e-02 5.72022553914147e+01 1.74782900684466e-01
1.29500000000000e-02 5.65479654659311e+01 1.77949366003338e-01
1.36900000000000e-02 5.59011594290401e+01 1.80876069597784e-01
1.44300000000000e-02 5.52617516786464e+01 1.83581233104549e-01
1.51700000000000e-02 5.46296575917874e+01 1.86080959765716e-01
1.59100000000000e-02 5.40047935134335e+01 1.88389579382887e-01
1.66500000000000e-02 5.33870767454167e+01 1.90519922723178e-01
1.73900000000000e-02 5.27764255354859e+01 1.92483542408311e-01
1.81300000000000e-02 5.21727590664872e+01 1.94290892638678e-01
1.88700000000000e-02 5.15759974456682e+01 1.95951476853117e-01
1.96100000000000e-02 5.09860616941047e+01 1.97473970126260e-01
2.03500000000000e-02 5.04028737362478e+01 1.98866321453664e-01
2.10900000000000e-02 4.98263563895911e+01 2.00135839871122e-01
2.18300000000000e-02 4.92564333544558e+01 2.01289267465260e-01
2.25700000000000e-02 4.86930292038933e+01 2.02332841667558e-01
2.33100000000000e-02 4.81360693737017e+01 2.03272348721150e-01
2.40500000000000e-02 4.75854801525587e+01 2.04113169825580e-01
2.47900000000000e-02 4.70411886722654e+01 2.04860321168214e-01
2.55300000000000e-02 4.65031228981029e+01 2.05518488820329e-01
2.62700000000000e-02 4.59712116192985e+01 2.06092059294664e-01
2.70100000000000e-02 4.54453844396016e+01 2.06585146417949e-01
2.77500000000000e-02 4.49255717679668e+01 2.07001615057725e-01
2.84900000000000e-02 4.44117048093439e+01 2.07345102150922e-01
2.92300000000000e-02 4.39037155555730e+01 2.07619035407795e-01
2.99700000000000e-02 4.34015367763844e+01 2.07826650004439e-01
3.07100000000000e-02 4.29051020105003e+01 2.07971003528010e-01
3.14500000000000e-02 4.24143455568392e+01 2.08054989398263e-01
3.21900000000000e-02 4.19292024658209e+01 2.08081348955615e-01
3.29300000000000e-02 4.14496085307703e+01 2.08052682378137e-01
3.36700000000000e-02 4.09755002794202e+01 2.07971458566787e-01
3.44100000000000e-02 4.05068149655106e+01 2.07840024118755e-01
3.51500000000000e-02 4.00434905604850e+01 2.07660611492478e-01
3.58900000000000e-02 3.95854657452809e+01 2.07435346454058e-01
3.66300000000000e-02 3.91326799022145e+01 2.07166254883105e-01
3.73700000000000e-02 3.86850731069583e+01 2.06855269006113e-01
3.81100000000000e-02 3.82425861206101e+01 2.06504233116946e-01
3.88500000000000e-02 3.78051603818533e+01 2.06114908836646e-01
3.95900000000000e-02 3.73727379992065e+01 2.05688979958578e-01
4.03300000000000e-02 3.69452617433616e+01 2.05228056919497e-01
4.10700000000000e-02 3.65226750396099e+01 2.04733680932398e-01
4.18100000000000e-02 3.61049219603545e+01 2.04207327812934e-01
4.25500000000000e-02 3.56919472177089e+01 2.03650411527737e-01
4.32900000000000e-02 3.52836961561794e+01 2.03064287489812e-01
4.40300000000000e-02 3.48801147454321e+01 2.02450255623434e-01
4.47700000000000e-02 3.44811495731417e+01 2.01809563218704e-01
4.55100000000000e-02 3.40867478379231e+01 2.01143407593823e-01
4.62500000000000e-02 3.36968573423433e+01 2.00452938581212e-01
4.69900000000000e-02 3.33114264860130e+01 1.99739260852085e-01
4.77300000000000e-02 3.29304042587575e+01 1.99003436092611e-01
4.84700000000000e-02 3.25537402338661e+01 1.98246485043546e-01
4.92100000000000e-02 3.21813845614181e+01 1.97469389414019e-01
4.99500000000000e-02 3.18132879616851e+01 1.96673093679262e-01
5.06900000000000e-02 3.14494017186096e+01 1.95858506771097e-01
5.14300000000000e-02 3.10896776733572e+01 1.95026503669173e-01
5.21700000000000e-02 3.07340682179431e+01 1.94177926900306e-01
5.29100000000000e-02 3.03825262889315e+01 1.93313587952574e-01
5.36500000000000e-02 3.00350053612067e+01 1.92434268610248e-01
5.43900000000000e-02 2.96914594418158e+01 1.91540722215132e-01
5.51300000000000e-02 2.93518430638821e+01 1.90633674859412e-01
5.58700000000000e-02 2.90161112805870e+01 1.89713826514677e-01
5.66100000000000e-02 2.86842196592220e+01 1.88781852101417e-01
5.73500000000000e-02 2.83561242753083e+01 1.87838402502938e-01
5.80900000000000e-02 2.80317817067831e+01 1.86884105527310e-01
5.88300000000000e-02 2.77111490282533e+01 1.85919566820708e-01
5.95700000000000e-02 2.73941838053144e+01 1.84945370735244e-01
6.03100000000000e-02 2.70808440889342e+01 1.83962081154124e-01
6.10500000000000e-02 2.67710884099015e+01 1.82970242276733e-01
6.17900000000000e-02 2.64648757733374e+01 1.81970379366157e-01
6.25300000000000e-02 2.61621656532700e+01 1.80962999461375e-01
6.32700000000000e-02 2.58629179872710e+01 1.79948592056161e-01
6.40100000000000e-02 2.55670931711535e+01 1.78927629746718e-01
6.47500000000000e-02 2.52746520537305e+01 1.77900568849829e-01
6.54900000000000e-02 2.49855559316337e+01 1.76867849993179e-01
6.62300000000000e-02 2.46997665441908e+01 1.75829898679464e-01
6.69700000000000e-02 2.44172460683621e+01 1.74787125825677e-01
6.77100000000000e-02 2.41379571137351e+01 1.73739928278996e-01
6.84500000000000e-02 2.38618627175754e+01 1.72688689310551e-01
6.91900000000000e-02 2.35889263399353e+01 1.71633779088159e-01
6.99300000000000e-02 2.33191118588178e+01 1.70575555129255e-01
7.06700000000000e-02 2.30523835653958e+01 1.69514362734999e-01
7.14100000000000e-02 2.27887061592864e+01 1.68450535406534e-01
7.21500000000000e-02 2.25280447438791e+01 1.67384395244312e-01
7.28900000000000e-02 2.22703648217170e+01 1.66316253331358e-01
7.36300000000000e-02 2.20156322899317e+01 1.65246410101241e-01
7.43700000000000e-02 2.17638134357295e+01 1.64175155691542e-01
7.51100000000000e-02 2.15148749319301e+01 1.63102770283525e-01
7.58500000000000e-02 2.12687838325552e+01 1.62029524428631e-01
7.65900000000000e-02 2.10255075684691e+01 1.60955679362477e-01
7.73300000000000e-02 2.07850139430677e+01 1.59881487306949e-01
7.80700000000000e-02 2.05472711280174e+01 1.58807191760909e-01
7.88100000000000e-02 2.03122476590433e+01 1.57733027780063e-01
7.95500000000000e-02 2.00799124317644e+01 1.56659222246480e-01
8.02900000000000e-02 1.98502346975773e+01 1.55585994128269e-01
8.10300000000000e-02 1.96231840595871e+01 1.54513554729792e-01
8.17700000000000e-02 1.93987304685837e+01 1.53442107932865e-01
8.25100000000000e-02 1.91768442190660e+01 1.52371850429367e-01
8.32500000000000e-02 1.89574959453093e+01 1.51302971945592e-01
8.39900000000000e-02 1.87406566174798e+01 1.50235655458705e-01
8.47300000000000e-02 1.85262975377922e+01 1.49170077405663e-01
8.54700000000000e-02 1.83143903367118e+01 1.48106407884906e-01
8.62100000000000e-02 1.81049069691997e+01 1.47044810851112e-01
8.69500000000000e-02 1.78978197110015e+01 1.45985444303314e-01
8.76900000000000e-02 1.76931011549779e+01 1.44928460466654e-01
8.84300000000000e-02 1.74907242074774e+01 1.43874005968021e-01
8.91700000000000e-02 1.72906620847508e+01 1.42822222005846e-01
8.99100000000000e-02 1.70928883094062e+01 1.41773244514250e-01
9.06500000000000e-02 1.68973767069050e+01 1.40727204321795e-01
9.13900000000000e-02 1.67041014020980e+01 1.39684227305046e-01
9.21300000000000e-02 1.65130368158005e+01 1.38644434537140e-01
9.28700000000000e-02 1.63241576614074e+01 1.37607942431566e-01
9.36100000000000e-02 1.61374389415462e+01 1.36574862881338e-01
9.43500000000000e-02 1.59528559447691e+01 1.35545303393707e-01
9.50900000000000e-02 1.57703842422825e+01 1.34519367220622e-01
9.58300000000000e-02 1.55899996847135e+01 1.33497153485079e-01
9.65700000000000e-02 1.54116783989146e+01 1.32478757303515e-01
9.73100000000000e-02 1.52353967848034e+01 1.31464269904385e-01
9.80500000000000e-02 1.50611315122399e+01 1.30453778743063e-01
9.87900000000000e-02 1.48888595179381e+01 1.29447367613207e-01
9.95300000000000e-02 1.47185580024146e+01 1.28445116754710e-01
1.00270000000000e-01 1.45502044269703e+01 1.27447102958375e-01
1.01010000000000e-01 1.43837765107082e+01 1.26453399667390e-01
1.01750000000000e-01 1.42192522275840e+01 1.25464077075754e-01
1.02490000000000e-01 1.40566098034916e+01 1.24479202223755e-01
1.03230000000000e-01 1.38958277133810e+01 1.23498839090576e-01
1.03970000000000e-01 1.37368846784096e+01 1.22523048684158e-01
1.04710000000000e-01 1.35797596631265e+01 1.21551889128409e-01
1.05450000000000e-01 1.34244318726876e+01 1.20585415747826e-01
1.06190000000000e-01 1.32708807501045e+01 1.19623681149650e-01
1.06930000000000e-01 1.31190859735233e+01 1.18666735303600e-01
1.07670000000000e-01 1.29690274535351e+01 1.17714625619290e-01
1.08410000000000e-01 1.28206853305174e+01 1.16767397021434e-01
1.09150000000000e-01 1.26740399720058e+01 1.15825092022828e-01
1.09890000000000e-01 1.25290719700955e+01 1.14887750795276e-01
1.10630000000000e-01 1.23857621388730e+01 1.13955411238458e-01
1.11370000000000e-01 1.22440915118769e+01 1.13028109046843e-01
1.12110000000000e-01 1.21040413395874e+01 1.12105877774704e-01
1.12850000000000e-01 1.19655930869454e+01 1.11188748899274e-01
1.13590000000000e-01 1.18287284308990e+01 1.10276751882124e-01
1.14330000000000e-01 1.16934292579791e+01 1.09369914228828e-01
1.15070000000000e-01 1.15596776619014e+01 1.08468261546925e-01
1.15810000000000e-01 1.14274559411972e+01 1.07571817602278e-01
1.16550000000000e-01 1.12967465968703e+01 1.06680604373868e-01
1.17290000000000e-01 1.11675323300815e+01 1.05794642107039e-01
1.18030000000000e-01 1.10397960398587e+01 1.04913949365286e-01
1.18770000000000e-01 1.09135208208338e+01 1.04038543080603e-01
1.19510000000000e-01 1.07886899610056e+01 1.03168438602451e-01
1.20250000000000e-01 1.06652869395277e+01 1.02303649745365e-01
1.20990000000000e-01 1.05432954245224e+01 1.01444188835253e-01
1.21730000000000e-01 1.04226992709187e+01 1.00590066754455e-01
1.22470000000000e-01 1.03034825183162e+01 9.97412929855439e-02
1.23210000000000e-01 1.01856293888723e+01 9.88978756539264e-02
1.23950000000000e-01 1.00691242852144e+01 9.80598215693157e-02
1.24690000000000e-01 9.95395178837536e+00 9.72271362660662e-02
1.25430000000000e-01 9.84009665575313e+00 9.63998240423896e-02
1.26170000000000e-01 9.72754381909336e+00 9.55778879985471e-02
1.26910000000000e-01 9.61627838249513e+00 9.47613300740071e-02
1.27650000000000e-01 9.50628562043958e+00 9.39501510835758e-02
1.28390000000000e-01 9.39755097584105e+00 9.31443507525759e-02
1.29130000000000e-01 9.29006005812051e+00 9.23439277510838e-02
1.29870000000000e-01 9.18379864130101e+00 9.15488797272365e-02
1.30610000000000e-01 9.07875266212495e+00 9.07592033396527e-02
1.31350000000000e-01 8.97490821819287e+00 8.99748942889979e-02
1.32090000000000e-01 8.87225156612349e+00 8.91959473486844e-02
1.32830000000000e-01 8.77076911973488e+00 8.84223563947689e-02
1.33570000000000e-01 8.67044744824633e+00 8.76541144350502e-02
1.34310000000000e-01 8.57127327450089e+00 8.68912136373909e-02
1.35050000000000e-01 8.47323347320818e+00 8.61336453572889e-02
1.35790000000000e-01 8.37631506920729e+00 8.53814001647096e-02
1.36530000000000e-01 8.28050523574960e+00 8.46344678702180e-02
1.37270000000000e-01 8.18579129280121e+00 8.38928375504100e-02
1.38010000000000e-01 8.09216070536476e+00 8.31564975726693e-02
1.38750000000000e-01 7.99960108182052e+00 8.24254356192700e-02
1.39490000000000e-01 7.90810017228636e+00 8.16996387108384e-02
1.40230000000000e-01 7.81764586699659e+00 8.09790932291987e-02
1.40970000000000e-01 7.72822619469922e+00 8.02637849396204e-02
1.41710000000000e-01 7.63982932107165e+00 7.95536990124582e-02
1.42450000000000e-01 7.55244354715446e+00 7.88488200442282e-02
1.43190000000000e-01 7.46605730780305e+00 7.81491320781417e-02
1.43930000000000e-01 7.38065917015709e+00 7.74546186240775e-02
1.44670000000000e-01 7.29623783212741e+00 7.67652626780279e-02
1.45410000000000e-01 7.21278212090022e+00 7.60810467410423e-02
1.46150000000000e-01 7.13028099145842e+00 7.54019528376548e-02
1.46890000000000e-01 7.04872352511986e+00 7.47279625338384e-02
1.47630000000000e-01 6.96809892809227e+00 7.40590569544756e-02
1.48370000000000e-01 6.88839653004478e+00 7.33952168003623e-02
1.49110000000000e-01 6.80960578269572e+00 7.27364223647737e-02
1.49850000000000e-01 6.73171625841661e+00 7.20826535495825e-02
1.50590000000000e-01 6.65471764885210e+00 7.14338898809474e-02
1.51330000000000e-01 6.57859976355571e+00 7.07901105245905e-02
1.52070000000000e-01 6.50335252864115e+00 7.01512943006689e-02
1.52810000000000e-01 6.42896598544912e+00 6.95174196982477e-02
1.53550000000000e-01 6.35543028922927e+00 6.88884648893861e-02
1.54290000000000e-01 6.28273570783734e+00 6.82644077428527e-02
1.55030000000000e-01 6.21087262044711e+00 6.76452258374763e-02
1.55770000000000e-01 6.13983151627716e+00 6.70308964751308e-02
1.56510000000000e-01 6.06960299333212e+00 6.64213966933762e-02
1.57250000000000e-01 6.00017775715838e+00 6.58167032777668e-02
1.57990000000000e-01 5.93154661961401e+00 6.52167927738262e-02
1.58730000000000e-01 5.86370049765272e+00 6.46216414986949e-02
1.59470000000000e-01 5.79663041212179e+00 6.40312255524726e-02
1.60210000000000e-01 5.73032748657370e+00 6.34455208292429e-02
1.60950000000000e-01 5.66478294609135e+00 6.28645030278096e-02
1.61690000000000e-01 5.59998811612679e+00 6.22881476621477e-02
1.62430000000000e-01 5.53593442135313e+00 6.17164300715515e-02
1.63170000000000e-01 5.47261338452964e+00 6.11493254305244e-02
1.63910000000000e-01 5.41001662537984e+00 6.05868087583903e-02
1.64650000000000e-01 5.34813585948239e+00 6.00288549286437e-02
1.65390000000000e-01 5.28696289717469e+00 5.94754386780440e-02
1.66130000000000e-01 5.22648964246901e+00 5.89265346154624e-02
1.66870000000000e-01 5.16670809198101e+00 5.83821172304803e-02
1.67610000000000e-01 5.10761033387053e+00 5.78421609017523e-02
1.68350000000000e-01 5.04918854679452e+00 5.73066399051387e-02
1.69090000000000e-01 4.99143499887186e+00 5.67755284216111e-02
1.69830000000000e-01 4.93434204666012e+00 5.62488005449378e-02
1.70570000000000e-01 4.87790213414398e+00 5.57264302891518e-02
1.71310000000000e-01 4.82210779173520e+00 5.52083915958116e-02
1.72050000000000e-01 4.76695163528408e+00 5.46946583410566e-02
1.72790000000000e-01 4.71242636510217e+00 5.41852043424653e-02
1.73530000000000e-01 4.65852476499620e+00 5.36800033657152e-02
1.74270000000000e-01 4.60523970131306e+00 5.31790291310552e-02
1.75010000000000e-01 4.55256412199567e+00 5.26822553195914e-02
1.75750000000000e-01 4.50049105564968e+00 5.21896555793944e-02
1.76490000000000e-01 4.44901361062082e+00 5.17012035314305e-02
1.77230000000000e-01 4.39812497408284e+00 5.12168727753169e-02
1.77970000000000e-01 4.34781841113585e+00 5.07366368949130e-02
1.78710000000000e-01 4.29808726391498e+00 5.02604694637489e-02
1.79450000000000e-01 4.24892495070925e+00 4.97883440502903e-02
1.80190000000000e-01 4.20032496509050e+00 4.93202342230547e-02
1.80930000000000e-01 4.15228087505229e+00 4.88561135555662e-02
1.81670000000000e-01 4.10478632215865e+00 4.83959556311725e-02
1.82410000000000e-01 4.05783502070258e+00 4.79397340477113e-02
1.83150000000000e-01 4.01142075687415e+00 4.74874224220322e-02
1.83890000000000e-01 3.96553738793813e+00 4.70389943943923e-02
1.84630000000000e-01 3.92017884142103e+00 4.65944236327097e-02
1.85370000000000e-01 3.87533911430743e+00 4.61536838366873e-02
1.86110000000000e-01 3.83101227224549e+00 4.57167487418083e-02
1.86850000000000e-01 3.78719244876159e+00 4.52835921232090e-02
1.87590000000000e-01 3.74387384448393e+00 4.48541877994331e-02
1.88330000000000e-01 3.70105072637497e+00 4.44285096360601e-02
1.89070000000000e-01 3.65871742697272e+00 4.40065315492243e-02
1.89810000000000e-01 3.61686834364065e+00 4.35882275090176e-02
1.90550000000000e-01 3.57549793782623e+00 4.31735715427850e-02
1.91290000000000e-01 3.53460073432791e+00 4.27625377383095e-02
1.92030000000000e-01 3.49417132057051e+00 4.23551002468992e-02
1.92770000000000e-01 3.45420434588887e+00 4.19512332863643e-02
1.93510000000000e-01 3.41469452081974e+00 4.15509111438961e-02
1.94250000000000e-01 3.37563661640169e+00 4.11541081788558e-02
1.94990000000000e-01 3.33702546348314e+00 4.07607988254579e-02
1.95730000000000e-01 3.29885595203822e+00 4.03709575953714e-02
1.96470000000000e-01 3.26112303049047e+00 3.99845590802262e-02
1.97210000000000e-01 3.22382170504429e+00 3.96015779540297e-02
1.97950000000000e-01 3.18694703902403e+00 3.92219889755019e-02
1.98690000000000e-01 3.15049415222064e+00 3.88457669903222e-02
1.99430000000000e-01 3.11445822024582e+00 3.84728869333017e-02
2.00170000000000e-01 3.07883447389350e+00 3.81033238304686e-02
2.00910000000000e-01 3.04361819850865e+00 3.77370528010814e-02
2.01650000000000e-01 3.00880473336335e+00 3.73740490595624e-02
2.02390000000000e-01 2.97438947103995e+00 3.70142879173604e-02
2.03130000000000e-01 2.94036785682128e+00 3.66577447847442e-02
2.03870000000000e-01 2.90673538808787e+00 3.63043951725195e-02
2.04610000000000e-01 2.87348761372202e+00 3.59542146936799e-02
2.05350000000000e-01 2.84062013351876e+00 3.56071790649930e-02
2.06090000000000e-01 2.80812859760347e+00 3.52632641085234e-02
2.06830000000000e-01 2.77600870585618e+00 3.49224457530884e-02
2.07570000000000e-01 2.74425620734250e+00 3.45847000356506e-02
2.08310000000000e-01 2.71286689975099e+00 3.42500031026582e-02
2.09050000000000e-01 2.68183662883706e+00 3.39183312113171e-02
2.09790000000000e-01 2.65116128787309e+00 3.35896607308133e-02
2.10530000000000e-01 2.62083681710499e+00 3.32639681434781e-02
2.11270000000000e-01 2.59085920321489e+00 3.29412300458930e-02
2.12010000000000e-01 2.56122447878996e+00 3.26214231499524e-02
2.12750000000000e-01 2.53192872179741e+00 3.23045242838674e-02
2.13490000000000e-01 2.50296805506534e+00 3.19905103931179e-02
2.14230000000000e-01 2.47433864576969e+00 3.16793585413631e-02
2.14970000000000e-01 2.44603670492692e+00 3.13710459112977e-02
2.15710000000000e-01 2.41805848689260e+00 3.10655498054658e-02
2.16450000000000e-01 2.39040028886567e+00 3.07628476470286e-02
2.17190000000000e-01 2.36305845039838e+00 3.04629169804862e-02
2.17930000000000e-01 2.33602935291186e+00 3.01657354723609e-02
2.18670000000000e-01 2.30930941921721e+00 2.98712809118304e-02
2.19410000000000e-01 2.28289511304207e+00 2.95795312113311e-02
2.20150000000000e-01 2.25678293856263e+00 2.92904644071155e-02
2.20890000000000e-01 2.23096943994094e+00 2.90040586597705e-02
2.21630000000000e-01 2.20545120086757e+00 2.87202922547015e-02
2.22370000000000e-01 2.18022484410946e+00 2.84391436025784e-02
2.23110000000000e-01 2.15528703106297e+00 2.81605912397443e-02
2.23850000000000e-01 2.13063446131201e+00 2.78846138285931e-02
2.24590000000000e-01 2.10626387219127e+00 2.76111901579115e-02
2.25330000000000e-01 2.08217203835440e+00 2.73402991431880e-02
2.26070000000000e-01 2.05835577134717e+00 2.70719198268924e-02
2.26810000000000e-01 2.03481191918544e+00 2.68060313787209e-02
2.27550000000000e-01 2.01153736593809e+00 2.65426130958123e-02
2.28290000000000e-01 1.98852903131456e+00 2.62816444029363e-02
2.29030000000000e-01 1.96578387025724e+00 2.60231048526531e-02
2.29770000000000e-01 1.94329887253843e+00 2.57669741254428e-02
2.30510000000000e-01 1.92107106236199e+00 2.55132320298110e-02
2.31250000000000e-01 1.89909749796947e+00 2.52618585023661e-02
2.31990000000000e-01 1.87737527125079e+00 2.50128336078728e-02
2.32730000000000e-01 1.85590150735940e+00 2.47661375392798e-02
2.33470000000000e-01 1.83467336433173e+00 2.45217506177208e-02
