Energy (eV)          EEDF (eV^-(3/2))     First Anisotropy
5.20000000000000e-03 1.81706656702811e+02 2.19985209153780e-01
1.56000000000000e-02 1.28213349261700e+02 3.10832603546608e-01
2.60000000000000e-02 9.04681381914849e+01 2.91494304977139e-01
3.64000000000000e-02 6.38348820537246e+01 2.45219579947531e-01
4.68000000000000e-02 4.50422905596665e+01 1.96800661232223e-01
5.72000000000000e-02 3.17821208967527e+01 1.53757468083098e-01
6.76000000000000e-02 2.24256625527901e+01 1.18048154334414e-01
7.80000000000000e-02 1.58236872411808e+01 8.95234401789927e-02
8.84000000000000e-02 1.11652923215665e+01 6.72727194187940e-02
9.88000000000000e-02 7.87829983782776e+00 5.01956989218070e-02
1.09200000000000e-01 5.55897745864021e+00 3.72429284712045e-02
1.19600000000000e-01 3.92244913519189e+00 2.75056601738356e-02
1.30000000000000e-01 2.76770455225612e+00 2.02366185029626e-02
1.40400000000000e-01 1.95290957882733e+00 1.48405318016190e-02
1.50800000000000e-01 1.37798516823866e+00 1.08532243672294e-02
1.61200000000000e-01 9.72314921526439e-01 7.91821422209652e-03
1.71600000000000e-01 6.86071467540808e-01 5.76481955744344e-03
1.82000000000000e-01 4.84096302702682e-01 4.18930323089233e-03
1.92400000000000e-01 3.41581367798928e-01 3.03938027059789e-03
2.02800000000000e-01 2.41021941659089e-01 2.20186549852071e-03
2.13200000000000e-01 1.70066583945858e-01 1.59302656206717e-03
2.23600000000000e-01 1.20000041390102e-01 1.15116223163695e-03
2.34000000000000e-01 8.46727769766377e-02 8.30957149334763e-04
2.44400000000000e-01 5.97456390671443e-02 5.99225671595753e-04
2.54800000000000e-01 4.21568952265067e-02 4.31725625888525e-04
2.65200000000000e-01 2.97461679695379e-02 3.10786754577562e-04
2.75600000000000e-01 2.09890814804505e-02 2.23553973709664e-04
2.86000000000000e-01 1.48100266845845e-02 1.60691295797490e-04
2.96400000000000e-01 1.04500471162780e-02 1.15428899897932e-04
3.06800000000000e-01 7.37361836397619e-03 8.28645705598404e-05
3.17200000000000e-01 5.20287106580359e-03 5.94529243943375e-05
3.27600000000000e-01 3.67117824535454e-03 4.26327867733569e-05
3.38000000000000e-01 2.59040624661008e-03 3.05558957831695e-05
3.48400000000000e-01 1.82780678954162e-03 2.18897306764014e-05
3.58800000000000e-01 1.28971186054947e-03 1.56744403309227e-05
3.69200000000000e-01 9.10028725552063e-04 1.12191764871193e-05
3.79600000000000e-01 6.42121939529257e-04 8.02707627022513e-06
3.90000000000000e-01 4.53085241869353e-04 5.74104045482648e-06
4.00400000000000e-01 3.19699770031696e-04 4.10458477971439e-06
4.10800000000000e-01 2.25582149920899e-04 2.93360200944086e-06
4.21200000000000e-01 1.59172170683419e-04 2.09601235711957e-06
4.31600000000000e-01 1.12312875504359e-04 1.49711087485202e-06
4.42000000000000e-01 7.92486648256259e-05 1.06902506688905e-06
4.52400000000000e-01 5.59183517334186e-05 7.63135197104652e-07
4.62800000000000e-01 3.94563374343591e-05 5.44628326161797e-07
4.73200000000000e-01 2.78406375630635e-05 3.88587852001435e-07
4.83600000000000e-01 1.96445273514640e-05 2.77187245103303e-07
4.94000000000000e-01 1.38613009126775e-05 1.97677282732216e-07
5.04400000000000e-01 9.78062029970280e-06 1.40943149254783e-07
5.14800000000000e-01 6.90126663071482e-06 1.00470554991492e-07
5.25200000000000e-01 4.86957673938790e-06 7.16052639622147e-08
5.35600000000000e-01 3.43600369173558e-06 5.10229890552181e-08
5.46000000000000e-01 2.42446561610293e-06 3.63500423430495e-08
5.56400000000000e-01 1.71071804660845e-06 2.58919711862427e-08
5.66800000000000e-01 1.20709331390559e-06 1.84395110093872e-08
5.77200000000000e-01 8.51732564208508e-07 1.31298733669646e-08
5.87600000000000e-01 6.00987804816834e-07 9.34762198134353e-09
5.98000000000000e-01 4.24060740091812e-07 6.65386042978923e-09
6.08400000000000e-01 2.99219900713330e-07 4.73566009004212e-09
6.18800000000000e-01 2.11131426511001e-07 3.36995325330566e-09
6.29200000000000e-01 1.48975650196733e-07 2.39776085407732e-09
6.39600000000000e-01 1.05118147110056e-07 1.70580154148179e-09
6.50000000000000e-01 7.41720196371640e-08 1.21337125606319e-09
6.60400000000000e-01 5.23362392536840e-08 8.62985084928415e-10
6.70800000000000e-01 3.69287765469775e-08 6.13704068921575e-10
6.81200000000000e-01 2.60571748506098e-08 4.36377650310341e-10
6.91600000000000e-01 1.83861049480348e-08 3.10252552332610e-10
7.02000000000000e-01 1.29733502230476e-08 2.20556115911732e-10
7.12400000000000e-01 9.15407675989791e-09 1.56774408517320e-10
7.22800000000000e-01 6.45917360476668e-09 1.11425590146631e-10
7.33200000000000e-01 4.55763314540744e-09 7.91862440577206e-11
7.43600000000000e-01 3.21589434796850e-09 5.62692130755526e-11
7.54000000000000e-01 2.26915509154504e-09 3.99806130997536e-11
7.64400000000000e-01 1.60112997267385e-09 2.84044727911110e-11
7.74800000000000e-01 1.12976728604699e-09 2.01782643908958e-11
7.85200000000000e-01 7.97170837099799e-10 1.43331533766820e-11
7.95600000000000e-01 5.62488710171380e-10 1.01803235993227e-11
8.06000000000000e-01 3.96895539005591e-10 7.23009997555822e-12
8.16400000000000e-01 2.80051965548861e-10 5.13441370381410e-12
8.26800000000000e-01 1.97606412015318e-10 3.64587829845154e-12
8.37200000000000e-01 1.39432315688407e-10 2.58868442054702e-12
8.47600000000000e-01 9.83843108123660e-11 1.83790278123825e-12
8.58000000000000e-01 6.94205827840887e-11 1.30476788945571e-12
8.68400000000000e-01 4.89835958019110e-11 9.26215561847725e-13
8.78800000000000e-01 3.45631304356456e-11 6.57445466826576e-13
8.89200000000000e-01 2.43879602130974e-11 4.66634643552390e-13
8.99600000000000e-01 1.72082966982129e-11 3.31180311403114e-13
9.10000000000000e-01 1.21422813825444e-11 2.35029844990131e-13
9.20400000000000e-01 8.56766940729207e-12 1.66783525588681e-13
9.30800000000000e-01 6.04540092261200e-12 1.18346537286309e-13
9.41200000000000e-01 4.26567256248385e-12 8.39712941630932e-14
9.51600000000000e-01 3.00988514132587e-12 5.95771356821819e-14
9.62000000000000e-01 2.12379371160618e-12 4.22670999711311e-14
9.72400000000000e-01 1.49856207717982e-12 2.99847131775015e-14
9.82800000000000e-01 1.05739473984181e-12 2.12702455371739e-14
9.93200000000000e-01 7.46104317513013e-13 1.50876217387049e-14
1.00360000000000e+00 5.26455855733534e-13 1.07015148335174e-14
1.01400000000000e+00 3.71470532378060e-13 7.59008091449716e-15
1.02440000000000e+00 2.62111922438342e-13 5.38300405783774e-15
1.03480000000000e+00 1.84947805804424e-13 4.47643049252216e-15
