Energy (eV)          EEDF (eV^-(3/2))     First Anisotropy
3.45161290322581e-02 7.27034219475025e-02 4.88383713411106e-05
1.03548387096774e-01 7.18982420653825e-02 8.04699851183746e-05
1.72580645161290e-01 7.11019794351404e-02 1.05764139661961e-04
2.41612903225806e-01 7.03145352983771e-02 1.24699445670169e-04
3.10645161290323e-01 6.95358119915408e-02 1.40261004229843e-04
3.79677419354839e-01 6.87657129326942e-02 1.53584582530971e-04
4.48709677419355e-01 6.80041426095340e-02 1.65261471721386e-04
5.17741935483871e-01 6.72510065675433e-02 1.75650823256353e-04
5.86774193548387e-01 6.65062113969317e-02 1.84992202401367e-04
6.55806451612903e-01 6.57696647252758e-02 1.93455889882931e-04
7.24838709677419e-01 6.50412752016031e-02 2.01168642734204e-04
7.93870967741935e-01 6.43209524866517e-02 2.08228201412213e-04
8.62903225806452e-01 6.36086072416612e-02 2.14712056341278e-04
9.31935483870968e-01 6.29041511172903e-02 2.20683042392583e-04
1.00096774193548e+00 6.22074967426574e-02 2.26193068287720e-04
1.07000000000000e+00 6.15185577151331e-02 2.31285693533160e-04
1.13903225806452e+00 6.08372485864557e-02 2.35997962312190e-04
1.20806451612903e+00 6.01634848567204e-02 2.40361742614922e-04
1.27709677419355e+00 5.94971829618775e-02 2.44404725573397e-04
1.34612903225806e+00 5.88382602683656e-02 2.48151186831177e-04
1.41516129032258e+00 5.81866350474085e-02 2.51622573438264e-04
1.48419354838710e+00 5.75422264806401e-02 2.54837964283505e-04
1.55322580645161e+00 5.69049546447193e-02 2.57814438498380e-04
1.62225806451613e+00 5.62747405014753e-02 2.60567369899037e-04
1.69129032258065e+00 5.56515058918247e-02 2.63110668400264e-04
1.76032258064516e+00 5.50351735145971e-02 2.65456976540070e-04
1.82935483870968e+00 5.44256669286294e-02 2.67617832202048e-04
1.89838709677419e+00 5.38229105393043e-02 2.69603806451150e-04
1.96741935483871e+00 5.32268295892301e-02 2.71424617793019e-04
2.03645161290323e+00 5.26373501518716e-02 2.73089230664594e-04
2.10548387096774e+00 5.20543991134399e-02 2.74605937895223e-04
2.17451612903226e+00 5.14779041729086e-02 2.75982431364611e-04
2.24354838709677e+00 5.09077938299474e-02 2.77225864600801e-04
2.31258064516129e+00 5.03439973761039e-02 2.78342905528093e-04
2.38161290322581e+00 4.97864448883699e-02 2.79339783883080e-04
2.45064516129032e+00 4.92350672133221e-02 2.80222331352887e-04
2.51967741935484e+00 4.86897959658380e-02 2.80996016787443e-04
2.58870967741935e+00 4.81505635181335e-02 2.81665978716854e-04
2.65774193548387e+00 4.76173029914030e-02 2.82237052797428e-04
2.72677419354839e+00 4.70899482494584e-02 2.82713797497825e-04
2.79580645161290e+00 4.65684338846134e-02 2.83100515797856e-04
2.86483870967742e+00 4.60526952155628e-02 2.83401274549111e-04
2.93387096774194e+00 4.55426682773272e-02 2.83619923131789e-04
3.00290322580645e+00 4.50382898133338e-02 2.83760109034905e-04
3.07193548387097e+00 4.45394972691971e-02 2.83825293066052e-04
3.14096774193548e+00 4.40462287800120e-02 2.83818762029445e-04
3.21000000000000e+00 4.35584231676892e-02 2.83743640180469e-04
3.27903225806452e+00 4.30760199316723e-02 2.83602900785741e-04
3.34806451612903e+00 4.25989592414391e-02 2.83399375773472e-04
3.41709677419355e+00 4.21271819290854e-02 2.83135764571799e-04
3.48612903225806e+00 4.16606294833278e-02 2.82814642993093e-04
3.55516129032258e+00 4.11992440381598e-02 2.82438470417692e-04
3.62419354838710e+00 4.07429683698105e-02 2.82009596357308e-04
3.69322580645161e+00 4.02917458882507e-02 2.81530267508402e-04
3.76225806451613e+00 3.98455206301818e-02 2.81002633290257e-04
3.83129032258064e+00 3.94042372532455e-02 2.80428751873176e-04
3.90032258064516e+00 3.89678410256523e-02 2.79810594882163e-04
3.96935483870968e+00 3.85362778229417e-02 2.79150051724980e-04
4.03838709677419e+00 3.81094941200696e-02 2.78448934521370e-04
4.10741935483871e+00 3.76874369847784e-02 2.77708981808986e-04
4.17645161290323e+00 3.72700540720275e-02 2.76931862819927e-04
4.24548387096774e+00 3.68572936144651e-02 2.76119180671942e-04
4.31451612903226e+00 3.64491044190789e-02 2.75272475320849e-04
4.38354838709677e+00 3.60454358598072e-02 2.74393227145834e-04
4.45258064516129e+00 3.56462378712684e-02 2.73482859507781e-04
4.52161290322581e+00 3.52514609434206e-02 2.72542741897935e-04
4.59064516129032e+00 3.48610561127726e-02 2.71574192166085e-04
4.65967741935484e+00 3.44749749589890e-02 2.70578478590204e-04
4.72870967741935e+00 3.40931695979793e-02 2.69556822573537e-04
4.79774193548387e+00 3.37155926759645e-02 2.68510400455801e-04
4.86677419354839e+00 3.33421973643682e-02 2.67440345904577e-04
4.93580645161290e+00 3.29729373516850e-02 2.66347751508213e-04
5.00483870967742e+00 3.26077668400848e-02 2.65233670259050e-04
5.07387096774194e+00 3.22466405389399e-02 2.64099117640599e-04
5.14290322580645e+00 3.18895136592102e-02 2.62945072936363e-04
5.21193548387097e+00 3.15363419085646e-02 2.61772481094626e-04
5.28096774193548e+00 3.11870814838370e-02 2.60582253889147e-04
5.35000000000000e+00 3.08416890676651e-02 2.59375271001433e-04
5.41903225806452e+00 3.05001218224184e-02 2.58152381675080e-04
5.48806451612903e+00 3.01623373848867e-02 2.56914405790486e-04
5.55709677419355e+00 2.98282938610275e-02 2.55662134898289e-04
5.62612903225806e+00 2.94979498213554e-02 2.54396333645175e-04
5.69516129032258e+00 2.91712642940246e-02 2.53117740582739e-04
5.76419354838710e+00 2.88481967615446e-02 2.51827068922199e-04
5.83322580645161e+00 2.85287071551495e-02 2.50525007820700e-04
5.90225806451613e+00 2.82127558498302e-02 2.49212223057141e-04
5.97129032258064e+00 2.79003036599415e-02 2.47889358195603e-04
6.04032258064516e+00 2.75913118327578e-02 2.46557035192297e-04
6.10935483870968e+00 2.72857420452669e-02 2.45215854961935e-04
6.17838709677419e+00 2.69835563988772e-02 2.43866398439605e-04
6.24741935483871e+00 2.66847174147197e-02 2.42509227090121e-04
6.31645161290323e+00 2.63891880294652e-02 2.41144883872557e-04
6.38548387096774e+00 2.60969315893127e-02 2.39773893699802e-04
6.45451612903226e+00 2.58079118468726e-02 2.38396763867127e-04
6.52354838709677e+00 2.55220929561883e-02 2.37013984941461e-04
6.59258064516129e+00 2.52394394682933e-02 2.35626031148129e-04
6.66161290322581e+00 2.49599163272314e-02 2.34233361181407e-04
6.73064516129032e+00 2.46834888644416e-02 2.32836418554821e-04
6.79967741935484e+00 2.44101227957383e-02 2.31435631927195e-04
6.86870967741935e+00 2.41397842166272e-02 2.30031415856770e-04
6.93774193548387e+00 2.38724395981018e-02 2.28624171096294e-04
7.00677419354839e+00 2.36080557828608e-02 2.27214285281996e-04
7.07580645161290e+00 2.33465999800564e-02 2.25802133201915e-04
7.14483870967742e+00 2.30880397623774e-02 2.24388077044721e-04
7.21387096774194e+00 2.28323430616397e-02 2.22972467046030e-04
7.28290322580645e+00 2.25794781648098e-02 2.21555641714090e-04
7.35193548387097e+00 2.23294137104104e-02 2.20137928421373e-04
7.42096774193548e+00 2.20821186836047e-02 2.18719643610554e-04
7.49000000000000e+00 2.18375624133853e-02 2.17301092984439e-04
7.55903225806452e+00 2.15957145684214e-02 2.15882572065053e-04
7.62806451612903e+00 2.13565451532971e-02 2.14464366434222e-04
7.69709677419355e+00 2.11200245047919e-02 2.13046751973184e-04
7.76612903225806e+00 2.08861232885010e-02 2.11629995361374e-04
7.83516129032258e+00 2.06548124942886e-02 2.10214354225771e-04
7.90419354838710e+00 2.04260634336066e-02 2.08800077277516e-04
7.97322580645161e+00 2.01998477356287e-02 2.07387404786874e-04
8.04225806451613e+00 1.99761373437313e-02 2.05976568707807e-04
8.11129032258065e+00 1.97549045122861e-02 2.04567793113959e-04
8.18032258064516e+00 1.95361218023948e-02 2.03161294312573e-04
8.24935483870968e+00 1.93197620793176e-02 2.01757280947923e-04
8.31838709677419e+00 1.91057985088275e-02 2.00355954418615e-04
8.38741935483871e+00 1.88942045538831e-02 1.98957508971815e-04
8.45645161290323e+00 1.86849539715832e-02 1.97562132086808e-04
8.52548387096774e+00 1.84780208091661e-02 1.96170004561191e-04
8.59451612903226e+00 1.82733794015435e-02 1.94781300588361e-04
8.66354838709677e+00 1.80710043678637e-02 1.93396188126303e-04
8.73258064516129e+00 1.78708706083650e-02 1.92014828968006e-04
8.80161290322581e+00 1.76729533014854e-02 1.90637379080772e-04
8.87064516129032e+00 1.74772279001069e-02 1.89263988670650e-04
8.93967741935484e+00 1.72836701291947e-02 1.87894802239440e-04
9.00870967741935e+00 1.70922559825561e-02 1.86529958912350e-04
9.07774193548387e+00 1.69029617198639e-02 1.85169592489657e-04
9.14677419354839e+00 1.67157638639149e-02 1.83813831748236e-04
9.21580645161290e+00 1.65306391971024e-02 1.82462800488875e-04
9.28483870967742e+00 1.63475647591579e-02 1.81116617577097e-04
9.35387096774194e+00 1.61665178440945e-02 1.79775397235558e-04
9.42290322580645e+00 1.59874759973908e-02 1.78439249080867e-04
9.49193548387097e+00 1.58104170133914e-02 1.77108278392714e-04
9.56096774193548e+00 1.56353189319916e-02 1.75782586147581e-04
9.63000000000000e+00 1.54621600364801e-02 1.74462269046759e-04
9.69903225806452e+00 1.52909188506548e-02 1.73147419778312e-04
9.76806451612903e+00 1.51215741361592e-02 1.71838127084686e-04
9.83709677419355e+00 1.49541048898491e-02 1.70534475833074e-04
9.90612903225806e+00 1.47884903413530e-02 1.69236547251610e-04
9.97516129032258e+00 1.46247099499932e-02 1.67944418869050e-04
1.00441935483871e+01 1.44627434030644e-02 1.66658164936697e-04
1.01132258064516e+01 1.43025706115487e-02 1.65377855771387e-04
1.01822580645161e+01 1.41441717114331e-02 1.64103558840002e-04
1.02512903225806e+01 1.39875270555797e-02 1.62835338642208e-04
1.03203225806452e+01 1.38326172160044e-02 1.61573255344602e-04
1.03893548387097e+01 1.36794229813612e-02 1.60317367253537e-04
1.04583870967742e+01 1.35279253500995e-02 1.59067729350484e-04
1.05274193548387e+01 1.33781055340197e-02 1.57824393702665e-04
1.05964516129032e+01 1.32299449501432e-02 1.56587409627532e-04
1.06654838709677e+01 1.30834252240966e-02 1.55356823690797e-04
1.07345161290323e+01 1.29385281822524e-02 1.54132680211157e-04
1.08035483870968e+01 1.27952358536320e-02 1.52915019864364e-04
1.08725806451613e+01 1.26535304675870e-02 1.51703881908660e-04
1.09416129032258e+01 1.25133944476570e-02 1.50499302855778e-04
1.10106451612903e+01 1.23748104146086e-02 1.49301316834677e-04
1.10796774193548e+01 1.22377611791591e-02 1.48109955733185e-04
1.11487096774194e+01 1.21022297448691e-02 1.46925249190632e-04
1.12177419354839e+01 1.19681993011040e-02 1.45747225046697e-04
1.12867741935484e+01 1.18356532246240e-02 1.44575908074663e-04
1.13558064516129e+01 1.17045750774419e-02 1.43411321987156e-04
1.14248387096774e+01 1.15749486013026e-02 1.42253488228691e-04
1.14938709677419e+01 1.14467577202821e-02 1.41102426299657e-04
1.15629032258065e+01 1.13199865342640e-02 1.39958154171486e-04
1.16319354838710e+01 1.11946193203432e-02 1.38820687100867e-04
1.17009677419355e+01 1.10706405308032e-02 1.37690039497399e-04
1.17700000000000e+01 1.09480347879869e-02 1.36566223793512e-04
1.18390322580645e+01 1.08267868866331e-02 1.35449250743774e-04
1.19080645161290e+01 1.07068817878248e-02 1.34339129535391e-04
1.19770967741935e+01 1.05883046212133e-02 1.33235867774720e-04
1.20461290322581e+01 1.04710406791587e-02 1.32139471858317e-04
1.21151612903226e+01 1.03550754178996e-02 1.31049945895627e-04
1.21841935483871e+01 1.02403944556844e-02 1.29967293395870e-04
1.22532258064516e+01 1.01269835681485e-02 1.28891516240973e-04
1.23222580645161e+01 1.00148286903151e-02 1.27822614952933e-04
1.23912903225806e+01 9.90391591115354e-03 1.26760589037563e-04
1.24603225806452e+01 9.79423147461054e-03 1.25705435976013e-04
1.25293548387097e+01 9.68576177784405e-03 1.24657152797504e-04
1.25983870967742e+01 9.57849336692241e-03 1.23615735117359e-04
1.26674193548387e+01 9.47241293862301e-03 1.22581177384884e-04
1.27364516129032e+01 9.36750733537633e-03 1.21553472970520e-04
1.28054838709677e+01 9.26376354697951e-03 1.20532614149339e-04
1.28745161290323e+01 9.16116870569669e-03 1.19518592409477e-04
1.29435483870968e+01 9.05971008711306e-03 1.18511397534904e-04
1.30125806451613e+01 8.95937510850500e-03 1.17511019028415e-04
1.30816129032258e+01 8.86015132495347e-03 1.16517445237017e-04
1.31506451612903e+01 8.76202643088528e-03 1.15530663573811e-04
1.32196774193548e+01 8.66498825551630e-03 1.14550660594261e-04
1.32887096774194e+01 8.56902476431940e-03 1.13577421979055e-04
1.33577419354839e+01 8.47412405460616e-03 1.12610932810865e-04
1.34267741935484e+01 8.38027435623310e-03 1.11651176740202e-04
1.34958064516129e+01 8.28746403009500e-03 1.10698137274175e-04
1.35648387096774e+01 8.19568156460979e-03 1.09751796980335e-04
1.36338709677419e+01 8.10491557703893e-03 1.08812137686034e-04
1.37029032258065e+01 8.01515480937521e-03 1.07879140735776e-04
1.37719354838710e+01 7.92638812896048e-03 1.06952786209586e-04
1.38409677419355e+01 7.83860452706230e-03 1.06033054126456e-04
1.39100000000000e+01 7.75179311559578e-03 1.05119923698429e-04
1.39790322580645e+01 7.66594312831092e-03 1.04213373515785e-04
1.40480645161290e+01 7.58104391696301e-03 1.03313381607930e-04
1.41170967741935e+01 7.49708495244351e-03 1.02419925425792e-04
1.41861290322581e+01 7.41405582106444e-03 1.01532982073447e-04
1.42551612903226e+01 7.33194622506443e-03 1.00652527596520e-04
1.43241935483871e+01 7.25074598129368e-03 9.97785380735936e-05
1.43932258064516e+01 7.17044501824307e-03 9.89109889369292e-05
1.44622580645161e+01 7.09103337706097e-03 9.80498551390623e-05
1.45312903225806e+01 7.01250120809065e-03 9.71951113683071e-05
1.46003225806452e+01 6.93483877131035e-03 9.63467313818962e-05
1.46693548387097e+01 6.85803643509007e-03 9.55046890259694e-05
1.47383870967742e+01 6.78208467341829e-03 9.46689575987013e-05
1.48074193548387e+01 6.70697406681571e-03 9.38395100054159e-05
1.48764516129032e+01 6.63269529910683e-03 9.30163188075043e-05
1.49454838709677e+01 6.55923915829003e-03 9.21993562051583e-05
1.50145161290323e+01 6.48659653340349e-03 9.13885942318539e-05
1.50835483870968e+01 6.41475841488092e-03 9.05840041466181e-05
1.51525806451613e+01 6.34371589340335e-03 8.97855573601428e-05
1.52216129032258e+01 6.27346015738143e-03 8.89932248545942e-05
1.52906451612903e+01 6.20398249373711e-03 8.82069773232691e-05
1.53596774193548e+01 6.13527428497964e-03 8.74267852137975e-05
1.54287096774194e+01 6.06732700994944e-03 8.66526187114283e-05
1.54977419354839e+01 6.00013224097853e-03 8.58844479144618e-05
1.55667741935484e+01 5.93368164417577e-03 8.51222422804781e-05
1.56358064516129e+01 5.86796697836526e-03 8.43659714677629e-05
1.57048387096774e+01 5.80298009279936e-03 8.36156048061941e-05
1.57738709677419e+01 5.73871292782655e-03 8.28711114233780e-05
1.58429032258065e+01 5.67515751224068e-03 8.21324604082748e-05
1.59119354838710e+01 5.61230596352443e-03 8.13996202917495e-05
1.59809677419355e+01 5.55015048684603e-03 8.06725598338107e-05
1.60500000000000e+01 5.48868337292072e-03 7.99512475273602e-05
1.61190322580645e+01 5.42789699860995e-03 7.92356517157273e-05
1.61880645161290e+01 5.36778382444594e-03 7.85257406276033e-05
1.62570967741935e+01 5.30833639520152e-03 7.78214823612940e-05
1.63261290322581e+01 5.24954733748505e-03 7.71228450326530e-05
1.63951612903226e+01 5.19140935993083e-03 7.64297963012943e-05
1.64641935483871e+01 5.13391525227191e-03 7.57423040865401e-05
1.65332258064516e+01 5.07705788339464e-03 7.50603361147092e-05
1.66022580645161e+01 5.02083020184948e-03 7.43838600253014e-05
1.66712903225806e+01 4.96522523360381e-03 7.37128435089931e-05
1.67403225806452e+01 4.91023608220142e-03 7.30472538631878e-05
1.68093548387097e+01 4.85585592788585e-03 7.23870586622349e-05
1.68783870967742e+01 4.80207802577997e-03 7.17322253325671e-05
1.69474193548387e+01 4.74889570634338e-03 7.10827212518232e-05
1.70164516129032e+01 4.69630237327201e-03 7.04385137772095e-05
1.70854838709677e+01 4.64429150393272e-03 6.97995702308844e-05
1.71545161290323e+01 4.59285664732171e-03 6.91658580249565e-05
1.72235483870968e+01 4.54199142418438e-03 6.85373442557509e-05
1.72925806451613e+01 4.49168952620533e-03 6.79139963138525e-05
1.73616129032258e+01 4.44194471435025e-03 6.72957814963891e-05
1.74306451612903e+01 4.39275081925455e-03 6.66826670966172e-05
1.74996774193548e+01 4.34410173931431e-03 6.60746204290936e-05
1.75687096774194e+01 4.29599144105520e-03 6.54716088158287e-05
1.76377419354839e+01 4.24841395727630e-03 6.48735996994318e-05
1.77067741935484e+01 4.20136338713714e-03 6.42805602727763e-05
1.77758064516129e+01 4.15483389540873e-03 6.36924580345420e-05
1.78448387096774e+01 4.10881971096260e-03 6.31092604350709e-05
1.79138709677419e+01 4.06331512710022e-03 6.25309349575418e-05
1.79829032258065e+01 4.01831449981658e-03 6.19574492237102e-05
1.80519354838710e+01 3.97381224786802e-03 6.13887706462242e-05
1.81209677419355e+01 3.92980285206436e-03 6.08248669490968e-05
1.81900000000000e+01 3.88628085385315e-03 6.02657058352692e-05
1.82590322580645e+01 3.84324085561352e-03 5.97112550623928e-05
1.83280645161290e+01 3.80067751903115e-03 5.91614824633483e-05
1.83970967741935e+01 3.75858556537671e-03 5.86163559335885e-05
1.84661290322581e+01 3.71695977392537e-03 5.80758435270119e-05
1.85351612903226e+01 3.67579498200047e-03 5.75399131383583e-05
1.86041935483871e+01 3.63508608431910e-03 5.70085329775223e-05
1.86732258064516e+01 3.59482803170069e-03 5.64816712658187e-05
1.87422580645161e+01 3.55501583131472e-03 5.59592963046589e-05
1.88112903225806e+01 3.51564454520120e-03 5.54413765651556e-05
1.88803225806452e+01 3.47670929030051e-03 5.49278803899129e-05
1.89493548387097e+01 3.43820523783460e-03 5.44187764375925e-05
1.90183870967742e+01 3.40012761209644e-03 5.39140333976429e-05
1.90874193548387e+01 3.36247169067005e-03 5.34136200545069e-05
1.91564516129032e+01 3.32523280304498e-03 5.29175053043741e-05
1.92254838709677e+01 3.28840633082443e-03 5.24256581436868e-05
1.92945161290323e+01 3.25198770637731e-03 5.19380477505105e-05
1.93635483870968e+01 3.21597241285041e-03 5.14546432119215e-05
1.94325806451613e+01 3.18035598359657e-03 5.09754139294076e-05
1.95016129032258e+01 3.14513400106919e-03 5.05003293581612e-05
1.95706451612903e+01 3.11030209700663e-03 5.00293590652653e-05
1.96396774193548e+01 3.07585595116945e-03 4.95624727446048e-05
1.97087096774194e+01 3.04179129151442e-03 4.90996402060730e-05
1.97777419354839e+01 3.00810389296576e-03 4.86408314494081e-05
1.98467741935484e+01 2.97478957741304e-03 4.81860164150119e-05
1.99158064516129e+01 2.94184421318236e-03 4.77351653537825e-05
1.99848387096774e+01 2.90926371402667e-03 4.72882485886683e-05
2.00538709677419e+01 2.87704403927928e-03 4.68452365675076e-05
2.01229032258064e+01 2.84518119270254e-03 4.64060999321332e-05
2.01919354838710e+01 2.81367122247768e-03 4.59708092842556e-05
2.02609677419355e+01 2.78251022070488e-03 4.55393355323078e-05
2.03300000000000e+01 2.75169432245588e-03 4.51116496674433e-05
2.03990322580645e+01 2.72121970590917e-03 4.46877228129397e-05
2.04680645161290e+01 2.69108259127075e-03 4.42675262364051e-05
2.05370967741935e+01 2.66127924090138e-03 4.38510313400489e-05
2.06061290322581e+01 2.63180595826602e-03 4.34382097234707e-05
2.06751612903226e+01 2.60265908791372e-03 4.30290329695237e-05
2.07441935483871e+01 2.57383501501536e-03 4.26234729609023e-05
2.08132258064516e+01 2.54533016449760e-03 4.22215016752201e-05
2.08822580645161e+01 2.51714100115426e-03 4.18230912298770e-05
2.09512903225806e+01 2.48926402866145e-03 4.14282139408183e-05
2.10203225806452e+01 2.46169578955205e-03 4.10368421213265e-05
2.10893548387097e+01 2.43443286477853e-03 4.06489483790346e-05
2.11583870967742e+01 2.40747187290005e-03 4.02645054233299e-05
2.12274193548387e+01 2.38080947017967e-03 3.98834861073505e-05
2.12964516129032e+01 2.35444234966079e-03 3.95058634379833e-05
2.13654838709677e+01 2.32836724125815e-03 3.91316105671259e-05
2.14345161290323e+01 2.30258091085868e-03 3.87607008451381e-05
2.15035483870968e+01 2.27708016028896e-03 3.83931076366956e-05
2.15725806451613e+01 2.25186182691122e-03 3.80288045920337e-05
2.16416129032258e+01 2.22692278287959e-03 3.76677654707154e-05
2.17106451612903e+01 2.20225993521902e-03 3.73099641797669e-05
2.17796774193548e+01 2.17787022498178e-03 3.69553747825911e-05
