Energy (eV)          EEDF (eV^-(3/2))     First Anisotropy
6.16666666666667e-04 6.84947131536579e+01 4.66017154539588e-02
1.85000000000000e-03 6.71939141878273e+01 7.64790724801406e-02
3.08333333333333e-03 6.59178189936669e+01 9.97141064727041e-02
4.31666666666667e-03 6.46659584206993e+01 1.16625133383327e-01
5.55000000000000e-03 6.34378722223350e+01 1.30128985566690e-01
6.78333333333333e-03 6.22331088926300e+01 1.41349472281496e-01
8.01666666666667e-03 6.10512255029067e+01 1.50878603430212e-01
9.25000000000000e-03 5.98917875347081e+01 1.59080042571914e-01
1.04833333333333e-02 5.87543687211020e+01 1.66198998046032e-01
1.17166666666667e-02 5.76385508919648e+01 1.72411569215815e-01
1.29500000000000e-02 5.65439238193753e+01 1.77850136785836e-01
1.41833333333333e-02 5.54700850598251e+01 1.82617728023205e-01
1.54166666666667e-02 5.44166398226331e+01 1.86796738155341e-01
1.66500000000000e-02 5.33832008092165e+01 1.90454522306387e-01
1.78833333333333e-02 5.23693880731110e+01 1.93647140489902e-01
1.91166666666667e-02 5.13748288907921e+01 1.96421957929973e-01
2.03500000000000e-02 5.03991576132662e+01 1.98819505108912e-01
2.15833333333333e-02 4.94420155331481e+01 2.00874842205252e-01
2.28166666666667e-02 4.85030507609765e+01 2.02618582856246e-01
2.40500000000000e-02 4.75819180870881e+01 2.04077676768432e-01
2.52833333333333e-02 4.66782788557274e+01 2.05276017762035e-01
2.65166666666667e-02 4.57918008471247e+01 2.06234923902858e-01
2.77500000000000e-02 4.49221581483830e+01 2.06973521396494e-01
2.89833333333333e-02 4.40690310343938e+01 2.07509054912938e-01
3.02166666666667e-02 4.32321058557007e+01 2.07857141737621e-01
3.14500000000000e-02 4.24110749174933e+01 2.08031981693252e-01
3.26833333333333e-02 4.16056363670361e+01 2.08046531808477e-01
3.39166666666667e-02 4.08154940872129e+01 2.07912653371448e-01
3.51500000000000e-02 4.00403575829249e+01 2.07641236422441e-01
3.63833333333333e-02 3.92799418747179e+01 2.07242305629140e-01
3.76166666666667e-02 3.85339673978366e+01 2.06725111384106e-01
3.88500000000000e-02 3.78021598954491e+01 2.06098208430971e-01
4.00833333333333e-02 3.70842503181544e+01 2.05369523874479e-01
4.13166666666667e-02 3.63799747283419e+01 2.04546416744891e-01
4.25500000000000e-02 3.56890741997469e+01 2.03635730213148e-01
4.37833333333333e-02 3.50112947225295e+01 2.02643837361625e-01
4.50166666666667e-02 3.43463871127150e+01 2.01576681870258e-01
4.62500000000000e-02 3.36941069176470e+01 2.00439814139964e-01
4.74833333333333e-02 3.30542143263381e+01 1.99238423294035e-01
4.87166666666667e-02 3.24264740837621e+01 1.97977365987889e-01
4.99500000000000e-02 3.18106554018154e+01 1.96661192260568e-01
5.11833333333333e-02 3.12065318746538e+01 1.95294168629551e-01
5.24166666666667e-02 3.06138813976057e+01 1.93880299113373e-01
5.36500000000000e-02 3.00324860832908e+01 1.92423344264750e-01
5.48833333333333e-02 2.94621321816692e+01 1.90926838287707e-01
5.61166666666667e-02 2.89026100033492e+01 1.89394104772101e-01
5.73500000000000e-02 2.83537138405409e+01 1.87828271047566e-01
5.85833333333333e-02 2.78152418915594e+01 1.86232281160281e-01
5.98166666666667e-02 2.72869961883056e+01 1.84608907906710e-01
6.10500000000000e-02 2.67687825217579e+01 1.82960763883063e-01
6.22833333333333e-02 2.62604103706841e+01 1.81290311515152e-01
6.35166666666667e-02 2.57616928330809e+01 1.79599872433785e-01
6.47500000000000e-02 2.52724465559303e+01 1.77891636131717e-01
6.59833333333333e-02 2.47924916678866e+01 1.76167667845724e-01
6.72166666666667e-02 2.43216517144692e+01 1.74429915978437e-01
6.84500000000000e-02 2.38597535918283e+01 1.72680218984810e-01
6.96833333333333e-02 2.34066274831873e+01 1.70920311655979e-01
7.09166666666667e-02 2.29621067975913e+01 1.69151831076419e-01
7.21500000000000e-02 2.25260281074449e+01 1.67376322174769e-01
7.33833333333333e-02 2.20982310885014e+01 1.65595242796424e-01
7.46166666666667e-02 2.16785584619782e+01 1.63809968542845e-01
7.58500000000000e-02 2.12668559356456e+01 1.62021797297544e-01
7.70833333333333e-02 2.08629721471653e+01 1.60231953365542e-01
7.83166666666667e-02 2.04667586093932e+01 1.58441591446060e-01
7.95500000000000e-02 2.00780696548113e+01 1.56651800360062e-01
8.07833333333333e-02 1.96967623820299e+01 1.54863606460397e-01
8.20166666666667e-02 1.93226966041056e+01 1.53077976923113e-01
8.32500000000000e-02 1.89557347961237e+01 1.51295822844466e-01
8.44833333333333e-02 1.85957420446857e+01 1.49518002073644e-01
8.57166666666667e-02 1.82425859990825e+01 1.47745321961539e-01
8.69500000000000e-02 1.78961368218422e+01 1.45978541953781e-01
8.81833333333333e-02 1.75562671410395e+01 1.44218375960942e-01
8.94166666666667e-02 1.72228520041665e+01 1.42465494670453e-01
9.06500000000000e-02 1.68957688314776e+01 1.40720527732389e-01
9.18833333333333e-02 1.65748973709617e+01 1.38984065755321e-01
9.31166666666667e-02 1.62601196547651e+01 1.37256662262887e-01
9.43500000000000e-02 1.59513199551717e+01 1.35538835547269e-01
9.55833333333333e-02 1.56483847420909e+01 1.33831070359210e-01
9.68166666666667e-02 1.53512026418921e+01 1.32133819572883e-01
9.80500000000000e-02 1.50596643958706e+01 1.30447505765804e-01
9.92833333333333e-02 1.47736628201093e+01 1.28772522656874e-01
1.00516666666667e-01 1.44930927665945e+01 1.27109236513341e-01
1.01750000000000e-01 1.42178510845036e+01 1.25457987586835e-01
1.02983333333333e-01 1.39478365799096e+01 1.23819091193782e-01
1.04216666666667e-01 1.36829499838575e+01 1.22192838994855e-01
1.05450000000000e-01 1.34230939110075e+01 1.20579500344081e-01
1.06683333333333e-01 1.31681728240789e+01 1.18979323027150e-01
1.07916666666667e-01 1.29180930030534e+01 1.17392534465816e-01
1.09150000000000e-01 1.26727625062924e+01 1.15819342874373e-01
1.10383333333333e-01 1.24320911369565e+01 1.14259937873753e-01
1.11616666666667e-01 1.21959904137934e+01 1.12714491542063e-01
1.12850000000000e-01 1.19643735345700e+01 1.11183159425268e-01
1.14083333333333e-01 1.17371553443601e+01 1.09666081047928e-01
1.15316666666667e-01 1.15142523078433e+01 1.08163380832326e-01
1.16550000000000e-01 1.12955824749066e+01 1.06675168984335e-01
1.17783333333333e-01 1.10810654506968e+01 1.05201541917806e-01
1.19016666666667e-01 1.08706223693594e+01 1.03742583060885e-01
1.20250000000000e-01 1.06641758616753e+01 1.02298363634494e-01
1.21483333333333e-01 1.04616500267784e+01 1.00868943004311e-01
1.22716666666667e-01 1.02629704072685e+01 9.94543693897922e-02
1.23950000000000e-01 1.00680639587545e+01 9.80546805498640e-02
1.25183333333333e-01 9.87685902314669e+00 9.66699040739849e-02
1.26416666666667e-01 9.68928530507655e+00 9.53000580069090e-02
1.27650000000000e-01 9.50527384322907e+00 9.39451514538668e-02
1.28883333333333e-01 9.32475698512309e+00 9.26051848202492e-02
1.30116666666667e-01 9.14766836477314e+00 9.12801503631176e-02
1.31350000000000e-01 8.97394287570235e+00 8.99700327262711e-02
1.32583333333333e-01 8.80351664712742e+00 8.86748091364977e-02
1.33816666666667e-01 8.63632702280210e+00 8.73944498911856e-02
1.35050000000000e-01 8.47231253560765e+00 8.61289188321294e-02
1.36283333333333e-01 8.31141288506481e+00 8.48781735049962e-02
1.37516666666667e-01 8.15356891729996e+00 8.36421655910291e-02
1.38750000000000e-01 7.99872260111757e+00 8.24208413271566e-02
1.39983333333333e-01 7.84681700676544e+00 8.12141416342668e-02
1.41216666666667e-01 7.69779628696721e+00 8.00220024998481e-02
1.42450000000000e-01 7.55160565438739e+00 7.88443553509125e-02
1.43683333333333e-01 7.40819136158021e+00 7.76811271557968e-02
1.44916666666667e-01 7.26750068303452e+00 7.65322407636420e-02
1.46150000000000e-01 7.12948189394770e+00 7.53976152357391e-02
1.47383333333333e-01 6.99408425129246e+00 7.42771659248517e-02
1.48616666666667e-01 6.86125797682239e+00 7.31708047766380e-02
1.49850000000000e-01 6.73095423707656e+00 7.20784406242780e-02
1.51083333333333e-01 6.60312512550204e+00 7.09999792487114e-02
1.52316666666667e-01 6.47772364637086e+00 6.99353236464346e-02
1.53550000000000e-01 6.35470369594193e+00 6.88843742916394e-02
1.54783333333333e-01 6.23402004558057e+00 6.78470291802479e-02
1.56016666666667e-01 6.11562832653984e+00 6.68231840679393e-02
1.57250000000000e-01 5.99948501221107e+00 6.58127327034929e-02
1.58483333333333e-01 5.88554740218494e+00 6.48155668590833e-02
1.59716666666667e-01 5.77377360785228e+00 6.38315765419093e-02
1.60950000000000e-01 5.66412253567886e+00 6.28606502019673e-02
1.62183333333333e-01 5.55655387215554e+00 6.19026747507121e-02
1.63416666666667e-01 5.45102807017592e+00 6.09575357492436e-02
1.64650000000000e-01 5.34750633327482e+00 6.00251175933407e-02
1.65883333333333e-01 5.24595060141811e+00 5.91053035222944e-02
1.67116666666667e-01 5.14632353811649e+00 5.81979757862463e-02
1.68350000000000e-01 5.04858851557097e+00 5.73030158109733e-02
1.69583333333333e-01 4.95270960125566e+00 5.64203041984436e-02
1.70816666666667e-01 4.85865154572889e+00 5.55497208755901e-02
1.72050000000000e-01 4.76637976863258e+00 5.46911452410475e-02
1.73283333333333e-01 4.67586034602368e+00 5.38444561587588e-02
1.74516666666667e-01 4.58705999884601e+00 5.30095320902015e-02
1.75750000000000e-01 4.49994607973337e+00 5.21862512250174e-02
1.76983333333333e-01 4.41448656104806e+00 5.13744914688160e-02
1.78216666666667e-01 4.33065002397833e+00 5.05741305606392e-02
1.79450000000000e-01 4.24840564609847e+00 4.97850461891994e-02
1.80683333333333e-01 4.16772319007478e+00 4.90071159758686e-02
1.81916666666667e-01 4.08857299335562e+00 4.82402175789615e-02
1.83150000000000e-01 4.01092595644417e+00 4.74842287971093e-02
1.84383333333333e-01 3.93475353223485e+00 4.67390275482802e-02
1.85616666666667e-01 3.86002771626428e+00 4.60044919622865e-02
1.86850000000000e-01 3.78672103565532e+00 4.52805004726526e-02
1.88083333333333e-01 3.71480653904870e+00 4.45669317923960e-02
1.89316666666667e-01 3.64425778738507e+00 4.38636649960047e-02
1.90550000000000e-01 3.57504884348128e+00 4.31705796010065e-02
1.91783333333333e-01 3.50715426252405e+00 4.24875555411431e-02
1.93016666666667e-01 3.44054908335470e+00 4.18144732389290e-02
1.94250000000000e-01 3.37520881864097e+00 4.11512136779995e-02
1.95483333333333e-01 3.31110944590147e+00 4.04976583742159e-02
1.96716666666667e-01 3.24822739926606e+00 3.98536894397993e-02
1.97950000000000e-01 3.18653956020884e+00 3.92191896474173e-02
1.99183333333333e-01 3.12602324907366e+00 3.85940423996905e-02
2.00416666666667e-01 3.06665621728468e+00 3.79781317857838e-02
2.01650000000000e-01 3.00841663860805e+00 3.73713426380894e-02
2.02883333333333e-01 2.95128310115057e+00 3.67735605005339e-02
2.04116666666667e-01 2.89523459999621e+00 3.61846716784221e-02
2.05350000000000e-01 2.84025052896589e+00 3.56045632884840e-02
2.06583333333333e-01 2.78631067306298e+00 3.50331232263261e-02
2.07816666666667e-01 2.73339520151276e+00 3.44702402102355e-02
2.09050000000000e-01 2.68148465999165e+00 3.39158038252781e-02
2.10283333333333e-01 2.63055996349455e+00 3.33697044901898e-02
2.11516666666667e-01 2.58060238975549e+00 3.28318334957717e-02
2.12750000000000e-01 2.53159357191937e+00 3.23020830436605e-02
2.13983333333333e-01 2.48351549180748e+00 3.17803462129116e-02
2.15216666666667e-01 2.43635047369885e+00 3.12665169935525e-02
2.16450000000000e-01 2.39008117741890e+00 3.07604903205778e-02
2.17683333333333e-01 2.34469059198107e+00 3.02621620404388e-02
2.18916666666667e-01 2.30016202970928e+00 2.97714289402659e-02
2.20150000000000e-01 2.25647911971950e+00 2.92881887775843e-02
2.21383333333333e-01 2.21362580191657e+00 2.88123402468926e-02
2.22616666666667e-01 2.17158632143919e+00 2.83437830050112e-02
2.23850000000000e-01 2.13034522251197e+00 2.78824176969670e-02
2.25083333333333e-01 2.08988734277753e+00 2.74281459228130e-02
2.26316666666667e-01 2.05019780804652e+00 2.69808702595134e-02
2.27550000000000e-01 2.01126202649897e+00 2.65404942833978e-02
2.28783333333333e-01 1.97306568333285e+00 2.61069225373530e-02
2.30016666666667e-01 1.93559473580267e+00 2.56800605496151e-02
2.31250000000000e-01 1.89883540775000e+00 2.52598148531525e-02
2.32483333333333e-01 1.86277418455093e+00 2.48460929533358e-02
2.33716666666667e-01 1.82739780842747e+00 2.44388033439701e-02
2.34950000000000e-01 1.79269327328842e+00 2.40378555239322e-02
2.36183333333333e-01 1.75864781995908e+00 2.36431599654102e-02
2.37416666666667e-01 1.72524893175054e+00 2.32546281274712e-02
2.38650000000000e-01 1.69248432959320e+00 2.28721724702437e-02
2.39883333333333e-01 1.66034196753292e+00 2.24957064238014e-02
2.41116666666667e-01 1.62881002854421e+00 2.21251443995356e-02
2.42350000000000e-01 1.59787691993961e+00 2.17604018021472e-02
2.43583333333333e-01 1.56753126911746e+00 2.14013949992314e-02
2.44816666666667e-01 1.53776191960559e+00 2.10480413306953e-02
2.46050000000000e-01 1.50855792673094e+00 2.07002591187973e-02
2.47283333333333e-01 1.47990855360480e+00 2.03579676384807e-02
2.48516666666667e-01 1.45180326738446e+00 2.00210871250538e-02
2.49750000000000e-01 1.42423173518820e+00 1.96895387824881e-02
2.50983333333333e-01 1.39718382030473e+00 1.93632447545393e-02
2.52216666666667e-01 1.37064957866092e+00 1.90421281308821e-02
2.53450000000000e-01 1.34461925496813e+00 1.87261129538617e-02
2.54683333333333e-01 1.31908327914335e+00 1.84151241904276e-02
2.55916666666667e-01 1.29403226297180e+00 1.81090877369016e-02
2.57150000000000e-01 1.26945699647125e+00 1.78079304243550e-02
2.58383333333333e-01 1.24534844451326e+00 1.75115799913724e-02
2.59616666666667e-01 1.22169774366973e+00 1.72199650876106e-02
2.60850000000000e-01 1.19849619878307e+00 1.69330152779585e-02
2.62083333333333e-01 1.17573527977611e+00 1.66506610161441e-02
2.63316666666667e-01 1.15340661867272e+00 1.63728336472262e-02
2.64550000000000e-01 1.13150200636198e+00 1.60994654106752e-02
2.65783333333333e-01 1.11001338958631e+00 1.58304894148320e-02
2.67016666666667e-01 1.08893286812657e+00 1.55658396384594e-02
2.68250000000000e-01 1.06825269174920e+00 1.53054509328707e-02
2.69483333333333e-01 1.04796525736263e+00 1.50492589972402e-02
2.70716666666667e-01 1.02806310635783e+00 1.47972003793305e-02
2.71950000000000e-01 1.00853892172803e+00 1.45492124767823e-02
2.73183333333333e-01 9.89385525383998e-01 1.43052335132743e-02
2.74416666666667e-01 9.70595875641493e-01 1.40652025385280e-02
2.75650000000000e-01 9.52163064503797e-01 1.38290594288619e-02
2.76883333333333e-01 9.34080315126941e-01 1.35967448641939e-02
2.78116666666667e-01 9.16340979446047e-01 1.33682003274169e-02
2.79350000000000e-01 8.98938535611371e-01 1.31433681043089e-02
2.80583333333333e-01 8.81866585595146e-01 1.29221912613678e-02
2.81816666666667e-01 8.65118852949148e-01 1.27046136446417e-02
2.83050000000000e-01 8.48689180385548e-01 1.24905798790755e-02
2.84283333333333e-01 8.32571527517474e-01 1.22800353471688e-02
2.85516666666667e-01 8.16759968740562e-01 1.20729261873338e-02
2.86750000000000e-01 8.01248690950419e-01 1.18691992927538e-02
2.87983333333333e-01 7.86031991409423e-01 1.16688022908475e-02
2.89216666666667e-01 7.71104275745446e-01 1.14716835412225e-02
2.90450000000000e-01 7.56460055798180e-01 1.12777921341125e-02
2.91683333333333e-01 7.42093947605116e-01 1.10870778706322e-02
2.92916666666667e-01 7.28000669510996e-01 1.08994912603855e-02
2.94150000000000e-01 7.14175040135695e-01 1.07149835195409e-02
2.95383333333333e-01 7.00611976472721e-01 1.05335065518600e-02
2.96616666666667e-01 6.87306492103301e-01 1.03550129460132e-02
2.97850000000000e-01 6.74253695278923e-01 1.01794559733472e-02
2.99083333333333e-01 6.61448787126085e-01 1.00067895696682e-02
3.00316666666667e-01 6.48887059959234e-01 9.83696833231340e-03
3.01550000000000e-01 6.36563895471488e-01 9.66994751765762e-03
3.02783333333333e-01 6.24474763039685e-01 9.50568302363172e-03
3.04016666666667e-01 6.12615218130741e-01 9.34413138659241e-03
3.05250000000000e-01 6.00980900594411e-01 9.18524977861150e-03
3.06483333333333e-01 5.89567533063048e-01 9.02899599070830e-03
3.07716666666667e-01 5.78370919446219e-01 8.87532842955582e-03
3.08950000000000e-01 5.67386943319735e-01 8.72420611459135e-03
3.10183333333333e-01 5.56611566414830e-01 8.57558866194151e-03
3.11416666666667e-01 5.46040827196158e-01 8.42943628099899e-03
3.12650000000000e-01 5.35670839341658e-01 8.28570977138740e-03
3.13883333333333e-01 5.25497790316142e-01 8.14437050755913e-03
3.15116666666667e-01 5.15517940028086e-01 8.00538043527215e-03
3.16350000000000e-01 5.05727619395181e-01 7.86870206843974e-03
3.17583333333333e-01 4.96123228997619e-01 7.73429847437900e-03
3.18816666666667e-01 4.86701237809332e-01 7.60213327021429e-03
3.20050000000000e-01 4.77458181844373e-01 7.47217061963910e-03
3.21283333333333e-01 4.68390662885463e-01 7.34437521879409e-03
3.22516666666667e-01 4.59495347285549e-01 7.21871229262055e-03
3.23750000000000e-01 4.50768964690458e-01 7.09514759155766e-03
3.24983333333333e-01 4.42208306838495e-01 6.97364737802896e-03
3.26216666666667e-01 4.33810226428437e-01 6.85417842276686e-03
3.27450000000000e-01 4.25571635914155e-01 6.73670800146594e-03
3.28683333333333e-01 4.17489506371280e-01 6.62120388185693e-03
3.29916666666667e-01 4.09560866427974e-01 6.50763432001994e-03
3.31150000000000e-01 4.01782801127446e-01 6.39596805701310e-03
3.32383333333333e-01 3.94152450857945e-01 6.28617430651256e-03
3.33616666666667e-01 3.86667010342837e-01 6.17822275113066e-03
3.34850000000000e-01 3.79323727567174e-01 6.07208353903602e-03
3.36083333333333e-01 3.72119902767483e-01 5.96772727213889e-03
3.37316666666667e-01 3.65052887477864e-01 5.86512500242816e-03
3.38550000000000e-01 3.58120083517002e-01 5.76424822859725e-03
3.39783333333333e-01 3.51318942034405e-01 5.66506888475455e-03
3.41016666666667e-01 3.44646962609426e-01 5.56755933679108e-03
3.42250000000000e-01 3.38101692295305e-01 5.47169237902489e-03
3.43483333333333e-01 3.31680724718707e-01 5.37744122341644e-03
3.44716666666667e-01 3.25381699228734e-01 5.28477949597775e-03
3.45950000000000e-01 3.19202299994780e-01 5.19368123344553e-03
3.47183333333333e-01 3.13140255156391e-01 5.10412087298222e-03
3.48416666666667e-01 3.07193336019502e-01 5.01607324863558e-03
3.49650000000000e-01 3.01359356205070e-01 4.92951358805021e-03
3.50883333333333e-01 2.95636170846437e-01 4.84441750263519e-03
3.52116666666667e-01 2.90021675830185e-01 4.76076098408113e-03
3.53350000000000e-01 2.84513806992681e-01 4.67852040111856e-03
3.54583333333333e-01 2.79110539362285e-01 4.59767249013318e-03
3.55816666666667e-01 2.73809886442359e-01 4.51819435174745e-03
3.57050000000000e-01 2.68609899453014e-01 4.44006344763210e-03
3.58283333333333e-01 2.63508666615666e-01 4.36325759155154e-03
3.59516666666667e-01 2.58504312475856e-01 4.28775494601468e-03
3.60750000000000e-01 2.53594997187656e-01 4.21353401914581e-03
3.61983333333333e-01 2.48778915838205e-01 4.14057365614242e-03
3.63216666666667e-01 2.44054297808135e-01 4.06885303599989e-03
3.64450000000000e-01 2.39419406096226e-01 3.99835166844633e-03
3.65683333333333e-01 2.34872536681696e-01 3.92904938579542e-03
3.66916666666667e-01 2.30412017920145e-01 3.86092633974921e-03
3.68150000000000e-01 2.26036209906194e-01 3.79396299840071e-03
3.69383333333333e-01 2.21743503871413e-01 3.72814013846538e-03
3.70616666666667e-01 2.17532321613817e-01 3.66343884216434e-03
3.71850000000000e-01 2.13401114896352e-01 3.59984049429815e-03
3.73083333333333e-01 2.09348364878468e-01 3.53732677484110e-03
3.74316666666667e-01 2.05372581577307e-01 3.47587965590705e-03
3.75550000000000e-01 2.01472303300013e-01 3.41548139889705e-03
3.76783333333333e-01 1.97646096107073e-01 3.35611454744066e-03
3.78016666666667e-01 1.93892553303438e-01 3.29776192444604e-03
3.79250000000000e-01 1.90210294902759e-01 3.24040662932333e-03
3.80483333333333e-01 1.86597967120708e-01 3.18403203125805e-03
3.81716666666667e-01 1.83054241894385e-01 3.12862176634661e-03
3.82950000000000e-01 1.79577816376670e-01 3.07415973489673e-03
3.84183333333333e-01 1.76167412457860e-01 3.02063009501882e-03
3.85416666666667e-01 1.72821776311787e-01 2.96801725984730e-03
3.86650000000000e-01 1.69539677918586e-01 2.91630589491901e-03
3.87883333333333e-01 1.66319910613077e-01 2.86548091206848e-03
3.89116666666667e-01 1.63161290656098e-01 2.81552746673520e-03
