Energy (eV)          EEDF (eV^-(3/2))     First Anisotropy
3.75862068965517e-03 7.94201817115921e-01 3.88074706036233e-04
1.12758620689655e-02 7.89482436949675e-01 6.41072829401347e-04
1.87931034482759e-02 7.84791100700219e-01 8.46954476380288e-04
2.63103448275862e-02 7.80127641772897e-01 1.00377026518623e-03
3.38275862068966e-02 7.75491894482103e-01 1.13489301953632e-03
4.13448275862069e-02 7.70883694158662e-01 1.24914766240980e-03
4.88620689655172e-02 7.66302877110936e-01 1.35109520050983e-03
5.63793103448276e-02 7.61749280620264e-01 1.44348641722820e-03
6.38965517241379e-02 7.57222742942216e-01 1.52814340587082e-03
7.14137931034483e-02 7.52723103277348e-01 1.60635238609913e-03
7.89310344827586e-02 7.48250201790016e-01 1.67906430496462e-03
8.64482758620690e-02 7.43803879594274e-01 1.74700749585663e-03
9.39655172413793e-02 7.39383978748393e-01 1.81075556617775e-03
1.01482758620690e-01 7.34990342253628e-01 1.87077060364817e-03
1.09000000000000e-01 7.30622814046404e-01 1.92743190552894e-03
1.16517241379310e-01 7.26281238948737e-01 1.98105575706623e-03
1.24034482758621e-01 7.21965462778465e-01 2.03190948884296e-03
1.31551724137931e-01 7.17675332227968e-01 2.08022171839739e-03
1.39068965517241e-01 7.13410694872064e-01 2.12618993976860e-03
1.46586206896552e-01 7.09171399253640e-01 2.16998631318634e-03
1.54103448275862e-01 7.04957294755810e-01 2.21176211434221e-03
1.61620689655172e-01 7.00768231713930e-01 2.25165121540616e-03
1.69137931034483e-01 6.96604061322607e-01 2.28977286251707e-03
1.76655172413793e-01 6.92464635638414e-01 2.32623387288735e-03
1.84172413793103e-01 6.88349807644815e-01 2.36113044392053e-03
1.91689655172414e-01 6.84259431173942e-01 2.39454963522825e-03
1.99206896551724e-01 6.80193360907098e-01 2.42657056707697e-03
2.06724137931035e-01 6.76151452429991e-01 2.45726544625172e-03
2.14241379310345e-01 6.72133562146892e-01 2.48670041395522e-03
2.21758620689655e-01 6.68139547353746e-01 2.51493626144635e-03
2.29275862068966e-01 6.64169266174485e-01 2.54202905234966e-03
2.36793103448276e-01 6.60222577560197e-01 2.56803062884291e-03
2.44310344827586e-01 6.56299341333631e-01 2.59298907214913e-03
2.51827586206897e-01 6.52399418117852e-01 2.61694908870177e-03
2.59344827586207e-01 6.48522669395860e-01 2.63995234492818e-03
2.66862068965517e-01 6.44668957457426e-01 2.66203777192229e-03
2.74379310344828e-01 6.40838145397065e-01 2.68324180859848e-03
2.81896551724138e-01 6.37030097151034e-01 2.70359863629964e-03
2.89413793103448e-01 6.33244677449551e-01 2.72314038613531e-03
2.96931034482759e-01 6.29481751814471e-01 2.74189730271339e-03
3.04448275862069e-01 6.25741186592049e-01 2.75989791126799e-03
3.11965517241379e-01 6.22022848898016e-01 2.77716915645505e-03
3.19482758620690e-01 6.18326606661893e-01 2.79373652602361e-03
3.27000000000000e-01 6.14652328585599e-01 2.80962417252401e-03
3.34517241379310e-01 6.10999884140672e-01 2.82485500227530e-03
3.42034482758621e-01 6.07369143596178e-01 2.83945077357021e-03
3.49551724137931e-01 6.03759977980843e-01 2.85343218558134e-03
3.57068965517241e-01 6.00172259080090e-01 2.86681894154385e-03
3.64586206896552e-01 5.96605859461187e-01 2.87962982497395e-03
3.72103448275862e-01 5.93060652429088e-01 2.89188276004975e-03
3.79620689655172e-01 5.89536512060770e-01 2.90359486628926e-03
3.87137931034483e-01 5.86033313171662e-01 2.91478251791014e-03
3.94655172413793e-01 5.82550931312530e-01 2.92546138019279e-03
4.02172413793103e-01 5.79089242791244e-01 2.93564645865602e-03
4.09689655172414e-01 5.75648124641696e-01 2.94535214432214e-03
4.17206896551724e-01 5.72227454620554e-01 2.95459224004023e-03
4.24724137931035e-01 5.68827111227122e-01 2.96338000141543e-03
4.32241379310345e-01 5.65446973666767e-01 2.97172816662232e-03
4.39758620689655e-01 5.62086921878302e-01 2.97964898364392e-03
4.47275862068966e-01 5.58746836505972e-01 2.98715424379875e-03
4.54793103448276e-01 5.55426598896209e-01 2.99425529686865e-03
4.62310344827586e-01 5.52126091115012e-01 3.00096308076084e-03
4.69827586206897e-01 5.48845195914921e-01 3.00728814158050e-03
4.77344827586207e-01 5.45583796759197e-01 3.01324065201829e-03
4.84862068965517e-01 5.42341777796469e-01 3.01883043628269e-03
4.92379310344828e-01 5.39119023857406e-01 3.02406697839004e-03
4.99896551724138e-01 5.35915420470088e-01 3.02895944312137e-03
5.07413793103448e-01 5.32730853836170e-01 3.03351669566418e-03
5.14931034482759e-01 5.29565210827575e-01 3.03774730715983e-03
5.22448275862069e-01 5.26418379000637e-01 3.04165957391024e-03
5.29965517241379e-01 5.23290246567880e-01 3.04526152865360e-03
5.37482758620690e-01 5.20180702417894e-01 3.04856095089378e-03
5.45000000000000e-01 5.17089636093525e-01 3.05156538359719e-03
5.52517241379310e-01 5.14016937788576e-01 3.05428213543753e-03
5.60034482758621e-01 5.10962498360396e-01 3.05671829481146e-03
5.67551724137931e-01 5.07926209309270e-01 3.05888074307578e-03
5.75068965517241e-01 5.04907962775133e-01 3.06077615545046e-03
5.82586206896552e-01 5.01907651549225e-01 3.06241101451968e-03
5.90103448275862e-01 4.98925169049633e-01 3.06379161689044e-03
5.97620689655172e-01 4.95960409337856e-01 3.06492407926144e-03
6.05137931034483e-01 4.93013267099787e-01 3.06581435047258e-03
6.12655172413793e-01 4.90083637642482e-01 3.06646821073551e-03
6.20172413793104e-01 4.87171416904586e-01 3.06689128168764e-03
6.27689655172414e-01 4.84276501438294e-01 3.06708903594467e-03
6.35206896551724e-01 4.81398788406124e-01 3.06706679565859e-03
6.42724137931035e-01 4.78538175590618e-01 3.06682974263070e-03
6.50241379310345e-01 4.75694561372918e-01 3.06638292238116e-03
6.57758620689655e-01 4.72867844746703e-01 3.06573124781628e-03
6.65275862068966e-01 4.70057925301444e-01 3.06487950844071e-03
6.72793103448276e-01 4.67264703219251e-01 3.06383236805318e-03
6.80310344827586e-01 4.64488079283588e-01 3.06259437343213e-03
6.87827586206897e-01 4.61727954859393e-01 3.06116995735135e-03
6.95344827586207e-01 4.58984231905708e-01 3.05956344126775e-03
7.02862068965517e-01 4.56256812960118e-01 3.05777904331545e-03
7.10379310344828e-01 4.53545601135632e-01 3.05582087543738e-03
7.17896551724138e-01 4.50850500128555e-01 3.05369294995211e-03
7.25413793103448e-01 4.48171414203618e-01 3.05139918583589e-03
7.32931034482759e-01 4.45508248190911e-01 3.04894340565074e-03
7.40448275862069e-01 4.42860907493222e-01 3.04632934254781e-03
7.47965517241379e-01 4.40229298068382e-01 3.04356064215811e-03
7.55482758620690e-01 4.37613326440037e-01 3.04064086423493e-03
7.63000000000000e-01 4.35012899683755e-01 3.03757348918519e-03
7.70517241379310e-01 4.32427925424022e-01 3.03436191472545e-03
7.78034482758621e-01 4.29858311840880e-01 3.03100946119737e-03
7.85551724137931e-01 4.27303967656630e-01 3.02751937666751e-03
7.93068965517241e-01 4.24764802132861e-01 3.02389483350474e-03
8.00586206896552e-01 4.22240725076667e-01 3.02013893420725e-03
8.08103448275862e-01 4.19731646824859e-01 3.01625471258537e-03
8.15620689655172e-01 4.17237478253215e-01 3.01224513474700e-03
8.23137931034483e-01 4.14758130763991e-01 3.00811310458878e-03
8.30655172413793e-01 4.12293516283031e-01 3.00386146026316e-03
8.38172413793103e-01 4.09843547265402e-01 2.99949297860611e-03
8.45689655172414e-01 4.07408136683421e-01 2.99501037939693e-03
8.53206896551724e-01 4.04987198023793e-01 2.99041632181566e-03
8.60724137931035e-01 4.02580645292893e-01 2.98571340941013e-03
8.68241379310345e-01 4.00188393002581e-01 2.98090419082072e-03
8.75758620689655e-01 3.97810356178165e-01 2.97599116034191e-03
8.83275862068966e-01 3.95446450347134e-01 2.97097676263995e-03
8.90793103448276e-01 3.93096591536372e-01 2.96586338919305e-03
8.98310344827586e-01 3.90760696276960e-01 2.96065338284268e-03
9.05827586206897e-01 3.88438681590832e-01 2.95534903831071e-03
9.13344827586207e-01 3.86130464998083e-01 2.94995260256821e-03
9.20862068965517e-01 3.83835964506359e-01 2.94446627917590e-03
9.28379310344828e-01 3.81555098608132e-01 2.93889222474561e-03
9.35896551724138e-01 3.79287786285069e-01 2.93323255238956e-03
9.43413793103448e-01 3.77033946997816e-01 2.92748933505016e-03
9.50931034482759e-01 3.74793500683316e-01 2.92166460200540e-03
9.58448275862069e-01 3.72566367758911e-01 2.91576034285804e-03
9.65965517241379e-01 3.70352469110258e-01 2.90977850781677e-03
9.73482758620690e-01 3.68151726097670e-01 2.90372100784943e-03
9.81000000000000e-01 3.65964060546468e-01 2.89758971850742e-03
9.88517241379310e-01 3.63789394744363e-01 2.89138647648920e-03
9.96034482758621e-01 3.61627651445201e-01 2.88511308265901e-03
1.00355172413793e+00 3.59478753859648e-01 2.87877130159161e-03
1.01106896551724e+00 3.57342625662923e-01 2.87236287440871e-03
1.01858620689655e+00 3.55219190948829e-01 2.86588949595001e-03
1.02610344827586e+00 3.53108374309604e-01 2.85935282359193e-03
1.03362068965517e+00 3.51010100764871e-01 2.85275449855613e-03
1.04113793103448e+00 3.48924295779802e-01 2.84609612394104e-03
1.04865517241379e+00 3.46850885262463e-01 2.83937927230889e-03
1.05617241379310e+00 3.44789795561224e-01 2.83260548636525e-03
1.06368965517241e+00 3.42740953462113e-01 2.82577628590190e-03
1.07120689655172e+00 3.40704286167603e-01 2.81889314949156e-03
1.07872413793103e+00 3.38679721350254e-01 2.81195752779639e-03
1.08624137931034e+00 3.36667187093528e-01 2.80497085695062e-03
1.09375862068966e+00 3.34666611908239e-01 2.79793453987933e-03
1.10127586206897e+00 3.32677924729988e-01 2.79084995331213e-03
1.10879310344828e+00 3.30701054916688e-01 2.78371844833666e-03
1.11631034482759e+00 3.28735932246030e-01 2.77654135683341e-03
1.12382758620690e+00 3.26782486895964e-01 2.76931997425698e-03
1.13134482758621e+00 3.24840649493630e-01 2.76205557202975e-03
1.13886206896552e+00 3.22910351061135e-01 2.75474941001138e-03
1.14637931034483e+00 3.20991523030480e-01 2.74740271893679e-03
1.15389655172414e+00 3.19084097241096e-01 2.74001670692888e-03
1.16141379310345e+00 3.17188005937461e-01 2.73259255995401e-03
1.16893103448276e+00 3.15303181766682e-01 2.72513144779366e-03
1.17644827586207e+00 3.13429557760496e-01 2.71763450785062e-03
1.18396551724138e+00 3.11567067380003e-01 2.71010285671245e-03
1.19148275862069e+00 3.09715644465877e-01 2.70253760179244e-03
1.19900000000000e+00 3.07875223251935e-01 2.69493982481289e-03
1.20651724137931e+00 3.06045738362786e-01 2.68731058786849e-03
1.21403448275862e+00 3.04227124811521e-01 2.67965093380390e-03
1.22155172413793e+00 3.02419317997412e-01 2.67196188659592e-03
1.22906896551724e+00 3.00622253703611e-01 2.66424445684410e-03
1.23658620689655e+00 2.98835868080727e-01 2.65649962667724e-03
1.24410344827586e+00 2.97060097687244e-01 2.64872836044962e-03
1.25162068965517e+00 2.95294879444306e-01 2.64093161551345e-03
1.25913793103448e+00 2.93540150647890e-01 2.63311032683051e-03
1.26665517241379e+00 2.91795848966569e-01 2.62526541255698e-03
1.27417241379310e+00 2.90061912439324e-01 2.61739777436374e-03
1.28168965517241e+00 2.88338279473325e-01 2.60950830256560e-03
1.28920689655172e+00 2.86624888828741e-01 2.60159786190527e-03
1.29672413793103e+00 2.84921679655826e-01 2.59366730156996e-03
1.30424137931034e+00 2.83228591453248e-01 2.58571746528113e-03
1.31175862068966e+00 2.81545564079189e-01 2.57774917681095e-03
1.31927586206897e+00 2.79872537749200e-01 2.56976324519794e-03
1.32679310344828e+00 2.78209453034104e-01 2.56176046501654e-03
1.33431034482759e+00 2.76556250857870e-01 2.55374162117685e-03
1.34182758620690e+00 2.74912872483526e-01 2.54570747552986e-03
1.34934482758621e+00 2.73279259547264e-01 2.53765877625942e-03
1.35686206896552e+00 2.71655354019946e-01 2.52959626734543e-03
1.36437931034483e+00 2.70041098217264e-01 2.52152067491987e-03
1.37189655172414e+00 2.68436434797677e-01 2.51343271215159e-03
1.37941379310345e+00 2.66841306760391e-01 2.50533307947457e-03
1.38693103448276e+00 2.65255657443331e-01 2.49722246908039e-03
1.39444827586207e+00 2.63679430510062e-01 2.48910155229540e-03
1.40196551724138e+00 2.62112569981183e-01 2.48097098839551e-03
1.40948275862069e+00 2.60555020198740e-01 2.47283143349292e-03
1.41700000000000e+00 2.59006725835509e-01 2.46468352767642e-03
1.42451724137931e+00 2.57467631893037e-01 2.45652789959154e-03
1.43203448275862e+00 2.55937683699685e-01 2.44836516663538e-03
1.43955172413793e+00 2.54416826908697e-01 2.44019593515661e-03
1.44706896551724e+00 2.52905007496263e-01 2.43202080462038e-03
1.45458620689655e+00 2.51402171749491e-01 2.42384035581474e-03
1.46210344827586e+00 2.49908266295004e-01 2.41565515905457e-03
1.46962068965517e+00 2.48423238066353e-01 2.40746578245228e-03
1.47713793103448e+00 2.46947034312426e-01 2.39927277990586e-03
1.48465517241379e+00 2.45479602595567e-01 2.39107669534982e-03
1.49217241379310e+00 2.44020890789730e-01 2.38287806292640e-03
1.49968965517241e+00 2.42570847078618e-01 2.37467741089960e-03
1.50720689655172e+00 2.41129419944483e-01 2.36647525052612e-03
1.51472413793103e+00 2.39696558194539e-01 2.35827208377242e-03
1.52224137931034e+00 2.38272210930732e-01 2.35006841109576e-03
1.52975862068966e+00 2.36856327557460e-01 2.34186472011439e-03
1.53727586206897e+00 2.35448857779765e-01 2.33366148959910e-03
1.54479310344828e+00 2.34049751601568e-01 2.32545918962058e-03
1.55231034482759e+00 2.32658959323883e-01 2.31725828523163e-03
1.55982758620690e+00 2.31276431534372e-01 2.30905922595980e-03
1.56734482758621e+00 2.29902119131775e-01 2.30086245307307e-03
1.57486206896552e+00 2.28535973297826e-01 2.29266840690673e-03
1.58237931034483e+00 2.27177945504352e-01 2.28447751616813e-03
1.58989655172414e+00 2.25827987511545e-01 2.27629020169299e-03
1.59741379310345e+00 2.24486051366256e-01 2.26810687657270e-03
1.60493103448276e+00 2.23152089400289e-01 2.25992794961669e-03
1.61244827586207e+00 2.21826054220660e-01 2.25175381543191e-03
1.61996551724138e+00 2.20507898732197e-01 2.24358486126739e-03
1.62748275862069e+00 2.19197576111441e-01 2.23542147391835e-03
1.63500000000000e+00 2.17895039813171e-01 2.22726402962583e-03
1.64251724137931e+00 2.16600243568747e-01 2.21911289761437e-03
1.65003448275862e+00 2.15313141384473e-01 2.21096844020210e-03
1.65755172413793e+00 2.14033687539965e-01 2.20283101291534e-03
1.66506896551724e+00 2.12761836586523e-01 2.19470096771479e-03
1.67258620689655e+00 2.11497543338124e-01 2.18657864370612e-03
1.68010344827586e+00 2.10240762892124e-01 2.17846437353412e-03
1.68762068965517e+00 2.08991450605225e-01 2.17035848983348e-03
1.69513793103448e+00 2.07749562099413e-01 2.16226131577208e-03
1.70265517241379e+00 2.06515053260376e-01 2.15417316834899e-03
1.71017241379310e+00 2.05287880235951e-01 2.14609435849411e-03
1.71768965517241e+00 2.04067999434556e-01 2.13802519411153e-03
1.72520689655172e+00 2.02855367516766e-01 2.12996597129747e-03
1.73272413793103e+00 2.01649941414523e-01 2.12191698037282e-03
1.74024137931034e+00 2.00451678308736e-01 2.11387851196995e-03
1.74775862068966e+00 1.99260535634761e-01 2.10585084809607e-03
1.75527586206897e+00 1.98076471080878e-01 2.09783426524144e-03
1.76279310344828e+00 1.96899442586803e-01 2.08982903446590e-03
1.77031034482759e+00 1.95729408342185e-01 2.08183542427090e-03
1.77782758620690e+00 1.94566326778726e-01 2.07385369229458e-03
1.78534482758621e+00 1.93410156588006e-01 2.06588409100683e-03
1.79286206896552e+00 1.92260856700605e-01 2.05792687345599e-03
1.80037931034483e+00 1.91118386291146e-01 2.04998228481758e-03
1.80789655172414e+00 1.89982704776846e-01 2.04205056532874e-03
1.81541379310345e+00 1.88853771816081e-01 2.03413195036411e-03
1.82293103448276e+00 1.87731547306949e-01 2.02622667314409e-03
1.83044827586207e+00 1.86615991379883e-01 2.01833495688097e-03
1.83796551724138e+00 1.85507064414224e-01 2.01045702015724e-03
1.84548275862069e+00 1.84404727018723e-01 2.00259308235412e-03
1.85300000000000e+00 1.83308940036203e-01 1.99474335565737e-03
1.86051724137931e+00 1.82219664542170e-01 1.98690804782787e-03
1.86803448275862e+00 1.81136861843433e-01 1.97908736226830e-03
1.87555172413793e+00 1.80060493476727e-01 1.97128149809258e-03
1.88306896551724e+00 1.78990521207349e-01 1.96349065265880e-03
1.89058620689655e+00 1.77926907022295e-01 1.95571501420037e-03
1.89810344827586e+00 1.76869613145510e-01 1.94795476686366e-03
1.90562068965517e+00 1.75818602019851e-01 1.94021009579423e-03
1.91313793103448e+00 1.74773836311354e-01 1.93248117963771e-03
1.92065517241379e+00 1.73735278907899e-01 1.92476819313078e-03
1.92817241379310e+00 1.72702892917902e-01 1.91707130716242e-03
1.93568965517241e+00 1.71676641669001e-01 1.90939069116871e-03
1.94320689655172e+00 1.70656488701615e-01 1.90172650615602e-03
1.95072413793103e+00 1.69642397783143e-01 1.89407890946441e-03
1.95824137931035e+00 1.68634332891097e-01 1.88644805957684e-03
1.96575862068966e+00 1.67632258217047e-01 1.87883410902101e-03
1.97327586206897e+00 1.66636138165343e-01 1.87123720681729e-03
1.98079310344828e+00 1.65645937351859e-01 1.86365749853249e-03
1.98831034482759e+00 1.64661620602732e-01 1.85609512854468e-03
1.99582758620690e+00 1.63683152948318e-01 1.84855023343637e-03
2.00334482758621e+00 1.62710499636412e-01 1.84102294650002e-03
2.01086206896552e+00 1.61743626116474e-01 1.83351340228712e-03
2.01837931034483e+00 1.60782498043271e-01 1.82602172988641e-03
2.02589655172414e+00 1.59827081275658e-01 1.81854805523949e-03
2.03341379310345e+00 1.58877341875368e-01 1.81109250118835e-03
2.04093103448276e+00 1.57933246105809e-01 1.80365518961612e-03
2.04844827586207e+00 1.56994760426375e-01 1.79623623518970e-03
2.05596551724138e+00 1.56061851504784e-01 1.78883574962314e-03
2.06348275862069e+00 1.55134486202291e-01 1.78145384598236e-03
2.07100000000000e+00 1.54212631577075e-01 1.77409063231783e-03
2.07851724137931e+00 1.53296254883061e-01 1.76674621385594e-03
2.08603448275862e+00 1.52385323568763e-01 1.75942069304068e-03
2.09355172413793e+00 1.51479805276124e-01 1.75211416957756e-03
2.10106896551724e+00 1.50579667839372e-01 1.74482674244056e-03
2.10858620689655e+00 1.49684879279723e-01 1.73755850399218e-03
2.11610344827586e+00 1.48795407816761e-01 1.73030954398508e-03
2.12362068965517e+00 1.47911221854726e-01 1.72307995360330e-03
2.13113793103448e+00 1.47032289985611e-01 1.71586981947931e-03
2.13865517241379e+00 1.46158580988040e-01 1.70867922574824e-03
2.14617241379310e+00 1.45290063826169e-01 1.70150825408697e-03
2.15368965517241e+00 1.44426707648577e-01 1.69435698561441e-03
2.16120689655172e+00 1.43568481783289e-01 1.68722549531809e-03
2.16872413793103e+00 1.42715355748395e-01 1.68011385584378e-03
2.17624137931035e+00 1.41867299239198e-01 1.67302214132200e-03
2.18375862068966e+00 1.41024282131078e-01 1.66595042169873e-03
2.19127586206897e+00 1.40186274478425e-01 1.65889876467930e-03
2.19879310344828e+00 1.39353246513574e-01 1.65186723576270e-03
2.20631034482759e+00 1.38525168645751e-01 1.64485590004205e-03
2.21382758620690e+00 1.37702011456380e-01 1.63786481692005e-03
2.22134482758621e+00 1.36883745709011e-01 1.63089404369878e-03
2.22886206896552e+00 1.36070342337250e-01 1.62394363920518e-03
2.23637931034483e+00 1.35261772447428e-01 1.61701365841553e-03
2.24389655172414e+00 1.34458007317564e-01 1.61010415429723e-03
2.25141379310345e+00 1.33659018396357e-01 1.60321517783919e-03
2.25893103448276e+00 1.32864777302164e-01 1.59634677975663e-03
2.26644827586207e+00 1.32075255818589e-01 1.58949900548029e-03
2.27396551724138e+00 1.31290425903753e-01 1.58267189855768e-03
2.28148275862069e+00 1.30510259678970e-01 1.57586550408919e-03
2.28900000000000e+00 1.29734729431218e-01 1.56907986363002e-03
2.29651724137931e+00 1.28963807612150e-01 1.56231501693549e-03
2.30403448275862e+00 1.28197466837123e-01 1.55557100198789e-03
2.31155172413793e+00 1.27435679884220e-01 1.54884785502551e-03
2.31906896551724e+00 1.26678419693288e-01 1.54214561214334e-03
2.32658620689655e+00 1.25925659361806e-01 1.53546430457834e-03
2.33410344827586e+00 1.25177372153477e-01 1.52880396190716e-03
2.34162068965517e+00 1.24433531487683e-01 1.52216461527675e-03
2.34913793103448e+00 1.23694110941755e-01 1.51554629260781e-03
2.35665517241379e+00 1.22959084250034e-01 1.50894902023368e-03
2.36417241379310e+00 1.22228425302944e-01 1.50237282292633e-03
2.37168965517241e+00 1.21502108146055e-01 1.49581772541391e-03
