Energy (eV)          EEDF (eV^-(3/2))     First Anisotropy
2.58139534883721e-03 2.18758984232534e+00 1.22830692811851e-03
7.74418604651163e-03 2.17005276510697e+00 2.02696813859041e-03
1.29069767441860e-02 2.15265627597855e+00 2.67234434543938e-03
1.80697674418605e-02 2.13539924790097e+00 3.16052679522041e-03
2.32325581395349e-02 2.11828056286644e+00 3.56593049582785e-03
2.83953488372093e-02 2.10129911183090e+00 3.91673805690217e-03
3.35581395348837e-02 2.08445379464130e+00 4.22755725924891e-03
3.87209302325581e-02 2.06774351996420e+00 4.50722302458067e-03
4.38837209302326e-02 2.05116720521500e+00 4.76160381527139e-03
4.90465116279070e-02 2.03472377648779e+00 4.99485364678814e-03
5.42093023255814e-02 2.01841216848575e+00 5.21005218163235e-03
5.93720930232558e-02 2.00223132445217e+00 5.40956459987281e-03
6.45348837209302e-02 1.98618019610195e+00 5.59525869876800e-03
6.96976744186047e-02 1.97025774355369e+00 5.76864320979286e-03
7.48604651162791e-02 1.95446293526234e+00 5.93095985249168e-03
8.00232558139535e-02 1.93879474795235e+00 6.08324682870671e-03
8.51860465116279e-02 1.92325216655137e+00 6.22638394562988e-03
9.03488372093023e-02 1.90783418412453e+00 6.36112550664380e-03
9.55116279069767e-02 1.89253980180914e+00 6.48812481464108e-03
1.00674418604651e-01 1.87736802875005e+00 6.60795277646149e-03
1.05837209302326e-01 1.86231788203538e+00 6.72111227038175e-03
1.11000000000000e-01 1.84738838659196e+00 6.82804937658998e-03
1.16162790697674e-01 1.83257857533492e+00 6.92916235372192e-03
1.21325581395349e-01 1.81788748867517e+00 7.02480879730722e-03
1.26488372093023e-01 1.80331417484441e+00 7.11531142111404e-03
1.31651162790698e-01 1.78885768981321e+00 7.20096291631096e-03
1.36813953488372e-01 1.77451709690175e+00 7.28202986424390e-03
1.41976744186046e-01 1.76029146704879e+00 7.35875600605965e-03
1.47139534883721e-01 1.74617987864108e+00 7.43136503894968e-03
1.52302325581395e-01 1.73218141754475e+00 7.50006298038182e-03
1.57465116279070e-01 1.71829517676985e+00 7.56504013901879e-03
1.62627906976744e-01 1.70452025668983e+00 7.62647278795488e-03
1.67790697674419e-01 1.69085576497071e+00 7.68452470282848e-03
1.72953488372093e-01 1.67730081627029e+00 7.73934840155157e-03
1.78116279069767e-01 1.66385453242458e+00 7.79108621927400e-03
1.83279069767442e-01 1.65051604238114e+00 7.83987133794345e-03
1.88441860465116e-01 1.63728448192700e+00 7.88582860412973e-03
1.93604651162791e-01 1.62415899384918e+00 7.92907525594069e-03
1.98767441860465e-01 1.61113872780681e+00 7.96972160497297e-03
2.03930232558140e-01 1.59822284033810e+00 8.00787164009242e-03
2.09093023255814e-01 1.58541049461726e+00 8.04362353096137e-03
2.14255813953488e-01 1.57270086059011e+00 8.07707006683011e-03
2.19418604651163e-01 1.56009311491313e+00 8.10829912810161e-03
2.24581395348837e-01 1.54758644072996e+00 8.13739403500769e-03
2.29744186046512e-01 1.53518002778927e+00 8.16443385984256e-03
2.34906976744186e-01 1.52287307238653e+00 8.18949378278904e-03
2.40069767441860e-01 1.51066477715750e+00 8.21264534351404e-03
2.45232558139535e-01 1.49855435118156e+00 8.23395666787988e-03
2.50395348837209e-01 1.48654100992514e+00 8.25349274366701e-03
2.55558139534884e-01 1.47462397505045e+00 8.27131560519253e-03
2.60720930232558e-01 1.46280247450640e+00 8.28748450787173e-03
2.65883720930233e-01 1.45107574243104e+00 8.30205611832883e-03
2.71046511627907e-01 1.43944301914393e+00 8.31508468754916e-03
2.76209302325581e-01 1.42790355097048e+00 8.32662218329126e-03
2.81372093023256e-01 1.41645659032019e+00 8.33671840369414e-03
2.86534883720930e-01 1.40510139563437e+00 8.34542114372379e-03
2.91697674418605e-01 1.39383723122166e+00 8.35277628938114e-03
2.96860465116279e-01 1.38266336732727e+00 8.35882790379124e-03
3.02023255813954e-01 1.37157908008216e+00 8.36361836543255e-03
3.07186046511628e-01 1.36058365134883e+00 8.36718843984034e-03
3.12348837209302e-01 1.34967636878272e+00 8.36957735141944e-03
3.17511627906977e-01 1.33885652574986e+00 8.37082287592728e-03
3.22674418604651e-01 1.32812342131342e+00 8.37096142552671e-03
3.27837209302326e-01 1.31747636009065e+00 8.37002810536146e-03
3.33000000000000e-01 1.30691465230603e+00 8.36805675959465e-03
3.38162790697674e-01 1.29643761374384e+00 8.36508006688271e-03
3.43325581395349e-01 1.28604456561304e+00 8.36112957888831e-03
3.48488372093023e-01 1.27573483459448e+00 8.35623575567110e-03
3.53651162790698e-01 1.26550775279475e+00 8.35042804880973e-03
3.58813953488372e-01 1.25536265761849e+00 8.34373493098025e-03
3.63976744186047e-01 1.24529889181034e+00 8.33618392834090e-03
3.69139534883721e-01 1.23531580338392e+00 8.32780167301735e-03
3.74302325581395e-01 1.22541274560524e+00 8.31861395155010e-03
3.79465116279070e-01 1.21558907687327e+00 8.30864573096070e-03
3.84627906976744e-01 1.20584416075637e+00 8.29792117764795e-03
3.89790697674419e-01 1.19617736594900e+00 8.28646372030576e-03
3.94953488372093e-01 1.18658806615826e+00 8.27429606549471e-03
4.00116279069767e-01 1.17707564013620e+00 8.26144021189217e-03
4.05279069767442e-01 1.16763947163771e+00 8.24791750684982e-03
4.10441860465116e-01 1.15827894931270e+00 8.23374865802081e-03
4.15604651162791e-01 1.14899346673471e+00 8.21895374842504e-03
4.20767441860465e-01 1.13978242233878e+00 8.20355226979591e-03
4.25930232558140e-01 1.13064521940329e+00 8.18756315336517e-03
4.31093023255814e-01 1.12158126594845e+00 8.17100478208074e-03
4.36255813953488e-01 1.11258997476114e+00 8.15389499737397e-03
4.41418604651163e-01 1.10367076335529e+00 8.13625114469016e-03
4.46581395348837e-01 1.09482305387511e+00 8.11809007864848e-03
4.51744186046512e-01 1.08604627311693e+00 8.09942816762099e-03
4.56906976744186e-01 1.07733985249070e+00 8.08028133554661e-03
4.62069767441860e-01 1.06870322792755e+00 8.06066506523804e-03
4.67232558139535e-01 1.06013583989908e+00 8.04059440123107e-03
4.72395348837209e-01 1.05163713337976e+00 8.02008398837693e-03
4.77558139534884e-01 1.04320655775867e+00 7.99914807362536e-03
4.82720930232558e-01 1.03484356685642e+00 7.97780051122734e-03
4.87883720930233e-01 1.02654761887212e+00 7.95605478358489e-03
4.93046511627907e-01 1.01831817636443e+00 7.93392402044653e-03
4.98209302325581e-01 1.01015470616805e+00 7.91142100304230e-03
5.03372093023256e-01 1.00205667940811e+00 7.88855816400260e-03
5.08534883720930e-01 9.94023571464820e-01 7.86534762004232e-03
5.13697674418605e-01 9.86054861893412e-01 7.84180117122490e-03
5.18860465116279e-01 9.78150034436705e-01 7.81793030003654e-03
5.24023255813953e-01 9.70308576990565e-01 7.79374620194174e-03
5.29186046511628e-01 9.62529981527259e-01 7.76925978390704e-03
5.34348837209302e-01 9.54813744106259e-01 7.74448166607919e-03
5.39511627906977e-01 9.47159364826930e-01 7.71942219734202e-03
5.44674418604651e-01 9.39566347809619e-01 7.69409146959640e-03
5.49837209302326e-01 9.32034201122885e-01 7.66849931895040e-03
5.55000000000000e-01 9.24562436792489e-01 7.64265532335277e-03
5.60162790697674e-01 9.17150570768876e-01 7.61656882912272e-03
5.65325581395349e-01 9.09798122857294e-01 7.59024894823685e-03
5.70488372093023e-01 9.02504616725383e-01 7.56370455555426e-03
5.75651162790698e-01 8.95269579871472e-01 7.53694431383971e-03
5.80813953488372e-01 8.88092543557447e-01 7.50997667070251e-03
5.85976744186047e-01 8.80973042815096e-01 7.48280985839397e-03
5.91139534883721e-01 8.73910616403685e-01 7.45545190591681e-03
5.96302325581395e-01 8.66904806791405e-01 7.42791065010246e-03
6.01465116279070e-01 8.59955160091513e-01 7.40019373521380e-03
6.06627906976744e-01 8.53061226067342e-01 7.37230860949366e-03
6.11790697674419e-01 8.46222558102385e-01 7.34426254726650e-03
6.16953488372093e-01 8.39438713138846e-01 7.31606264529967e-03
6.22116279069767e-01 8.32709251681603e-01 7.28771581916902e-03
6.27279069767442e-01 8.26033737769060e-01 7.25922882423635e-03
6.32441860465116e-01 8.19411738913980e-01 7.23060825187098e-03
6.37604651162791e-01 8.12842826106540e-01 7.20186052823918e-03
6.42767441860465e-01 8.06326573776135e-01 7.17299192403100e-03
6.47930232558140e-01 7.99862559773416e-01 7.14400856333016e-03
6.53093023255814e-01 7.93450365313897e-01 7.11491642236342e-03
6.58255813953488e-01 7.87089574980042e-01 7.08572132559374e-03
6.63418604651163e-01 7.80779776693729e-01 7.05642896447422e-03
6.68581395348837e-01 7.74520561661899e-01 7.02704489344398e-03
6.73744186046512e-01 7.68311524377861e-01 6.99757452596002e-03
6.78906976744186e-01 7.62152262594461e-01 6.96802315237531e-03
6.84069767441860e-01 7.56042377271667e-01 6.93839593590572e-03
6.89232558139535e-01 7.49981472577204e-01 6.90869790863829e-03
6.94395348837209e-01 7.43969155860349e-01 6.87893398859542e-03
6.99558139534884e-01 7.38005037601401e-01 6.84910897568014e-03
7.04720930232558e-01 7.32088731411689e-01 6.81922754987010e-03
7.09883720930233e-01 7.26219854000066e-01 6.78929427877559e-03
7.15046511627907e-01 7.20398025155926e-01 6.75931362450685e-03
7.20209302325581e-01 7.14622867700913e-01 6.72928994192259e-03
7.25372093023256e-01 7.08894007488269e-01 6.69922747461506e-03
7.30534883720930e-01 7.03211073378120e-01 6.66913037033576e-03
7.35697674418605e-01 6.97573697190846e-01 6.63900267695613e-03
7.40860465116279e-01 6.91981513705925e-01 6.60884833847875e-03
7.46023255813953e-01 6.86434160637816e-01 6.57867120980584e-03
7.51186046511628e-01 6.80931278590934e-01 6.54847505273126e-03
7.56348837209302e-01 6.75472511058038e-01 6.51826353394183e-03
7.61511627906977e-01 6.70057504389871e-01 6.48804023137561e-03
7.66674418604651e-01 6.64685907778991e-01 6.45780863998533e-03
7.71837209302326e-01 6.59357373216692e-01 6.42757216982975e-03
7.77000000000000e-01 6.54071555490921e-01 6.39733414216491e-03
7.82162790697674e-01 6.48828112163515e-01 6.36709780287594e-03
7.87325581395349e-01 6.43626703528554e-01 6.33686631856626e-03
7.92488372093023e-01 6.38466992609907e-01 6.30664277270228e-03
7.97651162790698e-01 6.33348645139022e-01 6.27643017850279e-03
8.02813953488372e-01 6.28271329514670e-01 6.24623147508757e-03
8.07976744186046e-01 6.23234716800159e-01 6.21604952542610e-03
8.13139534883721e-01 6.18238480695758e-01 6.18588712175519e-03
8.18302325581395e-01 6.13282297523388e-01 6.15574699047932e-03
8.23465116279070e-01 6.08365846188055e-01 6.12563179022419e-03
8.28627906976744e-01 6.03488808174745e-01 6.09554410811700e-03
8.33790697674419e-01 5.98650867527441e-01 6.06548647156258e-03
8.38953488372093e-01 5.93851710811812e-01 6.03546134453124e-03
8.44116279069767e-01 5.89091027111839e-01 6.00547112390640e-03
8.49279069767442e-01 5.84368508009342e-01 5.97551815080579e-03
8.54441860465116e-01 5.79683847547882e-01 5.94560470694319e-03
8.59604651162791e-01 5.75036742229144e-01 5.91573301260483e-03
8.64767441860465e-01 5.70426890987845e-01 5.88590523131238e-03
8.69930232558140e-01 5.65853995177287e-01 5.85612347403335e-03
8.75093023255814e-01 5.61317758534741e-01 5.82638979726783e-03
8.80255813953488e-01 5.56817887177608e-01 5.79670619955490e-03
8.85418604651163e-01 5.52354089584084e-01 5.76707463185332e-03
8.90581395348837e-01 5.47926076559646e-01 5.73749699406487e-03
8.95744186046512e-01 5.43533561233019e-01 5.70797513161274e-03
9.00906976744186e-01 5.39176259037315e-01 5.67851084543650e-03
9.06069767441861e-01 5.34853887677580e-01 5.64910588859418e-03
9.11232558139535e-01 5.30566167126594e-01 5.61976196291877e-03
9.16395348837209e-01 5.26312819606461e-01 5.59048072864482e-03
9.21558139534884e-01 5.22093569557183e-01 5.56126380108432e-03
9.26720930232558e-01 5.17908143632312e-01 5.53211274871376e-03
9.31883720930233e-01 5.13756270676715e-01 5.50302909704955e-03
9.37046511627907e-01 5.09637681713231e-01 5.47401433214123e-03
9.42209302325581e-01 5.05552109912499e-01 5.44506989876691e-03
9.47372093023256e-01 5.01499290588485e-01 5.41619719725459e-03
9.52534883720930e-01 4.97478961181100e-01 5.38739759234262e-03
9.57697674418605e-01 4.93490861226958e-01 5.35867241002712e-03
9.62860465116279e-01 4.89534732354794e-01 5.33002293446057e-03
9.68023255813954e-01 4.85610318268497e-01 5.30145041649471e-03
9.73186046511628e-01 4.81717364718773e-01 5.27295607060331e-03
9.78348837209302e-01 4.77855619498471e-01 5.24454107307020e-03
9.83511627906977e-01 4.74024832422289e-01 5.21620656538010e-03
9.88674418604651e-01 4.70224755314261e-01 5.18795365727141e-03
9.93837209302326e-01 4.66455141980527e-01 5.15978342502730e-03
9.99000000000000e-01 4.62715748204598e-01 5.13169691435705e-03
1.00416279069767e+00 4.59006331713565e-01 5.10369512956690e-03
1.00932558139535e+00 4.55326652208853e-01 5.07577904473347e-03
1.01448837209302e+00 4.51676471300268e-01 5.04794961388966e-03
1.01965116279070e+00 4.48055552508696e-01 5.02020775489250e-03
1.02481395348837e+00 4.44463661250791e-01 4.99255435607872e-03
1.02997674418605e+00 4.40900564823774e-01 4.96499027687413e-03
1.03513953488372e+00 4.37366032390357e-01 4.93751634839222e-03
1.04030232558140e+00 4.33859834963782e-01 4.91013337401729e-03
1.04546511627907e+00 4.30381745392987e-01 4.88284212996869e-03
1.05062790697674e+00 4.26931538347907e-01 4.85564336586605e-03
1.05579069767442e+00 4.23508990304865e-01 4.82853780528218e-03
1.06095348837209e+00 4.20113879532087e-01 4.80152614627681e-03
1.06611627906977e+00 4.16745986075341e-01 4.77460906192329e-03
1.07127906976744e+00 4.13405091743687e-01 4.74778721082804e-03
1.07644186046512e+00 4.10090980065842e-01 4.72106120743087e-03
1.08160465116279e+00 4.06803436365276e-01 4.69443164272173e-03
1.08676744186047e+00 4.03542247656548e-01 4.66789910525301e-03
1.09193023255814e+00 4.00307202661641e-01 4.64146415069132e-03
1.09709302325581e+00 3.97098091796274e-01 4.61512731265670e-03
1.10225581395349e+00 3.93914707156328e-01 4.58888910317933e-03
1.10741860465116e+00 3.90756842504370e-01 4.56275001314658e-03
1.11258139534884e+00 3.87624293256295e-01 4.53671051274529e-03
1.11774418604651e+00 3.84516856468063e-01 4.51077105188196e-03
1.12290697674419e+00 3.81434330822569e-01 4.48493206060312e-03
1.12806976744186e+00 3.78376516616595e-01 4.45919394951809e-03
1.13323255813953e+00 3.75343215747868e-01 4.43355711019790e-03
1.13839534883721e+00 3.72334231702227e-01 4.40802191557117e-03
1.14355813953488e+00 3.69349369540891e-01 4.38258872031379e-03
1.14872093023256e+00 3.66388435887829e-01 4.35725786978944e-03
1.15388372093023e+00 3.63451238892859e-01 4.33202967457892e-03
1.15904651162791e+00 3.60537588292854e-01 4.30690442814634e-03
1.16420930232558e+00 3.57647295325264e-01 4.28188242476347e-03
1.16937209302326e+00 3.54780172740773e-01 4.25696393340414e-03
1.17453488372093e+00 3.51936034791177e-01 4.23214920696497e-03
1.17969767441860e+00 3.49114697217342e-01 4.20743848260418e-03
1.18486046511628e+00 3.46315977237271e-01 4.18283198207480e-03
1.19002325581395e+00 3.43539693534258e-01 4.15832991204698e-03
1.19518604651163e+00 3.40785666245145e-01 4.13393246442492e-03
1.20034883720930e+00 3.38053716948675e-01 4.10963981666447e-03
1.20551162790698e+00 3.35343668653925e-01 4.08545213207994e-03
1.21067441860465e+00 3.32655345788845e-01 4.06136956014414e-03
1.21583720930233e+00 3.29988574188879e-01 4.03739223678389e-03
1.22100000000000e+00 3.27343181085681e-01 4.01352029208917e-03
1.22616279069767e+00 3.24718995075430e-01 3.98975382819769e-03
1.23132558139535e+00 3.22115846169635e-01 3.96609293456599e-03
1.23648837209302e+00 3.19533565721780e-01 3.94253770346873e-03
1.24165116279070e+00 3.16971986437327e-01 3.91908820733593e-03
1.24681395348837e+00 3.14430942362872e-01 3.89574450670830e-03
1.25197674418605e+00 3.11910268875400e-01 3.87250665049501e-03
1.25713953488372e+00 3.09409802671616e-01 3.84937467622777e-03
1.26230232558140e+00 3.06929381757363e-01 3.82634861030960e-03
1.26746511627907e+00 3.04468845437128e-01 3.80342846825405e-03
1.27262790697674e+00 3.02028034303640e-01 3.78061425492662e-03
1.27779069767442e+00 2.99606790227536e-01 3.75790596478226e-03
1.28295348837209e+00 2.97204956347114e-01 3.73530358209314e-03
1.28811627906977e+00 2.94822377058178e-01 3.71280708117479e-03
1.29327906976744e+00 2.92458898003948e-01 3.69041643305036e-03
1.29844186046512e+00 2.90114366047774e-01 3.66813158621949e-03
1.30360465116279e+00 2.87788629315444e-01 3.64595247988724e-03
1.30876744186047e+00 2.85481537132753e-01 3.62387905739424e-03
1.31393023255814e+00 2.83192940033397e-01 3.60191124651312e-03
1.31909302325581e+00 2.80922689749287e-01 3.58004896632795e-03
1.32425581395349e+00 2.78670639200941e-01 3.55829212743255e-03
1.32941860465116e+00 2.76436642487960e-01 3.53664063212391e-03
1.33458139534884e+00 2.74220554879574e-01 3.51509437459516e-03
1.33974418604651e+00 2.72022232805258e-01 3.49365324111785e-03
1.34490697674419e+00 2.69841533845443e-01 3.47231711022516e-03
1.35006976744186e+00 2.67678316722288e-01 3.45108585289690e-03
1.35523255813953e+00 2.65532441290520e-01 3.42995933273352e-03
1.36039534883721e+00 2.63403768528359e-01 3.40893740612937e-03
1.36555813953488e+00 2.61292160528509e-01 3.38801992244299e-03
1.37072093023256e+00 2.59197480489228e-01 3.36720672970922e-03
1.37588372093023e+00 2.57119592691001e-01 3.34649765806451e-03
1.38104651162791e+00 2.55058362531418e-01 3.32589253110844e-03
1.38620930232558e+00 2.53013656472490e-01 3.30539117744124e-03
1.39137209302326e+00 2.50985342046752e-01 3.28499341368445e-03
1.39653488372093e+00 2.48973287848680e-01 3.26469905037950e-03
1.40169767441860e+00 2.46977363526180e-01 3.24450789213726e-03
1.40686046511628e+00 2.44997439772140e-01 3.22441973778550e-03
1.41202325581395e+00 2.43033388316052e-01 3.20443438051070e-03
1.41718604651163e+00 2.41085081915707e-01 3.18455160799783e-03
1.42234883720930e+00 2.39152394348950e-01 3.16477120257110e-03
1.42751162790698e+00 2.37235200405500e-01 3.14509294132989e-03
1.43267441860465e+00 2.35333375878842e-01 3.12551659628130e-03
1.43783720930233e+00 2.33446797558177e-01 3.10604193447127e-03
1.44300000000000e+00 2.31575343220440e-01 3.08666872294220e-03
1.44816279069767e+00 2.29718891610110e-01 3.06739671428147e-03
1.45332558139535e+00 2.27877322468418e-01 3.04822565649921e-03
1.45848837209302e+00 2.26050516488242e-01 3.02915530306010e-03
1.46365116279070e+00 2.24238355318902e-01 3.01018539808122e-03
1.46881395348837e+00 2.22440721558490e-01 2.99131568145379e-03
1.47397674418605e+00 2.20657498746265e-01 2.97254588895734e-03
1.47913953488372e+00 2.18888571355107e-01 2.95387575237307e-03
1.48430232558140e+00 2.17133824784034e-01 2.93530499959466e-03
1.48946511627907e+00 2.15393145350773e-01 2.91683335473401e-03
1.49462790697674e+00 2.13666420284405e-01 2.89846053822878e-03
1.49979069767442e+00 2.11953537718050e-01 2.88018626694882e-03
1.50495348837209e+00 2.10254386681625e-01 2.86201025429709e-03
1.51011627906977e+00 2.08568857094650e-01 2.84393221031049e-03
1.51527906976744e+00 2.06896839759120e-01 2.82595184596986e-03
1.52044186046512e+00 2.05238226341985e-01 2.80806886058563e-03
1.52560465116279e+00 2.03592909399672e-01 2.79028295039751e-03
1.53076744186047e+00 2.01960782339373e-01 2.77259381730992e-03
1.53593023255814e+00 2.00341739422795e-01 2.75500115597245e-03
1.54109302325581e+00 1.98735675759309e-01 2.73750465823384e-03
1.54625581395349e+00 1.97142487299153e-01 2.72010401322963e-03
1.55141860465116e+00 1.95562070826696e-01 2.70279890746876e-03
1.55658139534884e+00 1.93994323953746e-01 2.68558902491986e-03
1.56174418604651e+00 1.92439145112915e-01 2.66847404709125e-03
1.56690697674419e+00 1.90896433551046e-01 2.65145365311295e-03
1.57206976744186e+00 1.89366089322682e-01 2.63452751981956e-03
1.57723255813954e+00 1.87848013283593e-01 2.61769532182748e-03
1.58239534883721e+00 1.86342107084347e-01 2.60095673161197e-03
1.58755813953488e+00 1.84848273163946e-01 2.58431141958267e-03
1.59272093023256e+00 1.83366414743500e-01 2.56775905779766e-03
1.59788372093023e+00 1.81896435811155e-01 2.55129930905071e-03
1.60304651162791e+00 1.80438241142457e-01 2.53493183429214e-03
1.60820930232558e+00 1.78991736267425e-01 2.51865630016854e-03
1.61337209302326e+00 1.77556827473408e-01 2.50247236784703e-03
1.61853488372093e+00 1.76133421799014e-01 2.48637969685386e-03
1.62369767441860e+00 1.74721427028085e-01 2.47037794514011e-03
1.62886046511628e+00 1.73320751683729e-01 2.45446676914782e-03
