Energy (eV)          EEDF (eV^-(3/2))     First Anisotropy
6.86842105263158e-02 5.37155853756286e-02 4.59276486673939e-05
2.06052631578947e-01 5.27491837011240e-02 7.54109002761395e-05
3.43421052631579e-01 5.18001686415573e-02 9.84216533904919e-05
4.80789473684211e-01 5.08682273928315e-02 1.15230845704247e-04
6.18157894736842e-01 4.99530527785503e-02 1.28704336851818e-04
7.55526315789474e-01 4.90543431487594e-02 1.39944511235756e-04
8.92894736842105e-01 4.81718022805169e-02 1.49531219418255e-04
1.03026315789474e+00 4.73051392802539e-02 1.57820152775751e-04
1.16763157894737e+00 4.64540684862644e-02 1.65050826518436e-04
1.30500000000000e+00 4.56183093804176e-02 1.71395039291043e-04
1.44236842105263e+00 4.47975864885494e-02 1.76981791866409e-04
1.57973684210526e+00 4.39916292926698e-02 1.81911376748660e-04
1.71710526315789e+00 4.32001721417897e-02 1.86263926985441e-04
1.85447368421053e+00 4.24229541642906e-02 1.90104893871775e-04
1.99184210526316e+00 4.16597191819327e-02 1.93488713784296e-04
2.12921052631579e+00 4.09102156218382e-02 1.96461351269298e-04
2.26657894736842e+00 4.01741964446710e-02 1.99062117966857e-04
2.40394736842105e+00 3.94514190516745e-02 2.01325006498611e-04
2.54131578947368e+00 3.87416452087203e-02 2.03279689117826e-04
2.67868421052632e+00 3.80446409677809e-02 2.04952281438302e-04
2.81605263157895e+00 3.73601765897963e-02 2.06365935530129e-04
2.95342105263158e+00 3.66880264689917e-02 2.07541307562828e-04
3.09078947368421e+00 3.60279690584895e-02 2.08496931457168e-04
3.22815789473684e+00 3.53797867972845e-02 2.09249521164294e-04
3.36552631578947e+00 3.47432660366274e-02 2.09814217138528e-04
3.50289473684211e+00 3.41181969754761e-02 2.10204790481830e-04
3.64026315789474e+00 3.35043735853022e-02 2.10433813009754e-04
3.77763157894737e+00 3.29015935442569e-02 2.10512799274588e-04
3.91500000000000e+00 3.23096581704841e-02 2.10452327304966e-04
4.05236842105263e+00 3.17283723566283e-02 2.10262141315027e-04
4.18973684210526e+00 3.11575445055299e-02 2.09951239763061e-04
4.32710526315790e+00 3.05969864670762e-02 2.09527951302701e-04
4.46447368421053e+00 3.00465134761803e-02 2.09000000654276e-04
4.60184210526316e+00 2.95059440918814e-02 2.08374566137532e-04
4.73921052631579e+00 2.89751001364198e-02 2.07658329649909e-04
4.87657894736842e+00 2.84538066399430e-02 2.06857521158352e-04
5.01394736842105e+00 2.79418917793175e-02 2.05977958048261e-04
5.15131578947368e+00 2.74391868226953e-02 2.05025079489780e-04
5.28868421052632e+00 2.69455260738987e-02 2.04003977471605e-04
5.42605263157895e+00 2.64607468178013e-02 2.02919424432063e-04
5.56342105263158e+00 2.59846892667030e-02 2.01775898038696e-04
5.70078947368421e+00 2.55171965076588e-02 2.00577603481029e-04
5.83815789473684e+00 2.50581144507583e-02 1.99328493665402e-04
5.97552631578947e+00 2.46072917775831e-02 1.98032287167583e-04
6.11289473684211e+00 2.41645798936372e-02 1.96692484913702e-04
6.25026315789474e+00 2.37298328770135e-02 1.95312385371972e-04
6.38763157894737e+00 2.33029074310985e-02 1.93895097986757e-04
6.52500000000000e+00 2.28836628373411e-02 1.92443555783707e-04
6.66236842105263e+00 2.24719609088688e-02 1.90960526833272e-04
6.79973684210526e+00 2.20676659449418e-02 1.89448624771836e-04
6.93710526315790e+00 2.16706446862250e-02 1.87910318477633e-04
7.07447368421053e+00 2.12807662708639e-02 1.86347940985577e-04
7.21184210526316e+00 2.08979021913509e-02 1.84763697776480e-04
7.34921052631579e+00 2.05219262516593e-02 1.83159674199367e-04
7.48657894736842e+00 2.01527145272038e-02 1.81537842642918e-04
7.62394736842105e+00 1.97901453224076e-02 1.79900069199600e-04
7.76131578947368e+00 1.94340991311295e-02 1.78248119541109e-04
7.89868421052632e+00 1.90844585972735e-02 1.76583664632730e-04
8.03605263157895e+00 1.87411084761066e-02 1.74908285994310e-04
8.17342105263158e+00 1.84039355962749e-02 1.73223480607804e-04
8.31078947368421e+00 1.80728288225002e-02 1.71530665500919e-04
8.44815789473684e+00 1.77476790189486e-02 1.69831182080465e-04
8.58552631578947e+00 1.74283790128887e-02 1.68126299998270e-04
8.72289473684211e+00 1.71148235604961e-02 1.66417221009459e-04
8.86026315789474e+00 1.68069093110135e-02 1.64705082600704e-04
8.99763157894737e+00 1.65045347730759e-02 1.62990961148681e-04
9.13500000000000e+00 1.62076002812582e-02 1.61275875085641e-04
9.27236842105263e+00 1.59160079632243e-02 1.59560787828625e-04
9.40973684210526e+00 1.56296617074679e-02 1.57846610537831e-04
9.54710526315790e+00 1.53484671316334e-02 1.56134204716565e-04
9.68447368421053e+00 1.50723315514063e-02 1.54424384663577e-04
9.82184210526316e+00 1.48011639499637e-02 1.52717919825000e-04
9.95921052631579e+00 1.45348749477087e-02 1.51015536725090e-04
1.00965789473684e+01 1.42733767746417e-02 1.49317921828829e-04
1.02339473684211e+01 1.40165832354936e-02 1.47625722352905e-04
1.03713157894737e+01 1.37644096913423e-02 1.45939548418474e-04
1.05086842105263e+01 1.35167730234309e-02 1.44259975900194e-04
1.06460526315789e+01 1.32735916083916e-02 1.42587546877099e-04
1.07834210526316e+01 1.30347852913615e-02 1.40922771903598e-04
1.09207894736842e+01 1.28002753574230e-02 1.39266130561037e-04
1.10581578947368e+01 1.25699845121574e-02 1.37618073516896e-04
1.11955263157895e+01 1.23438368495514e-02 1.35979024531341e-04
1.13328947368421e+01 1.21217578292213e-02 1.34349380739852e-04
1.14702631578947e+01 1.19036742518530e-02 1.32729514486803e-04
1.16076315789474e+01 1.16895142332417e-02 1.31119773648749e-04
1.17450000000000e+01 1.14792071861735e-02 1.29520483303979e-04
1.18823684210526e+01 1.12726837914828e-02 1.27931947364530e-04
1.20197368421053e+01 1.10698759771328e-02 1.26354448944455e-04
1.21571052631579e+01 1.08707168941542e-02 1.24788250850285e-04
1.22944736842105e+01 1.06751408995701e-02 1.23233597006413e-04
1.24318421052632e+01 1.04830835297115e-02 1.21690713852125e-04
1.25692105263158e+01 1.02944814806781e-02 1.20159810363571e-04
1.27065789473684e+01 1.01092725874791e-02 1.18641079337759e-04
1.28439473684211e+01 9.92739580213747e-03 1.17134697469605e-04
1.29813157894737e+01 9.74879117784938e-03 1.15640826528349e-04
1.31186842105263e+01 9.57339984486942e-03 1.14159614515231e-04
1.32560526315789e+01 9.40116399257933e-03 1.12691195604857e-04
1.33934210526316e+01 9.23202685044196e-03 1.11235691211951e-04
1.35307894736842e+01 9.06593266806834e-03 1.09793209989933e-04
1.36681578947368e+01 8.90282670055010e-03 1.08363848809708e-04
1.38055263157895e+01 8.74265518664378e-03 1.06947693725782e-04
1.39428947368421e+01 8.58536533232804e-03 1.05544819865379e-04
1.40802631578947e+01 8.43090529340675e-03 1.04155292321072e-04
1.42176315789474e+01 8.27922415736173e-03 1.02779166095177e-04
1.43550000000000e+01 8.13027192979085e-03 1.01416486920196e-04
1.44923684210526e+01 7.98399951465540e-03 1.00067292070054e-04
1.46297368421053e+01 7.84035869920842e-03 9.87316103770670e-05
1.47671052631579e+01 7.69930213715717e-03 9.74094623360044e-05
1.49044736842105e+01 7.56078333594394e-03 9.61008608205866e-05
1.50418421052632e+01 7.42475663848624e-03 9.48058117932085e-05
1.51792105263158e+01 7.29117720912067e-03 9.35243141421755e-05
1.53165789473684e+01 7.16000101882793e-03 9.22563603388013e-05
1.54539473684211e+01 7.03118482989358e-03 9.10019363255617e-05
1.55913157894737e+01 6.90468618417342e-03 8.97610221218136e-05
1.57286842105263e+01 6.78046338654059e-03 8.85335924256761e-05
1.58660526315789e+01 6.65847549200713e-03 8.73196164387678e-05
1.60034210526316e+01 6.53868229223246e-03 8.61190584240609e-05
1.61407894736842e+01 6.42104430154638e-03 8.49318775786656e-05
1.62781578947368e+01 6.30552274613334e-03 8.37580285480850e-05
1.64155263157895e+01 6.19207954901745e-03 8.25974619383530e-05
1.65528947368421e+01 6.08067731826845e-03 8.14501241357877e-05
1.66902631578947e+01 5.97127933467924e-03 8.03159577823709e-05
1.68276315789474e+01 5.86384953902972e-03 7.91949016395700e-05
1.69650000000000e+01 5.75835252212592e-03 7.80868910268059e-05
1.71023684210526e+01 5.65475351117302e-03 7.69918582586229e-05
1.72397368421053e+01 5.55301835897686e-03 7.59097325694595e-05
1.73771052631579e+01 5.45311353211952e-03 7.48404400975138e-05
1.75144736842105e+01 5.35500610164178e-03 7.37839042721994e-05
1.76518421052632e+01 5.25866373042593e-03 7.27400462009734e-05
1.77892105263158e+01 5.16405466313341e-03 7.17087844903269e-05
1.79265789473684e+01 5.07114771573962e-03 7.06900356049534e-05
1.80639473684211e+01 4.97991226475468e-03 6.96837137268463e-05
1.82013157894737e+01 4.89031823865323e-03 6.86897310870071e-05
1.83386842105263e+01 4.80233610641488e-03 6.77079982975329e-05
1.84760526315789e+01 4.71593686831348e-03 6.67384241775649e-05
1.86134210526316e+01 4.63109204636081e-03 6.57809160617303e-05
1.87507894736842e+01 4.54777367447893e-03 6.48353796612312e-05
1.88881578947368e+01 4.46595429062189e-03 6.39017193485025e-05
1.90255263157895e+01 4.38560692636345e-03 6.29798384427377e-05
1.91628947368421e+01 4.30670509846838e-03 6.20696390426986e-05
1.93002631578947e+01 4.22922280016450e-03 6.11710222921303e-05
1.94376315789474e+01 4.15313449218266e-03 6.02838882443976e-05
1.95750000000000e+01 4.07841509551794e-03 5.94081361074176e-05
1.97123684210526e+01 4.00503998196569e-03 5.85436644895561e-05
1.98497368421053e+01 3.93298496640959e-03 5.76903713097100e-05
1.99871052631579e+01 3.86222629849960e-03 5.68481537471220e-05
2.01244736842105e+01 3.79274065589135e-03 5.60169084591886e-05
2.02618421052632e+01 3.72450513547446e-03 5.51965318003720e-05
2.03992105263158e+01 3.65749724618996e-03 5.43869196690033e-05
2.05365789473684e+01 3.59169490161799e-03 5.35879677106393e-05
2.06739473684211e+01 3.52707641238815e-03 5.27995711918722e-05
2.08113157894737e+01 3.46362047997269e-03 5.20216251880580e-05
2.09486842105263e+01 3.40130618870964e-03 5.12540247724951e-05
2.10860526315789e+01 3.34011299923207e-03 5.04966648717768e-05
2.12234210526316e+01 3.28002074169924e-03 4.97494404414989e-05
2.13607894736842e+01 3.22100960887453e-03 4.90122463463342e-05
2.14981578947368e+01 3.16306015042901e-03 4.82849775220465e-05
2.16355263157895e+01 3.10615326568550e-03 4.75675291390431e-05
2.17728947368421e+01 3.05027019760859e-03 4.68597964665124e-05
2.19102631578947e+01 2.99539252662281e-03 4.61616750244009e-05
2.20476315789474e+01 2.94150216429919e-03 4.54730604698685e-05
2.21850000000000e+01 2.88858134812911e-03 4.47938487373456e-05
2.23223684210526e+01 2.83661263492239e-03 4.41239361800411e-05
2.24597368421053e+01 2.78557889531092e-03 4.34632194889810e-05
2.25971052631579e+01 2.73546330788314e-03 4.28115956387850e-05
2.27344736842105e+01 2.68624935430804e-03 4.21689620126069e-05
2.28718421052632e+01 2.63792081321188e-03 4.15352165285130e-05
2.30092105263158e+01 2.59046175506086e-03 4.09102575187330e-05
2.31465789473684e+01 2.54385653691106e-03 4.02939838469287e-05
2.32839473684211e+01 2.49808979705770e-03 3.96862948062608e-05
2.34213157894737e+01 2.45314645056394e-03 3.90870902274216e-05
2.35586842105263e+01 2.40901168368770e-03 3.84962705882050e-05
2.36960526315789e+01 2.36567094920196e-03 3.79137369008987e-05
2.38334210526316e+01 2.32310996160051e-03 3.73393908139042e-05
2.39707894736842e+01 2.28131469221646e-03 3.67731345162969e-05
2.41081578947368e+01 2.24027136512330e-03 3.62148708312954e-05
2.42455263157895e+01 2.19996645206142e-03 3.56645033112398e-05
2.43828947368421e+01 2.16038666815916e-03 3.51219361328649e-05
2.45202631578947e+01 2.12151896755443e-03 3.45870741853968e-05
2.46576315789474e+01 2.08335053894135e-03 3.40598229813248e-05
2.47950000000000e+01 2.04586880181337e-03 3.35400887373537e-05
2.49323684210526e+01 2.00906140184382e-03 3.30277784567376e-05
2.50697368421053e+01 1.97291620697383e-03 3.25227998630530e-05
2.52071052631579e+01 1.93742130327420e-03 3.20250613520180e-05
2.53444736842105e+01 1.90256499144265e-03 3.15344720637901e-05
2.54818421052632e+01 1.86833578251705e-03 3.10509419565884e-05
2.56192105263158e+01 1.83472239423408e-03 3.05743817149671e-05
2.57565789473684e+01 1.80171374731075e-03 3.01047028179691e-05
2.58939473684211e+01 1.76929896166861e-03 2.96418174604323e-05
2.60313157894737e+01 1.73746735322451e-03 2.91856386155553e-05
2.61686842105263e+01 1.70620842998656e-03 2.87360800987912e-05
2.63060526315789e+01 1.67551188872504e-03 2.82930564828376e-05
2.64434210526316e+01 1.64536761157677e-03 2.78564831567334e-05
2.65807894736842e+01 1.61576566259977e-03 2.74262762527327e-05
2.67181578947368e+01 1.58669628483354e-03 2.70023527004471e-05
2.68555263157895e+01 1.55814989674290e-03 2.65846302822521e-05
2.69928947368421e+01 1.53011708917487e-03 2.61730275546424e-05
2.71302631578947e+01 1.50258862225752e-03 2.57674638994705e-05
2.72676315789474e+01 1.47555542225623e-03 2.53678594560260e-05
2.74050000000000e+01 1.44900857888121e-03 2.49741351679193e-05
2.75423684210526e+01 1.42293934204793e-03 2.45862128311096e-05
2.76797368421053e+01 1.39733911909541e-03 2.42040150421107e-05
2.78171052631579e+01 1.37219947186461e-03 2.38274651584324e-05
2.79544736842105e+01 1.34751211418926e-03 2.34564873404282e-05
2.80918421052632e+01 1.32326890888856e-03 2.30910065942332e-05
2.82292105263158e+01 1.29946186517834e-03 2.27309487034260e-05
2.83665789473684e+01 1.27608313603743e-03 2.23762402686298e-05
2.85039473684211e+01 1.25312501554143e-03 2.20268086481958e-05
2.86413157894737e+01 1.23057993656526e-03 2.16825819943724e-05
2.87786842105263e+01 1.20844046804295e-03 2.13434892905371e-05
2.89160526315789e+01 1.18669931260141e-03 2.10094602880862e-05
2.90534210526316e+01 1.16534930415535e-03 2.06804255407351e-05
2.91907894736842e+01 1.14438340547411e-03 2.03563163496274e-05
2.93281578947368e+01 1.12379470607826e-03 2.00370647945791e-05
2.94655263157895e+01 1.10357641974262e-03 1.97226037663248e-05
2.96028947368421e+01 1.08372188233352e-03 1.94128669083052e-05
2.97402631578947e+01 1.06422454961239e-03 1.91077886463546e-05
2.98776315789474e+01 1.04507799501528e-03 1.88073041379164e-05
3.00150000000000e+01 1.02627590772737e-03 1.85113492990360e-05
3.01523684210526e+01 1.00781209040728e-03 1.82198608322613e-05
3.02897368421053e+01 9.89680457210572e-04 1.79327761871317e-05
3.04271052631579e+01 9.71875031725906e-04 1.76500335289905e-05
3.05644736842105e+01 9.54389945181289e-04 1.73715717630351e-05
3.07018421052632e+01 9.37219434330997e-04 1.70973305592163e-05
3.08392105263158e+01 9.20357839616311e-04 1.68272503018983e-05
3.09765789473684e+01 9.03799603300180e-04 1.65612721127050e-05
3.11139473684211e+01 8.87539267583607e-04 1.62993378064272e-05
3.12513157894737e+01 8.71571472963965e-04 1.60413899117387e-05
3.13886842105263e+01 8.55890956308959e-04 1.57873716927294e-05
3.15260526315789e+01 8.40492549175703e-04 1.55372271025206e-05
3.16634210526316e+01 8.25371176107297e-04 1.52909008029882e-05
3.18007894736842e+01 8.10521852913653e-04 1.50483381240672e-05
3.19381578947368e+01 7.95939685169134e-04 1.48094850815786e-05
3.20755263157895e+01 7.81619866456835e-04 1.45742883958176e-05
3.22128947368421e+01 7.67557676832497e-04 1.43426954488481e-05
3.23502631578947e+01 7.53748481268840e-04 1.41146543015111e-05
3.24876315789474e+01 7.40187728086505e-04 1.38901136558645e-05
3.26250000000000e+01 7.26870947579291e-04 1.36690228705162e-05
3.27623684210526e+01 7.13793750413596e-04 1.34513319766452e-05
3.28997368421053e+01 7.00951826224709e-04 1.32369916483184e-05
3.30371052631579e+01 6.88340942158321e-04 1.30259531784889e-05
3.31744736842105e+01 6.75956941590208e-04 1.28181684926030e-05
3.33118421052632e+01 6.63795742639662e-04 1.26135901628541e-05
3.34492105263158e+01 6.51853336863416e-04 1.24121713713670e-05
3.35865789473684e+01 6.40125787934483e-04 1.22138659231774e-05
3.37239473684211e+01 6.28609230310917e-04 1.20186282137471e-05
3.38613157894737e+01 6.17299868064417e-04 1.18264132406171e-05
3.39986842105263e+01 6.06193973524982e-04 1.16371766156734e-05
3.41360526315789e+01 5.95287886087408e-04 1.14508745312717e-05
3.42734210526316e+01 5.84578011004806e-04 1.12674637713819e-05
3.44107894736842e+01 5.74060818173470e-04 1.10869016816575e-05
3.45481578947368e+01 5.63732841061245e-04 1.09091461793961e-05
3.46855263157895e+01 5.53590675471714e-04 1.07341557640689e-05
3.48228947368421e+01 5.43630978453638e-04 1.05618894861708e-05
3.49602631578947e+01 5.33850467199138e-04 1.03923069567696e-05
3.50976315789474e+01 5.24245917934569e-04 1.02253683199275e-05
3.52350000000000e+01 5.14814164940205e-04 1.00610342612032e-05
3.53723684210526e+01 5.05552099423356e-04 9.89926601666970e-06
3.55097368421053e+01 4.96456668521897e-04 9.74002535083559e-06
3.56471052631579e+01 4.87524874273240e-04 9.58327453846044e-06
3.57844736842105e+01 4.78753772701554e-04 9.42897637205235e-06
3.59218421052632e+01 4.70140472770962e-04 9.27709416984655e-06
3.60592105263158e+01 4.61682135458449e-04 9.12759174900762e-06
3.61965789473684e+01 4.53375972818125e-04 8.98043343281867e-06
3.63339473684211e+01 4.45219247040084e-04 8.83558402689124e-06
3.64713157894737e+01 4.37209269615514e-04 8.69300882552329e-06
3.66086842105263e+01 4.29343400382075e-04 8.55267361851202e-06
3.67460526315789e+01 4.21619046676798e-04 8.41454466652072e-06
3.68834210526316e+01 4.14033662481565e-04 8.27858870719507e-06
3.70207894736842e+01 4.06584747563999e-04 8.14477293327018e-06
3.71581578947368e+01 3.99269846713864e-04 8.01306499794494e-06
3.72955263157895e+01 3.92086548872465e-04 7.88343302067720e-06
3.74328947368421e+01 3.85032486358663e-04 7.75584556455241e-06
3.75702631578947e+01 3.78105334088496e-04 7.63027164147012e-06
3.77076315789474e+01 3.71302808790961e-04 7.50668069199455e-06
3.78450000000000e+01 3.64622668309648e-04 7.38504258988486e-06
3.79823684210526e+01 3.58062710808726e-04 7.26532764700651e-06
3.81197368421053e+01 3.51620774065788e-04 7.14750659702624e-06
3.82571052631579e+01 3.45294734742808e-04 7.03155058178033e-06
3.83944736842105e+01 3.39082507736009e-04 6.91743115522613e-06
3.85318421052632e+01 3.32982045438162e-04 6.80512028775015e-06
3.86692105263158e+01 3.26991337080703e-04 6.69459034672733e-06
3.88065789473684e+01 3.21108408070995e-04 6.58581410033873e-06
3.89439473684211e+01 3.15331319326802e-04 6.47876470022279e-06
3.90813157894737e+01 3.09658166681757e-04 6.37341568477145e-06
3.92186842105263e+01 3.04087080212509e-04 6.26974098276099e-06
3.93560526315789e+01 2.98616223637646e-04 6.16771489549469e-06
3.94934210526316e+01 2.93243793712473e-04 6.06731210000094e-06
3.96307894736842e+01 2.87968019621464e-04 5.96850763308204e-06
3.97681578947368e+01 2.82787162434610e-04 5.87127689404736e-06
3.99055263157895e+01 2.77699514493677e-04 5.77559564775534e-06
4.00428947368421e+01 2.72703398863052e-04 5.68144000821713e-06
4.01802631578947e+01 2.67797168777030e-04 5.58878644126075e-06
4.03176315789474e+01 2.62979207085198e-04 5.49761174986287e-06
4.04550000000000e+01 2.58247925755325e-04 5.40789307640153e-06
4.05923684210526e+01 2.53601765313519e-04 5.31960790518891e-06
4.07297368421053e+01 2.49039194342521e-04 5.23273405049086e-06
4.08671052631579e+01 2.44558708966093e-04 5.14724964638795e-06
4.10044736842105e+01 2.40158832386299e-04 5.06313314870142e-06
4.11418421052632e+01 2.35838114363310e-04 4.98036333718083e-06
4.12792105263158e+01 2.31595130748682e-04 4.89891930143579e-06
4.14165789473684e+01 2.27428483015954e-04 4.81878044281905e-06
4.15539473684211e+01 2.23336797789944e-04 4.73992646181541e-06
4.16913157894737e+01 2.19318726423673e-04 4.66233735959845e-06
4.18286842105263e+01 2.15372944523829e-04 4.58599343983218e-06
4.19660526315789e+01 2.11498151524366e-04 4.51087529575529e-06
4.21034210526316e+01 2.07693070257846e-04 4.43696381171402e-06
4.22407894736842e+01 2.03956446525716e-04 4.36424015157471e-06
4.23781578947368e+01 2.00287048711503e-04 4.29268575996606e-06
4.25155263157895e+01 1.96683667347908e-04 4.22228236374659e-06
4.26528947368421e+01 1.93145114727260e-04 4.15301196015097e-06
4.27902631578947e+01 1.89670224510045e-04 4.08485681802372e-06
4.29276315789474e+01 1.86257851332612e-04 4.01779946717047e-06
4.30650000000000e+01 1.82906870453531e-04 3.95182269933437e-06
4.32023684210526e+01 1.79616177358657e-04 3.88690956937671e-06
4.33397368421053e+01 1.76384687405253e-04 3.82304338650886e-06
