Energy (eV)          EEDF (eV^-(3/2))     First Anisotropy
6.26666666666667e-03 2.78637327744599e+00 2.61943295125564e-03
1.88000000000000e-02 2.72280547535184e+00 4.29051243382044e-03
3.13333333333333e-02 2.66068789706039e+00 5.57221139937807e-03
4.38666666666667e-02 2.59998745778626e+00 6.49183638080690e-03
5.64000000000000e-02 2.54067182708573e+00 7.21529157491090e-03
6.89333333333333e-02 2.48270941209633e+00 7.80689723966454e-03
8.14666666666667e-02 2.42606934090618e+00 8.30073131685507e-03
9.40000000000000e-02 2.37072144579320e+00 8.71783870782010e-03
1.06533333333333e-01 2.31663624706965e+00 9.07247880190778e-03
1.19066666666667e-01 2.26378493820668e+00 9.37493779337056e-03
1.31600000000000e-01 2.21213936940365e+00 9.63297922129528e-03
1.44133333333333e-01 2.16167203276676e+00 9.85266655629678e-03
1.56666666666667e-01 2.11235604869343e+00 1.00388639261423e-02
1.69200000000000e-01 2.06416515040463e+00 1.01955579734643e-02
1.81733333333333e-01 2.01707367013773e+00 1.03260738633388e-02
1.94266666666667e-01 1.97105652624013e+00 1.04332257399258e-02
2.06800000000000e-01 1.92608920897973e+00 1.05194246384349e-02
2.19333333333333e-01 1.88214776760451e+00 1.05867577784493e-02
2.31866666666667e-01 1.83920879817535e+00 1.06370482949478e-02
2.44400000000000e-01 1.79724943046903e+00 1.06719010290834e-02
2.56933333333333e-01 1.75624731587411e+00 1.06927381383351e-02
2.69466666666667e-01 1.71618061595588e+00 1.07008273592295e-02
2.82000000000000e-01 1.67702799032749e+00 1.06973046719345e-02
2.94533333333333e-01 1.63876858533868e+00 1.06831926164949e-02
3.07066666666667e-01 1.60138202334897e+00 1.06594153928405e-02
3.19600000000000e-01 1.56484839147286e+00 1.06268113704666e-02
3.32133333333333e-01 1.52914823101474e+00 1.05861434769091e-02
3.44666666666667e-01 1.49426252741891e+00 1.05381080180709e-02
3.57200000000000e-01 1.46017269981215e+00 1.04833421674732e-02
3.69733333333333e-01 1.42686059113860e+00 1.04224303090733e-02
3.82266666666667e-01 1.39430845875180e+00 1.03559095533066e-02
3.94800000000000e-01 1.36249896468953e+00 1.02842745114552e-02
4.07333333333333e-01 1.33141516646394e+00 1.02079813971572e-02
4.19866666666667e-01 1.30104050825999e+00 1.01274516663949e-02
4.32400000000000e-01 1.27135881188547e+00 1.00430752166808e-02
4.44933333333333e-01 1.24235426817399e+00 9.95521316343042e-03
4.57466666666667e-01 1.21401142875432e+00 9.86420034796151e-03
4.70000000000000e-01 1.18631519762487e+00 9.77034756933984e-03
4.82533333333333e-01 1.15925082312932e+00 9.67394353480893e-03
4.95066666666667e-01 1.13280389026260e+00 9.57525664985732e-03
5.07600000000000e-01 1.10696031282382e+00 9.47453662753968e-03
5.20133333333333e-01 1.08170632592687e+00 9.37201590110802e-03
5.32666666666667e-01 1.05702847881000e+00 9.26791093943902e-03
5.45200000000000e-01 1.03291362752541e+00 9.16242343970938e-03
5.57733333333333e-01 1.00934892794956e+00 9.05574137675458e-03
5.70266666666667e-01 9.86321829064686e-01 8.94803999348826e-03
5.82800000000000e-01 9.63820066146922e-01 8.83948270528768e-03
5.95333333333333e-01 9.41831654243124e-01 8.73022189619007e-03
6.07866666666667e-01 9.20344881894516e-01 8.62039967998726e-03
6.20400000000000e-01 8.99348304788162e-01 8.51014859936353e-03
6.32933333333333e-01 8.78830739669324e-01 8.39959224087581e-03
6.45466666666667e-01 8.58781258478963e-01 8.28884582999974e-03
6.58000000000000e-01 8.39189182436182e-01 8.17801678049807e-03
6.70533333333333e-01 8.20044076357163e-01 8.06720517664748e-03
6.83066666666667e-01 8.01335743179860e-01 7.95650424532622e-03
6.95600000000000e-01 7.83054218447490e-01 7.84600079372995e-03
7.08133333333333e-01 7.65189765006980e-01 7.73577559237054e-03
7.20666666666667e-01 7.47732867895783e-01 7.62590375431583e-03
7.33200000000000e-01 7.30674229198709e-01 7.51645508809808e-03
7.45733333333333e-01 7.14004763100595e-01 7.40749440522850e-03
7.58266666666667e-01 6.97715591111687e-01 7.29908182811517e-03
7.70800000000000e-01 6.81798037272132e-01 7.19127307748954e-03
7.83333333333333e-01 6.66243623535256e-01 7.08411972160804e-03
7.95866666666667e-01 6.51044065309410e-01 6.97766942855307e-03
8.08400000000000e-01 6.36191266986288e-01 6.87196620236516e-03
8.20933333333333e-01 6.21677317632760e-01 6.76705058658312e-03
8.33466666666667e-01 6.07494486828456e-01 6.66295987259549e-03
8.46000000000000e-01 5.93635220495788e-01 6.55972829507817e-03
8.58533333333333e-01 5.80092136879737e-01 6.45738719935085e-03
8.71066666666667e-01 5.66858022661769e-01 6.35596521459124e-03
8.83600000000000e-01 5.53925829070981e-01 6.25548841662262e-03
8.96133333333333e-01 5.41288668132629e-01 6.15598046629327e-03
9.08666666666667e-01 5.28939809040191e-01 6.05746275430667e-03
9.21200000000000e-01 5.16872674528517e-01 5.95995453755226e-03
9.33733333333333e-01 5.05080837373148e-01 5.86347305406374e-03
9.46266666666667e-01 4.93558017003512e-01 5.76803364470881e-03
9.58800000000000e-01 4.82298076120291e-01 5.67364986789277e-03
9.71333333333333e-01 4.71295017428768e-01 5.58033359542939e-03
9.83866666666667e-01 4.60542980477257e-01 5.48809511521240e-03
9.96400000000000e-01 4.50036238502111e-01 5.39694323162440e-03
1.00893333333333e+00 4.39769195350282e-01 5.30688533156374e-03
1.02146666666667e+00 4.29736382645537e-01 5.21792748579902e-03
1.03400000000000e+00 4.19932456695206e-01 5.13007454797737e-03
1.04653333333333e+00 4.10352195630905e-01 5.04333017365372e-03
1.05906666666667e+00 4.00990496891486e-01 4.95769692187387e-03
1.07160000000000e+00 3.91842374234231e-01 4.87317635412031e-03
1.08413333333333e+00 3.82902955094400e-01 4.78976903266738e-03
1.09666666666667e+00 3.74167478227959e-01 4.70747461235143e-03
1.10920000000000e+00 3.65631290931606e-01 4.62629192674723e-03
1.12173333333333e+00 3.57289846578284e-01 4.54621898238008e-03
1.13426666666667e+00 3.49138702410098e-01 4.46725303882884e-03
1.14680000000000e+00 3.41173516952058e-01 4.38939068397042e-03
1.15933333333333e+00 3.33390047711867e-01 4.31262782506738e-03
1.17186666666667e+00 3.25784149113956e-01 4.23695975884766e-03
1.18440000000000e+00 3.18351770092970e-01 4.16238123734788e-03
1.19693333333333e+00 3.11088951946945e-01 4.08888645667936e-03
1.20946666666667e+00 3.03991826403822e-01 4.01646911846149e-03
1.22200000000000e+00 2.97056613381817e-01 3.94512248754772e-03
1.23453333333333e+00 2.90279618985777e-01 3.87483937910457e-03
1.24706666666667e+00 2.83657233698036e-01 3.80561221255814e-03
1.25960000000000e+00 2.77185930293762e-01 3.73743306228649e-03
1.27213333333333e+00 2.70862261970975e-01 3.67029364351359e-03
1.28466666666667e+00 2.64682860658034e-01 3.60418535975205e-03
1.29720000000000e+00 2.58644435072964e-01 3.53909934738118e-03
1.30973333333333e+00 2.52743768978245e-01 3.47502646075345e-03
1.32226666666667e+00 2.46977719597659e-01 3.41195731397042e-03
1.33480000000000e+00 2.41343215809411e-01 3.34988232013046e-03
1.34733333333333e+00 2.35837256517390e-01 3.28879167596234e-03
1.35986666666667e+00 2.30456909170515e-01 3.22867539865023e-03
1.37240000000000e+00 2.25199308080231e-01 3.16952336042288e-03
1.38493333333333e+00 2.20061652900481e-01 3.11132527296259e-03
1.39746666666667e+00 2.15041207243097e-01 3.05407071989485e-03
1.41000000000000e+00 2.10135297110937e-01 2.99774918729660e-03
1.42253333333333e+00 2.05341309479325e-01 2.94235004807526e-03
1.43506666666667e+00 2.00656691001415e-01 2.88786259065452e-03
1.44760000000000e+00 1.96078946548868e-01 2.83427604590047e-03
1.46013333333333e+00 1.91605637888001e-01 2.78157957162298e-03
1.47266666666667e+00 1.87234382469411e-01 2.72976227791721e-03
1.48520000000000e+00 1.82962852068681e-01 2.67881325093996e-03
1.49773333333333e+00 1.78788771550931e-01 2.62872153765146e-03
1.51026666666667e+00 1.74709917739324e-01 2.57947616821184e-03
1.52280000000000e+00 1.70724118148839e-01 2.53106617698334e-03
1.53533333333333e+00 1.66829249833328e-01 2.48348058760285e-03
1.54786666666667e+00 1.63023238327866e-01 2.43670843278119e-03
1.56040000000000e+00 1.59304056469121e-01 2.39073877285853e-03
1.57293333333333e+00 1.55669723319413e-01 2.34556068127573e-03
1.58546666666667e+00 1.52118303178174e-01 2.30116326208006e-03
1.59800000000000e+00 1.48647904482915e-01 2.25753566631999e-03
1.61053333333333e+00 1.45256678805144e-01 2.21466707796531e-03
1.62306666666667e+00 1.41942819926500e-01 2.17254672938516e-03
1.63560000000000e+00 1.38704562814734e-01 2.13116391583281e-03
1.64813333333333e+00 1.35540182686698e-01 2.09050798184985e-03
1.66066666666667e+00 1.32447994144980e-01 2.05056833494992e-03
1.67320000000000e+00 1.29426350223719e-01 2.01133445841332e-03
1.68573333333333e+00 1.26473641514190e-01 1.97279589819914e-03
1.69826666666667e+00 1.23588295358035e-01 1.93494227503949e-03
1.71080000000000e+00 1.20768774958095e-01 1.89776329573748e-03
1.72333333333333e+00 1.18013578562409e-01 1.86124874060136e-03
1.73586666666667e+00 1.15321238710387e-01 1.82538847413017e-03
1.74840000000000e+00 1.12690321404172e-01 1.79017245498531e-03
1.76093333333333e+00 1.10119425347166e-01 1.75559072395327e-03
1.77346666666667e+00 1.07607181239703e-01 1.72163341338194e-03
1.78600000000000e+00 1.05152251006789e-01 1.68829075597614e-03
1.79853333333333e+00 1.02753327087504e-01 1.65555307328972e-03
1.81106666666667e+00 1.00409131776968e-01 1.62341078405324e-03
1.82360000000000e+00 9.81184165065832e-02 1.59185441192609e-03
1.83613333333333e+00 9.58799611809215e-02 1.56087457451396e-03
1.84866666666667e+00 9.36925735629684e-02 1.53046199071212e-03
1.86120000000000e+00 9.15550886032689e-02 1.50060748753187e-03
1.87373333333333e+00 8.94663678211258e-02 1.47130198963538e-03
1.88626666666667e+00 8.74252987303083e-02 1.44253652580495e-03
1.89880000000000e+00 8.54307942137481e-02 1.41430223494768e-03
1.91133333333333e+00 8.34817919460916e-02 1.38659035613681e-03
1.92386666666667e+00 8.15772538572323e-02 1.35939223430478e-03
1.93640000000000e+00 7.97161655494423e-02 1.33269932551838e-03
1.94893333333333e+00 7.78975357585146e-02 1.30650318751353e-03
1.96146666666667e+00 7.61203958526514e-02 1.28079548469889e-03
1.97400000000000e+00 7.43837992891289e-02 1.25556799278327e-03
1.98653333333333e+00 7.26868211114529e-02 1.23081258978922e-03
1.99906666666667e+00 7.10285574812921e-02 1.20652126044415e-03
2.01160000000000e+00 6.94081251719751e-02 1.18268610023271e-03
2.02413333333333e+00 6.78246610992554e-02 1.15929930687333e-03
2.03666666666667e+00 6.62773218841254e-02 1.13635318416520e-03
2.04920000000000e+00 6.47652833806349e-02 1.11384014553044e-03
2.06173333333333e+00 6.32877402380172e-02 1.09175270593660e-03
2.07426666666667e+00 6.18439054923642e-02 1.07008348526057e-03
2.08680000000000e+00 6.04330101264238e-02 1.04882521137786e-03
2.09933333333333e+00 5.90543026609937e-02 1.02797071251385e-03
2.11186666666667e+00 5.77070487735650e-02 1.00751292017885e-03
2.12440000000000e+00 5.63905308879192e-02 9.87444871855538e-04
2.13693333333333e+00 5.51040477928356e-02 9.67759703761579e-04
2.14946666666667e+00 5.38469142859321e-02 9.48450653403901e-04
2.16200000000000e+00 5.26184607910350e-02 9.29511061909889e-04
2.17453333333333e+00 5.14180330023732e-02 9.10934367183653e-04
2.18706666666667e+00 5.02449915519634e-02 8.92714106122615e-04
2.19960000000000e+00 4.90987116528618e-02 8.74843916633017e-04
2.21213333333333e+00 4.79785827671426e-02 8.57317531162237e-04
2.22466666666667e+00 4.68840082952802e-02 8.40128778615958e-04
2.23720000000000e+00 4.58144052435233e-02 8.23271586094059e-04
2.24973333333333e+00 4.47692039140686e-02 8.06739972781750e-04
2.26226666666667e+00 4.37478476149930e-02 7.90528051601432e-04
2.27480000000000e+00 4.27497923501110e-02 7.74630030701127e-04
2.28733333333333e+00 4.17745065298607e-02 7.59040207687417e-04
2.29986666666667e+00 4.08214707004333e-02 7.43752971042446e-04
2.31240000000000e+00 3.98901772545874e-02 7.28762801393526e-04
2.32493333333333e+00 3.89801301618630e-02 7.14064266071313e-04
2.33746666666667e+00 3.80908447156436e-02 6.99652020319037e-04
2.35000000000000e+00 3.72218472635062e-02 6.85520808368835e-04
2.36253333333333e+00 3.63726749554700e-02 6.71665458309023e-04
2.37506666666667e+00 3.55428755078116e-02 6.58080883109751e-04
2.38760000000000e+00 3.47320069516231e-02 6.44762081528835e-04
2.40013333333333e+00 3.39396373978923e-02 6.31704133272449e-04
2.41266666666667e+00 3.31653448169651e-02 6.18902199858764e-04
2.42520000000000e+00 3.24087168040779e-02 6.06351525373560e-04
2.43773333333333e+00 3.16693503601441e-02 5.94047431909271e-04
2.45026666666667e+00 3.09468516858310e-02 5.81985320285822e-04
2.46280000000000e+00 3.02408359629174e-02 5.70160670674058e-04
2.47533333333333e+00 2.95509271497356e-02 5.58569038298591e-04
2.48786666666667e+00 2.88767577888991e-02 5.47206054032972e-04
2.50040000000000e+00 2.82179688034123e-02 5.36067424907069e-04
2.51293333333333e+00 2.75742093057893e-02 5.25148930059706e-04
2.52546666666667e+00 2.69451364185306e-02 5.14446421223455e-04
2.53800000000000e+00 2.63304150839865e-02 5.03955823130238e-04
2.55053333333333e+00 2.57297178862383e-02 4.93673129700404e-04
2.56306666666667e+00 2.51427248834815e-02 4.83594404430719e-04
2.57560000000000e+00 2.45691234307126e-02 4.73715780710976e-04
2.58813333333333e+00 2.40086080135185e-02 4.64033458236689e-04
2.60066666666667e+00 2.34608800915811e-02 4.54543703312348e-04
2.61320000000000e+00 2.29256479333179e-02 4.45242849090382e-04
2.62573333333333e+00 2.24026264607855e-02 4.36127292195230e-04
2.63826666666667e+00 2.18915371035684e-02 4.27193492952662e-04
2.65080000000000e+00 2.13921076445667e-02 4.18437975561171e-04
2.66333333333333e+00 2.09040720752696e-02 4.09857324915730e-04
2.67586666666667e+00 2.04271704593421e-02 4.01448186772763e-04
2.68840000000000e+00 1.99611487888058e-02 3.93207267862903e-04
2.70093333333333e+00 1.95057588489892e-02 3.85131332903352e-04
2.71346666666667e+00 1.90607580911713e-02 3.77217204707000e-04
2.72600000000000e+00 1.86259094984522e-02 3.69461764244509e-04
2.73853333333333e+00 1.82009814597339e-02 3.61861947834665e-04
2.75106666666667e+00 1.77857476508205e-02 3.54414747205204e-04
2.76360000000000e+00 1.73799869093251e-02 3.47117209511343e-04
2.77613333333333e+00 1.69834831170766e-02 3.39966434694017e-04
2.78866666666667e+00 1.65960250891169e-02 3.32959575499133e-04
2.80120000000000e+00 1.62174064570332e-02 3.26093837458778e-04
2.81373333333333e+00 1.58474255592283e-02 3.19366476407809e-04
2.82626666666667e+00 1.54858853372909e-02 3.12774798467504e-04
2.83880000000000e+00 1.51325932271856e-02 3.06316159994951e-04
2.85133333333333e+00 1.47873610568591e-02 2.99987965248945e-04
2.86386666666667e+00 1.44500049494975e-02 2.93787666343285e-04
2.87640000000000e+00 1.41203452220409e-02 2.87712763169285e-04
2.88893333333333e+00 1.37982062896380e-02 2.81760801202344e-04
2.90146666666667e+00 1.34834165753309e-02 2.75929371429578e-04
2.91400000000000e+00 1.31758084154026e-02 2.70216110249758e-04
2.92653333333333e+00 1.28752179702202e-02 2.64618697412426e-04
2.93906666666667e+00 1.25814851399224e-02 2.59134855923961e-04
2.95160000000000e+00 1.22944534761385e-02 2.53762351928788e-04
2.96413333333333e+00 1.20139700987925e-02 2.48498992773317e-04
2.97666666666667e+00 1.17398856173963e-02 2.43342626894080e-04
2.98920000000000e+00 1.14720540487091e-02 2.38291143683555e-04
3.00173333333333e+00 1.12103327391056e-02 2.33342471671655e-04
3.01426666666667e+00 1.09545822911013e-02 2.28494578399134e-04
3.02680000000000e+00 1.07046664865530e-02 2.23745470270976e-04
3.03933333333333e+00 1.04604522142180e-02 2.19093190848527e-04
3.05186666666667e+00 1.02218094011655e-02 2.14535820710993e-04
3.06440000000000e+00 9.98861094114403e-03 2.10071477298993e-04
3.07693333333333e+00 9.76073262698427e-03 2.05698313310811e-04
3.08946666666667e+00 9.53805308657301e-03 2.01414516554442e-04
3.10200000000000e+00 9.32045371603826e-03 1.97218309783574e-04
3.11453333333333e+00 9.10781861667327e-03 1.93107949191806e-04
3.12706666666667e+00 8.90003453516865e-03 1.89081724257417e-04
3.13960000000000e+00 8.69699080129178e-03 1.85137957573754e-04
3.15213333333333e+00 8.49857926902865e-03 1.81275003435593e-04
3.16466666666667e+00 8.30469426079225e-03 1.77491247678511e-04
3.17720000000000e+00 8.11523250929299e-03 1.73785107505405e-04
3.18973333333333e+00 7.93009310261658e-03 1.70155030159511e-04
3.20226666666667e+00 7.74917743214453e-03 1.66599492760029e-04
3.21480000000000e+00 7.57238913833327e-03 1.63117002126248e-04
3.22733333333333e+00 7.39963405946495e-03 1.59706093532058e-04
3.23986666666667e+00 7.23082018303339e-03 1.56365330539244e-04
3.25240000000000e+00 7.06585759516874e-03 1.53093304820517e-04
3.26493333333333e+00 6.90465843281553e-03 1.49888634990631e-04
3.27746666666667e+00 6.74713683835391e-03 1.46749966438580e-04
3.29000000000000e+00 6.59320891242433e-03 1.43675971150624e-04
3.30253333333333e+00 6.44279266930369e-03 1.40665346613434e-04
3.31506666666667e+00 6.29580799454685e-03 1.37716815646229e-04
3.32760000000000e+00 6.15217660098255e-03 1.34829126224778e-04
3.34013333333333e+00 6.01182198707358e-03 1.32001050452203e-04
3.35266666666667e+00 5.87466939737811e-03 1.29231384391977e-04
3.36520000000000e+00 5.74064578150312e-03 1.26518947893690e-04
3.37773333333333e+00 5.60967975524928e-03 1.23862583627441e-04
3.39026666666667e+00 5.48170156370452e-03 1.21261156918463e-04
3.40280000000000e+00 5.35664304295598e-03 1.18713555575340e-04
3.41533333333333e+00 5.23443758383334e-03 1.16218688984129e-04
3.42786666666667e+00 5.11502009745972e-03 1.13775487945276e-04
3.44040000000000e+00 4.99832697953640e-03 1.11382904504831e-04
3.45293333333333e+00 4.88429607651098e-03 1.09039911104696e-04
3.46546666666667e+00 4.77286665342206e-03 1.06745500422357e-04
3.47800000000000e+00 4.66397936058382e-03 1.04498685205593e-04
3.49053333333333e+00 4.55757620201668e-03 1.02298497475416e-04
3.50306666666667e+00 4.45360050543333e-03 1.00143988369086e-04
3.51560000000000e+00 4.35199689116168e-03 9.80342279786843e-05
3.52813333333333e+00 4.25271124268669e-03 9.59683046035517e-05
3.54066666666667e+00 4.15569067863545e-03 9.39453245969499e-05
3.55320000000000e+00 4.06088352378777e-03 9.19644122087996e-05
3.56573333333333e+00 3.96823928158813e-03 9.00247088845970e-05
3.57826666666667e+00 3.87770860799677e-03 8.81253731160143e-05
3.59080000000000e+00 3.78924328444755e-03 8.62655802880601e-05
3.60333333333333e+00 3.70279619219827e-03 8.44445220216249e-05
3.61586666666667e+00 3.61832128792358e-03 8.26614060282563e-05
3.62840000000000e+00 3.53577357848921e-03 8.09154559619144e-05
3.64093333333333e+00 3.45510909701768e-03 7.92059108024817e-05
3.65346666666667e+00 3.37628488010718e-03 7.75320247148895e-05
3.66600000000000e+00 3.29925894430004e-03 7.58930669056008e-05
3.67853333333333e+00 3.22399026374906e-03 7.42883210445734e-05
3.69106666666667e+00 3.15043874895422e-03 7.27170851288600e-05
3.70360000000000e+00 3.07856522481141e-03 7.11786713439126e-05
3.71613333333333e+00 3.00833140977242e-03 6.96724055216333e-05
3.72866666666667e+00 2.93969989599845e-03 6.81976270085354e-05
3.74120000000000e+00 2.87263412888281e-03 6.67536885319200e-05
3.75373333333333e+00 2.80709838760474e-03 6.53399556917917e-05
3.76626666666667e+00 2.74305776660534e-03 6.39558068336319e-05
3.77880000000000e+00 2.68047815648533e-03 6.26006329194620e-05
3.79133333333333e+00 2.61932622585927e-03 6.12738370515396e-05
3.80386666666667e+00 2.55956940406609e-03 5.99748343497629e-05
3.81640000000000e+00 2.50117586334926e-03 5.87030518276052e-05
3.82893333333333e+00 2.44411450192470e-03 5.74579279456323e-05
3.84146666666667e+00 2.38835492784350e-03 5.62389124935284e-05
3.85400000000000e+00 2.33386744236846e-03 5.50454664708651e-05
3.86653333333333e+00 2.28062302417446e-03 5.38770616685979e-05
3.87906666666667e+00 2.22859331428664e-03 5.27331805556810e-05
3.89160000000000e+00 2.17775060057300e-03 5.16133161646166e-05
3.90413333333333e+00 2.12806780300135e-03 5.05169716991978e-05
3.91666666666667e+00 2.07951845958154e-03 4.94436604256582e-05
3.92920000000000e+00 2.03207671189893e-03 4.83929055629294e-05
3.94173333333333e+00 1.98571729135739e-03 4.73642399150044e-05
3.95426666666667e+00 1.94041550605864e-03 4.63572057665541e-05
