Energy (eV)          EEDF (eV^-(3/2))     First Anisotropy
5.64545454545455e-04 1.47600615679815e+01 6.92137805762485e-03
1.69363636363636e-03 1.46676353725884e+01 1.14318097392754e-02
2.82272727272727e-03 1.45757879417835e+01 1.50982991023837e-02
3.95181818181818e-03 1.44845156514465e+01 1.78880344738421e-02
5.08090909090909e-03 1.43938149000927e+01 2.02182499334180e-02
6.21000000000000e-03 1.43036821087943e+01 2.22465543484901e-02
7.33909090909091e-03 1.42141137211517e+01 2.40544408387412e-02
8.46818181818182e-03 1.41251062027869e+01 2.56910796718499e-02
9.59727272727273e-03 1.40366560415900e+01 2.71890545355565e-02
1.07263636363636e-02 1.39487597472832e+01 2.85713759844944e-02
1.18554545454545e-02 1.38614138518505e+01 2.98550636877140e-02
1.29845454545455e-02 1.37746149087263e+01 3.10531585413181e-02
1.41136363636364e-02 1.36883594929256e+01 3.21759353420303e-02
1.52427272727273e-02 1.36026442009210e+01 3.32316747352477e-02
1.63718181818182e-02 1.35174656504997e+01 3.42271764892877e-02
1.75009090909091e-02 1.34328204806288e+01 3.51681132030236e-02
1.86300000000000e-02 1.33487053513227e+01 3.60592814779691e-02
1.97590909090909e-02 1.32651169431404e+01 3.69047847064564e-02
2.08881818181818e-02 1.31820519581947e+01 3.77081692699156e-02
2.20172727272727e-02 1.30995071188505e+01 3.84725278654639e-02
2.31463636363636e-02 1.30174791679977e+01 3.92005790468260e-02
2.42754545454545e-02 1.29359648689228e+01 3.98947296039844e-02
2.54045454545455e-02 1.28549610051807e+01 4.05571240113106e-02
2.65336363636364e-02 1.27744643804662e+01 4.11896841130409e-02
2.76627272727273e-02 1.26944718184914e+01 4.17941413161124e-02
2.87918181818182e-02 1.26149801628584e+01 4.23720629593395e-02
2.99209090909091e-02 1.25359862769343e+01 4.29248741033796e-02
3.10500000000000e-02 1.24574870437280e+01 4.34538757079882e-02
3.21790909090909e-02 1.23794793655563e+01 4.39602597935180e-02
3.33081818181818e-02 1.23019601645640e+01 4.44451223670460e-02
3.44372727272727e-02 1.22249263819483e+01 4.49094744213305e-02
3.55663636363636e-02 1.21483749780609e+01 4.53542512270552e-02
3.66954545454545e-02 1.20723029322876e+01 4.57803204165104e-02
3.78245454545455e-02 1.19967072429290e+01 4.61884889509391e-02
3.89536363636364e-02 1.19215849270818e+01 4.65795091733643e-02
4.00827272727273e-02 1.18469330205219e+01 4.69540840909955e-02
4.12118181818182e-02 1.17727485775874e+01 4.73128720048180e-02
4.23409090909091e-02 1.16990286710615e+01 4.76564905827723e-02
4.34700000000000e-02 1.16257703920578e+01 4.79855204764434e-02
4.45990909090909e-02 1.15529708497640e+01 4.83005084510339e-02
4.57281818181818e-02 1.14806271717568e+01 4.86019702604752e-02
4.68572727272727e-02 1.14087365034534e+01 4.88903932158459e-02
4.79863636363636e-02 1.13372960081465e+01 4.91662383892110e-02
4.91154545454545e-02 1.12663028668921e+01 4.94299426647817e-02
5.02445454545455e-02 1.11957542783980e+01 4.96819205665584e-02
5.13736363636364e-02 1.11256474589133e+01 4.99225659069829e-02
5.25027272727273e-02 1.10559796421191e+01 5.01522532780616e-02
5.36318181818182e-02 1.09867480790189e+01 5.03713394032192e-02
5.47609090909091e-02 1.09179500378304e+01 5.05801643653938e-02
5.58900000000000e-02 1.08495828038774e+01 5.07790527412065e-02
5.70190909090909e-02 1.07816436793801e+01 5.09683145732552e-02
5.81481818181818e-02 1.07141299836603e+01 5.11482463355059e-02
5.92772727272727e-02 1.06470390527201e+01 5.13191318199867e-02
6.04063636363636e-02 1.05803682392435e+01 5.14812428719097e-02
6.15354545454545e-02 1.05141149124918e+01 5.16348401270244e-02
6.26645454545454e-02 1.04482764581998e+01 5.17801736754510e-02
6.37936363636364e-02 1.03828502784723e+01 5.19174836738340e-02
6.49227272727273e-02 1.03178337916823e+01 5.20470009109330e-02
6.60518181818182e-02 1.02532244323685e+01 5.21689473309663e-02
6.71809090909091e-02 1.01890196511345e+01 5.22835365183913e-02
6.83100000000000e-02 1.01252169145480e+01 5.23909741611703e-02
6.94390909090909e-02 1.00618137049622e+01 5.24914584281449e-02
7.05681818181818e-02 9.99880752065476e+00 5.25851803852537e-02
7.16972727272727e-02 9.93619587548820e+00 5.26723243849995e-02
7.28263636363636e-02 9.87397629889315e+00 5.27530683628824e-02
7.39554545454545e-02 9.81214633577069e+00 5.28275841667622e-02
7.50845454545454e-02 9.75070354639555e+00 5.28960378517855e-02
7.62136363636364e-02 9.68964550631967e+00 5.29585899563262e-02
7.73427272727273e-02 9.62896980627684e+00 5.30153957605636e-02
7.84718181818182e-02 9.56867405208746e+00 5.30666055290679e-02
7.96009090909091e-02 9.50875586456409e+00 5.31123647384627e-02
8.07300000000000e-02 9.44921287941755e+00 5.31528143029272e-02
8.18590909090909e-02 9.39004274710159e+00 5.31880907406697e-02
8.29881818181818e-02 9.33124313290808e+00 5.32183263869148e-02
8.41172727272727e-02 9.27281171668521e+00 5.32436495959733e-02
8.52463636363636e-02 9.21474619280974e+00 5.32641848742030e-02
8.63754545454545e-02 9.15704427009604e+00 5.32800530510069e-02
8.75045454545454e-02 9.09970367170570e+00 5.32913714291527e-02
8.86336363636364e-02 9.04272213505759e+00 5.32982539268644e-02
8.97627272727273e-02 8.98609741173876e+00 5.33008112123210e-02
9.08918181818182e-02 8.92982726741565e+00 5.32991508310958e-02
9.20209090909091e-02 8.87390948174588e+00 5.32933773268796e-02
9.31500000000000e-02 8.81834184829067e+00 5.32835923660224e-02
9.42790909090909e-02 8.76312217437754e+00 5.32698948159954e-02
9.54081818181818e-02 8.70824828116580e+00 5.32523808690016e-02
9.65372727272727e-02 8.65371800340722e+00 5.32311441605358e-02
9.76663636363636e-02 8.59952918941216e+00 5.32062758318631e-02
9.87954545454545e-02 8.54567970096470e+00 5.31778646292532e-02
9.99245454545454e-02 8.49216741323821e+00 5.31459969979996e-02
1.01053636363636e-01 8.43899021466601e+00 5.31107571439682e-02
1.02182727272727e-01 8.38614600695100e+00 5.30722271106898e-02
1.03311818181818e-01 8.33363270493538e+00 5.30304868720563e-02
1.04440909090909e-01 8.28144823651838e+00 5.29856143925414e-02
1.05570000000000e-01 8.22959054257448e+00 5.29376856062161e-02
1.06699090909091e-01 8.17805757728690e+00 5.28867747459751e-02
1.07828181818182e-01 8.12684730681374e+00 5.28329542268027e-02
1.08957272727273e-01 8.07595771047001e+00 5.27762945249502e-02
1.10086363636364e-01 8.02538678022402e+00 5.27168645044581e-02
1.11215454545455e-01 7.97513252061813e+00 5.26547313800385e-02
1.12344545454545e-01 7.92519294869008e+00 5.25899607685759e-02
1.13473636363636e-01 7.87556609389418e+00 5.25226167381616e-02
1.14602727272727e-01 7.82624999802461e+00 5.24527618553398e-02
1.15731818181818e-01 7.77724271513764e+00 5.23804572306676e-02
1.16860909090909e-01 7.72854231147482e+00 5.23057625621278e-02
1.17990000000000e-01 7.68014686538669e+00 5.22287360993280e-02
1.19119090909091e-01 7.63205446760343e+00 5.21494349178358e-02
1.20248181818182e-01 7.58426322011296e+00 5.20679148008730e-02
1.21377272727273e-01 7.53677123713986e+00 5.19842301180143e-02
1.22506363636364e-01 7.48957664471727e+00 5.18984340997575e-02
1.23635454545455e-01 7.44267758061291e+00 5.18105787917959e-02
1.24764545454545e-01 7.39607219425559e+00 5.17207150882085e-02
1.25893636363636e-01 7.34975864666182e+00 5.16288927631496e-02
1.27022727272727e-01 7.30373511036405e+00 5.15351605015682e-02
1.28151818181818e-01 7.25799976933814e+00 5.14395659290037e-02
1.29280909090909e-01 7.21255081893170e+00 5.13421556400346e-02
1.30410000000000e-01 7.16738646579289e+00 5.12429751569382e-02
1.31539090909091e-01 7.12250492809232e+00 5.11420691641143e-02
1.32668181818182e-01 7.07790443456894e+00 5.10394813945357e-02
1.33797272727273e-01 7.03358322534984e+00 5.09352545138039e-02
1.34926363636364e-01 6.98953955158229e+00 5.08294303561130e-02
1.36055454545455e-01 6.94577167536467e+00 5.07220498762717e-02
1.37184545454545e-01 6.90227786967794e+00 5.06131531721218e-02
1.38313636363636e-01 6.85905641831718e+00 5.05027795060002e-02
1.39442727272727e-01 6.81610561582448e+00 5.03909673256321e-02
1.40571818181818e-01 6.77342376742133e+00 5.02777542844879e-02
1.41700909090909e-01 6.73100918894177e+00 5.01631772612797e-02
1.42830000000000e-01 6.68886020676591e+00 5.00472723174706e-02
1.43959090909091e-01 6.64697515800335e+00 4.99300749009355e-02
1.45088181818182e-01 6.60535238967440e+00 4.98116197396661e-02
1.46217272727273e-01 6.56399025940292e+00 4.96919407334291e-02
1.47346363636364e-01 6.52288713509715e+00 4.95710711595405e-02
1.48475454545455e-01 6.48204139488536e+00 4.94490436256436e-02
1.49604545454545e-01 6.44145142705177e+00 4.93258900854435e-02
1.50733636363636e-01 6.40111562997282e+00 4.92016418537877e-02
1.51862727272727e-01 6.36103241205436e+00 4.90763296214108e-02
1.52991818181818e-01 6.32120019166868e+00 4.89499834693790e-02
1.54120909090909e-01 6.28161739709206e+00 4.88226328829140e-02
1.55250000000000e-01 6.24228246644274e+00 4.86943067098922e-02
1.56379090909091e-01 6.20319384783355e+00 4.85650333398238e-02
1.57508181818182e-01 6.16434999866399e+00 4.84348406055662e-02
1.58637272727273e-01 6.12574938621006e+00 4.83037556832639e-02
1.59766363636364e-01 6.08739048734558e+00 4.81718052736299e-02
1.60895454545455e-01 6.04927178848199e+00 4.80390155568829e-02
1.62024545454545e-01 6.01139178550872e+00 4.79054122041385e-02
1.63153636363636e-01 5.97374898373357e+00 4.77710203883496e-02
1.64282727272727e-01 5.93634189782418e+00 4.76358647950442e-02
1.65411818181818e-01 5.89916905174917e+00 4.74999696328558e-02
1.66540909090909e-01 5.86222897871995e+00 4.73633586436428e-02
1.67670000000000e-01 5.82552022113281e+00 4.72260550629896e-02
1.68799090909091e-01 5.78904133069657e+00 4.70880817787799e-02
1.69928181818182e-01 5.75279086781658e+00 4.69494612409304e-02
1.71057272727273e-01 5.71676740210019e+00 4.68102153695129e-02
1.72186363636364e-01 5.68096951211174e+00 4.66703657156629e-02
1.73315454545455e-01 5.64539578531649e+00 4.65299334192904e-02
1.74444545454545e-01 5.61004481802480e+00 4.63889392175464e-02
1.75573636363636e-01 5.57491521533671e+00 4.62474034529630e-02
1.76702727272727e-01 5.54000559108710e+00 4.61053460814677e-02
1.77831818181818e-01 5.50531456779090e+00 4.59627866802748e-02
1.78960909090909e-01 5.47084077658873e+00 4.58197444554553e-02
1.80090000000000e-01 5.43658285719286e+00 4.56762382048963e-02
1.81219090909091e-01 5.40253945799449e+00 4.55322864596730e-02
1.82348181818182e-01 5.36870923552474e+00 4.53879074014079e-02
1.83477272727273e-01 5.33509085489023e+00 4.52431187781843e-02
1.84606363636364e-01 5.30168298955656e+00 4.50979380481770e-02
1.85735454545455e-01 5.26848432129595e+00 4.49523823403447e-02
1.86864545454545e-01 5.23549354013525e+00 4.48064684608630e-02
1.87993636363636e-01 5.20270934430411e+00 4.46602128993122e-02
1.89122727272727e-01 5.17013044018386e+00 4.45136318347932e-02
1.90251818181818e-01 5.13775554225635e+00 4.43667411419556e-02
1.91380909090909e-01 5.10558337305324e+00 4.42195563967890e-02
1.92510000000000e-01 5.07361266310556e+00 4.40720928421781e-02
1.93639090909091e-01 5.04184215103415e+00 4.39243655145214e-02
1.94768181818182e-01 5.01027058307588e+00 4.37763891682168e-02
1.95897272727273e-01 4.97889671346069e+00 4.36281781988393e-02
1.97026363636364e-01 4.94771930421941e+00 4.34797467719034e-02
1.98155454545455e-01 4.91673712513491e+00 4.33311087865173e-02
1.99284545454545e-01 4.88594895369358e+00 4.31822778803808e-02
2.00413636363636e-01 4.85535357503697e+00 4.30332674345761e-02
2.01542727272727e-01 4.82494978191404e+00 4.28840905783059e-02
2.02671818181818e-01 4.79473637463347e+00 4.27347601935874e-02
2.03800909090909e-01 4.76471216101630e+00 4.25852889197671e-02
2.04930000000000e-01 4.73487595634885e+00 4.24356891216523e-02
2.06059090909091e-01 4.70522658345922e+00 4.22859730033383e-02
2.07188181818182e-01 4.67576287229912e+00 4.21361525392627e-02
2.08317272727273e-01 4.64648366027155e+00 4.19862394040534e-02
2.09446363636364e-01 4.61738779205956e+00 4.18362450883772e-02
2.10575454545455e-01 4.58847411958072e+00 4.16861808654656e-02
2.11704545454545e-01 4.55974150194177e+00 4.15360577950396e-02
2.12833636363636e-01 4.53118880539353e+00 4.13858867270732e-02
2.13962727272727e-01 4.50281490328635e+00 4.12356783055361e-02
2.15091818181818e-01 4.47461867602554e+00 4.10854429721101e-02
2.16220909090909e-01 4.44659901102722e+00 4.09351909697374e-02
2.17350000000000e-01 4.41875480267441e+00 4.07849323132337e-02
2.18479090909091e-01 4.39108495238179e+00 4.06346768919507e-02
2.19608181818182e-01 4.36358836822532e+00 4.04844344068240e-02
2.20737272727273e-01 4.33626396522805e+00 4.03342143063225e-02
2.21866363636364e-01 4.30911066520709e+00 4.01840258909815e-02
2.22995454545455e-01 4.28212739673098e+00 4.00338782826270e-02
2.24124545454545e-01 4.25531309507752e+00 3.98837804275046e-02
2.25253636363636e-01 4.22866670219159e+00 3.97337410992869e-02
2.26382727272727e-01 4.20218716664361e+00 3.95837689020525e-02
2.27511818181818e-01 4.17587344358794e+00 3.94338722732609e-02
2.28640909090909e-01 4.14972449472167e+00 3.92840594865953e-02
2.29770000000000e-01 4.12373928824364e+00 3.91343386249108e-02
2.30899090909091e-01 4.09791679890948e+00 3.89847176730535e-02
2.32028181818182e-01 4.07225600770232e+00 3.88352044603752e-02
2.33157272727273e-01 4.04675590208306e+00 3.86858066022438e-02
2.34286363636364e-01 4.02141547585300e+00 3.85365315945915e-02
2.35415454545455e-01 3.99623372911416e+00 3.83873867856604e-02
2.36544545454545e-01 3.97120966822984e+00 3.82383793785276e-02
2.37673636363636e-01 3.94634230578534e+00 3.80895164335178e-02
2.38802727272727e-01 3.92163066054912e+00 3.79408048706132e-02
2.39931818181818e-01 3.89707375743402e+00 3.77922514718656e-02
2.41060909090909e-01 3.87267062745878e+00 3.76438628836961e-02
2.42190000000000e-01 3.84842030770981e+00 3.74956455920141e-02
2.43319090909091e-01 3.82432184138798e+00 3.73476060063196e-02
2.44448181818182e-01 3.80037427751514e+00 3.71997504072011e-02
2.45577272727273e-01 3.77657667115371e+00 3.70520848928934e-02
2.46706363636364e-01 3.75292808328324e+00 3.69046154649763e-02
2.47835454545455e-01 3.72942758076333e+00 3.67573480024492e-02
2.48964545454545e-01 3.70607423629682e+00 3.66102882637762e-02
2.50093636363636e-01 3.68286712839314e+00 3.64634418888606e-02
2.51222727272727e-01 3.65980534133209e+00 3.63168144010105e-02
2.52351818181818e-01 3.63688796512759e+00 3.61704112088981e-02
2.53480909090909e-01 3.61411409549183e+00 3.60242376084412e-02
2.54610000000000e-01 3.59148283379956e+00 3.58782987599507e-02
2.55739090909091e-01 3.56899328712789e+00 3.57325997644611e-02
2.56868181818182e-01 3.54664456799408e+00 3.55871456157537e-02
2.57997272727273e-01 3.52443579454873e+00 3.54419411515162e-02
2.59126363636364e-01 3.50236609046451e+00 3.52969911311425e-02
2.60255454545455e-01 3.48043458490157e+00 3.51523002119500e-02
2.61384545454545e-01 3.45864041247318e+00 3.50078729508714e-02
2.62513636363636e-01 3.43698271321152e+00 3.48637138060661e-02
2.63642727272727e-01 3.41546063253389e+00 3.47198271385331e-02
2.64771818181818e-01 3.39407332120887e+00 3.45762172137283e-02
2.65900909090909e-01 3.37281993532289e+00 3.44328882031094e-02
2.67030000000000e-01 3.35169963624684e+00 3.42898441631474e-02
2.68159090909091e-01 3.33071159067004e+00 3.41470891047252e-02
2.69288181818182e-01 3.30985497036531e+00 3.40046269492682e-02
2.70417272727273e-01 3.28912895235939e+00 3.38624614840719e-02
2.71546363636364e-01 3.26853271883240e+00 3.37205964330636e-02
2.72675454545455e-01 3.24806545708559e+00 3.35790354349822e-02
2.73804545454545e-01 3.22772635950923e+00 3.34377820447680e-02
2.74933636363636e-01 3.20751462355076e+00 3.32968397349013e-02
2.76062727272727e-01 3.18742945168313e+00 3.31562118967337e-02
2.77191818181818e-01 3.16747005137338e+00 3.30159018418336e-02
2.78320909090909e-01 3.14763563505128e+00 3.28759128032624e-02
2.79450000000000e-01 3.12792542007830e+00 3.27362479162993e-02
2.80579090909091e-01 3.10833862877646e+00 3.25969102816249e-02
2.81708181818182e-01 3.08887448821748e+00 3.24579029251824e-02
2.82837272727273e-01 3.06953223037343e+00 3.23192287573061e-02
2.83966363636364e-01 3.05031109202566e+00 3.21808906371519e-02
2.85095454545455e-01 3.03121031473475e+00 3.20428913526794e-02
2.86224545454545e-01 3.01222914481055e+00 3.19052336218108e-02
2.87353636363636e-01 2.99336683328243e+00 3.17679200935417e-02
2.88482727272727e-01 2.97462263586977e+00 3.16309533490536e-02
2.89611818181818e-01 2.95599581295255e+00 3.14943359028269e-02
2.90740909090909e-01 2.93748562954221e+00 3.13580702037089e-02
2.91870000000000e-01 2.91909135525261e+00 3.12221586172143e-02
2.92999090909091e-01 2.90081226432458e+00 3.10866034831125e-02
2.94128181818182e-01 2.88264763543637e+00 3.09514070786922e-02
2.95257272727273e-01 2.86459675183692e+00 3.08165715813367e-02
2.96386363636364e-01 2.84665890126345e+00 3.06820991272622e-02
2.97515454545455e-01 2.82883337591327e+00 3.05479917931557e-02
2.98644545454545e-01 2.81111947241590e+00 3.04142515971413e-02
2.99773636363636e-01 2.79351649180527e+00 3.02808804997066e-02
3.00902727272727e-01 2.77602373949220e+00 3.01478804046352e-02
3.02031818181818e-01 2.75864052523697e+00 3.00152531599374e-02
3.03160909090909e-01 2.74136616312207e+00 2.98830005587419e-02
3.04290000000000e-01 2.72419997152515e+00 2.97511243230425e-02
3.05419090909091e-01 2.70714127313987e+00 2.96196261562548e-02
3.06548181818182e-01 2.69018939480516e+00 2.94885077095567e-02
3.07677272727273e-01 2.67334366762343e+00 2.93577705476095e-02
3.08806363636364e-01 2.65660342688567e+00 2.92274162021736e-02
3.09935454545455e-01 2.63996801204521e+00 2.90974461552433e-02
3.11064545454545e-01 2.62343676669166e+00 2.89678618398616e-02
3.12193636363636e-01 2.60700903852502e+00 2.88386646409014e-02
3.13322727272727e-01 2.59068417932992e+00 2.87098558958495e-02
3.14451818181818e-01 2.57446154495007e+00 2.85814368955847e-02
3.15580909090909e-01 2.55834049526284e+00 2.84534088851321e-02
3.16710000000000e-01 2.54232039415398e+00 2.83257730487226e-02
3.17839090909091e-01 2.52640060953535e+00 2.81985305578069e-02
3.18968181818182e-01 2.51058051319084e+00 2.80716825402125e-02
3.20097272727273e-01 2.49485948088141e+00 2.79452300487158e-02
3.21226363636364e-01 2.47923689227693e+00 2.78191741100256e-02
3.22355454545455e-01 2.46371213093174e+00 2.76935157093006e-02
3.23484545454545e-01 2.44828458426030e+00 2.75682557908402e-02
3.24613636363636e-01 2.43295364351301e+00 2.74433952587335e-02
3.25742727272727e-01 2.41771870375220e+00 2.73189349775214e-02
3.26871818181818e-01 2.40257916382831e+00 2.71948757728591e-02
3.28000909090909e-01 2.38753442635608e+00 2.70712184321494e-02
3.29130000000000e-01 2.37258389769105e+00 2.69479636908143e-02
3.30259090909091e-01 2.35772698794456e+00 2.68251122761939e-02
3.31388181818182e-01 2.34296311084450e+00 2.67026648792590e-02
3.32517272727273e-01 2.32829168382877e+00 2.65806221257888e-02
3.33646363636364e-01 2.31371212798321e+00 2.64589846211704e-02
3.34775454545455e-01 2.29922386801878e+00 2.63377529361732e-02
3.35904545454545e-01 2.28482633224883e+00 2.62169276075279e-02
3.37033636363636e-01 2.27051895256656e+00 2.60965091384825e-02
3.38162727272727e-01 2.25630116442261e+00 2.59764979993563e-02
3.39291818181818e-01 2.24217240680280e+00 2.58568946281054e-02
3.40420909090909e-01 2.22813212220593e+00 2.57376994308554e-02
3.41550000000000e-01 2.21417975662186e+00 2.56189127692787e-02
3.42679090909091e-01 2.20031475954419e+00 2.55005350007697e-02
3.43808181818182e-01 2.18653658384422e+00 2.53825664524904e-02
3.44937272727273e-01 2.17284468585427e+00 2.52650073949243e-02
3.46066363636364e-01 2.15923852531103e+00 2.51478580828727e-02
3.47195454545455e-01 2.14571756533428e+00 2.50311187423815e-02
3.48324545454545e-01 2.13228127240569e+00 2.49147895712368e-02
3.49453636363636e-01 2.11892911634777e+00 2.47988707394341e-02
3.50582727272727e-01 2.10566057030295e+00 2.46833623896453e-02
3.51711818181818e-01 2.09247511071280e+00 2.45682646377002e-02
3.52840909090909e-01 2.07937221729739e+00 2.44535775730398e-02
3.53970000000000e-01 2.06635137303471e+00 2.43393012471037e-02
3.55099090909091e-01 2.05341206417145e+00 2.42254357101288e-02
3.56228181818182e-01 2.04055378010880e+00 2.41119809873210e-02
