Energy (eV)          EEDF (eV^-(3/2))     First Anisotropy
8.06818181818182e-02 3.39154321291891e-02 2.69966614137986e-05
2.42045454545455e-01 3.33877090168626e-02 4.43815381386623e-05
4.03409090909091e-01 3.28681972590012e-02 5.80674447159578e-05
5.64772727272727e-01 3.23567690893980e-02 6.81529473677076e-05
7.26136363636364e-01 3.18532987270877e-02 7.63102556983360e-05
8.87500000000000e-01 3.13576623481804e-02 8.31800987803238e-05
1.04886363636364e+00 3.08697380567665e-02 8.90982699283922e-05
1.21022727272727e+00 3.03894058544325e-02 9.42700396953553e-05
1.37159090909091e+00 2.99165476054216e-02 9.88331799615245e-05
1.53295454545455e+00 2.94510470154248e-02 1.02886204921955e-04
1.69431818181818e+00 2.89927896026296e-02 1.06502872769850e-04
1.85568181818182e+00 2.85416626605672e-02 1.09740372594738e-04
2.01704545454545e+00 2.80975552393962e-02 1.12644284051887e-04
2.17840909090909e+00 2.76603581178744e-02 1.15251751894175e-04
2.33977272727273e+00 2.72299637698192e-02 1.17593606670250e-04
2.50113636363636e+00 2.68062663443434e-02 1.19695833644812e-04
2.66250000000000e+00 2.63891616392862e-02 1.21580622327834e-04
2.82386363636364e+00 2.59785470704479e-02 1.23267133786164e-04
2.98522727272727e+00 2.55743216529450e-02 1.24772075248547e-04
3.14659090909091e+00 2.51763859704014e-02 1.26110138464565e-04
3.30795454545455e+00 2.47846421547644e-02 1.27294339107613e-04
3.46931818181818e+00 2.43989938619585e-02 1.28336284885261e-04
3.63068181818182e+00 2.40193462446986e-02 1.29246388614908e-04
3.79204545454545e+00 2.36456059326728e-02 1.30034040166250e-04
3.95340909090909e+00 2.32776810093858e-02 1.30707747524887e-04
4.11477272727273e+00 2.29154809866069e-02 1.31275252304755e-04
4.27613636363636e+00 2.25589167850763e-02 1.31743625735682e-04
4.43750000000000e+00 2.22079007124286e-02 1.32119349815252e-04
4.59886363636364e+00 2.18623464391265e-02 1.32408385111908e-04
4.76022727272727e+00 2.15221689804777e-02 1.32616228729076e-04
4.92159090909091e+00 2.11872846726881e-02 1.32747963966445e-04
5.08295454545455e+00 2.08576111545032e-02 1.32808302699106e-04
5.24431818181818e+00 2.05330673468383e-02 1.32801622721547e-04
5.40568181818182e+00 2.02135734309264e-02 1.32731999690777e-04
5.56704545454545e+00 1.98990508306123e-02 1.32603235038883e-04
5.72840909090909e+00 1.95894221929403e-02 1.32418881033020e-04
5.88977272727273e+00 1.92846113674487e-02 1.32182262370903e-04
6.05113636363636e+00 1.89845433891340e-02 1.31896495292484e-04
6.21250000000000e+00 1.86891444599339e-02 1.31564505070628e-04
6.37386363636364e+00 1.83983419290978e-02 1.31189041093177e-04
6.53522727272727e+00 1.81120642772545e-02 1.30772690597040e-04
6.69659090909091e+00 1.78302410969829e-02 1.30317891037159e-04
6.85795454545455e+00 1.75528030768463e-02 1.29826940961478e-04
7.01931818181818e+00 1.72796819842854e-02 1.29302010315125e-04
7.18068181818182e+00 1.70108106476449e-02 1.28745149365178e-04
7.34204545454546e+00 1.67461229408552e-02 1.28158296797647e-04
7.50340909090909e+00 1.64855537671206e-02 1.27543287488017e-04
7.66477272727273e+00 1.62290390418387e-02 1.26901859211715e-04
7.82613636363636e+00 1.59765156779184e-02 1.26235658774607e-04
7.98750000000000e+00 1.57279215702188e-02 1.25546248002454e-04
8.14886363636364e+00 1.54831955793143e-02 1.24835108849896e-04
8.31022727272727e+00 1.52422775177192e-02 1.24103648278743e-04
8.47159090909091e+00 1.50051081338771e-02 1.23353202778576e-04
8.63295454545455e+00 1.47716290984787e-02 1.22585042343179e-04
8.79431818181818e+00 1.45417829900804e-02 1.21800374510862e-04
8.95568181818182e+00 1.43155132801844e-02 1.21000347797566e-04
9.11704545454545e+00 1.40927643201404e-02 1.20186054878948e-04
9.27840909090909e+00 1.38734813274288e-02 1.19358535849845e-04
9.43977272727273e+00 1.36576103714634e-02 1.18518780967829e-04
9.60113636363636e+00 1.34450983610579e-02 1.17667733206998e-04
9.76250000000000e+00 1.32358930313403e-02 1.16806290923159e-04
9.92386363636364e+00 1.30299429302411e-02 1.15935310186174e-04
1.00852272727273e+01 1.28271974056918e-02 1.15055606425342e-04
1.02465909090909e+01 1.26276065962055e-02 1.14167957013724e-04
1.04079545454545e+01 1.24311214144523e-02 1.13273103629960e-04
1.05693181818182e+01 1.22376935350916e-02 1.12371752651766e-04
1.07306818181818e+01 1.20472753884400e-02 1.11464577621224e-04
1.08920454545455e+01 1.18598201430918e-02 1.10552221607025e-04
1.10534090909091e+01 1.16752816946979e-02 1.09635297120221e-04
1.12147727272727e+01 1.14936146596649e-02 1.08714388302652e-04
1.13761363636364e+01 1.13147743588418e-02 1.07790052978475e-04
1.15375000000000e+01 1.11387168067848e-02 1.06862822441844e-04
1.16988636363636e+01 1.09653987055354e-02 1.05933203583951e-04
1.18602272727273e+01 1.07947774278515e-02 1.05001679817958e-04
1.20215909090909e+01 1.06268110126934e-02 1.04068711864721e-04
1.21829545454545e+01 1.04614581504418e-02 1.03134739654956e-04
1.23443181818182e+01 1.02986781729507e-02 1.02200181965356e-04
1.25056818181818e+01 1.01384310475400e-02 1.01265437974786e-04
1.26670454545455e+01 9.98067736307130e-03 1.00330888729781e-04
1.28284090909091e+01 9.82537832045212e-03 9.93968967321509e-05
1.29897727272727e+01 9.67249572674484e-03 9.84638073223355e-05
1.31511363636364e+01 9.52199198204656e-03 9.75319499836966e-05
1.33125000000000e+01 9.37383007041327e-03 9.66016378982545e-05
1.34738636363636e+01 9.22797355410647e-03 9.56731693515410e-05
1.36352272727273e+01 9.08438656017096e-03 9.47468282158192e-05
1.37965909090909e+01 8.94303377596867e-03 9.38228843412439e-05
1.39579545454545e+01 8.80388043723731e-03 9.29015948383219e-05
1.41193181818182e+01 8.66689231968646e-03 9.19832035966238e-05
1.42806818181818e+01 8.53203573351590e-03 9.10679423231056e-05
1.44420454545455e+01 8.39927751213657e-03 9.01560315239791e-05
1.46034090909091e+01 8.26858500415006e-03 8.92476800192992e-05
1.47647727272727e+01 8.13992606801557e-03 8.83430858809864e-05
1.49261363636364e+01 8.01326906139508e-03 8.74424373204941e-05
1.50875000000000e+01 7.88858283349104e-03 8.65459122050369e-05
1.52488636363636e+01 7.76583671987201e-03 8.56536790416047e-05
1.54102272727273e+01 7.64500053162043e-03 8.47658972411456e-05
1.55715909090909e+01 7.52604455114423e-03 8.38827173172017e-05
1.57329545454545e+01 7.40893952244869e-03 8.30042817964161e-05
1.58943181818182e+01 7.29365664404445e-03 8.21307247393080e-05
1.60556818181818e+01 7.18016756405648e-03 8.12621724694027e-05
1.62170454545455e+01 7.06844437101781e-03 8.03987442645989e-05
1.63784090909091e+01 6.95845958710196e-03 7.95405518892109e-05
1.65397727272727e+01 6.85018616338795e-03 7.86877002597246e-05
1.67011363636364e+01 6.74359747114741e-03 7.78402880763466e-05
1.68625000000000e+01 6.63866729538142e-03 7.69984073680983e-05
1.70238636363636e+01 6.53536983024508e-03 7.61621442087568e-05
1.71852272727273e+01 6.43367967020910e-03 7.53315788639954e-05
1.73465909090909e+01 6.33357180624915e-03 7.45067858897387e-05
1.75079545454545e+01 6.23502161787275e-03 7.36878348007758e-05
1.76693181818182e+01 6.13800486713864e-03 7.28747896350132e-05
1.78306818181818e+01 6.04249769435417e-03 7.20677094832195e-05
1.79920454545455e+01 5.94847661051922e-03 7.12666489922919e-05
1.81534090909091e+01 5.85591849161954e-03 7.04716579453102e-05
1.83147727272727e+01 5.76480057447501e-03 6.96827817487702e-05
1.84761363636364e+01 5.67510044957867e-03 6.89000618955887e-05
1.86375000000000e+01 5.58679605564801e-03 6.81235355612140e-05
1.87988636363636e+01 5.49986567562415e-03 6.73532361379917e-05
1.89602272727273e+01 5.41428792943416e-03 6.65891933164524e-05
1.91215909090909e+01 5.33004177058934e-03 6.58314331292887e-05
1.92829545454545e+01 5.24710647962105e-03 6.50799784537130e-05
1.94443181818182e+01 5.16546165903971e-03 6.43348486306411e-05
1.96056818181818e+01 5.08508722958583e-03 6.35960598587421e-05
1.97670454545455e+01 5.00596342400239e-03 6.28636255692919e-05
1.99284090909091e+01 4.92807078222513e-03 6.21375560614694e-05
2.00897727272727e+01 4.85139014777313e-03 6.14178588666526e-05
2.02511363636364e+01 4.77590266184076e-03 6.07045390950262e-05
2.04125000000000e+01 4.70158975870601e-03 5.99975990866733e-05
2.05738636363636e+01 4.62843316225910e-03 5.92970388176016e-05
2.07352272727273e+01 4.55641488005077e-03 5.86028559426938e-05
2.08965909090909e+01 4.48551720029399e-03 5.79150458096130e-05
2.10579545454545e+01 4.41572268644119e-03 5.72336018423845e-05
2.12193181818182e+01 4.34701417293671e-03 5.65585152151854e-05
2.13806818181818e+01 4.27937476197209e-03 5.58897751504051e-05
2.15420454545455e+01 4.21278781833708e-03 5.52273692024622e-05
2.17034090909091e+01 4.14723696536702e-03 5.45712829464225e-05
2.18647727272727e+01 4.08270608182417e-03 5.39215002545852e-05
2.20261363636364e+01 4.01917929700887e-03 5.32780035598845e-05
2.21875000000000e+01 3.95664098689112e-03 5.26407735588238e-05
2.23488636363636e+01 3.89507577111546e-03 5.20097895239910e-05
2.25102272727273e+01 3.83446850809058e-03 5.13850293242579e-05
2.26715909090909e+01 3.77480429237024e-03 5.07664694220830e-05
2.28329545454545e+01 3.71606845016137e-03 5.01540851698710e-05
2.29943181818182e+01 3.65824653574599e-03 4.95478505335790e-05
2.31556818181818e+01 3.60132432868679e-03 4.89477383209521e-05
2.33170454545455e+01 3.54528782955916e-03 4.83537203990121e-05
2.34784090909091e+01 3.49012325653743e-03 4.77657674307083e-05
2.36397727272727e+01 3.43581704271229e-03 4.71838490873043e-05
2.38011363636364e+01 3.38235583203588e-03 4.66079342507696e-05
2.39625000000000e+01 3.32972647606340e-03 4.60379907629300e-05
2.41238636363636e+01 3.27791603137963e-03 4.54739856683314e-05
2.42852272727273e+01 3.22691175553703e-03 4.49158852208520e-05
2.44465909090909e+01 3.17670110478296e-03 4.43636548721233e-05
2.46079545454545e+01 3.12727173033081e-03 4.38172595025294e-05
2.47693181818182e+01 3.07861147534644e-03 4.32766631884849e-05
2.49306818181818e+01 3.03070837255056e-03 4.27418293788286e-05
2.50920454545455e+01 2.98355064067392e-03 4.22127210629969e-05
2.52534090909091e+01 2.93712668158215e-03 4.16893005495105e-05
2.54147727272727e+01 2.89142507797633e-03 4.11715296304678e-05
2.55761363636364e+01 2.84643459002329e-03 4.06593697383759e-05
2.57375000000000e+01 2.80214415261160e-03 4.01527817353337e-05
2.58988636363636e+01 2.75854287314739e-03 3.96517261031540e-05
2.60602272727273e+01 2.71562002818714e-03 3.91561629419559e-05
2.62215909090909e+01 2.67336506147519e-03 3.86660519541970e-05
2.63829545454545e+01 2.63176758084294e-03 3.81813526259544e-05
2.65443181818182e+01 2.59081735567104e-03 3.77020240317022e-05
2.67056818181818e+01 2.55050431483821e-03 3.72280249716044e-05
2.68670454545455e+01 2.51081854377225e-03 3.67593141024602e-05
2.70284090909091e+01 2.47175028202882e-03 3.62958497519848e-05
2.71897727272727e+01 2.43328992132568e-03 3.58375900470567e-05
2.73511363636364e+01 2.39542800273821e-03 3.53844930360289e-05
2.75125000000000e+01 2.35815521438871e-03 3.49365165120624e-05
2.76738636363636e+01 2.32146238956337e-03 3.44936181628163e-05
2.78352272727273e+01 2.28534050391602e-03 3.40557555644475e-05
2.79965909090909e+01 2.24978067378000e-03 3.36228861639075e-05
2.81579545454545e+01 2.21477415358602e-03 3.31949674219613e-05
2.83193181818182e+01 2.18031233372525e-03 3.27719566497781e-05
2.84806818181818e+01 2.14638673879845e-03 3.23538111163894e-05
2.86420454545455e+01 2.11298902515945e-03 3.19404881511986e-05
2.88034090909091e+01 2.08011097887628e-03 3.15319449885696e-05
2.89647727272727e+01 2.04774451405440e-03 3.11281388683352e-05
2.91261363636364e+01 2.01588167049954e-03 3.07290271316721e-05
2.92875000000000e+01 1.98451461177214e-03 3.03345670733029e-05
2.94488636363636e+01 1.95363562358187e-03 2.99447160598900e-05
2.96102272727273e+01 1.92323711146212e-03 2.95594315215848e-05
2.97715909090909e+01 1.89331159932230e-03 2.91786709341291e-05
2.99329545454545e+01 1.86385172729506e-03 2.88023919321757e-05
3.00943181818182e+01 1.83485024993704e-03 2.84305521726803e-05
3.02556818181818e+01 1.80630003473722e-03 2.80631094193741e-05
3.04170454545455e+01 1.77819406006815e-03 2.77000216233613e-05
3.05784090909091e+01 1.75052541346941e-03 2.73412467932112e-05
3.07397727272727e+01 1.72328729021962e-03 2.69867430740558e-05
3.09011363636364e+01 1.69647299138676e-03 2.66364688230450e-05
3.10625000000000e+01 1.67007592219014e-03 2.62903824858135e-05
3.12238636363636e+01 1.64408959063378e-03 2.59484426904751e-05
3.13852272727273e+01 1.61850760557003e-03 2.56106082380578e-05
3.15465909090909e+01 1.59332367546106e-03 2.52768380852895e-05
3.17079545454545e+01 1.56853160658227e-03 2.49470914346969e-05
3.18693181818182e+01 1.54412530150747e-03 2.46213276204826e-05
3.20306818181818e+01 1.52009875783991e-03 2.42995061751665e-05
3.21920454545455e+01 1.49644606650211e-03 2.39815868931699e-05
3.23534090909091e+01 1.47316141029057e-03 2.36675297222919e-05
3.25147727272727e+01 1.45023906266155e-03 2.33572948261610e-05
3.26761363636364e+01 1.42767338610312e-03 2.30508426438154e-05
3.28375000000000e+01 1.40545883075606e-03 2.27481337865053e-05
3.29988636363636e+01 1.38358993325225e-03 2.24491291125347e-05
3.31602272727273e+01 1.36206131510048e-03 2.21537897174187e-05
3.33215909090909e+01 1.34086768162909e-03 2.18620769178255e-05
3.34829545454545e+01 1.32000382048539e-03 2.15739523234191e-05
3.36443181818182e+01 1.29946460036031e-03 2.12893777415501e-05
3.38056818181818e+01 1.27924496991030e-03 2.10083152299773e-05
3.39670454545455e+01 1.25933995632849e-03 2.07307271471725e-05
3.41284090909091e+01 1.23974466412808e-03 2.04565760616839e-05
3.42897727272727e+01 1.22045427411089e-03 2.01858248015759e-05
3.44511363636364e+01 1.20146404200712e-03 1.99184365015995e-05
3.46125000000000e+01 1.18276929731432e-03 1.96543745169965e-05
3.47738636363636e+01 1.16436544231102e-03 1.93936024832453e-05
3.49352272727273e+01 1.14624795071005e-03 1.91360843064429e-05
3.50965909090909e+01 1.12841236675725e-03 1.88817841486266e-05
3.52579545454545e+01 1.11085430397718e-03 1.86306664851939e-05
3.54193181818182e+01 1.09356944409954e-03 1.83826960253138e-05
3.55806818181818e+01 1.07655353614407e-03 1.81378377537360e-05
3.57420454545455e+01 1.05980239522607e-03 1.78960569706718e-05
3.59034090909091e+01 1.04331190153215e-03 1.76573192161043e-05
3.60647727272727e+01 1.02707799944511e-03 1.74215903090168e-05
3.62261363636364e+01 1.01109669640646e-03 1.71888363848093e-05
3.63875000000000e+01 9.95364061939110e-04 1.69590238233111e-05
3.65488636363636e+01 9.79876226810586e-04 1.67321192965733e-05
3.67102272727273e+01 9.64629381908629e-04 1.65080897597666e-05
3.68715909090909e+01 9.49619777474006e-04 1.62869024379573e-05
3.70329545454546e+01 9.34843722051455e-04 1.60685248720922e-05
3.71943181818182e+01 9.20297581585955e-04 1.58529248525310e-05
3.73556818181818e+01 9.05977778646692e-04 1.56400704522616e-05
3.75170454545455e+01 8.91880791427859e-04 1.54299300585817e-05
3.76784090909091e+01 8.78003152886474e-04 1.52224723098783e-05
3.78397727272727e+01 8.64341450000400e-04 1.50176661268096e-05
3.80011363636364e+01 8.50892322816695e-04 1.48154807420405e-05
3.81625000000000e+01 8.37652463628926e-04 1.46158856401095e-05
3.83238636363636e+01 8.24618616267883e-04 1.44188505957271e-05
3.84852272727273e+01 8.11787575162102e-04 1.42243456653518e-05
3.86465909090909e+01 7.99156184685609e-04 1.40323411753968e-05
3.88079545454545e+01 7.86721338280038e-04 1.38428077591169e-05
3.89693181818182e+01 7.74479977693903e-04 1.36557163010923e-05
3.91306818181818e+01 7.62429092324988e-04 1.34710379636576e-05
3.92920454545455e+01 7.50565718384083e-04 1.32887442121028e-05
3.94534090909091e+01 7.38886938169214e-04 1.31088067618641e-05
3.96147727272727e+01 7.27389879437033e-04 1.29311976033416e-05
3.97761363636364e+01 7.16071714606225e-04 1.27558890255625e-05
3.99375000000000e+01 7.04929660065003e-04 1.25828535659433e-05
4.00988636363636e+01 6.93960975570308e-04 1.24120640410259e-05
4.02602272727273e+01 6.83162963462375e-04 1.22434935387986e-05
4.04215909090909e+01 6.72532968110747e-04 1.20771154082619e-05
4.05829545454545e+01 6.62068375179286e-04 1.19129032890611e-05
4.07443181818182e+01 6.51766610985834e-04 1.17508310651053e-05
4.09056818181818e+01 6.41625141945325e-04 1.15908728856216e-05
4.10670454545455e+01 6.31641473869553e-04 1.14330031852265e-05
4.12284090909091e+01 6.21813151356261e-04 1.12771966398003e-05
4.13897727272727e+01 6.12137757256903e-04 1.11234281862643e-05
4.15511363636364e+01 6.02612912009549e-04 1.09716730414323e-05
4.17125000000000e+01 5.93236273055980e-04 1.08219066600285e-05
4.18738636363636e+01 5.84005534333079e-04 1.06741047593856e-05
4.20352272727273e+01 5.74918425615841e-04 1.05282433125257e-05
4.21965909090909e+01 5.65972712047251e-04 1.03842985389852e-05
4.23579545454545e+01 5.57166193522677e-04 1.02422469286477e-05
4.25193181818182e+01 5.48496704150880e-04 1.01020652029846e-05
4.26806818181818e+01 5.39962111782680e-04 9.96373033184458e-06
4.28420454545455e+01 5.31560317424400e-04 9.82721954945296e-06
4.30034090909091e+01 5.23289254723645e-04 9.69251031753292e-06
4.31647727272727e+01 5.15146889518900e-04 9.55958034108005e-06
4.33261363636364e+01 5.07131219280671e-04 9.42840758339275e-06
4.34875000000000e+01 4.99240272620839e-04 9.29897023098086e-06
4.36488636363636e+01 4.91472108862318e-04 9.17124671343173e-06
4.38102272727273e+01 4.83824817489255e-04 9.04521569723137e-06
4.39715909090909e+01 4.76296517748365e-04 8.92085607773465e-06
4.41329545454545e+01 4.68885358133132e-04 8.79814699835370e-06
4.42943181818182e+01 4.61589515930133e-04 8.67706781815892e-06
4.44556818181818e+01 4.54407196820309e-04 8.55759812527661e-06
4.46170454545455e+01 4.47336634387457e-04 8.43971774965182e-06
4.47784090909091e+01 4.40376089685403e-04 8.32340673221732e-06
4.49397727272727e+01 4.33523850857034e-04 8.20864533748391e-06
4.51011363636364e+01 4.26778232665951e-04 8.09541406553237e-06
4.52625000000000e+01 4.20137576083487e-04 7.98369362267278e-06
4.54238636363636e+01 4.13600247924755e-04 7.87346493743791e-06
4.55852272727273e+01 4.07164640388356e-04 7.76470915510434e-06
4.57465909090909e+01 4.00829170718533e-04 7.65740763069271e-06
4.59079545454546e+01 3.94592280772854e-04 7.55154194442944e-06
4.60693181818182e+01 3.88452436640352e-04 7.44709387465577e-06
4.62306818181818e+01 3.82408128304367e-04 7.34404540852575e-06
4.63920454545455e+01 3.76457869230546e-04 7.24237875219176e-06
4.65534090909091e+01 3.70600196002538e-04 7.14207630502150e-06
4.67147727272727e+01 3.64833667999886e-04 7.04312066965292e-06
4.68761363636364e+01 3.59156867005413e-04 6.94549466156507e-06
4.70375000000000e+01 3.53568396857622e-04 6.84918128453886e-06
4.71988636363636e+01 3.48066883143005e-04 6.75416374354285e-06
4.73602272727273e+01 3.42650972810548e-04 6.66042543990126e-06
4.75215909090909e+01 3.37319333885591e-04 6.56794996521194e-06
4.76829545454545e+01 3.32070655107375e-04 6.47672111381372e-06
4.78443181818182e+01 3.26903645607634e-04 6.38672286012775e-06
4.80056818181818e+01 3.21817034625607e-04 6.29793936720297e-06
4.81670454545455e+01 3.16809571162587e-04 6.21035499484706e-06
4.83284090909091e+01 3.11880023675298e-04 6.12395427805888e-06
4.84897727272727e+01 3.07027179803645e-04 6.03872193506055e-06
4.86511363636364e+01 3.02249846041508e-04 5.95464287493833e-06
4.88125000000000e+01 2.97546847444161e-04 5.87170217711322e-06
4.89738636363636e+01 2.92917027368254e-04 5.78988510172972e-06
4.91352272727273e+01 2.88359247148842e-04 5.70917708541277e-06
4.92965909090909e+01 2.83872385857164e-04 5.62956373599773e-06
4.94579545454545e+01 2.79455339996681e-04 5.55103084258997e-06
4.96193181818182e+01 2.75107023232558e-04 5.47356435660681e-06
4.97806818181818e+01 2.70826366150846e-04 5.39715039860501e-06
4.99420454545455e+01 2.66612315968772e-04 5.32177526477295e-06
5.01034090909091e+01 2.62463836276649e-04 5.24742540888371e-06
5.02647727272727e+01 2.58379906807861e-04 5.17408744871257e-06
5.04261363636364e+01 2.54359523162737e-04 5.10174817213800e-06
5.05875000000000e+01 2.50401696562302e-04 5.03039451996142e-06
5.07488636363636e+01 2.46505453628597e-04 4.96001359428638e-06
5.09102272727273e+01 2.42669836114027e-04 4.89059265480815e-06
