Energy (eV)          EEDF (eV^-(3/2))     First Anisotropy
4.30000000000000e-03 9.48027290811436e-01 5.24610119119437e-04
1.29000000000000e-02 9.40777003687978e-01 8.65878778247478e-04
2.15000000000000e-02 9.33582165034830e-01 1.14199459845418e-03
3.01000000000000e-02 9.26442350795514e-01 1.35111577803790e-03
3.87000000000000e-02 9.19357140156452e-01 1.52499149171108e-03
4.73000000000000e-02 9.12326115522316e-01 1.67563927891971e-03
5.59000000000000e-02 9.05348862491443e-01 1.80928490793402e-03
6.45000000000000e-02 8.98424969831410e-01 1.92969187355614e-03
7.31000000000000e-02 8.91554029454800e-01 2.03935877036560e-03
8.17000000000000e-02 8.84735636395151e-01 2.14005336262058e-03
9.03000000000000e-02 8.77969388783090e-01 2.23308557333182e-03
9.89000000000000e-02 8.71254887822641e-01 2.31946093241295e-03
1.07500000000000e-01 8.64591737767728e-01 2.39997312943266e-03
1.16100000000000e-01 8.57979545898845e-01 2.47526296872193e-03
1.24700000000000e-01 8.51417922499912e-01 2.54585759803826e-03
1.33300000000000e-01 8.44906480835304e-01 2.61219756132454e-03
1.41900000000000e-01 8.38444837127059e-01 2.67465602038912e-03
1.50500000000000e-01 8.32032610532256e-01 2.73355276312727e-03
1.59100000000000e-01 8.25669423120571e-01 2.78916463744485e-03
1.67700000000000e-01 8.19354899852002e-01 2.84173347177139e-03
1.76300000000000e-01 8.13088668554763e-01 2.89147218866751e-03
1.84900000000000e-01 8.06870359903349e-01 2.93856959391391e-03
1.93500000000000e-01 8.00699607396767e-01 2.98319417777975e-03
2.02100000000000e-01 7.94576047336940e-01 3.02549716812040e-03
2.10700000000000e-01 7.88499318807265e-01 3.06561500889365e-03
2.19300000000000e-01 7.82469063651342e-01 3.10367139183683e-03
2.27900000000000e-01 7.76484926451869e-01 3.13977893665722e-03
2.36500000000000e-01 7.70546554509690e-01 3.17404059184523e-03
2.45100000000000e-01 7.64653597823006e-01 3.20655081129687e-03
2.53700000000000e-01 7.58805709066752e-01 3.23739654943960e-03
2.62300000000000e-01 7.53002543572119e-01 3.26665810822892e-03
2.70900000000000e-01 7.47243759306246e-01 3.29440986233564e-03
2.79500000000000e-01 7.41529016852056e-01 3.32072088346468e-03
2.88100000000000e-01 7.35857979388253e-01 3.34565548060132e-03
2.96700000000000e-01 7.30230312669472e-01 3.36927366975483e-03
3.05300000000000e-01 7.24645685006575e-01 3.39163158424429e-03
3.13900000000000e-01 7.19103767247104e-01 3.41278183457094e-03
3.22500000000000e-01 7.13604232755882e-01 3.43277382533102e-03
3.31100000000000e-01 7.08146757395759e-01 3.45165403534711e-03
3.39700000000000e-01 7.02731019508508e-01 3.46946626616783e-03
3.48300000000000e-01 6.97356699895869e-01 3.48625186324896e-03
3.56900000000000e-01 6.92023481800733e-01 3.50204991344548e-03
3.65500000000000e-01 6.86731050888476e-01 3.51689742188675e-03
3.74100000000000e-01 6.81479095228428e-01 3.53082947084166e-03
3.82700000000000e-01 6.76267305275492e-01 3.54387936279753e-03
3.91300000000000e-01 6.71095373851899e-01 3.55607874965841e-03
3.99900000000000e-01 6.65962996129101e-01 3.56745774969809e-03
4.08500000000000e-01 6.60869869609808e-01 3.57804505368068e-03
4.17100000000000e-01 6.55815694110153e-01 3.58786802137060e-03
4.25700000000000e-01 6.50800171742009e-01 3.59695276949155e-03
4.34300000000000e-01 6.45823006895424e-01 3.60532425206096e-03
4.42900000000000e-01 6.40883906221200e-01 3.61300633390647e-03
4.51500000000000e-01 6.35982578613605e-01 3.62002185807035e-03
4.60100000000000e-01 6.31118735193214e-01 3.62639270772516e-03
4.68700000000000e-01 6.26292089289884e-01 3.63213986314834e-03
4.77300000000000e-01 6.21502356425855e-01 3.63728345423787e-03
4.85900000000000e-01 6.16749254298987e-01 3.64184280899744e-03
4.94500000000000e-01 6.12032502766119e-01 3.64583649837159e-03
5.03100000000000e-01 6.07351823826559e-01 3.64928237776865e-03
5.11700000000000e-01 6.02706941605695e-01 3.65219762557147e-03
5.20300000000000e-01 5.98097582338743e-01 3.65459877890567e-03
5.28900000000000e-01 5.93523474354604e-01 3.65650176690634e-03
5.37500000000000e-01 5.88984348059855e-01 3.65792194169883e-03
5.46100000000000e-01 5.84479935922861e-01 3.65887410728646e-03
5.54700000000000e-01 5.80009972458003e-01 3.65937254652167e-03
5.63300000000000e-01 5.75574194210035e-01 3.65943104631670e-03
5.71900000000000e-01 5.71172339738552e-01 3.65906292123497e-03
5.80500000000000e-01 5.66804149602585e-01 3.65828103559485e-03
5.89100000000000e-01 5.62469366345307e-01 3.65709782419967e-03
5.97700000000000e-01 5.58167734478859e-01 3.65552531180004e-03
6.06300000000000e-01 5.53899000469293e-01 3.65357513138582e-03
6.14900000000000e-01 5.49662912721627e-01 3.65125854139419e-03
6.23500000000000e-01 5.45459221565021e-01 3.64858644191433e-03
6.32100000000000e-01 5.41287679238053e-01 3.64556938996085e-03
6.40700000000000e-01 5.37148039874127e-01 3.64221761388294e-03
6.49300000000000e-01 5.33040059486971e-01 3.63854102697032e-03
6.57900000000000e-01 5.28963495956265e-01 3.63454924031126e-03
6.66500000000000e-01 5.24918109013367e-01 3.63025157495463e-03
6.75100000000000e-01 5.20903660227153e-01 3.62565707342224e-03
6.83700000000000e-01 5.16919912989962e-01 3.62077451061535e-03
6.92300000000000e-01 5.12966632503654e-01 3.61561240415573e-03
7.00900000000000e-01 5.09043585765767e-01 3.61017902419624e-03
7.09500000000000e-01 5.05150541555789e-01 3.60448240273623e-03
7.18100000000000e-01 5.01287270421525e-01 3.59853034247301e-03
7.26700000000000e-01 4.97453544665577e-01 3.59233042521832e-03
7.35300000000000e-01 4.93649138331922e-01 3.58589001990636e-03
7.43900000000000e-01 4.89873827192596e-01 3.57921629021793e-03
7.52500000000000e-01 4.86127388734476e-01 3.57231620184392e-03
7.61100000000000e-01 4.82409602146166e-01 3.56519652941050e-03
7.69700000000000e-01 4.78720248304986e-01 3.55786386308479e-03
7.78300000000000e-01 4.75059109764050e-01 3.55032461487937e-03
7.86900000000000e-01 4.71425970739456e-01 3.54258502467386e-03
7.95500000000000e-01 4.67820617097567e-01 3.53465116596855e-03
8.04100000000000e-01 4.64242836342387e-01 3.52652895138576e-03
8.12700000000000e-01 4.60692417603041e-01 3.51822413793269e-03
8.21300000000000e-01 4.57169151621343e-01 3.50974233203871e-03
8.29900000000000e-01 4.53672830739462e-01 3.50108899437833e-03
8.38500000000000e-01 4.50203248887687e-01 3.49226944449345e-03
8.47100000000000e-01 4.46760201572281e-01 3.48328886522430e-03
8.55700000000000e-01 4.43343485863421e-01 3.47415230695759e-03
8.64300000000000e-01 4.39952900383249e-01 3.46486469170402e-03
8.72900000000000e-01 4.36588245293992e-01 3.45543081701222e-03
8.81500000000000e-01 4.33249322286191e-01 3.44585535972726e-03
8.90100000000000e-01 4.29935934567012e-01 3.43614287960257e-03
8.98700000000000e-01 4.26647886848642e-01 3.42629782277141e-03
9.07300000000000e-01 4.23384985336786e-01 3.41632452508538e-03
9.15900000000000e-01 4.20147037719240e-01 3.40622721532647e-03
9.24500000000000e-01 4.16933853154559e-01 3.39601001829819e-03
9.33100000000000e-01 4.13745242260807e-01 3.38567695780206e-03
9.41700000000000e-01 4.10581017104396e-01 3.37523195950463e-03
9.50300000000000e-01 4.07440991189010e-01 3.36467885369942e-03
9.58900000000000e-01 4.04324979444613e-01 3.35402137797023e-03
9.67500000000000e-01 4.01232798216539e-01 3.34326317975911e-03
9.76100000000000e-01 3.98164265254670e-01 3.33240781884300e-03
9.84700000000000e-01 3.95119199702693e-01 3.32145876972397e-03
9.93300000000000e-01 3.92097422087443e-01 3.31041942393673e-03
1.00190000000000e+00 3.89098754308320e-01 3.29929309227680e-03
1.01050000000000e+00 3.86123019626798e-01 3.28808300695260e-03
1.01910000000000e+00 3.83170042656002e-01 3.27679232366519e-03
1.02770000000000e+00 3.80239649350377e-01 3.26542412361826e-03
1.03630000000000e+00 3.77331666995427e-01 3.25398141546208e-03
1.04490000000000e+00 3.74445924197532e-01 3.24246713717344e-03
1.05350000000000e+00 3.71582250873853e-01 3.23088415787413e-03
1.06210000000000e+00 3.68740478242303e-01 3.21923527959060e-03
1.07070000000000e+00 3.65920438811600e-01 3.20752323895846e-03
1.07930000000000e+00 3.63121966371395e-01 3.19575070887221e-03
1.08790000000000e+00 3.60344895982478e-01 3.18392030008264e-03
1.09650000000000e+00 3.57589063967053e-01 3.17203456274575e-03
1.10510000000000e+00 3.54854307899093e-01 3.16009598792280e-03
1.11370000000000e+00 3.52140466594769e-01 3.14810700903472e-03
1.12230000000000e+00 3.49447380102944e-01 3.13607000327252e-03
1.13090000000000e+00 3.46774889695751e-01 3.12398729296495e-03
1.13950000000000e+00 3.44122837859236e-01 3.11186114690483e-03
1.14810000000000e+00 3.41491068284075e-01 3.09969378163700e-03
1.15670000000000e+00 3.38879425856359e-01 3.08748736270815e-03
1.16530000000000e+00 3.36287756648453e-01 3.07524400587874e-03
1.17390000000000e+00 3.33715907909926e-01 3.06296577830184e-03
1.18250000000000e+00 3.31163728058544e-01 3.05065469966713e-03
1.19110000000000e+00 3.28631066671339e-01 3.03831274331164e-03
1.19970000000000e+00 3.26117774475742e-01 3.02594183730013e-03
1.20830000000000e+00 3.23623703340785e-01 3.01354386547414e-03
1.21690000000000e+00 3.21148706268368e-01 3.00112066847227e-03
1.22550000000000e+00 3.18692637384602e-01 2.98867404472198e-03
1.23410000000000e+00 3.16255351931203e-01 2.97620575140442e-03
1.24270000000000e+00 3.13836706256966e-01 2.96371750539221e-03
1.25130000000000e+00 3.11436557809296e-01 2.95121098416235e-03
1.25990000000000e+00 3.09054765125805e-01 2.93868782668446e-03
1.26850000000000e+00 3.06691187825976e-01 2.92614963428464e-03
1.27710000000000e+00 3.04345686602891e-01 2.91359797148707e-03
1.28570000000000e+00 3.02018123215016e-01 2.90103436683314e-03
1.29430000000000e+00 2.99708360478055e-01 2.88846031367895e-03
1.30290000000000e+00 2.97416262256867e-01 2.87587727097184e-03
1.31150000000000e+00 2.95141693457438e-01 2.86328666400735e-03
1.32010000000000e+00 2.92884520018921e-01 2.85068988516626e-03
1.32870000000000e+00 2.90644608905737e-01 2.83808829463291e-03
1.33730000000000e+00 2.88421828099729e-01 2.82548322109530e-03
1.34590000000000e+00 2.86216046592384e-01 2.81287596242716e-03
1.35450000000000e+00 2.84027134377110e-01 2.80026778635321e-03
1.36310000000000e+00 2.81854962441577e-01 2.78765993109798e-03
1.37170000000000e+00 2.79699402760109e-01 2.77505360601822e-03
1.38030000000000e+00 2.77560328286140e-01 2.76244999221941e-03
1.38890000000000e+00 2.75437612944725e-01 2.74985024315787e-03
1.39750000000000e+00 2.73331131625111e-01 2.73725548522786e-03
1.40610000000000e+00 2.71240760173364e-01 2.72466681833396e-03
1.41470000000000e+00 2.69166375385047e-01 2.71208531645046e-03
1.42330000000000e+00 2.67107854997962e-01 2.69951202816691e-03
1.43190000000000e+00 2.65065077684945e-01 2.68694797722051e-03
1.44050000000000e+00 2.63037923046710e-01 2.67439416301618e-03
1.44910000000000e+00 2.61026271604759e-01 2.66185156113411e-03
1.45770000000000e+00 2.59030004794337e-01 2.64932112382575e-03
1.46630000000000e+00 2.57049004957440e-01 2.63680378049779e-03
1.47490000000000e+00 2.55083155335890e-01 2.62430043818468e-03
1.48350000000000e+00 2.53132340064445e-01 2.61181198201134e-03
1.49210000000000e+00 2.51196444163972e-01 2.59933927564425e-03
1.50070000000000e+00 2.49275353534672e-01 2.58688316173233e-03
1.50930000000000e+00 2.47368954949356e-01 2.57444446233805e-03
1.51790000000000e+00 2.45477136046766e-01 2.56202397935841e-03
1.52650000000000e+00 2.43599785324958e-01 2.54962249493690e-03
1.53510000000000e+00 2.41736792134730e-01 2.53724077186604e-03
1.54370000000000e+00 2.39888046673095e-01 2.52487955398063e-03
1.55230000000000e+00 2.38053439976816e-01 2.51253956654249e-03
1.56090000000000e+00 2.36232863915981e-01 2.50022151661694e-03
1.56950000000000e+00 2.34426211187627e-01 2.48792609344041e-03
1.57810000000000e+00 2.32633375309422e-01 2.47565396878023e-03
1.58670000000000e+00 2.30854250613384e-01 2.46340579728683e-03
1.59530000000000e+00 2.29088732239653e-01 2.45118221683801e-03
1.60390000000000e+00 2.27336716130315e-01 2.43898384887557e-03
1.61250000000000e+00 2.25598099023264e-01 2.42681129873527e-03
1.62110000000000e+00 2.23872778446121e-01 2.41466515596922e-03
1.62970000000000e+00 2.22160652710188e-01 2.40254599466136e-03
1.63830000000000e+00 2.20461620904459e-01 2.39045437373644e-03
1.64690000000000e+00 2.18775582889672e-01 2.37839083726223e-03
1.65550000000000e+00 2.17102439292406e-01 2.36635591474568e-03
1.66410000000000e+00 2.15442091499224e-01 2.35435012142251e-03
1.67270000000000e+00 2.13794441650862e-01 2.34237395854088e-03
1.68130000000000e+00 2.12159392636459e-01 2.33042791363911e-03
1.68990000000000e+00 2.10536848087836e-01 2.31851246081752e-03
1.69850000000000e+00 2.08926712373813e-01 2.30662806100470e-03
1.70710000000000e+00 2.07328890594578e-01 2.29477516221837e-03
1.71570000000000e+00 2.05743288576086e-01 2.28295419982098e-03
1.72430000000000e+00 2.04169812864516e-01 2.27116559676957e-03
1.73290000000000e+00 2.02608370720758e-01 2.25940976386081e-03
1.74150000000000e+00 2.01058870114948e-01 2.24768709997143e-03
1.75010000000000e+00 1.99521219721047e-01 2.23599799229314e-03
1.75870000000000e+00 1.97995328911453e-01 2.22434281656296e-03
1.76730000000000e+00 1.96481107751663e-01 2.21272193728922e-03
1.77590000000000e+00 1.94978466994975e-01 2.20113570797265e-03
1.78450000000000e+00 1.93487318077219e-01 2.18958447132337e-03
1.79310000000000e+00 1.92007573111546e-01 2.17806855947316e-03
1.80170000000000e+00 1.90539144883245e-01 2.16658829418374e-03
1.81030000000000e+00 1.89081946844602e-01 2.15514398705093e-03
1.81890000000000e+00 1.87635893109798e-01 2.14373593970478e-03
1.82750000000000e+00 1.86200898449849e-01 2.13236444400556e-03
1.83610000000000e+00 1.84776878287582e-01 2.12102978223598e-03
1.84470000000000e+00 1.83363748692651e-01 2.10973222728974e-03
1.85330000000000e+00 1.81961426376589e-01 2.09847204285625e-03
1.86190000000000e+00 1.80569828687898e-01 2.08724948360209e-03
1.87050000000000e+00 1.79188873607180e-01 2.07606479534839e-03
1.87910000000000e+00 1.77818479742301e-01 2.06491821524491e-03
1.88770000000000e+00 1.76458566323598e-01 2.05380997194112e-03
1.89630000000000e+00 1.75109053199110e-01 2.04274028575371e-03
1.90490000000000e+00 1.73769860829863e-01 2.03170936883088e-03
1.91350000000000e+00 1.72440910285176e-01 2.02071742531349e-03
1.92210000000000e+00 1.71122123238014e-01 2.00976465149311e-03
1.93070000000000e+00 1.69813421960364e-01 1.99885123596710e-03
1.93930000000000e+00 1.68514729318662e-01 1.98797735979046e-03
1.94790000000000e+00 1.67225968769243e-01 1.97714319662529e-03
1.95650000000000e+00 1.65947064353826e-01 1.96634891288721e-03
1.96510000000000e+00 1.64677940695046e-01 1.95559466788859e-03
1.97370000000000e+00 1.63418522992003e-01 1.94488061397982e-03
1.98230000000000e+00 1.62168737015856e-01 1.93420689668715e-03
1.99090000000000e+00 1.60928509105452e-01 1.92357365484846e-03
1.99950000000000e+00 1.59697766162976e-01 1.91298102074658e-03
2.00810000000000e+00 1.58476435649653e-01 1.90242912023948e-03
2.01670000000000e+00 1.57264445581462e-01 1.89191807288852e-03
2.02530000000000e+00 1.56061724524904e-01 1.88144799208430e-03
2.03390000000000e+00 1.54868201592782e-01 1.87101898516989e-03
2.04250000000000e+00 1.53683806440030e-01 1.86063115356201e-03
2.05110000000000e+00 1.52508469259562e-01 1.85028459287001e-03
2.05970000000000e+00 1.51342120778164e-01 1.83997939301241e-03
2.06830000000000e+00 1.50184692252402e-01 1.82971563833123e-03
2.07690000000000e+00 1.49036115464579e-01 1.81949340770458e-03
2.08550000000000e+00 1.47896322718710e-01 1.80931277465693e-03
2.09410000000000e+00 1.46765246836531e-01 1.79917380746743e-03
2.10270000000000e+00 1.45642821153545e-01 1.78907656927601e-03
2.11130000000000e+00 1.44528979515085e-01 1.77902111818788e-03
2.11990000000000e+00 1.43423656272422e-01 1.76900750737609e-03
2.12850000000000e+00 1.42326786278892e-01 1.75903578518176e-03
2.13710000000000e+00 1.41238304886057e-01 1.74910599521310e-03
2.14570000000000e+00 1.40158147939896e-01 1.73921817644214e-03
2.15430000000000e+00 1.39086251777020e-01 1.72937236329997e-03
2.16290000000000e+00 1.38022553220926e-01 1.71956858577022e-03
2.17150000000000e+00 1.36966989578267e-01 1.70980686948054e-03
2.18010000000000e+00 1.35919498635161e-01 1.70008723579296e-03
2.18870000000000e+00 1.34880018653523e-01 1.69040970189237e-03
2.19730000000000e+00 1.33848488367425e-01 1.68077428087304e-03
2.20590000000000e+00 1.32824846979489e-01 1.67118098182398e-03
2.21450000000000e+00 1.31809034157299e-01 1.66162980991290e-03
2.22310000000000e+00 1.30800990029845e-01 1.65212076646829e-03
2.23170000000000e+00 1.29800655184001e-01 1.64265384906009e-03
2.24030000000000e+00 1.28807970661014e-01 1.63322905157908e-03
2.24890000000000e+00 1.27822877953035e-01 1.62384636431457e-03
2.25750000000000e+00 1.26845318999671e-01 1.61450577403119e-03
2.26610000000000e+00 1.25875236184559e-01 1.60520726404370e-03
2.27470000000000e+00 1.24912572331972e-01 1.59595081429077e-03
2.28330000000000e+00 1.23957270703450e-01 1.58673640140759e-03
2.29190000000000e+00 1.23009274994456e-01 1.57756399879674e-03
2.30050000000000e+00 1.22068529331056e-01 1.56843357669824e-03
2.30910000000000e+00 1.21134978266626e-01 1.55934510225821e-03
2.31770000000000e+00 1.20208566778585e-01 1.55029853959616e-03
2.32630000000000e+00 1.19289240265152e-01 1.54129384987108e-03
2.33490000000000e+00 1.18376944542128e-01 1.53233099134650e-03
2.34350000000000e+00 1.17471625839700e-01 1.52340991945449e-03
2.35210000000000e+00 1.16573230799275e-01 1.51453058685827e-03
2.36070000000000e+00 1.15681706470333e-01 1.50569294351380e-03
2.36930000000000e+00 1.14797000307309e-01 1.49689693673025e-03
2.37790000000000e+00 1.13919060166492e-01 1.48814251122947e-03
2.38650000000000e+00 1.13047834302953e-01 1.47942960920438e-03
2.39510000000000e+00 1.12183271367499e-01 1.47075817037628e-03
2.40370000000000e+00 1.11325320403640e-01 1.46212813205119e-03
2.41230000000000e+00 1.10473930844592e-01 1.45353942917501e-03
2.42090000000000e+00 1.09629052510291e-01 1.44499199438799e-03
2.42950000000000e+00 1.08790635604441e-01 1.43648575807825e-03
2.43810000000000e+00 1.07958630711573e-01 1.42802064843391e-03
2.44670000000000e+00 1.07132988794140e-01 1.41959659149472e-03
2.45530000000000e+00 1.06313661189617e-01 1.41121351120268e-03
2.46390000000000e+00 1.05500599607644e-01 1.40287132945167e-03
2.47250000000000e+00 1.04693756127171e-01 1.39456996613635e-03
2.48110000000000e+00 1.03893083193637e-01 1.38630933919996e-03
2.48970000000000e+00 1.03098533616167e-01 1.37808936468131e-03
2.49830000000000e+00 1.02310060564792e-01 1.36990995676135e-03
2.50690000000000e+00 1.01527617567685e-01 1.36177102780853e-03
2.51550000000000e+00 1.00751158508428e-01 1.35367248842316e-03
2.52410000000000e+00 9.99806376232859e-02 1.34561424748151e-03
2.53270000000000e+00 9.92160094985177e-02 1.33759621217884e-03
2.54130000000000e+00 9.84572290676938e-02 1.32961828807158e-03
2.54990000000000e+00 9.77042516090426e-02 1.32168037911897e-03
2.55850000000000e+00 9.69570327428137e-02 1.31378238772391e-03
2.56710000000000e+00 9.62155284286627e-02 1.30592421477295e-03
2.57570000000000e+00 9.54796949630551e-02 1.29810575967567e-03
2.58430000000000e+00 9.47494889766906e-02 1.29032692040339e-03
2.59290000000000e+00 9.40248674319473e-02 1.28258759352723e-03
2.60150000000000e+00 9.33057876203445e-02 1.27488767425531e-03
2.61010000000000e+00 9.25922071600258e-02 1.26722705646936e-03
2.61870000000000e+00 9.18840839932614e-02 1.25960563276093e-03
2.62730000000000e+00 9.11813763839686e-02 1.25202329446652e-03
2.63590000000000e+00 9.04840429152527e-02 1.24447993170239e-03
2.64450000000000e+00 8.97920424869655e-02 1.23697543339877e-03
2.65310000000000e+00 8.91053343132827e-02 1.22950968733314e-03
2.66170000000000e+00 8.84238779203005e-02 1.22208258016329e-03
2.67030000000000e+00 8.77476331436499e-02 1.21469399745964e-03
2.67890000000000e+00 8.70765601261294e-02 1.20734382373691e-03
2.68750000000000e+00 8.64106193153557e-02 1.20003194248532e-03
2.69610000000000e+00 8.57497714614330e-02 1.19275823620111e-03
2.70470000000000e+00 8.50939776146392e-02 1.18552258641674e-03
2.71330000000000e+00 8.44431991231304e-02 1.17832487373033e-03
