Energy (eV)          EEDF (eV^-(3/2))     First Anisotropy
1.88095238095238e-02 3.23494339951746e-01 2.62445832560043e-04
5.64285714285714e-02 3.18217121861910e-01 4.31287728513117e-04
9.40476190476190e-02 3.13025991927198e-01 5.63851914152292e-04
1.31666666666667e-01 3.07919545766054e-01 6.61278767112747e-04
1.69285714285714e-01 3.02896401949844e-01 7.39861513679749e-04
2.06904761904762e-01 2.97955201520525e-01 8.05850634444243e-04
2.44523809523810e-01 2.93094607723693e-01 8.62525580342336e-04
2.82142857142857e-01 2.88313305630990e-01 9.11893237022940e-04
3.19761904761905e-01 2.83610001724934e-01 9.55301953102708e-04
3.57380952380952e-01 2.78983423608572e-01 9.93716810819046e-04
3.95000000000000e-01 2.74432319654907e-01 1.02786103671233e-03
4.32619047619048e-01 2.69955458628463e-01 1.05829587438116e-03
4.70238095238095e-01 2.65551629402066e-01 1.08546899761219e-03
5.07857142857143e-01 2.61219640586062e-01 1.10974550088915e-03
5.45476190476191e-01 2.56958320235921e-01 1.13142861874595e-03
5.83095238095238e-01 2.52766515532928e-01 1.15077409003612e-03
6.20714285714286e-01 2.48643092449095e-01 1.16800041131366e-03
6.58333333333333e-01 2.44586935463685e-01 1.18329634671636e-03
6.95952380952381e-01 2.40596947259733e-01 1.19682655439347e-03
7.33571428571429e-01 2.36672048408654e-01 1.20873587582886e-03
7.71190476190476e-01 2.32811177102094e-01 1.21915266575261e-03
8.08809523809524e-01 2.29013288842818e-01 1.22819141500637e-03
8.46428571428572e-01 2.25277356177783e-01 1.23595484158329e-03
8.84047619047619e-01 2.21602368419315e-01 1.24253558297612e-03
9.21666666666667e-01 2.17987331358559e-01 1.24801757442724e-03
9.59285714285714e-01 2.14431267013438e-01 1.25247718648224e-03
9.96904761904762e-01 2.10933213348346e-01 1.25598417265039e-03
1.03452380952381e+00 2.07492224011629e-01 1.25860245563393e-03
1.07214285714286e+00 2.04107368143058e-01 1.26039080859983e-03
1.10976190476190e+00 2.00777729995507e-01 1.26140342178632e-03
1.14738095238095e+00 1.97502408793422e-01 1.26169038204512e-03
1.18500000000000e+00 1.94280518455790e-01 1.26129810070100e-03
1.22261904761905e+00 1.91111187382445e-01 1.26026968243156e-03
1.26023809523810e+00 1.87993558138824e-01 1.25864523733190e-03
1.29785714285714e+00 1.84926787304643e-01 1.25646215312188e-03
1.33547619047619e+00 1.81910045218400e-01 1.25375534479202e-03
1.37309523809524e+00 1.78942515774674e-01 1.25055747392271e-03
1.41071428571429e+00 1.76023396137415e-01 1.24689913496565e-03
1.44833333333333e+00 1.73151896589618e-01 1.24280902028813e-03
1.48595238095238e+00 1.70327240296929e-01 1.23831407670698e-03
1.52357142857143e+00 1.67548663115885e-01 1.23343964477762e-03
1.56119047619048e+00 1.64815413331747e-01 1.22820957675875e-03
1.59880952380952e+00 1.62126751511332e-01 1.22264634239203e-03
1.63642857142857e+00 1.59481950283795e-01 1.21677113443682e-03
1.67404761904762e+00 1.56880294144141e-01 1.21060395489092e-03
1.71166666666667e+00 1.54321079274442e-01 1.20416370203496e-03
1.74928571428571e+00 1.51803613307924e-01 1.19746824145408e-03
1.78690476190476e+00 1.49327215187812e-01 1.19053447046282e-03
1.82452380952381e+00 1.46891214967580e-01 1.18337838427264e-03
1.86214285714286e+00 1.44494953642476e-01 1.17601513593001e-03
1.89976190476190e+00 1.42137782932178e-01 1.16845908565385e-03
1.93738095238095e+00 1.39819065145013e-01 1.16072384590263e-03
1.97500000000000e+00 1.37538172992085e-01 1.15282232941061e-03
2.01261904761905e+00 1.35294489428667e-01 1.14476679290545e-03
2.05023809523810e+00 1.33087407453514e-01 1.13656887240242e-03
2.08785714285714e+00 1.30916329978849e-01 1.12823961561982e-03
2.12547619047619e+00 1.28780669657274e-01 1.11978951789563e-03
2.16309523809524e+00 1.26679848732546e-01 1.11122855498128e-03
2.20071428571429e+00 1.24613298853926e-01 1.10256620891006e-03
2.23833333333333e+00 1.22580460952161e-01 1.09381149185617e-03
2.27595238095238e+00 1.20580785078146e-01 1.08497297366255e-03
2.31357142857143e+00 1.18613730262642e-01 1.07605880702744e-03
2.35119047619048e+00 1.16678764344273e-01 1.06707674685151e-03
2.38880952380952e+00 1.14775363851540e-01 1.05803416813999e-03
2.42642857142857e+00 1.12903013852371e-01 1.04893808856348e-03
2.46404761904762e+00 1.11061207814910e-01 1.03979518410599e-03
2.50166666666667e+00 1.09249447477623e-01 1.03061180888630e-03
2.53928571428571e+00 1.07467242692629e-01 1.02139400890767e-03
2.57690476190476e+00 1.05714111315258e-01 1.01214753481955e-03
2.61452380952381e+00 1.03989579066168e-01 1.00287785819553e-03
2.65214285714286e+00 1.02293179409359e-01 9.93590186448041e-04
2.68976190476190e+00 1.00624453406663e-01 9.84289473468474e-04
2.72738095238095e+00 9.89829496131350e-02 9.74980429517144e-04
2.76500000000000e+00 9.73682239483271e-02 9.65667534434737e-04
2.80261904761905e+00 9.57798395817706e-02 9.56355049743487e-04
2.84023809523810e+00 9.42173667977231e-02 9.47047026975163e-04
2.87785714285714e+00 9.26803828962068e-02 9.37747315418120e-04
2.91547619047619e+00 9.11684720728128e-02 9.28459572974432e-04
2.95309523809524e+00 8.96812253112092e-02 9.19187276096825e-04
2.99071428571429e+00 8.82182402573368e-02 9.09933726369131e-04
3.02833333333333e+00 8.67791211259009e-02 9.00702056628851e-04
3.06595238095238e+00 8.53634785881046e-02 8.91495239985690e-04
3.10357142857143e+00 8.39709296707811e-02 8.82316098066219e-04
3.14119047619048e+00 8.26010976393022e-02 8.73167306254328e-04
3.17880952380952e+00 8.12536119093108e-02 8.64051398565409e-04
3.21642857142857e+00 7.99281079418355e-02 8.54970775833407e-04
3.25404761904762e+00 7.86242271447066e-02 8.45927710097698e-04
3.29166666666667e+00 7.73416167793844e-02 8.36924351944600e-04
3.32928571428571e+00 7.60799298538039e-02 8.27962734472750e-04
3.36690476190476e+00 7.48388250403779e-02 8.19044776977922e-04
3.40452380952381e+00 7.36179665796608e-02 8.10172291097809e-04
3.44214285714286e+00 7.24170241929592e-02 8.01346986407992e-04
3.47976190476190e+00 7.12356729824894e-02 7.92570473618964e-04
3.51738095238095e+00 7.00735933541031e-02 7.83844267542062e-04
3.55500000000000e+00 6.89304709272470e-02 7.75169792327441e-04
3.59261904761905e+00 6.78059964530057e-02 7.66548386224569e-04
3.63023809523810e+00 6.66998657210381e-02 7.57981304168843e-04
3.66785714285714e+00 6.56117794867960e-02 7.49469720176079e-04
3.70547619047619e+00 6.45414433873552e-02 7.41014731833523e-04
3.74309523809524e+00 6.34885678645642e-02 7.32617364372686e-04
3.78071428571429e+00 6.24528680782673e-02 7.24278572767086e-04
3.81833333333333e+00 6.14340638377912e-02 7.15999243668734e-04
3.85595238095238e+00 6.04318795232538e-02 7.07780199278532e-04
3.89357142857143e+00 5.94460440135093e-02 6.99622200847845e-04
3.93119047619048e+00 5.84762906052076e-02 6.91525950382029e-04
3.96880952380952e+00 5.75223569483279e-02 6.83492092207373e-04
4.00642857142857e+00 5.65839849726006e-02 6.75521216718863e-04
4.04404761904762e+00 5.56609208177071e-02 6.67613861807577e-04
4.08166666666667e+00 5.47529147667926e-02 6.59770516237663e-04
4.11928571428571e+00 5.38597211722292e-02 6.51991620953374e-04
4.15690476190476e+00 5.29810983959219e-02 6.44277570275035e-04
4.19452380952381e+00 5.21168087416626e-02 6.36628714717497e-04
4.23214285714286e+00 5.12666183928052e-02 6.29045363525049e-04
4.26976190476191e+00 5.04302973429834e-02 6.21527785730664e-04
4.30738095238095e+00 4.96076193399867e-02 6.14076211119784e-04
4.34500000000000e+00 4.87983618224962e-02 6.06690832690170e-04
4.38261904761905e+00 4.80023058616667e-02 5.99371808857983e-04
4.42023809523810e+00 4.72192360964529e-02 5.92119264313738e-04
4.45785714285714e+00 4.64489406808596e-02 5.84933290795758e-04
4.49547619047619e+00 4.56912112247697e-02 5.77813949243210e-04
4.53309523809524e+00 4.49458427391924e-02 5.70761271721439e-04
4.57071428571429e+00 4.42126335758801e-02 5.63775262110428e-04
4.60833333333333e+00 4.34913853777619e-02 5.56855896721729e-04
4.64595238095238e+00 4.27819030235964e-02 5.50003126187701e-04
4.68357142857143e+00 4.20839945766587e-02 5.43216877145920e-04
4.72119047619048e+00 4.13974712283526e-02 5.36497052789367e-04
4.75880952380952e+00 4.07221472516482e-02 5.29843533354003e-04
4.79642857142857e+00 4.00578399493071e-02 5.23256178037668e-04
4.83404761904762e+00 3.94043696044659e-02 5.16734825443587e-04
4.87166666666667e+00 3.87615594333142e-02 5.10279295306301e-04
4.90928571428571e+00 3.81292355333133e-02 5.03889388898557e-04
4.94690476190476e+00 3.75072268401533e-02 4.97564889385578e-04
4.98452380952381e+00 3.68953650801272e-02 4.91305563247240e-04
5.02214285714286e+00 3.62934847257875e-02 4.85111161536687e-04
5.05976190476191e+00 3.57014229475748e-02 4.78981420196786e-04
5.09738095238095e+00 3.51190195734011e-02 4.72916060330367e-04
5.13500000000000e+00 3.45461170440929e-02 4.66914789456141e-04
5.17261904761905e+00 3.39825603718409e-02 4.60977302616324e-04
5.21023809523810e+00 3.34281970950078e-02 4.55103282618031e-04
5.24785714285714e+00 3.28828772401840e-02 4.49292400233882e-04
5.28547619047619e+00 3.23464532805008e-02 4.43544315312694e-04
5.32309523809524e+00 3.18187800966978e-02 4.37858677755492e-04
5.36071428571429e+00 3.12997149348964e-02 4.32235127694581e-04
5.39833333333333e+00 3.07891173709824e-02 4.26673295636431e-04
5.43595238095238e+00 3.02868492716024e-02 4.21172803445129e-04
5.47357142857143e+00 2.97927747576857e-02 4.15733265203448e-04
5.51119047619048e+00 2.93067601649844e-02 4.10354287340077e-04
5.54880952380952e+00 2.88286740106449e-02 4.05035468724766e-04
5.58642857142857e+00 2.83583869567135e-02 3.99776401708893e-04
5.62404761904762e+00 2.78957717751502e-02 3.94576672207785e-04
5.66166666666667e+00 2.74407033141997e-02 3.89435860631631e-04
5.69928571428571e+00 2.69930584621270e-02 3.84353541958382e-04
5.73690476190476e+00 2.65527161163472e-02 3.79329285779162e-04
5.77452380952381e+00 2.61195571498432e-02 3.74362657050761e-04
5.81214285714286e+00 2.56934643796595e-02 3.69453216748497e-04
5.84976190476191e+00 2.52743225330064e-02 3.64600521905359e-04
5.88738095238095e+00 2.48620182182949e-02 3.59804125626669e-04
5.92500000000000e+00 2.44564398937123e-02 3.55063577758312e-04
5.96261904761905e+00 2.40574778377061e-02 3.50378425464028e-04
6.00023809523810e+00 2.36650241172980e-02 3.45748213236747e-04
6.03785714285714e+00 2.32789725609110e-02 3.41172482888002e-04
6.07547619047619e+00 2.28992187289623e-02 3.36650774141751e-04
6.11309523809524e+00 2.25256598862119e-02 3.32182625144980e-04
6.15071428571429e+00 2.21581949721421e-02 3.27767572456195e-04
6.18833333333333e+00 2.17967245754655e-02 3.23405151014327e-04
6.22595238095238e+00 2.14411509066075e-02 3.19094894666571e-04
6.26357142857143e+00 2.10913777718013e-02 3.14836336620190e-04
6.30119047619048e+00 2.07473105453953e-02 3.10629009412340e-04
6.33880952380952e+00 2.04088561459430e-02 3.06472444862333e-04
6.37642857142857e+00 2.00759230104496e-02 3.02366174652900e-04
6.41404761904762e+00 1.97484210696043e-02 2.98309730280652e-04
6.45166666666667e+00 1.94262617239039e-02 2.94302643571900e-04
6.48928571428571e+00 1.91093578181900e-02 2.90344446633017e-04
6.52690476190476e+00 1.87976236195820e-02 2.86434671785579e-04
6.56452380952381e+00 1.84909747937749e-02 2.82572851972853e-04
6.60214285714286e+00 1.81893283826737e-02 2.78758521103686e-04
6.63976190476191e+00 1.78926027805835e-02 2.74991213991505e-04
6.67738095238095e+00 1.76007177135156e-02 2.71270466279630e-04
6.71500000000000e+00 1.73135942170045e-02 2.67595814802870e-04
6.75261904761905e+00 1.70311546151573e-02 2.63966797891745e-04
6.79023809523810e+00 1.67533224983895e-02 2.60382955302499e-04
6.82785714285714e+00 1.64800227040187e-02 2.56843828134829e-04
6.86547619047619e+00 1.62111812955036e-02 2.53348959153567e-04
6.90309523809524e+00 1.59467255428198e-02 2.49897893057634e-04
6.94071428571429e+00 1.56865839016386e-02 2.46490176403164e-04
6.97833333333333e+00 1.54306859951302e-02 2.43125357515507e-04
7.01595238095238e+00 1.51789625945337e-02 2.39802986775344e-04
7.05357142857143e+00 1.49313456007742e-02 2.36522616856368e-04
7.09119047619048e+00 1.46877680249912e-02 2.33283802643180e-04
7.12880952380952e+00 1.44481639714770e-02 2.30086101139195e-04
7.16642857142857e+00 1.42124686194911e-02 2.26929071795728e-04
7.20404761904762e+00 1.39806182057250e-02 2.23812276421834e-04
7.24166666666667e+00 1.37525500073621e-02 2.20735279473184e-04
7.27928571428571e+00 1.35282023241673e-02 2.17697647964782e-04
7.31690476190476e+00 1.33075144627477e-02 2.14698951374977e-04
7.35452380952381e+00 1.30904267198121e-02 2.11738761865606e-04
7.39214285714286e+00 1.28768803663039e-02 2.08816654462036e-04
7.42976190476191e+00 1.26668176306489e-02 2.05932206963643e-04
7.46738095238095e+00 1.24601816840001e-02 2.03084999846418e-04
7.50500000000000e+00 1.22569166245694e-02 2.00274616458545e-04
7.54261904761905e+00 1.20569674627647e-02 1.97500643179064e-04
7.58023809523810e+00 1.18602801055217e-02 1.94762669327073e-04
7.61785714285714e+00 1.16668013424712e-02 1.92060287063828e-04
7.65547619047619e+00 1.14764788312738e-02 1.89393091566373e-04
7.69309523809524e+00 1.12892610836989e-02 1.86760681167187e-04
7.73071428571429e+00 1.11050974509686e-02 1.84162657262933e-04
7.76833333333333e+00 1.09239381107915e-02 1.81598624216755e-04
7.80595238095238e+00 1.07457340536349e-02 1.79068189512307e-04
7.84357142857143e+00 1.05704370696871e-02 1.76570963876513e-04
7.88119047619048e+00 1.03979997351476e-02 1.74106561188497e-04
7.91880952380952e+00 1.02283754000722e-02 1.71674598382692e-04
7.95642857142857e+00 1.00615181755249e-02 1.69274695635578e-04
7.99404761904762e+00 9.89738292116382e-03 1.66906476271744e-04
8.03166666666667e+00 9.73592523322708e-03 1.64569566925388e-04
8.06928571428571e+00 9.57710143191923e-03 1.62263597449882e-04
8.10690476190476e+00 9.42086855020220e-03 1.59988200822238e-04
8.14452380952381e+00 9.26718432196663e-03 1.57743013260723e-04
8.18214285714286e+00 9.11600717077922e-03 1.55527674316403e-04
8.21976190476190e+00 8.96729619808289e-03 1.53341826784042e-04
8.25738095238095e+00 8.82101117269079e-03 1.51185116608391e-04
8.29500000000000e+00 8.67711251971430e-03 1.49057192988167e-04
8.33261904761905e+00 8.53556131002381e-03 1.46957708456024e-04
8.37023809523810e+00 8.39631924920978e-03 1.44886318791135e-04
8.40785714285714e+00 8.25934866773607e-03 1.42842682927606e-04
8.44547619047619e+00 8.12461251057597e-03 1.40826463046278e-04
8.48309523809524e+00 7.99207432734146e-03 1.38837324644389e-04
8.52071428571429e+00 7.86169826195565e-03 1.36874936450131e-04
8.55833333333333e+00 7.73344904342443e-03 1.34938970333395e-04
8.59595238095238e+00 7.60729197613524e-03 1.33029101386720e-04
8.63357142857143e+00 7.48319293061236e-03 1.31145007985800e-04
8.67119047619048e+00 7.36111833385470e-03 1.29286371706199e-04
8.70880952380952e+00 7.24103516068722e-03 1.27452877236653e-04
8.74642857142857e+00 7.12291092467990e-03 1.25644212484199e-04
8.78404761904762e+00 7.00671366935957e-03 1.23860068490369e-04
8.82166666666667e+00 6.89241195969189e-03 1.22100139520312e-04
8.85928571428571e+00 6.77997487319006e-03 1.20364122982236e-04
8.89690476190476e+00 6.66937199194091e-03 1.18651719343841e-04
8.93452380952381e+00 6.56057339424387e-03 1.16962632193074e-04
8.97214285714286e+00 6.45354964663354e-03 1.15296568281810e-04
9.00976190476191e+00 6.34827179556065e-03 1.13653237447802e-04
9.04738095238095e+00 6.24471135991962e-03 1.12032352533923e-04
9.08500000000000e+00 6.14284032322193e-03 1.10433629441373e-04
9.12261904761905e+00 6.04263112612489e-03 1.08856787167117e-04
9.16023809523810e+00 5.94405665864790e-03 1.07301547728438e-04
9.19785714285714e+00 5.84709025317010e-03 1.05767636085023e-04
9.23547619047619e+00 5.75170567710399e-03 1.04254780185442e-04
9.27309523809524e+00 5.65787712589828e-03 1.02762710999061e-04
9.31071428571429e+00 5.56557921575483e-03 1.01291162443235e-04
9.34833333333333e+00 5.47478697706703e-03 9.98398713082785e-05
9.38595238095238e+00 5.38547584756163e-03 9.84085772979247e-05
9.42357142857143e+00 5.29762166574558e-03 9.69970230563545e-05
9.46119047619048e+00 5.21120066409139e-03 9.56049540980657e-05
9.49880952380953e+00 5.12618946288863e-03 9.42321187357065e-05
9.53642857142857e+00 5.04256506382391e-03 9.28782681381907e-05
9.57404761904762e+00 4.96030484375933e-03 9.15431562610476e-05
9.61166666666667e+00 4.87938654869487e-03 9.02265398942771e-05
9.64928571428571e+00 4.79978828749657e-03 8.89281785954168e-05
9.68690476190476e+00 4.72148852622856e-03 8.76478346208253e-05
9.72452380952381e+00 4.64446608224174e-03 8.63852729550703e-05
9.76214285714286e+00 4.56870011851952e-03 8.51402613290336e-05
9.79976190476190e+00 4.49417013780897e-03 8.39125701556449e-05
9.83738095238095e+00 4.42085597731003e-03 8.27019724640077e-05
9.87500000000000e+00 4.34873780314183e-03 8.15082439246547e-05
9.91261904761905e+00 4.27779610504734e-03 8.03311628643687e-05
9.95023809523810e+00 4.20801169090162e-03 7.91705102045588e-05
9.98785714285714e+00 4.13936568173575e-03 7.80260694536633e-05
1.00254761904762e+01 4.07183950635752e-03 7.68976264878207e-05
1.00630952380952e+01 4.00541489725658e-03 7.57849699848963e-05
1.01007142857143e+01 3.94007388374644e-03 7.46878909768953e-05
1.01383333333333e+01 3.87579878958538e-03 7.36061829932861e-05
1.01759523809524e+01 3.81257222562665e-03 7.25396420502386e-05
1.02135714285714e+01 3.75037708763127e-03 7.14880665783449e-05
1.02511904761905e+01 3.68919654917326e-03 7.04512574494098e-05
1.02888095238095e+01 3.62901405950647e-03 6.94290177466279e-05
1.03264285714286e+01 3.56981333727899e-03 6.84211534296093e-05
1.03640476190476e+01 3.51157836619061e-03 6.74274723127238e-05
1.04016666666667e+01 3.45429339233047e-03 6.64477846893831e-05
1.04392857142857e+01 3.39794291769300e-03 6.54819031806843e-05
1.04769047619048e+01 3.34251169816371e-03 6.45296426694839e-05
1.05145238095238e+01 3.28798473725939e-03 6.35908203212491e-05
1.05521428571429e+01 3.23434728416500e-03 6.26652555197887e-05
1.05897619047619e+01 3.18158482769014e-03 6.17527698866838e-05
1.06273809523810e+01 3.12968309435607e-03 6.08531872186381e-05
1.06650000000000e+01 3.07862804256090e-03 5.99663335055658e-05
1.07026190476190e+01 3.02840586071563e-03 5.90920368695307e-05
1.07402380952381e+01 2.97900296161074e-03 5.82301275815674e-05
1.07778571428571e+01 2.93040598060027e-03 5.73804380021736e-05
1.08154761904762e+01 2.88260177016267e-03 5.65428025969358e-05
1.08530952380952e+01 2.83557739813200e-03 5.57170578785502e-05
1.08907142857143e+01 2.78932014244617e-03 5.49030424213052e-05
1.09283333333333e+01 2.74381748942421e-03 5.41005968045970e-05
1.09659523809524e+01 2.69905712869541e-03 5.33095636263516e-05
1.10035714285714e+01 2.65502695152165e-03 5.25297874479886e-05
1.10411904761905e+01 2.61171504590103e-03 5.17611148068380e-05
1.10788095238095e+01 2.56910969493436e-03 5.10033940538313e-05
1.11164285714286e+01 2.52719937246755e-03 5.02564758015895e-05
1.11540476190476e+01 2.48597274001353e-03 4.95202122220713e-05
1.11916666666667e+01 2.44541864478378e-03 4.87944574671632e-05
1.12292857142857e+01 2.40552611520939e-03 4.80790675601580e-05
1.12669047619048e+01 2.36628435940632e-03 4.73739003457505e-05
1.13045238095238e+01 2.32768276085018e-03 4.66788154991851e-05
1.13421428571429e+01 2.28971087688253e-03 4.59936744775641e-05
1.13797619047619e+01 2.25235843453409e-03 4.53183405282225e-05
1.14173809523810e+01 2.21561532907112e-03 4.46526786413208e-05
1.14550000000000e+01 2.17947161996183e-03 4.39965555574960e-05
1.14926190476190e+01 2.14391752946194e-03 4.33498397217103e-05
1.15302380952381e+01 2.10894343871933e-03 4.27124012902149e-05
1.15678571428571e+01 2.07453988639782e-03 4.20841120856244e-05
1.16054761904762e+01 2.04069756491523e-03 4.14648456032425e-05
1.16430952380952e+01 2.00740731910454e-03 4.08544769673255e-05
1.16807142857143e+01 1.97466014258068e-03 4.02528829368084e-05
1.17183333333333e+01 1.94244717643814e-03 3.96599418627376e-05
1.17559523809524e+01 1.91075970574210e-03 3.90755336934230e-05
1.17935714285714e+01 1.87958915826155e-03 3.84995399330143e-05
1.18311904761905e+01 1.84892710108043e-03 3.79318436461196e-05
1.18688095238095e+01 1.81876523936548e-03 3.73723293431378e-05
