Energy (eV)          EEDF (eV^-(3/2))     First Anisotropy
2.31034482758621e-02 1.47138619238229e-01 1.02131097447965e-04
6.93103448275862e-02 1.45393683475608e-01 1.68212963467831e-04
1.15517241379310e-01 1.43669441133193e-01 2.20912060202272e-04
1.61724137931034e-01 1.41965646796234e-01 2.60256120177363e-04
2.07931034482759e-01 1.40282057982098e-01 2.92501983618687e-04
2.54137931034483e-01 1.38618435060077e-01 3.20033128284046e-04
3.00344827586207e-01 1.36974541259334e-01 3.44091840802693e-04
3.46551724137931e-01 1.35350142603659e-01 3.65433528720978e-04
3.92758620689655e-01 1.33745007902400e-01 3.84562620208722e-04
4.38965517241379e-01 1.32158908697696e-01 4.01838039009119e-04
4.85172413793103e-01 1.30591619245306e-01 4.17527243693526e-04
5.31379310344828e-01 1.29042916481518e-01 4.31836675838619e-04
5.77586206896552e-01 1.27512579981165e-01 4.44930165433110e-04
6.23793103448276e-01 1.26000391939179e-01 4.56940682450143e-04
6.70000000000000e-01 1.24506137128086e-01 4.67978174315771e-04
7.16206896551724e-01 1.23029602877688e-01 4.78134982988655e-04
7.62413793103448e-01 1.21570579035460e-01 4.87489703031603e-04
8.08620689655172e-01 1.20128857945141e-01 4.96109999660371e-04
8.54827586206896e-01 1.18704234409385e-01 5.04054712843134e-04
9.01034482758621e-01 1.17296505667738e-01 5.11375458211659e-04
9.47241379310345e-01 1.15905471361125e-01 5.18117865986242e-04
9.93448275862069e-01 1.14530933508137e-01 5.24322552630557e-04
1.03965517241379e+00 1.13172696481743e-01 5.30025897493033e-04
1.08586206896552e+00 1.11830566958024e-01 5.35260663895036e-04
1.13206896551724e+00 1.10504353916289e-01 5.40056503885346e-04
1.17827586206897e+00 1.09193868612621e-01 5.44440381215802e-04
1.22448275862069e+00 1.07898924518501e-01 5.48436913643118e-04
1.27068965517241e+00 1.06619337328909e-01 5.52068658350415e-04
1.31689655172414e+00 1.05354924934409e-01 5.55356361993700e-04
1.36310344827586e+00 1.04105507365444e-01 5.58319163770142e-04
1.40931034482759e+00 1.02870906796585e-01 5.60974768331653e-04
1.45551724137931e+00 1.01650947519897e-01 5.63339603146426e-04
1.50172413793103e+00 1.00445455893926e-01 5.65428946026751e-04
1.54793103448276e+00 9.92542603450693e-02 5.67257035471034e-04
1.59413793103448e+00 9.80771913420155e-02 5.68837175111483e-04
1.64034482758621e+00 9.69140813487575e-02 5.70181817457555e-04
1.68655172413793e+00 9.57647648237221e-02 5.71302637309756e-04
1.73275862068966e+00 9.46290781952184e-02 5.72210604225858e-04
1.77896551724138e+00 9.35068598179019e-02 5.72916039542615e-04
1.82517241379310e+00 9.23979499701607e-02 5.73428666910365e-04
1.87137931034483e+00 9.13021908305131e-02 5.73757664494531e-04
1.91758620689655e+00 9.02194264370768e-02 5.73911704977750e-04
1.96379310344828e+00 8.91495026835884e-02 5.73898991337921e-04
2.01000000000000e+00 8.80922672967011e-02 5.73727295685113e-04
2.05620689655172e+00 8.70475697981010e-02 5.73403987360222e-04
2.10241379310345e+00 8.60152615043610e-02 5.72936061549547e-04
2.14862068965517e+00 8.49951954854088e-02 5.72330165648658e-04
2.19482758620690e+00 8.39872265586152e-02 5.71592619710453e-04
2.24103448275862e+00 8.29912112675403e-02 5.70729441580667e-04
2.28724137931034e+00 8.20070078480440e-02 5.69746364299330e-04
2.33344827586207e+00 8.10344762216901e-02 5.68648851944167e-04
2.37965517241379e+00 8.00734779753031e-02 5.67442119623544e-04
2.42586206896552e+00 7.91238763290131e-02 5.66131146620908e-04
2.47206896551724e+00 7.81855361291304e-02 5.64720688417141e-04
2.51827586206897e+00 7.72583238284731e-02 5.63215292910393e-04
2.56448275862069e+00 7.63421074561738e-02 5.61619310477821e-04
2.61068965517241e+00 7.54367566101512e-02 5.59936903213053e-04
2.65689655172414e+00 7.45421424381719e-02 5.58172058316380e-04
2.70310344827586e+00 7.36581376092711e-02 5.56328595883559e-04
2.74931034482759e+00 7.27846163059250e-02 5.54410176078146e-04
2.79551724137931e+00 7.19214542058116e-02 5.52420310357608e-04
2.84172413793103e+00 7.10685284547170e-02 5.50362367557800e-04
2.88793103448276e+00 7.02257176585007e-02 5.48239579512464e-04
2.93413793103448e+00 6.93929018655120e-02 5.46055050594114e-04
2.98034482758621e+00 6.85699625408780e-02 5.43811762501441e-04
3.02655172413793e+00 6.77567825583281e-02 5.41512578695567e-04
3.07275862068966e+00 6.69532461832402e-02 5.39160252606565e-04
3.11896551724138e+00 6.61592390482105e-02 5.36757431423006e-04
3.16517241379310e+00 6.53746481447918e-02 5.34306659614371e-04
3.21137931034483e+00 6.45993618071476e-02 5.31810386065511e-04
3.25758620689655e+00 6.38332696888120e-02 5.29270967090023e-04
3.30379310344828e+00 6.30762627543909e-02 5.26690669239364e-04
3.35000000000000e+00 6.23282332637991e-02 5.24071675564120e-04
3.39620689655172e+00 6.15890747501322e-02 5.21416087649008e-04
3.44241379310345e+00 6.08586820134777e-02 5.18725929338887e-04
3.48862068965517e+00 6.01369510972495e-02 5.16003150432350e-04
3.53482758620690e+00 5.94237792798355e-02 5.13249628226245e-04
3.58103448275862e+00 5.87190650597719e-02 5.10467172621991e-04
3.62724137931034e+00 5.80227081353670e-02 5.07657527793182e-04
3.67344827586207e+00 5.73346093964031e-02 5.04822373746263e-04
3.71965517241379e+00 5.66546709098471e-02 5.01963330893292e-04
3.76586206896552e+00 5.59827959003973e-02 4.99081961386887e-04
3.81206896551724e+00 5.53188887422650e-02 4.96179770368790e-04
3.85827586206897e+00 5.46628549453989e-02 4.93258210089841e-04
3.90448275862069e+00 5.40146011369025e-02 4.90318680976278e-04
3.95068965517241e+00 5.33740350529138e-02 4.87362532625657e-04
3.99689655172414e+00 5.27410655253242e-02 4.84391067539038e-04
4.04310344827586e+00 5.21156024640174e-02 4.81405541969103e-04
4.08931034482759e+00 5.14975568488625e-02 4.78407166710525e-04
4.13551724137931e+00 5.08868407169095e-02 4.75397110497268e-04
4.18172413793103e+00 5.02833671454024e-02 4.72376500672117e-04
4.22793103448276e+00 4.96870502439033e-02 4.69346423809695e-04
4.27413793103448e+00 4.90978051419404e-02 4.66307928822331e-04
4.32034482758621e+00 4.85155479727582e-02 4.63262027482386e-04
4.36655172413793e+00 4.79401958655805e-02 4.60209694908545e-04
4.41275862068966e+00 4.73716669336957e-02 4.57151872416048e-04
4.45896551724138e+00 4.68098802589042e-02 4.54089467917867e-04
4.50517241379310e+00 4.62547558839289e-02 4.51023356298473e-04
4.55137931034483e+00 4.57062148009219e-02 4.47954382038468e-04
4.59758620689655e+00 4.51641789365729e-02 4.44883359515818e-04
4.64379310344828e+00 4.46285711446736e-02 4.41811073286678e-04
4.69000000000000e+00 4.40993151950307e-02 4.38738280509754e-04
4.73620689655172e+00 4.35763357592017e-02 4.35665710943882e-04
4.78241379310345e+00 4.30595584042904e-02 4.32594068038741e-04
4.82862068965517e+00 4.25489095779494e-02 4.29524030072642e-04
4.87482758620690e+00 4.20443166011844e-02 4.26456250076122e-04
4.92103448275862e+00 4.15457076579180e-02 4.23391357958944e-04
4.96724137931034e+00 4.10530117817213e-02 4.20329960627323e-04
5.01344827586207e+00 4.05661588487846e-02 4.17272642090865e-04
5.05965517241379e+00 4.00850795678514e-02 4.14219965440697e-04
5.10586206896552e+00 3.96097054674958e-02 4.11172472917057e-04
5.15206896551724e+00 3.91399688892594e-02 4.08130685968465e-04
5.19827586206897e+00 3.86758029779436e-02 4.05095107095283e-04
5.24448275862069e+00 3.82171416694060e-02 4.02066219876207e-04
5.29068965517241e+00 3.77639196838650e-02 3.99044488987737e-04
5.33689655172414e+00 3.73160725165370e-02 3.96030361925570e-04
5.38310344827586e+00 3.68735364259278e-02 3.93024268997060e-04
5.42931034482759e+00 3.64362484273054e-02 3.90026623307802e-04
5.47551724137931e+00 3.60041462836692e-02 3.87037822371844e-04
5.52172413793103e+00 3.55771684945135e-02 3.84058248075628e-04
5.56793103448276e+00 3.51552542894688e-02 3.81088266637730e-04
5.61413793103448e+00 3.47383436195905e-02 3.78128230117457e-04
5.66034482758621e+00 3.43263771465726e-02 3.75178476354950e-04
5.70655172413793e+00 3.39192962365579e-02 3.72239328909048e-04
5.75275862068966e+00 3.35170429517333e-02 3.69311098472649e-04
5.79896551724138e+00 3.31195600399745e-02 3.66394082793206e-04
5.84517241379310e+00 3.27267909288228e-02 3.63488566592592e-04
5.89137931034483e+00 3.23386797173765e-02 3.60594822896806e-04
5.93758620689655e+00 3.19551711663477e-02 3.57713112940397e-04
5.98379310344828e+00 3.15762106922033e-02 3.54843686071710e-04
6.03000000000000e+00 3.12017443593424e-02 3.51986781003538e-04
6.07620689655172e+00 3.08317188705466e-02 3.49142625566385e-04
6.12241379310345e+00 3.04660815618754e-02 3.46311437156101e-04
6.16862068965517e+00 3.01047803927445e-02 3.43493423219198e-04
6.21482758620690e+00 2.97477639403254e-02 3.40688780991791e-04
6.26103448275862e+00 2.93949813921784e-02 3.37897698626775e-04
6.30724137931034e+00 2.90463825373297e-02 3.35120355071940e-04
6.35344827586207e+00 2.87019177608295e-02 3.32356919950285e-04
6.39965517241379e+00 2.83615380366467e-02 3.29607554623158e-04
6.44586206896552e+00 2.80251949190930e-02 3.26872412061601e-04
6.49206896551724e+00 2.76928405375378e-02 3.24151636719813e-04
6.53827586206897e+00 2.73644275895540e-02 3.21445365538779e-04
6.58448275862069e+00 2.70399093326757e-02 3.18753727812446e-04
6.63068965517241e+00 2.67192395792663e-02 3.16076845055929e-04
6.67689655172414e+00 2.64023726899066e-02 3.13414831953706e-04
6.72310344827586e+00 2.60892635654719e-02 3.10767796222014e-04
6.76931034482759e+00 2.57798676421503e-02 3.08135838473116e-04
6.81551724137931e+00 2.54741408850646e-02 3.05519053111883e-04
6.86172413793103e+00 2.51720397806553e-02 3.02917528195390e-04
6.90793103448276e+00 2.48735213318464e-02 3.00331345294577e-04
6.95413793103448e+00 2.45785430518923e-02 2.97760580342634e-04
7.00034482758621e+00 2.42870629570539e-02 2.95205303492573e-04
7.04655172413793e+00 2.39990395619094e-02 2.92665578977402e-04
7.09275862068966e+00 2.37144318734173e-02 2.90141465913402e-04
7.13896551724138e+00 2.34331993838743e-02 2.87633018156531e-04
7.18517241379310e+00 2.31553020663674e-02 2.85140284161924e-04
7.23137931034483e+00 2.28807003690454e-02 2.82663307744890e-04
7.27758620689655e+00 2.26093552083472e-02 2.80202127936905e-04
7.32379310344828e+00 2.23412279645913e-02 2.77756778845103e-04
7.37000000000000e+00 2.20762804764494e-02 2.75327290373610e-04
7.41620689655172e+00 2.18144750344333e-02 2.72913687991278e-04
7.46241379310345e+00 2.15557743769622e-02 2.70515992946708e-04
7.50862068965517e+00 2.13001416836535e-02 2.68134222508920e-04
7.55482758620690e+00 2.10475405711304e-02 2.65768389733185e-04
7.60103448275862e+00 2.07979350878165e-02 2.63418504119093e-04
7.64724137931034e+00 2.05512897078346e-02 2.61084571469782e-04
7.69344827586207e+00 2.03075693269428e-02 2.58766593754665e-04
7.73965517241379e+00 2.00667392575137e-02 2.56464569734120e-04
7.78586206896552e+00 1.98287652226637e-02 2.54178494820299e-04
7.83206896551724e+00 1.95936133523154e-02 2.51908360941176e-04
7.87827586206897e+00 1.93612501783538e-02 2.49654157133763e-04
7.92448275862069e+00 1.91316426289777e-02 2.47415869406839e-04
7.97068965517241e+00 1.89047580248843e-02 2.45193480606657e-04
8.01689655172414e+00 1.86805640745969e-02 2.42986970980525e-04
8.06310344827586e+00 1.84590288690288e-02 2.40796318041653e-04
8.10931034482759e+00 1.82401208777879e-02 2.38621496436800e-04
8.15551724137931e+00 1.80238089446689e-02 2.36462478481947e-04
8.20172413793103e+00 1.78100622824215e-02 2.34319234029398e-04
8.24793103448276e+00 1.75988504691719e-02 2.32191730337668e-04
8.29413793103448e+00 1.73901434440735e-02 2.30079932580818e-04
8.34034482758621e+00 1.71839115022717e-02 2.27983803717887e-04
8.38655172413793e+00 1.69801252914386e-02 2.25903304365269e-04
8.43275862068965e+00 1.67787558075768e-02 2.23838393281133e-04
8.47896551724138e+00 1.65797743901734e-02 2.21789027237393e-04
8.52517241379310e+00 1.63831527188442e-02 2.19755160894702e-04
8.57137931034483e+00 1.61888628092856e-02 2.17736747263282e-04
8.61758620689655e+00 1.59968770086097e-02 2.15733737577544e-04
8.66379310344828e+00 1.58071679920961e-02 2.13746081173779e-04
8.71000000000000e+00 1.56197087592854e-02 2.11773725928762e-04
8.75620689655172e+00 1.54344726294898e-02 2.09816618079430e-04
8.80241379310345e+00 1.52514332388533e-02 2.07874702334574e-04
8.84862068965517e+00 1.50705645357582e-02 2.05947922003573e-04
8.89482758620690e+00 1.48918407777445e-02 2.04036218817032e-04
8.94103448275862e+00 1.47152365278312e-02 2.02139533329534e-04
8.98724137931034e+00 1.45407266503035e-02 2.00257804802416e-04
9.03344827586207e+00 1.43682863077327e-02 1.98390971089484e-04
9.07965517241379e+00 1.41978909574262e-02 1.96538969020625e-04
9.12586206896552e+00 1.40295163473721e-02 1.94701734287534e-04
9.17206896551724e+00 1.38631385133542e-02 1.92879201332154e-04
9.21827586206897e+00 1.36987337755281e-02 1.91071303712131e-04
9.26448275862069e+00 1.35362787345158e-02 1.89277973989499e-04
9.31068965517241e+00 1.33757502686142e-02 1.87499143621866e-04
9.35689655172414e+00 1.32171255304921e-02 1.85734743310676e-04
9.40310344827586e+00 1.30603819434289e-02 1.83984702892836e-04
9.44931034482759e+00 1.29054971986144e-02 1.82248951234663e-04
9.49551724137931e+00 1.27524492519617e-02 1.80527416563863e-04
9.54172413793103e+00 1.26012163204855e-02 1.78820026364013e-04
9.58793103448276e+00 1.24517768796894e-02 1.77126707271354e-04
9.63413793103448e+00 1.23041096604912e-02 1.75447385391290e-04
9.68034482758621e+00 1.21581936457351e-02 1.73781986195685e-04
9.72655172413793e+00 1.20140080676644e-02 1.72130434422504e-04
9.77275862068965e+00 1.18715324049548e-02 1.70492654377621e-04
9.81896551724138e+00 1.17307463793555e-02 1.68868569834924e-04
9.86517241379310e+00 1.15916299532448e-02 1.67258103938757e-04
9.91137931034483e+00 1.14541633267673e-02 1.65661179491768e-04
9.95758620689655e+00 1.13183269345994e-02 1.64077718857797e-04
1.00037931034483e+01 1.11841014435847e-02 1.62507644063076e-04
1.00500000000000e+01 1.10514677493170e-02 1.60950876092613e-04
1.00962068965517e+01 1.09204069762937e-02 1.59407336358757e-04
1.01424137931034e+01 1.07909004697357e-02 1.57876946272032e-04
1.01886206896552e+01 1.06629297973992e-02 1.56359625978120e-04
1.02348275862069e+01 1.05364767456307e-02 1.54855295752573e-04
1.02810344827586e+01 1.04115233167747e-02 1.53363875620410e-04
1.03272413793103e+01 1.02880517266123e-02 1.51885285380015e-04
1.03734482758621e+01 1.01660444018297e-02 1.50419444626322e-04
1.04196551724138e+01 1.00454839775173e-02 1.48966272773345e-04
1.04658620689655e+01 9.92635329469834e-03 1.47525689076024e-04
1.05120689655172e+01 9.80863539788626e-03 1.46097612651419e-04
1.05582758620690e+01 9.69231353267192e-03 1.44681962499302e-04
1.06044827586207e+01 9.57737114333880e-03 1.43278657522114e-04
1.06506896551724e+01 9.46379187050670e-03 1.41887616544322e-04
1.06968965517241e+01 9.35155954880338e-03 1.40508758331206e-04
1.07431034482759e+01 9.24065820456381e-03 1.39142001607150e-04
1.07893103448276e+01 9.13107205355643e-03 1.37787265073147e-04
1.08355172413793e+01 9.02278549873710e-03 1.36444467423920e-04
1.08817241379310e+01 8.91578312802904e-03 1.35113527364676e-04
1.09279310344828e+01 8.81004971212920e-03 1.33794363627107e-04
1.09741379310345e+01 8.70557020234077e-03 1.32486894984967e-04
1.10203448275862e+01 8.60232972843134e-03 1.31191040269174e-04
1.10665517241379e+01 8.50031359651646e-03 1.29906718382426e-04
1.11127586206897e+01 8.39950728696833e-03 1.28633848313369e-04
1.11589655172414e+01 8.29989645234926e-03 1.27372349150305e-04
1.12051724137931e+01 8.20146691536961e-03 1.26122140094452e-04
1.12513793103448e+01 8.10420466687003e-03 1.24883140472794e-04
1.12975862068966e+01 8.00809586382758e-03 1.23655269750504e-04
1.13437931034483e+01 7.91312682738546e-03 1.22438447542965e-04
1.13900000000000e+01 7.81928404090616e-03 1.21232593371324e-04
1.14362068965517e+01 7.72655414885008e-03 1.20037627448450e-04
1.14824137931034e+01 7.63492395244535e-03 1.18853470170729e-04
1.15286206896552e+01 7.54438041026115e-03 1.17680041597633e-04
1.15748275862069e+01 7.45491063552663e-03 1.16517262262324e-04
1.16210344827586e+01 7.36650189429677e-03 1.15365052912295e-04
1.16672413793103e+01 7.27914160364004e-03 1.14223334518826e-04
1.17134482758621e+01 7.19281732984748e-03 1.13092028286095e-04
1.17596551724138e+01 7.10751678666304e-03 1.11971055659969e-04
1.18058620689655e+01 7.02322783353496e-03 1.10860338336497e-04
1.18520689655172e+01 6.93993847388780e-03 1.09759798270075e-04
1.18982758620690e+01 6.85763685341506e-03 1.08669357681320e-04
1.19444827586207e+01 6.77631125839192e-03 1.07588939064655e-04
1.19906896551724e+01 6.69595011400812e-03 1.06518465195621e-04
1.20368965517241e+01 6.61654198272057e-03 1.05457859137892e-04
1.20831034482759e+01 6.53807556262542e-03 1.04407044250084e-04
1.21293103448276e+01 6.46053968584941e-03 1.03365944192162e-04
1.21755172413793e+01 6.38392331696064e-03 1.02334482931681e-04
1.22217241379310e+01 6.30821555139779e-03 1.01312584749863e-04
1.22679310344828e+01 6.23340561391813e-03 1.00300174247314e-04
1.23141379310345e+01 6.15948285706388e-03 9.92971763495282e-05
1.23603448275862e+01 6.08643675964682e-03 9.83035163121772e-05
1.24065517241379e+01 6.01425692525084e-03 9.73191197261685e-05
1.24527586206897e+01 5.94293308075225e-03 9.63439125224991e-05
1.24989655172414e+01 5.87245507485761e-03 9.53778209768830e-05
1.25451724137931e+01 5.80281287665899e-03 9.44207717141714e-05
1.25913793103448e+01 5.73399657420626e-03 9.34726917125833e-05
1.26375862068966e+01 5.66599637309634e-03 9.25335083077300e-05
1.26837931034483e+01 5.59880259507926e-03 9.16031491964565e-05
1.27300000000000e+01 5.53240567668062e-03 9.06815422691145e-05
1.27762068965517e+01 5.46679616834852e-03 8.97686161315239e-05
1.28224137931034e+01 5.40196473157067e-03 8.88642997609162e-05
1.28686206896552e+01 5.33790213909731e-03 8.79685221537141e-05
1.29148275862069e+01 5.27459927310576e-03 8.70812128641762e-05
1.29610344827586e+01 5.21204712390280e-03 8.62023018270910e-05
1.30072413793103e+01 5.15023678864229e-03 8.53317193604198e-05
1.30534482758621e+01 5.08915947005806e-03 8.44693961677779e-05
1.30996551724138e+01 5.02880647521185e-03 8.36152633407721e-05
1.31458620689655e+01 4.96916921425606e-03 8.27692523611876e-05
1.31920689655172e+01 4.91023919921115e-03 8.19312951030343e-05
1.32382758620690e+01 4.85200804275765e-03 8.11013238344626e-05
1.32844827586207e+01 4.79446745704236e-03 8.02792712195375e-05
1.33306896551724e+01 4.73760925249876e-03 7.94650703198902e-05
1.33768965517241e+01 4.68142533668148e-03 7.86586545962347e-05
1.34231034482759e+01 4.62590771311445e-03 7.78599579097847e-05
1.34693103448276e+01 4.57104848015277e-03 7.70689145234868e-05
1.35155172413793e+01 4.51683982985822e-03 7.62854591031835e-05
1.35617241379310e+01 4.46327404688792e-03 7.55095267187134e-05
1.36079310344828e+01 4.41034350739622e-03 7.47410528448213e-05
1.36541379310345e+01 4.35804067794960e-03 7.39799733619873e-05
1.37003448275862e+01 4.30635811445452e-03 7.32262245571530e-05
1.37465517241379e+01 4.25528846109786e-03 7.24797431243592e-05
1.37927586206897e+01 4.20482444930004e-03 7.17404661652714e-05
1.38389655172414e+01 4.15495889668049e-03 7.10083311896107e-05
1.38851724137931e+01 4.10568470603540e-03 7.02832761154945e-05
1.39313793103448e+01 4.05699486432759e-03 6.95652392696945e-05
1.39775862068966e+01 4.00888244168839e-03 6.88541593877987e-05
1.40237931034483e+01 3.96134059043133e-03 6.81499756142913e-05
1.40700000000000e+01 3.91436254407752e-03 6.74526273872070e-05
1.41162068965517e+01 3.86794161671787e-03 6.67620547870041e-05
1.41624137931034e+01 3.82207120107693e-03 6.60781983026569e-05
1.42086206896552e+01 3.77674476856600e-03 6.54009985922501e-05
1.42548275862069e+01 3.73195586801970e-03 6.47303968431902e-05
1.43010344827586e+01 3.68769812477789e-03 6.40663346506314e-05
1.43472413793103e+01 3.64396523977828e-03 6.34087540170295e-05
1.43934482758621e+01 3.60075098866001e-03 6.27575973516306e-05
1.44396551724138e+01 3.55804922087767e-03 6.21128074698966e-05
1.44858620689655e+01 3.51585385882596e-03 6.14743275928742e-05
1.45320689655172e+01 3.47415889697469e-03 6.08421013464965e-05
1.45782758620690e+01 3.43295840101399e-03 6.02160727608264e-05
