Energy (eV)          EEDF (eV^-(3/2))     First Anisotropy
3.00000000000000e-02 4.20353849755951e-01 4.67177721253421e-04
9.00000000000000e-02 4.07360301794995e-01 7.62082143263498e-04
1.50000000000000e-01 3.94768397089414e-01 9.81536740707779e-04
2.10000000000000e-01 3.82565720453969e-01 1.13405181400387e-03
2.70000000000000e-01 3.70740240468935e-01 1.24998722277715e-03
3.30000000000000e-01 3.59280297617523e-01 1.34127091234703e-03
3.90000000000000e-01 3.48174592789995e-01 1.41429744159875e-03
4.50000000000000e-01 3.37412176143128e-01 1.47305710844909e-03
5.10000000000000e-01 3.26982436304045e-01 1.52027821498123e-03
5.70000000000000e-01 3.16875089907767e-01 1.55794406495305e-03
6.30000000000000e-01 3.07080171458167e-01 1.58756108704405e-03
6.90000000000000e-01 2.97588023502336e-01 1.61031175216025e-03
7.50000000000000e-01 2.88389287108663e-01 1.62714816546500e-03
8.10000000000000e-01 2.79474892639254e-01 1.63885257284427e-03
8.70000000000000e-01 2.70836050807576e-01 1.64607823118873e-03
9.30000000000000e-01 2.62464244012527e-01 1.64937802649670e-03
9.90000000000000e-01 2.54351217940371e-01 1.64922512526157e-03
1.05000000000000e+00 2.46488973426272e-01 1.64602826315116e-03
1.11000000000000e+00 2.38869758567387e-01 1.64014331563965e-03
1.17000000000000e+00 2.31486061079762e-01 1.63188222424283e-03
1.23000000000000e+00 2.24330600891475e-01 1.62151999958637e-03
1.29000000000000e+00 2.17396322964734e-01 1.60930029807645e-03
1.35000000000000e+00 2.10676390339856e-01 1.59543992198430e-03
1.41000000000000e+00 2.04164177394259e-01 1.58013249416623e-03
1.47000000000000e+00 1.97853263309822e-01 1.56355149104646e-03
1.53000000000000e+00 1.91737425742184e-01 1.54585277023427e-03
1.59000000000000e+00 1.85810634685723e-01 1.52717669552398e-03
1.65000000000000e+00 1.80067046528179e-01 1.50764993771686e-03
1.71000000000000e+00 1.74500998289055e-01 1.48738701187193e-03
1.77000000000000e+00 1.69107002036107e-01 1.46649159833439e-03
1.83000000000000e+00 1.63879739474440e-01 1.44505768491269e-03
1.89000000000000e+00 1.58814056702845e-01 1.42317055997979e-03
1.95000000000000e+00 1.53904959132231e-01 1.40090768043170e-03
2.01000000000000e+00 1.49147606561135e-01 1.37833943389776e-03
2.07000000000000e+00 1.44537308403447e-01 1.35552981103998e-03
2.13000000000000e+00 1.40069519063653e-01 1.33253700096619e-03
2.19000000000000e+00 1.35739833455036e-01 1.30941392054087e-03
2.25000000000000e+00 1.31543982656410e-01 1.28620868657851e-03
2.31000000000000e+00 1.27477829703112e-01 1.26296503844949e-03
2.37000000000000e+00 1.23537365508097e-01 1.23972271744531e-03
2.43000000000000e+00 1.19718704909114e-01 1.21651780827985e-03
2.49000000000000e+00 1.16018082838072e-01 1.19338304730544e-03
2.55000000000000e+00 1.12431850608810e-01 1.17034810136065e-03
2.61000000000000e+00 1.08956472319619e-01 1.14743982061565e-03
2.67000000000000e+00 1.05588521366967e-01 1.12468246832020e-03
2.73000000000000e+00 1.02324677066981e-01 1.10209792997118e-03
2.79000000000000e+00 9.91617213813692e-02 1.07970590408892e-03
2.85000000000000e+00 9.60965357445462e-02 1.05752407651368e-03
2.91000000000000e+00 9.31260979888340e-02 1.03556827989650e-03
2.97000000000000e+00 9.02474793647086e-02 1.01385263985591e-03
3.03000000000000e+00 8.74578416531536e-02 9.92389709098064e-04
3.09000000000000e+00 8.47544343672737e-02 9.71190590647537e-04
3.15000000000000e+00 8.21345920404095e-02 9.50265051206527e-04
3.21000000000000e+00 7.95957315980787e-02 9.29621625547367e-04
3.27000000000000e+00 7.71353498111538e-02 9.09267712745270e-04
3.33000000000000e+00 7.47510208277635e-02 8.89209664972507e-04
3.39000000000000e+00 7.24403937814872e-02 8.69452869500376e-04
3.45000000000000e+00 7.02011904734803e-02 8.50001824489306e-04
3.51000000000000e+00 6.80312031262496e-02 8.30860209089365e-04
3.57000000000000e+00 6.59282922068598e-02 8.12030948322393e-04
3.63000000000000e+00 6.38903843174280e-02 7.93516273171389e-04
3.69000000000000e+00 6.19154701508242e-02 7.75317776262629e-04
3.75000000000000e+00 6.00016025095642e-02 7.57436463490142e-04
3.81000000000000e+00 5.81468943859390e-02 7.39872801900241e-04
3.87000000000000e+00 5.63495171014910e-02 7.22626764125267e-04
3.93000000000000e+00 5.46076985039989e-02 7.05697869630134e-04
3.99000000000000e+00 5.29197212201972e-02 6.89085223012348e-04
4.05000000000000e+00 5.12839209625053e-02 6.72787549575525e-04
4.11000000000000e+00 4.96986848880964e-02 6.56803228377943e-04
4.17000000000000e+00 4.81624500086905e-02 6.41130322940800e-04
4.23000000000000e+00 4.66737016495018e-02 6.25766609785857e-04
4.29000000000000e+00 4.52309719558209e-02 6.10709604958269e-04
4.35000000000000e+00 4.38328384457609e-02 5.95956588678068e-04
4.41000000000000e+00 4.24779226077391e-02 5.81504628252481e-04
4.47000000000000e+00 4.11648885413116e-02 5.67350599370935e-04
4.53000000000000e+00 3.98924416400222e-02 5.53491205895263e-04
4.59000000000000e+00 3.86593273149641e-02 5.39922998249108e-04
4.65000000000000e+00 3.74643297577985e-02 5.26642390502661e-04
4.71000000000000e+00 3.63062707420100e-02 5.13645676241818e-04
4.77000000000000e+00 3.51840084612150e-02 5.00929043304251e-04
4.83000000000000e+00 3.40964364033802e-02 4.88488587458848e-04
4.89000000000000e+00 3.30424822598398e-02 4.76320325099558e-04
4.95000000000000e+00 3.20211068680360e-02 4.64420205019634e-04
5.01000000000000e+00 3.10313031869402e-02 4.52784119327480e-04
5.07000000000000e+00 3.00720953041454e-02 4.41407913561142e-04
5.13000000000000e+00 2.91425374736502e-02 4.30287396054489e-04
5.19000000000000e+00 2.82417131833854e-02 4.19418346604478e-04
5.25000000000000e+00 2.73687342515649e-02 4.08796524485540e-04
5.31000000000000e+00 2.65227399509690e-02 3.98417675853975e-04
5.37000000000000e+00 2.57028961602967e-02 3.88277540582383e-04
5.43000000000000e+00 2.49083945417508e-02 3.78371858561514e-04
5.49000000000000e+00 2.41384517440450e-02 3.68696375504360e-04
5.55000000000000e+00 2.33923086300461e-02 3.59246848285088e-04
5.61000000000000e+00 2.26692295282909e-02 3.50019049843261e-04
5.67000000000000e+00 2.19685015076394e-02 3.41008773681784e-04
5.73000000000000e+00 2.12894336743496e-02 3.32211837985199e-04
5.79000000000000e+00 2.06313564908794e-02 3.23624089383234e-04
5.85000000000000e+00 1.99936211157460e-02 3.15241406382870e-04
5.91000000000000e+00 1.93755987637906e-02 3.07059702490768e-04
5.97000000000000e+00 1.87766800862174e-02 2.99074929046495e-04
6.03000000000000e+00 1.81962745697969e-02 2.91283077785607e-04
6.09000000000000e+00 1.76338099546405e-02 2.83680183150609e-04
6.15000000000000e+00 1.70887316699710e-02 2.76262324366494e-04
6.21000000000000e+00 1.65605022873359e-02 2.69025627296670e-04
6.27000000000000e+00 1.60486009907207e-02 2.61966266094010e-04
6.33000000000000e+00 1.55525230630427e-02 2.55080464660830e-04
6.39000000000000e+00 1.50717793885168e-02 2.48364497930822e-04
6.45000000000000e+00 1.46058959704045e-02 2.41814692985090e-04
6.51000000000000e+00 1.41544134636696e-02 2.35427430013686e-04
6.57000000000000e+00 1.37168867220791e-02 2.29199143133380e-04
6.63000000000000e+00 1.32928843593051e-02 2.23126321071695e-04
6.69000000000000e+00 1.28819883235920e-02 2.17205507726639e-04
6.75000000000000e+00 1.24837934855724e-02 2.11433302610981e-04
6.81000000000000e+00 1.20979072388233e-02 2.05806361189355e-04
6.87000000000000e+00 1.17239491127694e-02 2.00321395115986e-04
6.93000000000000e+00 1.13615503975525e-02 1.94975172380341e-04
6.99000000000000e+00 1.10103537804962e-02 1.89764517367565e-04
7.05000000000000e+00 1.06700129938077e-02 1.84686310840114e-04
7.11000000000000e+00 1.03401924731700e-02 1.79737489846637e-04
7.17000000000000e+00 1.00205670268867e-02 1.74915047563752e-04
7.23000000000000e+00 9.71082151525419e-03 1.70216033076023e-04
7.29000000000000e+00 9.41065053984493e-03 1.65637551099123e-04
7.35000000000000e+00 9.11975814239496e-03 1.61176761650836e-04
7.41000000000000e+00 8.83785751299928e-03 1.56830879674285e-04
7.47000000000000e+00 8.56467070732708e-03 1.52597174617481e-04
7.53000000000000e+00 8.29992837257826e-03 1.48472969973030e-04
7.59000000000000e+00 8.04336948191075e-03 1.44455642781602e-04
7.65000000000000e+00 7.79474107707706e-03 1.40542623102530e-04
7.71000000000000e+00 7.55379801901617e-03 1.36731393454708e-04
7.77000000000000e+00 7.32030274615476e-03 1.33019488230714e-04
7.83000000000000e+00 7.09402504017976e-03 1.29404493086956e-04
7.89000000000000e+00 6.87474179905093e-03 1.25884044312400e-04
7.95000000000000e+00 6.66223681702996e-03 1.22455828178307e-04
8.01000000000000e+00 6.45630057150902e-03 1.19117580271238e-04
8.07000000000000e+00 6.25673001642869e-03 1.15867084811437e-04
8.13000000000000e+00 6.06332838208152e-03 1.12702173958553e-04
8.19000000000000e+00 5.87590498110385e-03 1.09620727106543e-04
8.25000000000000e+00 5.69427502046463e-03 1.06620670169479e-04
8.31000000000000e+00 5.51825941926586e-03 1.03699974859831e-04
8.37000000000000e+00 5.34768463217494e-03 1.00856657960727e-04
8.43000000000000e+00 5.18238247831499e-03 9.80887805935843e-05
8.49000000000000e+00 5.02218997544424e-03 9.53944474823599e-05
8.55000000000000e+00 4.86694917926117e-03 9.27718062156506e-05
8.61000000000000e+00 4.71650702767685e-03 9.02190465077321e-05
8.67000000000000e+00 4.57071518990097e-03 8.77343994595565e-05
8.73000000000000e+00 4.42942992019281e-03 8.53161368206713e-05
8.79000000000000e+00 4.29251191613284e-03 8.29625702529336e-05
8.85000000000000e+00 4.15982618127534e-03 8.06720505968202e-05
8.91000000000000e+00 4.03124189204657e-03 7.84429671410937e-05
8.97000000000000e+00 3.90663226875718e-03 7.62737468965019e-05
9.03000000000000e+00 3.78587445060183e-03 7.41628538741485e-05
9.09000000000000e+00 3.66884937452263e-03 7.21087883691051e-05
9.15000000000000e+00 3.55544165781708e-03 7.01100862498035e-05
9.21000000000000e+00 3.44553948437467e-03 6.81653182536845e-05
9.27000000000000e+00 3.33903449443008e-03 6.62730892895452e-05
9.33000000000000e+00 3.23582167772411e-03 6.44320377469818e-05
9.39000000000000e+00 3.13579926996724e-03 6.26408348132870e-05
9.45000000000000e+00 3.03886865250350e-03 6.08981837981338e-05
9.51000000000000e+00 2.94493425507587e-03 5.92028194663239e-05
9.57000000000000e+00 2.85390346159731e-03 5.75535073788688e-05
9.63000000000000e+00 2.76568651883444e-03 5.59490432426318e-05
9.69000000000000e+00 2.68019644791400e-03 5.43882522687316e-05
9.75000000000000e+00 2.59734895856461e-03 5.28699885398827e-05
9.81000000000000e+00 2.51706236600950e-03 5.13931343868264e-05
9.87000000000000e+00 2.43925751042811e-03 4.99565997739810e-05
9.93000000000000e+00 2.36385767890722e-03 4.85593216944211e-05
9.99000000000000e+00 2.29078852980467e-03 4.72002635742717e-05
1.00500000000000e+01 2.21997801945108e-03 4.58784146865897e-05
1.01100000000000e+01 2.15135633111719e-03 4.45927895747866e-05
1.01700000000000e+01 2.08485580617705e-03 4.33424274856267e-05
1.02300000000000e+01 2.02041087739891e-03 4.21263918118280e-05
1.02900000000000e+01 1.95795800429814e-03 4.09437695442735e-05
1.03500000000000e+01 1.89743561048858e-03 3.97936707338248e-05
1.04100000000000e+01 1.83878402297027e-03 3.86752279627281e-05
1.04700000000000e+01 1.78194541329395e-03 3.75875958255843e-05
1.05300000000000e+01 1.72686374054419e-03 3.65299504198463e-05
1.05900000000000e+01 1.67348469608500e-03 3.55014888457975e-05
1.06500000000000e+01 1.62175565001333e-03 3.45014287159577e-05
1.07100000000000e+01 1.57162559926785e-03 3.35290076738551e-05
1.07700000000000e+01 1.52304511734164e-03 3.25834829220935e-05
1.08300000000000e+01 1.47596630554939e-03 3.16641307596388e-05
1.08900000000000e+01 1.43034274580092e-03 3.07702461282433e-05
1.09500000000000e+01 1.38612945483452e-03 2.99011421679203e-05
1.10100000000000e+01 1.34328283986507e-03 2.90561497813768e-05
1.10700000000000e+01 1.30176065560296e-03 2.82346172073052e-05
1.11300000000000e+01 1.26152196260176e-03 2.74359096024356e-05
1.11900000000000e+01 1.22252708689330e-03 2.66594086322427e-05
1.12500000000000e+01 1.18473758087050e-03 2.59045120701980e-05
1.13100000000000e+01 1.14811618537937e-03 2.51706334054581e-05
1.13700000000000e+01 1.11262679298274e-03 2.44572014588753e-05
1.14300000000000e+01 1.07823441235959e-03 2.37636600072154e-05
1.14900000000000e+01 1.04490513380479e-03 2.30894674154622e-05
1.15500000000000e+01 1.01260609579532e-03 2.24340962770937e-05
1.16100000000000e+01 9.81305452589925e-04 2.17970330622062e-05
1.16700000000000e+01 9.50972342830297e-04 2.11777777733656e-05
1.17300000000000e+01 9.21576859112857e-04 2.05758436090646e-05
1.17900000000000e+01 8.93090018501074e-04 1.99907566346596e-05
1.18500000000000e+01 8.65483733949283e-04 1.94220554606662e-05
1.19100000000000e+01 8.38730786609831e-04 1.88692909282889e-05
1.19700000000000e+01 8.12804798996221e-04 1.83320258020591e-05
1.20300000000000e+01 7.87680208975821e-04 1.78098344694594e-05
1.20900000000000e+01 7.63332244566483e-04 1.73023026474097e-05
1.21500000000000e+01 7.39736899512211e-04 1.68090270954900e-05
1.22100000000000e+01 7.16870909613827e-04 1.63296153357797e-05
1.22700000000000e+01 6.94711729791265e-04 1.58636853791885e-05
1.23300000000000e+01 6.73237511854900e-04 1.54108654581583e-05
1.23900000000000e+01 6.52427082963982e-04 1.49707937656139e-05
1.24500000000000e+01 6.32259924750941e-04 1.45431182000445e-05
1.25100000000000e+01 6.12716153090987e-04 1.41274961165945e-05
1.25700000000000e+01 5.93776498497044e-04 1.37235940840476e-05
1.26300000000000e+01 5.75422287120696e-04 1.33310876475854e-05
1.26900000000000e+01 5.57635422340416e-04 1.29496610972050e-05
1.27500000000000e+01 5.40398366918921e-04 1.25790072416828e-05
1.28100000000000e+01 5.23694125712054e-04 1.22188271879692e-05
1.28700000000000e+01 5.07506228912163e-04 1.18688301259036e-05
1.29300000000000e+01 4.91818715809430e-04 1.15287331181374e-05
1.29900000000000e+01 4.76616119055164e-04 1.11982608951586e-05
1.30500000000000e+01 4.61883449411526e-04 1.08771456553075e-05
1.31100000000000e+01 4.47606180972654e-04 1.05651268696799e-05
1.31700000000000e+01 4.33770236842620e-04 1.02619510918103e-05
1.32300000000000e+01 4.20361975256097e-04 9.96737177203476e-06
1.32900000000000e+01 4.07368176128043e-04 9.68114907643002e-06
1.33500000000000e+01 3.94776028019155e-04 9.40304971022969e-06
1.34100000000000e+01 3.82573115504229e-04 9.13284674561793e-06
1.34700000000000e+01 3.70747406930976e-04 8.87031945380524e-06
1.35300000000000e+01 3.59287242557229e-04 8.61525314129034e-06
1.35900000000000e+01 3.48181323054836e-04 8.36743899021376e-06
1.36500000000000e+01 3.37418698368914e-04 8.12667390271224e-06
1.37100000000000e+01 3.26988756921465e-04 7.89276034918280e-06
1.37700000000000e+01 3.16881215148732e-04 7.66550622036744e-06
1.38300000000000e+01 3.07086107361955e-04 7.44472468317127e-06
1.38900000000000e+01 2.97593775921543e-04 7.23023404012868e-06
1.39500000000000e+01 2.88394861714977e-04 7.02185759243266e-06
1.40100000000000e+01 2.79480294929044e-04 6.81942350644512e-06
1.40700000000000e+01 2.70841286107315e-04 6.62276468360737e-06
1.41300000000000e+01 2.62469317484040e-04 6.43171863367058e-06
1.41900000000000e+01 2.54356134585926e-04 6.24612735116875e-06
1.42500000000000e+01 2.46493738093513e-04 6.06583719505768e-06
1.43100000000000e+01 2.38874375954112e-04 5.89069877144479e-06
1.43700000000000e+01 2.31490535738555e-04 5.72056681933670e-06
1.44300000000000e+01 2.24334937234195e-04 5.55530009933214e-06
1.44900000000000e+01 2.17400525266867e-04 5.39476128518997e-06
1.45500000000000e+01 2.10680462744727e-04 5.23881685820320e-06
1.46100000000000e+01 2.04168123917119e-04 5.08733700431124e-06
1.46700000000000e+01 1.97857087841807e-04 4.94019551388445e-06
1.47300000000000e+01 1.91741132054150e-04 4.79726968411576e-06
1.47900000000000e+01 1.85814226431967e-04 4.65844022395605e-06
1.48500000000000e+01 1.80070527250040e-04 4.52359116153128e-06
1.49100000000000e+01 1.74504371418404e-04 4.39260975398049e-06
1.49700000000000e+01 1.69110270898735e-04 4.26538639965495e-06
1.50300000000000e+01 1.63882907293332e-04 4.14181455262079e-06
1.50900000000000e+01 1.58817126601361e-04 4.02179063940780e-06
1.51500000000000e+01 1.53907934137187e-04 3.90521397794865e-06
1.52100000000000e+01 1.49150489605783e-04 3.79198669865461e-06
1.52700000000000e+01 1.44540102330369e-04 3.68201366757412e-06
1.53300000000000e+01 1.40072226627566e-04 3.57520241158226e-06
1.53900000000000e+01 1.35742457325504e-04 3.47146304555034e-06
1.54500000000000e+01 1.31546525420480e-04 3.37070820144582e-06
1.55100000000000e+01 1.27480293867862e-04 3.27285295931427e-06
1.55700000000000e+01 1.23539753503109e-04 3.17781478009548e-06
1.56300000000000e+01 1.19721019088868e-04 3.08551344022756e-06
1.56900000000000e+01 1.16020325484270e-04 2.99587096799390e-06
1.57500000000000e+01 1.12434023932624e-04 2.90881158156835e-06
1.58100000000000e+01 1.08958578463872e-04 2.82426162871572e-06
1.58700000000000e+01 1.05590562408245e-04 2.74214952810530e-06
1.59300000000000e+01 1.02326655017680e-04 2.66240571219611e-06
1.59900000000000e+01 9.91636381916802e-05 2.58496257165372e-06
1.60500000000000e+01 9.60983933043789e-05 2.50975440125927e-06
1.61100000000000e+01 9.31278981296786e-05 2.43671734727238e-06
1.61700000000000e+01 9.02492238614420e-05 2.36578935621042e-06
1.62300000000000e+01 8.74595322257895e-05 2.29691012500772e-06
1.62900000000000e+01 8.47560726826587e-05 2.23002105251903e-06
1.63500000000000e+01 8.21361797138663e-05 2.16506519233214e-06
1.64100000000000e+01 7.95972701949988e-05 2.10198720685618e-06
1.64700000000000e+01 7.71368408485407e-05 2.04073332265191e-06
1.65300000000000e+01 7.47524657757289e-05 1.98125128697207e-06
1.65900000000000e+01 7.24417940647000e-05 1.92349032548003e-06
1.66500000000000e+01 7.02025474725717e-05 1.86740110111601e-06
1.67100000000000e+01 6.80325181791740e-05 1.81293567408090e-06
1.67700000000000e+01 6.59295666102142e-05 1.76004746290820e-06
1.68300000000000e+01 6.38916193277303e-05 1.70869120659583e-06
1.68900000000000e+01 6.19166669857521e-05 1.65882292776953e-06
1.69500000000000e+01 6.00027623491558e-05 1.61039989685112e-06
1.70100000000000e+01 5.81480183737563e-05 1.56338059720493e-06
1.70700000000000e+01 5.63506063457473e-05 1.51772469123642e-06
1.71300000000000e+01 5.46087540786515e-05 1.47339298741810e-06
1.71900000000000e+01 5.29207441660067e-05 1.43034740821799e-06
1.72500000000000e+01 5.12849122880608e-05 1.38855095890682e-06
1.73100000000000e+01 4.96996455708109e-05 1.34796769722046e-06
1.73700000000000e+01 4.81633809957643e-05 1.30856270385512e-06
1.74300000000000e+01 4.66746038588560e-05 1.27030205377281e-06
1.74900000000000e+01 4.52318462770030e-05 1.23315278829570e-06
1.75500000000000e+01 4.38336857408215e-05 1.19708288796834e-06
1.76100000000000e+01 4.24787437120819e-05 1.16206124616697e-06
1.76700000000000e+01 4.11656842645175e-05 1.12805764343628e-06
1.77300000000000e+01 3.98932127666468e-05 1.09504272253373e-06
1.77900000000000e+01 3.86600746053117e-05 1.06298796416289e-06
1.78500000000000e+01 3.74650539486719e-05 1.03186566337695e-06
1.79100000000000e+01 3.63069725474363e-05 1.00164890663445e-06
1.79700000000000e+01 3.51846885731503e-05 9.72311549489915e-07
1.80300000000000e+01 3.40970954923916e-05 9.43828194901998e-07
1.80900000000000e+01 3.30431209757663e-05 9.16174172142541e-07
1.81500000000000e+01 3.20217258406296e-05 8.89325516290423e-07
1.82100000000000e+01 3.10319030264865e-05 8.63258948294378e-07
1.82700000000000e+01 3.00726766020657e-05 8.37951855589274e-07
1.83300000000000e+01 2.91431008030842e-05 8.13382273250902e-07
1.83900000000000e+01 2.82422590997565e-05 7.89528865674781e-07
1.84500000000000e+01 2.73692632931279e-05 7.66370908764643e-07
1.85100000000000e+01 2.65232526393407e-05 7.43888272616724e-07
1.85700000000000e+01 2.57033930009701e-05 7.22061404686504e-07
1.86300000000000e+01 2.49088760245938e-05 7.00871313424648e-07
1.86900000000000e+01 2.41389183437832e-05 6.80299552369410e-07
1.87500000000000e+01 2.33927608067307e-05 6.60328204683041e-07
1.88100000000000e+01 2.26696677277526e-05 6.40939868120089e-07
1.88700000000000e+01 2.19689261619278e-05 6.22117640415779e-07
1.89300000000000e+01 2.12898452021592e-05 6.03845105082973e-07
