Energy (eV)          EEDF (eV^-(3/2))     First Anisotropy
5.97115384615385e-04 1.47573517321591e+01 7.11564156889146e-03
1.79134615384615e-03 1.46596288559246e+01 1.17505457914712e-02
2.98557692307692e-03 1.45625530984739e+01 1.55136391948311e-02
4.17980769230769e-03 1.44661201746694e+01 1.83734577845724e-02
5.37403846153846e-03 1.43703258276796e+01 2.07593831272162e-02
6.56826923076923e-03 1.42751658288629e+01 2.28336977976533e-02
7.76250000000000e-03 1.41806359775791e+01 2.46803531908646e-02
8.95673076923077e-03 1.40867321011025e+01 2.63500273875678e-02
1.01509615384615e-02 1.39934500541312e+01 2.78763193465542e-02
1.13451923076923e-02 1.39007857190617e+01 2.92829679504927e-02
1.25394230769231e-02 1.38087350050797e+01 3.05875399047889e-02
1.37336538461538e-02 1.37172938488201e+01 3.18035015356291e-02
1.49278846153846e-02 1.36264582143973e+01 3.29414679458099e-02
1.61221153846154e-02 1.35362240914994e+01 3.40099980671860e-02
1.73163461538462e-02 1.34465874969377e+01 3.50161233555711e-02
1.85105769230769e-02 1.33575444743450e+01 3.59657125101184e-02
1.97048076923077e-02 1.32690910926694e+01 3.68637301995161e-02
2.08990384615385e-02 1.31812234473294e+01 3.77144254908837e-02
2.20932692307692e-02 1.30939376599519e+01 3.85214724055527e-02
2.32875000000000e-02 1.30072298771378e+01 3.92880763051877e-02
2.44817307692308e-02 1.29210962713606e+01 4.00170559766290e-02
2.56759615384615e-02 1.28355330404392e+01 4.07109080144393e-02
2.68701923076923e-02 1.27505364076544e+01 4.13718578961379e-02
2.80644230769231e-02 1.26661026207217e+01 4.20019008812025e-02
2.92586538461538e-02 1.25822279524916e+01 4.26028351577950e-02
3.04528846153846e-02 1.24989087007405e+01 4.31762892303132e-02
3.16471153846154e-02 1.24161411872704e+01 4.37237443399395e-02
3.28413461538462e-02 1.23339217584842e+01 4.42465531367768e-02
3.40355769230769e-02 1.22522467851924e+01 4.47459555687729e-02
3.52298076923077e-02 1.21711126618120e+01 4.52230921114817e-02
3.64240384615385e-02 1.20905158068488e+01 4.56790150138333e-02
3.76182692307692e-02 1.20104526627115e+01 4.61146981195877e-02
3.88125000000000e-02 1.19309196949931e+01 4.65310451301651e-02
4.00067307692308e-02 1.18519133928791e+01 4.69288967648802e-02
4.12009615384615e-02 1.17734302688037e+01 4.73090370680423e-02
4.23951923076923e-02 1.16954668584575e+01 4.76721989128802e-02
4.35894230769231e-02 1.16180197201450e+01 4.80190687507105e-02
4.47836538461538e-02 1.15410854351255e+01 4.83502907661329e-02
4.59778846153846e-02 1.14646606074430e+01 4.86664707207427e-02
4.71721153846154e-02 1.13887418633367e+01 4.89681791955595e-02
4.83663461538462e-02 1.13133258515326e+01 4.92559544705629e-02
4.95605769230769e-02 1.12384092430817e+01 4.95303052571564e-02
5.07548076923077e-02 1.11639887308142e+01 4.97917129880822e-02
5.19490384615385e-02 1.10900610295928e+01 5.00406338688155e-02
5.31432692307692e-02 1.10166228761542e+01 5.02775008776206e-02
5.43375000000000e-02 1.09436710286039e+01 5.05027254228703e-02
5.55317307692308e-02 1.08712022666356e+01 5.07166988551231e-02
5.67259615384615e-02 1.07992133912682e+01 5.09197939049746e-02
5.79201923076923e-02 1.07277012248118e+01 5.11123659880136e-02
5.91144230769231e-02 1.06566626104021e+01 5.12947543334493e-02
6.03086538461538e-02 1.05860944121883e+01 5.14672829958918e-02
6.15028846153846e-02 1.05159935151846e+01 5.16302619178935e-02
6.26971153846154e-02 1.04463568248332e+01 5.17839877710478e-02
6.38913461538462e-02 1.03771812671679e+01 5.19287447254660e-02
6.50855769230769e-02 1.03084637886703e+01 5.20648052878893e-02
6.62798076923077e-02 1.02402013558585e+01 5.21924309476529e-02
6.74740384615385e-02 1.01723909554301e+01 5.23118727703300e-02
6.86682692307692e-02 1.01050295941217e+01 5.24233720705289e-02
6.98625000000000e-02 1.00381142983210e+01 5.25271609142745e-02
7.10567307692308e-02 9.97164211419234e+00 5.26234625957174e-02
7.22509615384615e-02 9.90561010746033e+00 5.27124921339819e-02
7.34451923076923e-02 9.84001536335787e+00 5.27944567331548e-02
7.46394230769231e-02 9.77485498626328e+00 5.28695561612373e-02
7.58336538461538e-02 9.71012609980791e+00 5.29379830887812e-02
7.70278846153846e-02 9.64582584674286e+00 5.29999235173166e-02
7.82221153846154e-02 9.58195138859449e+00 5.30555570702415e-02
7.94163461538462e-02 9.51849990575816e+00 5.31050572632423e-02
8.06105769230769e-02 9.45546859736850e+00 5.31485918650933e-02
8.18048076923077e-02 9.39285468097153e+00 5.31863231312247e-02
8.29990384615385e-02 9.33065539260669e+00 5.32184080214099e-02
8.41932692307692e-02 9.26886798667965e+00 5.32449985071952e-02
8.53875000000000e-02 9.20748973565023e+00 5.32662417606318e-02
8.65817307692308e-02 9.14651793010381e+00 5.32822803414900e-02
8.77759615384615e-02 9.08594987856742e+00 5.32932524189047e-02
8.89701923076923e-02 9.02578290744956e+00 5.32992919787002e-02
9.01644230769231e-02 8.96601436074541e+00 5.33005289779047e-02
9.13586538461539e-02 8.90664160009725e+00 5.32970894788361e-02
9.25528846153846e-02 8.84766200467365e+00 5.32890958699783e-02
9.37471153846154e-02 8.78907297088764e+00 5.32766669830474e-02
9.49413461538462e-02 8.73087191244850e+00 5.32599182027762e-02
9.61355769230769e-02 8.67305626024394e+00 5.32389616613536e-02
9.73298076923077e-02 8.61562346207003e+00 5.32139063345354e-02
9.85240384615385e-02 8.55857098267574e+00 5.31848581318857e-02
9.97182692307692e-02 8.50189630364734e+00 5.31519201069367e-02
1.00912500000000e-01 8.44559692295660e+00 5.31151923489105e-02
1.02106730769231e-01 8.38967035595902e+00 5.30747723831678e-02
1.03300961538462e-01 8.33411413341611e+00 5.30307551888520e-02
1.04495192307692e-01 8.27892580291788e+00 5.29832330161889e-02
1.05689423076923e-01 8.22410292829345e+00 5.29322956904899e-02
1.06883653846154e-01 8.16964308994288e+00 5.28780308663616e-02
1.08077884615385e-01 8.11554388340741e+00 5.28205239315404e-02
1.09272115384615e-01 8.06180292059420e+00 5.27598579048103e-02
1.10466346153846e-01 8.00841782922258e+00 5.26961137787706e-02
1.11660576923077e-01 7.95538625272263e+00 5.26293704168706e-02
1.12854807692308e-01 7.90270585053118e+00 5.25597048708471e-02
1.14049038461538e-01 7.85037429677521e+00 5.24871922776687e-02
1.15243269230769e-01 7.79838928138981e+00 5.24119057516248e-02
1.16437500000000e-01 7.74674850960768e+00 5.23339166188747e-02
1.17631730769231e-01 7.69544970223252e+00 5.22532946265856e-02
1.18825961538462e-01 7.64449059440629e+00 5.21701078379039e-02
1.20020192307692e-01 7.59386893664808e+00 5.20844225225924e-02
1.21214423076923e-01 7.54358249437248e+00 5.19963033738407e-02
1.22408653846154e-01 7.49362904814242e+00 5.19058137014643e-02
1.23602884615385e-01 7.44400639251293e+00 5.18130153263189e-02
1.24797115384615e-01 7.39471233699812e+00 5.17179684707695e-02
1.25991346153846e-01 7.34574470561628e+00 5.16207320317596e-02
1.27185576923077e-01 7.29710133679609e+00 5.15213634728734e-02
1.28379807692308e-01 7.24878008360358e+00 5.14199190783999e-02
1.29574038461538e-01 7.20077881267041e+00 5.13164538473737e-02
1.30768269230769e-01 7.15309540508238e+00 5.12110213841810e-02
1.31962500000000e-01 7.10572775595696e+00 5.11036740843052e-02
1.33156730769231e-01 7.05867377465381e+00 5.09944632996819e-02
1.34350961538462e-01 7.01193138376609e+00 5.08834392341448e-02
1.35545192307692e-01 6.96549851995040e+00 5.07706508357089e-02
1.36739423076923e-01 6.91937313352640e+00 5.06561459705880e-02
1.37933653846154e-01 6.87355318867210e+00 5.05399715780495e-02
1.39127884615385e-01 6.82803666247342e+00 5.04221735677529e-02
1.40322115384615e-01 6.78282154570031e+00 5.03027967141509e-02
1.41516346153846e-01 6.73790584242694e+00 5.01818848820506e-02
1.42710576923077e-01 6.69328756994525e+00 5.00594809233774e-02
1.43904807692308e-01 6.64896475894113e+00 4.99356268876472e-02
1.45099038461538e-01 6.60493545260884e+00 4.98103639213230e-02
1.46293269230769e-01 6.56119770736786e+00 4.96837321645240e-02
1.47487500000000e-01 6.51774959250821e+00 4.95557709036423e-02
1.48681730769231e-01 6.47458919035431e+00 4.94265187070901e-02
1.49875961538462e-01 6.43171459542824e+00 4.92960133272381e-02
1.51070192307692e-01 6.38912391512192e+00 4.91642915998226e-02
1.52264423076923e-01 6.34681526935982e+00 4.90313895881339e-02
1.53458653846154e-01 6.30478679075138e+00 4.88973427112371e-02
1.54652884615385e-01 6.26303662379961e+00 4.87621856486034e-02
1.55847115384615e-01 6.22156292553203e+00 4.86259522423498e-02
1.57041346153846e-01 6.18036386517968e+00 4.84886756877432e-02
1.58235576923077e-01 6.13943762409746e+00 4.83503884379904e-02
1.59429807692308e-01 6.09878239590220e+00 4.82111223823271e-02
1.60624038461538e-01 6.05839638573216e+00 4.80709087534777e-02
1.61818269230769e-01 6.01827781083221e+00 4.79297780329170e-02
1.63012500000000e-01 5.97842490025276e+00 4.77877600792261e-02
1.64206730769231e-01 5.93883589497829e+00 4.76448842422261e-02
1.65400961538462e-01 5.89950904722558e+00 4.75011792732853e-02
1.66595192307692e-01 5.86044262099409e+00 4.73566732335307e-02
1.67789423076923e-01 5.82163489177888e+00 4.72113936157773e-02
1.68983653846154e-01 5.78308414669040e+00 4.70653674529401e-02
1.70177884615385e-01 5.74478868378868e+00 4.69186212311873e-02
1.71372115384615e-01 5.70674681260161e+00 4.67711808010837e-02
1.72566346153846e-01 5.66895685385087e+00 4.66230715408493e-02
1.73760576923077e-01 5.63141713937871e+00 4.64743182699587e-02
1.74954807692308e-01 5.59412601225675e+00 4.63249454019673e-02
1.76149038461538e-01 5.55708182616095e+00 4.61749768606621e-02
1.77343269230769e-01 5.52028294585379e+00 4.60244359943361e-02
1.78537500000000e-01 5.48372774692640e+00 4.58733456854173e-02
1.79731730769231e-01 5.44741461590003e+00 4.57217284479602e-02
1.80925961538462e-01 5.41134194963202e+00 4.55696063465921e-02
1.82120192307692e-01 5.37550815577067e+00 4.54170009136469e-02
1.83314423076923e-01 5.33991165250863e+00 4.52639332536950e-02
1.84508653846154e-01 5.30455086867764e+00 4.51104241365160e-02
1.85702884615385e-01 5.26942424318360e+00 4.49564939187715e-02
1.86897115384615e-01 5.23453022543584e+00 4.48021624639294e-02
1.88091346153846e-01 5.19986727511133e+00 4.46474492835879e-02
1.89285576923077e-01 5.16543386208732e+00 4.44923734596942e-02
1.90479807692308e-01 5.13122846652753e+00 4.43369537769657e-02
1.91674038461538e-01 5.09724957835029e+00 4.41812086474560e-02
1.92868269230769e-01 5.06349569762911e+00 4.40251560334884e-02
1.94062500000000e-01 5.02996533437008e+00 4.38688135423114e-02
1.95256730769231e-01 4.99665700859226e+00 4.37121985102941e-02
1.96450961538462e-01 4.96356924982118e+00 4.35553279300891e-02
1.97645192307692e-01 4.93070059746747e+00 4.33982183762130e-02
1.98839423076923e-01 4.89804960061362e+00 4.32408860955611e-02
2.00033653846154e-01 4.86561481808908e+00 4.30833470879138e-02
2.01227884615385e-01 4.83339481798758e+00 4.29256170356119e-02
2.02422115384615e-01 4.80138817802517e+00 4.27677112317154e-02
2.03616346153846e-01 4.76959348533596e+00 4.26096447032354e-02
2.04810576923077e-01 4.73800933641028e+00 4.24514321413665e-02
2.06004807692308e-01 4.70663433716303e+00 4.22930880170508e-02
2.07199038461538e-01 4.67546710247821e+00 4.21346265133431e-02
2.08393269230769e-01 4.64450625654376e+00 4.19760614563435e-02
2.09587500000000e-01 4.61375043265832e+00 4.18174063975689e-02
2.10781730769231e-01 4.58319827329502e+00 4.16586746872423e-02
2.11975961538462e-01 4.55284842966689e+00 4.14998794090312e-02
2.13170192307692e-01 4.52269956204394e+00 4.13410333133714e-02
2.14364423076923e-01 4.49275033956777e+00 4.11821488963916e-02
2.15558653846154e-01 4.46299944031120e+00 4.10232384701554e-02
2.16752884615385e-01 4.43344555086330e+00 4.08643140996650e-02
2.17947115384615e-01 4.40408736662986e+00 4.07053875385038e-02
2.19141346153846e-01 4.37492359165545e+00 4.05464703368958e-02
2.20335576923077e-01 4.34595293856663e+00 4.03875737792474e-02
2.21529807692308e-01 4.31717412862626e+00 4.02287089855280e-02
2.22724038461538e-01 4.28858589134114e+00 4.00698868507241e-02
2.23918269230769e-01 4.26018696474358e+00 3.99111179830165e-02
2.25112500000000e-01 4.23197609522268e+00 3.97524127758909e-02
2.26306730769231e-01 4.20395203757503e+00 3.95937814723310e-02
2.27500961538462e-01 4.17611355462975e+00 3.94352341063840e-02
2.28695192307692e-01 4.14845941751553e+00 3.92767804434942e-02
2.29889423076923e-01 4.12098840549855e+00 3.91184300497073e-02
2.31083653846154e-01 4.09369930602985e+00 3.89601923532860e-02
2.32277884615385e-01 4.06659091438679e+00 3.88020765883187e-02
2.33472115384615e-01 4.03966203392646e+00 3.86440917371201e-02
2.34666346153846e-01 4.01291147592989e+00 3.84862466253972e-02
2.35860576923077e-01 3.98633805954997e+00 3.83285498663416e-02
2.37054807692308e-01 3.95994061185452e+00 3.81710099499683e-02
2.38249038461538e-01 3.93371796748671e+00 3.80136351889347e-02
2.39443269230769e-01 3.90766896890296e+00 3.78564336632121e-02
2.40637500000000e-01 3.88179246622494e+00 3.76994132835150e-02
2.41831730769231e-01 3.85608731727984e+00 3.75425818477842e-02
2.43025961538462e-01 3.83055238727539e+00 3.73859469888909e-02
2.44220192307692e-01 3.80518654902574e+00 3.72295161212370e-02
2.45414423076923e-01 3.77998868280916e+00 3.70732965016986e-02
2.46608653846154e-01 3.75495767640566e+00 3.69172952839176e-02
2.47802884615385e-01 3.73009242478580e+00 3.67615194678260e-02
2.48997115384615e-01 3.70539183032530e+00 3.66059758480886e-02
2.50191346153846e-01 3.68085480266817e+00 3.64506710982074e-02
2.51385576923077e-01 3.65648025867890e+00 3.62956117204838e-02
2.52579807692308e-01 3.63226712247655e+00 3.61408041250056e-02
2.53774038461538e-01 3.60821432513964e+00 3.59862545811535e-02
2.54968269230769e-01 3.58432080490786e+00 3.58319691680861e-02
2.56162500000000e-01 3.56058550705193e+00 3.56779538307283e-02
2.57356730769231e-01 3.53700738390538e+00 3.55242144296589e-02
2.58550961538462e-01 3.51358539458179e+00 3.53707566943010e-02
2.59745192307692e-01 3.49031850516658e+00 3.52175861751143e-02
2.60939423076923e-01 3.46720568859172e+00 3.50647082974580e-02
2.62133653846154e-01 3.44424592466538e+00 3.49121284095876e-02
2.63327884615385e-01 3.42143819980083e+00 3.47598517374602e-02
2.64522115384615e-01 3.39878150719896e+00 3.46078833385692e-02
2.65716346153846e-01 3.37627484672752e+00 3.44562281764884e-02
2.66910576923077e-01 3.35391722487724e+00 3.43048910760728e-02
2.68104807692308e-01 3.33170765478877e+00 3.41538767934778e-02
2.69299038461538e-01 3.30964515599517e+00 3.40031899727464e-02
2.70493269230769e-01 3.28772875459366e+00 3.38528351014709e-02
2.71687500000000e-01 3.26595748313069e+00 3.37028165603703e-02
2.72881730769231e-01 3.24433038062698e+00 3.35531386674854e-02
2.74075961538462e-01 3.22284649233057e+00 3.34038056362498e-02
2.75270192307692e-01 3.20150486988024e+00 3.32548215326727e-02
2.76464423076923e-01 3.18030457119480e+00 3.31061903230792e-02
2.77658653846154e-01 3.15924466049643e+00 3.29579159166659e-02
2.78852884615385e-01 3.13832420807363e+00 3.28100021250072e-02
2.80047115384615e-01 3.11754229043692e+00 3.26624526207055e-02
2.81241346153846e-01 3.09689799021206e+00 3.25152710036118e-02
2.82435576923077e-01 3.07639039609972e+00 3.23684607606840e-02
2.83629807692308e-01 3.05601860289668e+00 3.22220253282285e-02
2.84824038461538e-01 3.03578171127036e+00 3.20759680529927e-02
2.86018269230769e-01 3.01567882790559e+00 3.19302921524365e-02
2.87212500000000e-01 2.99570906540270e+00 3.17850007587492e-02
2.88406730769231e-01 2.97587154229728e+00 3.16400969581016e-02
2.89600961538462e-01 2.95616538284366e+00 3.14955837530678e-02
2.90795192307692e-01 2.93658971715474e+00 3.13514640242433e-02
2.91989423076923e-01 2.91714368110375e+00 3.12077405726647e-02
2.93183653846154e-01 2.89782641634257e+00 3.10644161576362e-02
2.94377884615385e-01 2.87863707009378e+00 3.09214934604239e-02
2.95572115384615e-01 2.85957479528394e+00 3.07789750471788e-02
2.96766346153846e-01 2.84063875044882e+00 3.06368634279010e-02
2.97960576923077e-01 2.82182809969641e+00 3.04951610204482e-02
2.99154807692308e-01 2.80314201272344e+00 3.03538702059543e-02
3.00349038461538e-01 2.78457966461746e+00 3.02129932939567e-02
3.01543269230769e-01 2.76614023598246e+00 3.00725324867686e-02
3.02737500000000e-01 2.74782291284850e+00 2.99324899186351e-02
3.03931730769231e-01 2.72962688668697e+00 2.97928676906760e-02
3.05125961538462e-01 2.71155135422038e+00 2.96536678371802e-02
3.06320192307692e-01 2.69359551754223e+00 2.95148922911816e-02
3.07514423076923e-01 2.67575858402968e+00 2.93765429222226e-02
3.08708653846154e-01 2.65803976635779e+00 2.92386215700433e-02
3.09902884615385e-01 2.64043828231659e+00 2.91011300120108e-02
3.11097115384615e-01 2.62295335492549e+00 2.89640699298570e-02
3.12291346153846e-01 2.60558421234891e+00 2.88274429622633e-02
3.13485576923077e-01 2.58833008786247e+00 2.86912506725631e-02
3.14679807692308e-01 2.57119021986561e+00 2.85554945981945e-02
3.15874038461538e-01 2.55416385170740e+00 2.84201762193981e-02
3.17068269230769e-01 2.53725023179446e+00 2.82852969272452e-02
3.18262500000000e-01 2.52044861351045e+00 2.81508580585506e-02
3.19456730769231e-01 2.50375825522783e+00 2.80168609270204e-02
3.20650961538462e-01 2.48717842014029e+00 2.78833067930037e-02
3.21845192307692e-01 2.47070837636572e+00 2.77501968325987e-02
3.23039423076923e-01 2.45434739686851e+00 2.76175321713226e-02
3.24233653846154e-01 2.43809475947035e+00 2.74853139141738e-02
3.25427884615385e-01 2.42194974668906e+00 2.73535431163940e-02
3.26622115384615e-01 2.40591164583687e+00 2.72222207535992e-02
3.27816346153846e-01 2.38997974894536e+00 2.70913477687500e-02
3.29010576923077e-01 2.37415335273430e+00 2.69609250431557e-02
3.30204807692308e-01 2.35843175862133e+00 2.68309534406564e-02
3.31399038461538e-01 2.34281427256820e+00 2.67014337795136e-02
3.32593269230769e-01 2.32730020517367e+00 2.65723668037047e-02
3.33787500000000e-01 2.31188887160171e+00 2.64437532140849e-02
3.34981730769231e-01 2.29657959159034e+00 2.63155936962126e-02
3.36175961538462e-01 2.28137168930377e+00 2.61878888931793e-02
3.37370192307692e-01 2.26626449342096e+00 2.60606393778514e-02
3.38564423076923e-01 2.25125733706636e+00 2.59338456829583e-02
3.39758653846154e-01 2.23634955781799e+00 2.58075083279490e-02
3.40952884615385e-01 2.22154049756504e+00 2.56816277927215e-02
3.42147115384615e-01 2.20682950259254e+00 2.55562044907855e-02
3.43341346153846e-01 2.19221592351439e+00 2.54312388112796e-02
3.44535576923077e-01 2.17769911524471e+00 2.53067310929160e-02
3.45729807692308e-01 2.16327843700509e+00 2.51826816635083e-02
3.46924038461538e-01 2.14895325218863e+00 2.50590908147127e-02
3.48118269230769e-01 2.13472292844000e+00 2.49359587762265e-02
3.49312500000000e-01 2.12058683759133e+00 2.48132857436546e-02
3.50506730769231e-01 2.10654435566873e+00 2.46910719033984e-02
3.51700961538462e-01 2.09259486276145e+00 2.45693174082296e-02
3.52895192307692e-01 2.07873774309829e+00 2.44480223523371e-02
3.54089423076923e-01 2.06497238498569e+00 2.43271867982438e-02
3.55283653846154e-01 2.05129818081363e+00 2.42068108008356e-02
3.56477884615385e-01 2.03771452692955e+00 2.40868943837394e-02
3.57672115384615e-01 2.02422082371149e+00 2.39674375151955e-02
3.58866346153846e-01 2.01081647550812e+00 2.38484401456881e-02
3.60060576923077e-01 1.99750089061253e+00 2.37299021845139e-02
3.61254807692308e-01 1.98427348126743e+00 2.36118235351927e-02
3.62449038461538e-01 1.97113366354468e+00 2.34942040727517e-02
3.63643269230769e-01 1.95808085741451e+00 2.33770436205190e-02
3.64837500000000e-01 1.94511448668809e+00 2.32603419750747e-02
3.66031730769231e-01 1.93223397902220e+00 2.31440989285375e-02
3.67225961538462e-01 1.91943876580322e+00 2.30283142465931e-02
3.68420192307692e-01 1.90672828221323e+00 2.29129876460463e-02
3.69614423076923e-01 1.89410196717449e+00 2.27981188189317e-02
3.70808653846154e-01 1.88155926335366e+00 2.26837074540370e-02
3.72002884615385e-01 1.86909961704996e+00 2.25697532156513e-02
3.73197115384615e-01 1.85672247825836e+00 2.24562557218555e-02
3.74391346153846e-01 1.84442730061593e+00 2.23432145782599e-02
3.75585576923077e-01 1.83221354137778e+00 2.22306293569252e-02
3.76779807692308e-01 1.82008066142059e+00 2.21184996281099e-02
