Energy (eV)          EEDF (eV^-(3/2))     First Anisotropy
4.07500000000000e-03 3.73175468108529e+01 5.74778983254286e-02
1.22250000000000e-02 3.42243397546747e+01 9.12856457780222e-02
2.03750000000000e-02 3.13875249512050e+01 1.11266796694376e-01
2.85250000000000e-02 2.87858503516623e+01 1.21660680101772e-01
3.66750000000000e-02 2.63998254643040e+01 1.26905730644349e-01
4.48250000000000e-02 2.42115753410586e+01 1.28869601110044e-01
5.29750000000000e-02 2.22047066670338e+01 1.28597655680429e-01
6.11250000000000e-02 2.03641849497042e+01 1.26756487984252e-01
6.92750000000000e-02 1.86762218877425e+01 1.23803238040519e-01
7.74250000000000e-02 1.71281720757137e+01 1.20065742333121e-01
8.55750000000000e-02 1.57084382707942e+01 1.15785989744607e-01
9.37250000000000e-02 1.44063845118201e+01 1.11146002487720e-01
1.01875000000000e-01 1.32122564397942e+01 1.06284345770992e-01
1.10025000000000e-01 1.21171082229311e+01 1.01307222304822e-01
1.18175000000000e-01 1.11127355387989e+01 9.62962355672239e-02
1.26325000000000e-01 1.01916141114906e+01 9.13139985773253e-02
1.34475000000000e-01 9.34684334337723e+00 8.64082911651024e-02
1.42625000000000e-01 8.57209461915723e+00 8.16152057552536e-02
1.50775000000000e-01 7.86156389492178e+00 7.69615681144948e-02
1.58925000000000e-01 7.20992821705624e+00 7.24668258889202e-02
1.67075000000000e-01 6.61230584523806e+00 6.81445385311184e-02
1.75225000000000e-01 6.06421968079191e+00 6.40035635246064e-02
1.83375000000000e-01 5.56156372642500e+00 6.00490078126664e-02
1.91525000000000e-01 5.10057232607495e+00 5.62829954253745e-02
1.99675000000000e-01 4.67779195443019e+00 5.27052896801358e-02
2.07825000000000e-01 4.29005534478334e+00 4.93137992643653e-02
2.15975000000000e-01 3.93445776139609e+00 4.61049908774674e-02
2.24125000000000e-01 3.60833523861958e+00 4.30742261807724e-02
2.32275000000000e-01 3.30924462374804e+00 4.02160370881276e-02
2.40425000000000e-01 3.03494527409677e+00 3.75243505914751e-02
2.48575000000000e-01 2.78338227118734e+00 3.49926721221530e-02
2.56725000000000e-01 2.55267102628915e+00 3.26142347353097e-02
2.64875000000000e-01 2.34108316198926e+00 3.03821200537321e-02
2.73025000000000e-01 2.14703356402213e+00 2.82893558327151e-02
2.81175000000000e-01 1.96906850635779e+00 2.63289941461001e-02
2.89325000000000e-01 1.80585476058731e+00 2.44941734981427e-02
2.97475000000000e-01 1.65616960801835e+00 2.27781676008479e-02
3.05625000000000e-01 1.51889167965622e+00 2.11744230947671e-02
3.13775000000000e-01 1.39299255544806e+00 1.96765881121244e-02
3.21925000000000e-01 1.27752905985561e+00 1.82785332683532e-02
3.30075000000000e-01 1.17163619603882e+00 1.69743664090217e-02
3.38225000000000e-01 1.07452066571658e+00 1.57584422236924e-02
3.46375000000000e-01 9.85454926158439e-01 1.46253676585822e-02
3.54525000000000e-01 9.03771739785305e-01 1.35700039095845e-02
3.62675000000000e-01 8.28859175547145e-01 1.25874656511878e-02
3.70825000000000e-01 7.60156024630617e-01 1.16731180509177e-02
3.78975000000000e-01 6.97147596153210e-01 1.08225720297732e-02
3.87125000000000e-01 6.39361861347304e-01 1.00316781539648e-02
3.95275000000000e-01 5.86365917348229e-01 9.29651947980691e-03
4.03425000000000e-01 5.37762744094713e-01 8.61340362001277e-03
4.11575000000000e-01 4.93188230046007e-01 7.97885425431461e-03
4.19725000000000e-01 4.52308444433766e-01 7.38960226900085e-03
4.27875000000000e-01 4.14817135613736e-01 6.84257667754156e-03
4.36025000000000e-01 3.80433436776090e-01 6.33489544705690e-03
4.44175000000000e-01 3.48899761826703e-01 5.86385633221137e-03
4.52325000000000e-01 3.19979875676324e-01 5.42692779854807e-03
4.60475000000000e-01 2.93457124481188e-01 5.02174010077091e-03
4.68625000000000e-01 2.69132812576874e-01 4.64607656758140e-03
4.76775000000000e-01 2.46824713946183e-01 4.29786513299096e-03
4.84925000000000e-01 2.26365707069678e-01 3.97517014423187e-03
4.93075000000000e-01 2.07602522931832e-01 3.67618446819787e-03
5.01225000000000e-01 1.90394596803461e-01 3.39922191152162e-03
5.09375000000000e-01 1.74613015198546e-01 3.14270996373578e-03
5.17525000000000e-01 1.60139550116547e-01 2.90518286829465e-03
5.25675000000000e-01 1.46865773335227e-01 2.68527502240481e-03
5.33825000000000e-01 1.34692244118684e-01 2.48171470349956e-03
5.41975000000000e-01 1.23527764255307e-01 2.29331811768373e-03
5.50125000000000e-01 1.13288694844739e-01 2.11898376348045e-03
5.58275000000000e-01 1.03898329715564e-01 1.95768710265012e-03
5.66425000000000e-01 9.52863207796534e-02 1.80847552865469e-03
5.74575000000000e-01 8.73881510182054e-02 1.67046362245134e-03
5.82725000000000e-01 8.01446511513471e-02 1.54282868466658e-03
5.90875000000000e-01 7.35015563704167e-02 1.42480653278386e-03
5.99025000000000e-01 6.74090998121805e-02 1.31568755173711e-03
6.07175000000000e-01 6.18216397294875e-02 1.21481298620927e-03
6.15325000000000e-01 5.66973175653051e-02 1.12157146296123e-03
6.23475000000000e-01 5.19977443685916e-02 1.03539573164092e-03
6.31625000000000e-01 4.76877132027832e-02 9.55759612725050e-04
6.39775000000000e-01 4.37349353924005e-02 8.82175141510339e-04
6.47925000000000e-01 4.01097986318583e-02 8.14189897384438e-04
6.56075000000000e-01 3.67851451443500e-02 7.51384507956073e-04
6.64225000000000e-01 3.37360682288771e-02 6.93370318000584e-04
6.72375000000000e-01 3.09397256712541e-02 6.39787213571966e-04
6.80525000000000e-01 2.83751686212523e-02 5.90301592039383e-04
6.88675000000000e-01 2.60231846539144e-02 5.44604469218946e-04
6.96825000000000e-01 2.38661538393295e-02 5.02409715185809e-04
7.04975000000000e-01 2.18879167426139e-02 4.63452410763331e-04
7.13125000000000e-01 2.00736533652150e-02 4.27487317092248e-04
7.21275000000000e-01 1.84097721206284e-02 3.94287451080815e-04
7.29425000000000e-01 1.68838080127840e-02 3.63642759924953e-04
7.37575000000000e-01 1.54843292543059e-02 3.35358888263796e-04
7.45725000000000e-01 1.42008516250723e-02 3.09256031899829e-04
7.53875000000000e-01 1.30237599294938e-02 2.85167872362948e-04
7.62025000000000e-01 1.19442359641037e-02 2.62940586933911e-04
7.70175000000000e-01 1.09541924558289e-02 2.42431929064259e-04
7.78325000000000e-01 1.00462124760396e-02 2.23510374436924e-04
7.86475000000000e-01 9.21349387649553e-03 2.06054328204232e-04
7.94625000000000e-01 8.44979833093132e-03 1.89951389218053e-04
8.02775000000000e-01 7.74940460052352e-03 1.75097667330721e-04
8.10925000000000e-01 7.10706567312786e-03 1.61397150095247e-04
8.19075000000000e-01 6.51796945519402e-03 1.48761115429749e-04
8.27225000000000e-01 5.97770272188084e-03 1.37107587034280e-04
8.35375000000000e-01 5.48221805530353e-03 1.26360829558825e-04
8.43525000000000e-01 5.02780352323033e-03 1.16450880719656e-04
8.51675000000000e-01 4.61105487107585e-03 1.07313117747965e-04
8.59825000000000e-01 4.22885001886703e-03 9.88878557302335e-05
8.67975000000000e-01 3.87832567212526e-03 9.11199755646774e-05
8.76125000000000e-01 3.55685587144461e-03 8.39585794128591e-05
8.84275000000000e-01 3.26203232007005e-03 7.73566716706052e-05
8.92425000000000e-01 2.99164634209928e-03 7.12708636183153e-05
9.00575000000000e-01 2.74367233614773e-03 6.56611000379992e-05
9.08725000000000e-01 2.51625260051962e-03 6.04904062034369e-05
9.16875000000000e-01 2.30768341620253e-03 5.57246537611795e-05
9.25025000000000e-01 2.11640228342593e-03 5.13323441241260e-05
9.33175000000000e-01 1.94097621616630e-03 4.72844080965537e-05
9.41325000000000e-01 1.78009100690668e-03 4.35540205401495e-05
9.49475000000000e-01 1.63254138122758e-03 4.01164289751795e-05
9.57625000000000e-01 1.49722196847219e-03 3.69487950898045e-05
9.65775000000000e-01 1.37311902084229e-03 3.40300482040628e-05
9.73925000000000e-01 1.25930281888855e-03 3.13407498035242e-05
9.82075000000000e-01 1.15492070650065e-03 2.88629683213998e-05
9.90225000000000e-01 1.05919070321878e-03 2.65801634072511e-05
9.98375000000000e-01 9.71395646013085e-04 2.44770789756896e-05
1.00652500000000e+00 8.90877816644012e-04 2.25396443798375e-05
1.01467500000000e+00 8.17034014354343e-04 2.07548831021002e-05
1.02282500000000e+00 7.49311036979966e-04 1.91108283992184e-05
1.03097500000000e+00 6.87201536625974e-04 1.75964453798362e-05
1.03912500000000e+00 6.30240218860844e-04 1.62015590311638e-05
1.04727500000000e+00 5.78000356954894e-04 1.49167877469214e-05
1.05542500000000e+00 5.30090595049363e-04 1.37334819418137e-05
1.06357500000000e+00 4.86152016306999e-04 1.26436673684666e-05
1.07172500000000e+00 4.45855454080169e-04 1.16399927812408e-05
1.07987500000000e+00 4.08899025953031e-04 1.07156816177523e-05
1.08802500000000e+00 3.75005872184023e-04 9.86448739343828e-06
1.09617500000000e+00 3.43922081606166e-04 9.08065252722676e-06
1.10432500000000e+00 3.15414789447016e-04 8.35887033744269e-06
1.11247500000000e+00 2.89270432818064e-04 7.69424996660596e-06
1.12062500000000e+00 2.65293150804543e-04 7.08228401187851e-06
1.12877500000000e+00 2.43303317169880e-04 6.51881865468450e-06
1.13692500000000e+00 2.23136194682541e-04 6.00002609856319e-06
1.14507500000000e+00 2.04640700984116e-04 5.52237913870167e-06
1.15322500000000e+00 1.87678276753130e-04 5.08262769991900e-06
1.16137500000000e+00 1.72121847685415e-04 4.67777719221004e-06
1.16952500000000e+00 1.57854872514685e-04 4.30506854437820e-06
1.17767500000000e+00 1.44770469941562e-04 3.96195978685719e-06
1.18582500000000e+00 1.32770617930409e-04 3.64610906460485e-06
1.19397500000000e+00 1.21765419375501e-04 3.35535897000445e-06
1.20212500000000e+00 1.11672428635250e-04 3.08772209408378e-06
1.21027500000000e+00 1.02416033889209e-04 2.84136770211003e-06
1.21842500000000e+00 9.39268906907666e-05 2.61460944678375e-06
1.22657500000000e+00 8.61414024719890e-05 2.40589403888240e-06
1.23472500000000e+00 7.90012441087932e-05 2.21379080133149e-06
1.24287500000000e+00 7.24529249772386e-05 2.03698203834718e-06
1.25102500000000e+00 6.64473882275619e-05 1.87425415653151e-06
1.25917500000000e+00 6.09396432739106e-05 1.72448947964304e-06
1.26732500000000e+00 5.58884287465657e-05 1.58665870323989e-06
1.27547500000000e+00 5.12559033816528e-05 1.45981393952783e-06
1.28362500000000e+00 4.70073625326381e-05 1.34308230656680e-06
1.29177500000000e+00 4.31109781798487e-05 1.23566001951962e-06
1.29992500000000e+00 3.95375604902947e-05 1.13680694488854e-06
1.30807500000000e+00 3.62603391415137e-05 1.04584158169799e-06
1.31622500000000e+00 3.32547627712220e-05 9.62136436364872e-07
1.32437500000000e+00 3.04983150503454e-05 8.85113760568219e-07
1.33252500000000e+00 2.79703460015374e-05 8.14241623803225e-07
1.34067500000000e+00 2.56519172995053e-05 7.49030294497040e-07
1.34882500000000e+00 2.35256603942079e-05 6.89028905587142e-07
1.35697500000000e+00 2.15756463940524e-05 6.33822382331744e-07
1.36512500000000e+00 1.97872667343187e-05 5.83028611846577e-07
1.37327500000000e+00 1.81471237368353e-05 5.36295835454702e-07
1.38142500000000e+00 1.66429302410346e-05 4.93300246405713e-07
1.38957500000000e+00 1.52634175544697e-05 4.53743776877172e-07
1.39772500000000e+00 1.39982510332033e-05 4.17352059423013e-07
1.40587500000000e+00 1.28379526596385e-05 3.83872549188918e-07
1.41402500000000e+00 1.17738300377804e-05 3.53072794280651e-07
1.42217500000000e+00 1.07979112739962e-05 3.24738842654938e-07
1.43032500000000e+00 9.90288525543167e-06 2.98673774809974e-07
1.43847500000000e+00 9.08204687867864e-06 2.74696352389826e-07
1.44662500000000e+00 8.32924681837293e-06 2.52639773589336e-07
1.45477500000000e+00 7.63884545941357e-06 2.32350526958502e-07
1.46292500000000e+00 7.00567064768554e-06 2.13687335862470e-07
1.47107500000000e+00 6.42497894277474e-06 1.96520186459320e-07
1.47922500000000e+00 5.89242008239949e-06 1.80729432616779e-07
1.48737500000000e+00 5.40400439234282e-06 1.66204971704463e-07
1.49552500000000e+00 4.95607289773685e-06 1.52845485673616e-07
1.50367500000000e+00 4.54526991178721e-06 1.40557742274618e-07
1.51182500000000e+00 4.16851789658544e-06 1.29255951666674e-07
1.51997500000000e+00 3.82299440767878e-06 1.18861174046743e-07
1.52812500000000e+00 3.50611094967711e-06 1.09300774268298e-07
1.53627500000000e+00 3.21549358449352e-06 1.00507919737214e-07
1.54442500000000e+00 2.94896514694470e-06 9.24211181640634e-08
1.55257500000000e+00 2.70452893447908e-06 8.49837920212053e-08
1.56072500000000e+00 2.48035374884399e-06 7.81438868011550e-08
1.56887500000000e+00 2.27476017763123e-06 7.18535104013589e-08
1.57702500000000e+00 2.08620801292902e-06 6.60686011712538e-08
1.58517500000000e+00 1.91328471282690e-06 6.07486223517157e-08
1.59332500000000e+00 1.75469481933280e-06 5.58562808159980e-08
1.60147500000000e+00 1.60925025342631e-06 5.13572681862210e-08
1.60962500000000e+00 1.47586141454349e-06 4.72200225514729e-08
1.61777500000000e+00 1.35352901781478e-06 4.34155091536553e-08
1.62592500000000e+00 1.24133660790457e-06 3.99170185362632e-08
1.63407500000000e+00 1.13844369336962e-06 3.66999807702090e-08
1.64222500000000e+00 1.04407945010247e-06 3.37417944803585e-08
1.65037500000000e+00 9.57536946688808e-07 3.10216694973870e-08
1.65852500000000e+00 8.78167848418182e-07 2.85204820525590e-08
1.66667500000000e+00 8.05377560272926e-07 2.62206415186999e-08
1.67482500000000e+00 7.38620772508962e-07 2.41059677795490e-08
1.68297500000000e+00 6.77397375458109e-07 2.21615783823754e-08
1.69112500000000e+00 6.21248712947574e-07 2.03737846957040e-08
1.69927500000000e+00 5.69754146269030e-07 1.87299963556751e-08
1.70742500000000e+00 5.22527902956228e-07 1.72186333413715e-08
1.71557500000000e+00 4.79216186763667e-07 1.58290450717700e-08
1.72372500000000e+00 4.39494527195703e-07 1.45514359651655e-08
1.73187500000000e+00 4.03065348730034e-07 1.33767969462936e-08
1.74002500000000e+00 3.69655741525358e-07 1.22968424272536e-08
1.74817500000000e+00 3.39015416912419e-07 1.13039523259671e-08
1.75632500000000e+00 3.10914832351974e-07 1.03911187205758e-08
1.76447500000000e+00 2.85143471812756e-07 9.55189677008976e-09
1.77262500000000e+00 2.61508268686866e-07 8.78035956099682e-09
1.78077500000000e+00 2.39832159427831e-07 8.07105656659598e-09
1.78892500000000e+00 2.19952757075882e-07 7.41897543074161e-09
1.79707500000000e+00 2.01721134733142e-07 6.81950681062337e-09
1.80522500000000e+00 1.85000709875113e-07 6.26841203432984e-09
1.81337500000000e+00 1.69666221140251e-07 5.76179334839132e-09
1.82152500000000e+00 1.55602789932240e-07 5.29606654840010e-09
1.82967500000000e+00 1.42705059804936e-07 4.86793580228955e-09
1.83782500000000e+00 1.30876407182663e-07 4.47437049102638e-09
1.84597500000000e+00 1.20028217502977e-07 4.11258390543923e-09
1.85412500000000e+00 1.10079221359085e-07 3.78001365076479e-09
1.86227500000000e+00 1.00954885668628e-07 3.47430362232937e-09
1.87042500000000e+00 9.25868553077724e-08 3.19328742667875e-09
1.87857500000000e+00 8.49124410275691e-08 2.93497313249838e-09
1.88672500000000e+00 7.78741498163307e-08 2.69752924489644e-09
1.89487500000000e+00 7.14192541897053e-08 2.47927180511901e-09
1.90302500000000e+00 6.54993971817858e-08 2.27865252558632e-09
1.91117500000000e+00 6.00702300780360e-08 2.09424787733671e-09
1.91932500000000e+00 5.50910801761031e-08 1.92474905358853e-09
1.92747500000000e+00 5.05246460855415e-08 1.76895273922705e-09
1.93562500000000e+00 4.63367182837799e-08 1.62575262163367e-09
1.94377500000000e+00 4.24959228348719e-08 1.49413158343795e-09
1.95192500000000e+00 3.89734863510941e-08 1.37315452252475e-09
1.96007500000000e+00 3.57430204365980e-08 1.26196174900126e-09
1.96822500000000e+00 3.27803239982711e-08 1.15976291285235e-09
1.97637500000000e+00 3.00632019428155e-08 1.06583141971565e-09
1.98452500000000e+00 2.75712989018100e-08 9.79499295614531e-10
1.99267500000000e+00 2.52859467391036e-08 9.00152464622558e-10
2.00082500000000e+00 2.31900246981403e-08 8.27226406317633e-10
2.00897500000000e+00 2.12678311415056e-08 7.60202162538294e-10
2.01712500000000e+00 1.95049659218288e-08 6.98602665397019e-10
2.02527500000000e+00 1.78882225028221e-08 6.41989360752319e-10
2.03342500000000e+00 1.64054890222782e-08 5.89959103408977e-10
2.04157500000000e+00 1.50456575558376e-08 5.42141302217848e-10
2.04972500000000e+00 1.37985409017754e-08 4.98195294996698e-10
2.05787500000000e+00 1.26547962633973e-08 4.57807934803622e-10
2.06602500000000e+00 1.16058552573112e-08 4.20691370575801e-10
2.07417500000000e+00 1.06438597232302e-08 3.86581006509012e-10
2.08232500000000e+00 9.76160285442411e-09 3.55233625806978e-10
2.09047500000000e+00 8.95247520779826e-09 3.26425665582874e-10
2.09862500000000e+00 8.21041518913246e-09 2.99951630756184e-10
2.10677500000000e+00 7.52986364253957e-09 2.75622635764085e-10
2.11492500000000e+00 6.90572220394987e-09 2.53265063804214e-10
2.12307500000000e+00 6.33331510662554e-09 2.32719334151559e-10
2.13122500000000e+00 5.80835415257060e-09 2.13838768851769e-10
2.13937500000000e+00 5.32690658741905e-09 1.96488550791994e-10
2.14752500000000e+00 4.88536563813523e-09 1.80544765792992e-10
2.15567500000000e+00 4.48042349280920e-09 1.65893521957498e-10
2.16382500000000e+00 4.10904652012475e-09 1.52430140053538e-10
2.17197500000000e+00 3.76845254285617e-09 1.40058409211566e-10
2.18012500000000e+00 3.45608999513784e-09 1.28689902674254e-10
2.18827500000000e+00 3.16961880736301e-09 1.18243348760890e-10
2.19642500000000e+00 2.90689287551050e-09 1.08644052597469e-10
2.20457500000000e+00 2.66594398356810e-09 9.98233645214097e-11
2.21272500000000e+00 2.44496705860713e-09 9.17181913990367e-11
2.22087500000000e+00 2.24230664804639e-09 8.42705473966381e-11
2.22902500000000e+00 2.05644451779951e-09 7.74271410243372e-11
2.23717500000000e+00 1.88598827839722e-09 7.11389955280390e-11
2.24532500000000e+00 1.72966095387675e-09 6.53610999401722e-11
2.25347500000000e+00 1.58629141529358e-09 6.00520883164888e-11
2.26162500000000e+00 1.45480560718804e-09 5.51739448853165e-11
2.26977500000000e+00 1.33421850127964e-09 5.06917330187763e-11
2.27792500000000e+00 1.22362671711012e-09 4.65733461038766e-11
2.28607500000000e+00 1.12220175435258e-09 4.27892785462587e-11
2.29422500000000e+00 1.02918378608652e-09 3.93124152817580e-11
2.30237500000000e+00 9.43875966540856e-10 3.61178383018938e-11
2.31052500000000e+00 8.65639210661387e-10 3.31826488198110e-11
2.31867500000000e+00 7.93887406393702e-10 3.04858038139124e-11
2.32682500000000e+00 7.28083023814245e-10 2.80079657882296e-11
2.33497500000000e+00 6.67733088215292e-10 2.57313646821938e-11
2.34312500000000e+00 6.12385486976117e-10 2.36396709485416e-11
2.35127500000000e+00 5.61625582553223e-10 2.17178788972362e-11
2.35942500000000e+00 5.15073106215773e-10 1.99521994760577e-11
2.36757500000000e+00 4.72379309255599e-10 1.83299617254220e-11
2.37572500000000e+00 4.33224350330026e-10 1.68395222065092e-11
2.38387500000000e+00 3.97314899364739e-10 1.54701817583478e-11
2.39202500000000e+00 3.64381940066289e-10 1.42121089914998e-11
2.40017500000000e+00 3.34178754581728e-10 1.30562699738125e-11
2.40832500000000e+00 3.06479075207400e-10 1.19943636076588e-11
2.41647500000000e+00 2.81075389300403e-10 1.10187622385034e-11
2.42462500000000e+00 2.57777384693915e-10 1.01224570717939e-11
2.43277500000000e+00 2.36410523970194e-10 9.29900800933192e-12
2.44092500000000e+00 2.16814736910398e-10 8.54249754768881e-12
2.44907500000000e+00 1.98843221325680e-10 7.84748841010361e-12
2.45722500000000e+00 1.82361343285965e-10 7.20898460984294e-12
2.46537500000000e+00 1.67245628507461e-10 6.62239566740653e-12
2.47352500000000e+00 1.53382837342855e-10 6.08350372639443e-12
2.48167500000000e+00 1.40669116444471e-10 5.58843333347566e-12
2.48982500000000e+00 1.29009220745060e-10 5.13362366685597e-12
2.49797500000000e+00 1.18315799927681e-10 4.71580301507030e-12
2.50612500000000e+00 1.08508744039236e-10 4.33196532394747e-12
2.51427500000000e+00 9.95145833453290e-11 3.97934864432119e-12
2.52242500000000e+00 9.12659379304353e-11 3.65541532660055e-12
2.53057500000000e+00 8.37010129200631e-11 3.35783382075759e-12
2.53872500000000e+00 7.67631355433455e-11 3.08446195172936e-12
2.54687500000000e+00 7.04003305679660e-11 2.83333155074782e-12
2.55502500000000e+00 6.45649309267765e-11 2.60263433277655e-12
2.56317500000000e+00 5.92132206191125e-11 2.39070891911862e-12
2.57132500000000e+00 5.43051072115929e-11 2.19602891242689e-12
