Energy (eV)          EEDF (eV^-(3/2))     First Anisotropy
1.37878787878788e-02 9.32212305552389e-02 4.30651433184951e-05
4.13636363636364e-02 9.27340265182627e-02 7.11662097378006e-05
6.89393939393939e-02 9.22493687656121e-02 9.40890801014131e-05
9.65151515151515e-02 9.17672439905383e-02 1.11590229393141e-04
1.24090909090909e-01 9.12876389550627e-02 1.26258160584677e-04
1.51666666666667e-01 9.08105404876535e-02 1.39069214537305e-04
1.79242424242424e-01 9.03359354914249e-02 1.50527504710747e-04
2.06818181818182e-01 8.98638109319705e-02 1.60936778080844e-04
2.34393939393939e-01 8.93941538458328e-02 1.70498044348038e-04
2.61969696969697e-01 8.89269513394253e-02 1.79353064623294e-04
2.89545454545455e-01 8.84621905823422e-02 1.87606550137725e-04
3.17121212121212e-01 8.79998588148825e-02 1.95338624713700e-04
3.44696969696970e-01 8.75399433408506e-02 2.02612332121336e-04
3.72272727272727e-01 8.70824315332437e-02 2.09478412034727e-04
3.99848484848485e-01 8.66273108285021e-02 2.15978474265350e-04
4.27424242424242e-01 8.61745687299863e-02 2.22147184331007e-04
4.55000000000000e-01 8.57241928074419e-02 2.28013815656644e-04
4.82575757575758e-01 8.52761706934379e-02 2.33603378264397e-04
5.10151515151515e-01 8.48304900871538e-02 2.38937458888729e-04
5.37727272727273e-01 8.43871387502337e-02 2.44034858015587e-04
5.65303030303030e-01 8.39461045091866e-02 2.48912080363472e-04
5.92878787878788e-01 8.35073752549394e-02 2.53583719687321e-04
6.20454545454545e-01 8.30709389401137e-02 2.58062762830879e-04
6.48030303030303e-01 8.26367835817915e-02 2.62360834057092e-04
6.75606060606061e-01 8.22048972582759e-02 2.66488393110080e-04
7.03181818181818e-01 8.17752681115028e-02 2.70454897292667e-04
7.30757575757576e-01 8.13478843441296e-02 2.74268935478903e-04
7.58333333333333e-01 8.09227342210924e-02 2.77938339199236e-04
7.85909090909091e-01 8.04998060692256e-02 2.81470276719122e-04
8.13484848484848e-01 8.00790882752395e-02 2.84871331654942e-04
8.41060606060606e-01 7.96605692876181e-02 2.88147570177718e-04
8.68636363636364e-01 7.92442376141896e-02 2.91304598436586e-04
8.96212121212121e-01 7.88300818238256e-02 2.94347611880914e-04
9.23787878787879e-01 7.84180905442025e-02 2.97281438001773e-04
9.51363636363636e-01 7.80082524628981e-02 3.00110573022470e-04
9.78939393939394e-01 7.76005563270462e-02 3.02839214673174e-04
1.00651515151515e+00 7.71949909417278e-02 3.05471290161457e-04
1.03409090909091e+00 7.67915451713621e-02 3.08010481253961e-04
1.06166666666667e+00 7.63902079369932e-02 3.10460246015747e-04
1.08924242424242e+00 7.59909682187901e-02 3.12823837322327e-04
1.11681818181818e+00 7.55938150581166e-02 3.15104322796372e-04
1.14439393939394e+00 7.51987375463269e-02 3.17304598565873e-04
1.17196969696970e+00 7.48057248354411e-02 3.19427401601169e-04
1.19954545454545e+00 7.44147661341882e-02 3.21475323567106e-04
1.22712121212121e+00 7.40258507109006e-02 3.23450823199945e-04
1.25469696969697e+00 7.36389678835308e-02 3.25356235000448e-04
1.28227272727273e+00 7.32541070291064e-02 3.27193776946741e-04
1.30984848484848e+00 7.28712575801793e-02 3.28965560086683e-04
1.33742424242424e+00 7.24904090274055e-02 3.30673597171557e-04
1.36500000000000e+00 7.21115509105739e-02 3.32319808194911e-04
1.39257575757576e+00 7.17346728270524e-02 3.33906025317951e-04
1.42015151515152e+00 7.13597644285753e-02 3.35433999813275e-04
1.44772727272727e+00 7.09868154235590e-02 3.36905408348109e-04
1.47530303030303e+00 7.06158155689799e-02 3.38321856561715e-04
1.50287878787879e+00 7.02467546779760e-02 3.39684882241949e-04
1.53045454545455e+00 6.98796226169199e-02 3.40995960548752e-04
1.55803030303030e+00 6.95144093075079e-02 3.42256508758832e-04
1.58560606060606e+00 6.91511047193629e-02 3.43467888580331e-04
1.61318181818182e+00 6.87896988769175e-02 3.44631408195958e-04
1.64075757575758e+00 6.84301818567317e-02 3.45748326326290e-04
1.66833333333333e+00 6.80725437893867e-02 3.46819855930128e-04
1.69590909090909e+00 6.77167748527130e-02 3.47847165683287e-04
1.72348484848485e+00 6.73628652780549e-02 3.48831381267015e-04
1.75106060606061e+00 6.70108053478011e-02 3.49773588622474e-04
1.77863636363636e+00 6.66605853971081e-02 3.50674836919687e-04
1.80621212121212e+00 6.63121958076724e-02 3.51536139469742e-04
1.83378787878788e+00 6.59656270134584e-02 3.52358474499632e-04
1.86136363636364e+00 6.56208694984148e-02 3.53142788289278e-04
1.88893939393939e+00 6.52779137962343e-02 3.53889995758864e-04
1.91651515151515e+00 6.49367504918710e-02 3.54600983307615e-04
1.94409090909091e+00 6.45973702158815e-02 3.55276609246430e-04
1.97166666666667e+00 6.42597636495966e-02 3.55917704136734e-04
1.99924242424242e+00 6.39239215230556e-02 3.56525072957662e-04
2.02681818181818e+00 6.35898346164001e-02 3.57099497085887e-04
2.05439393939394e+00 6.32574937546262e-02 3.57641734478019e-04
2.08196969696970e+00 6.29268898123521e-02 3.58152519781444e-04
2.10954545454545e+00 6.25980137118922e-02 3.58632566198546e-04
2.13712121212121e+00 6.22708564245393e-02 3.59082567189730e-04
2.16469696969697e+00 6.19454089656833e-02 3.59503196478316e-04
2.19227272727273e+00 6.16216623992212e-02 3.59895107999673e-04
2.21984848484848e+00 6.12996078357543e-02 3.60258937530257e-04
2.24742424242424e+00 6.09792364337720e-02 3.60595304175690e-04
2.27500000000000e+00 6.06605393950990e-02 3.60904810249015e-04
2.30257575757576e+00 6.03435079689844e-02 3.61188041104314e-04
2.33015151515152e+00 6.00281334504117e-02 3.61445566579844e-04
2.35772727272727e+00 5.97144071811931e-02 3.61677942316033e-04
2.38530303030303e+00 5.94023205457118e-02 3.61885709542964e-04
2.41287878787879e+00 5.90918649747249e-02 3.62069394831626e-04
2.44045454545455e+00 5.87830319437737e-02 3.62229511387293e-04
2.46803030303030e+00 5.84758129741977e-02 3.62366560230538e-04
2.49560606060606e+00 5.81701996291454e-02 3.62481029919927e-04
2.52318181818182e+00 5.78661835171166e-02 3.62573396244700e-04
2.55075757575758e+00 5.75637562904653e-02 3.62644123395631e-04
2.57833333333333e+00 5.72629096463416e-02 3.62693665033836e-04
2.60590909090909e+00 5.69636353229443e-02 3.62722463967625e-04
2.63348484848485e+00 5.66659251028293e-02 3.62730951803975e-04
2.66106060606061e+00 5.63697708114964e-02 3.62719550017567e-04
2.68863636363636e+00 5.60751643182647e-02 3.62688670926597e-04
2.71621212121212e+00 5.57820975327471e-02 3.62638717337419e-04
2.74378787878788e+00 5.54905624079455e-02 3.62570082167660e-04
2.77136363636364e+00 5.52005509389139e-02 3.62483149749289e-04
2.79893939393939e+00 5.49120551625465e-02 3.62378295445863e-04
2.82651515151515e+00 5.46250671583712e-02 3.62255886875199e-04
2.85409090909091e+00 5.43395790452666e-02 3.62116283523269e-04
2.88166666666667e+00 5.40555829843253e-02 3.61959836340497e-04
2.90924242424242e+00 5.37730711776110e-02 3.61786888640219e-04
2.93681818181818e+00 5.34920358688990e-02 3.61597776918147e-04
2.96439393939394e+00 5.32124693405764e-02 3.61392830454264e-04
2.99196969696970e+00 5.29343639163304e-02 3.61172370899346e-04
3.01954545454545e+00 5.26577119599684e-02 3.60936713112041e-04
3.04712121212121e+00 5.23825058761100e-02 3.60686165922390e-04
3.07469696969697e+00 5.21087381072559e-02 3.60421031727116e-04
3.10227272727273e+00 5.18364011363148e-02 3.60141606071141e-04
3.12984848484848e+00 5.15654874854834e-02 3.59848178431200e-04
3.15742424242424e+00 5.12959897168925e-02 3.59541032930368e-04
3.18500000000000e+00 5.10279004298317e-02 3.59220447930767e-04
3.21257575757576e+00 5.07612122631296e-02 3.58886695613988e-04
3.24015151515152e+00 5.04959178940860e-02 3.58540042717370e-04
3.26772727272727e+00 5.02320100390791e-02 3.58180751205394e-04
3.29530303030303e+00 4.99694814509328e-02 3.57809077862860e-04
3.32287878787879e+00 4.97083249211605e-02 3.57425273876934e-04
3.35045454545455e+00 4.94485332789491e-02 3.57029585531372e-04
3.37803030303030e+00 4.91900993917267e-02 3.56622254839628e-04
3.40560606060606e+00 4.89330161626643e-02 3.56203519140723e-04
3.43318181818182e+00 4.86772765327937e-02 3.55773610685020e-04
3.46075757575758e+00 4.84228734800380e-02 3.55332757290841e-04
3.48833333333333e+00 4.81698000197446e-02 3.54881182943081e-04
3.51590909090909e+00 4.79180492023109e-02 3.54419107393689e-04
3.54348484848485e+00 4.76676141151856e-02 3.53946745752797e-04
3.57106060606061e+00 4.74184878819430e-02 3.53464309111143e-04
3.59863636363636e+00 4.71706636627837e-02 3.52972005107761e-04
3.62621212121212e+00 4.69241346522759e-02 3.52470037536278e-04
3.65378787878788e+00 4.66788940812481e-02 3.51958605942595e-04
3.68136363636364e+00 4.64349352159049e-02 3.51437906449758e-04
3.70893939393939e+00 4.61922513576454e-02 3.50908131362599e-04
3.73651515151515e+00 4.59508358435233e-02 3.50369469949099e-04
3.76409090909091e+00 4.57106820441175e-02 3.49822108052560e-04
3.79166666666667e+00 4.54717833653049e-02 3.49266227696117e-04
3.81924242424242e+00 4.52341332474266e-02 3.48702007641904e-04
3.84681818181818e+00 4.49977251657199e-02 3.48129623901112e-04
3.87439393939394e+00 4.47625526282899e-02 3.47549249353922e-04
3.90196969696970e+00 4.45286091777885e-02 3.46961053362393e-04
3.92954545454545e+00 4.42958883906166e-02 3.46365202304002e-04
3.95712121212121e+00 4.40643838773307e-02 3.45761860058318e-04
3.98469696969697e+00 4.38340892807079e-02 3.45151187635297e-04
4.01227272727273e+00 4.36049982773381e-02 3.44533342796782e-04
4.03984848484849e+00 4.33771045768600e-02 3.43908480566333e-04
4.06742424242424e+00 4.31504019223439e-02 3.43276753694537e-04
4.09500000000000e+00 4.29248840884439e-02 3.42638312295775e-04
4.12257575757576e+00 4.27005448829102e-02 3.41993303478557e-04
4.15015151515152e+00 4.24773781458554e-02 3.41341871833536e-04
4.17772727272727e+00 4.22553777501163e-02 3.40684159878821e-04
4.20530303030303e+00 4.20345375994875e-02 3.40020307705390e-04
4.23287878787879e+00 4.18148516301587e-02 3.39350452616577e-04
4.26045454545455e+00 4.15963138100105e-02 3.38674729595631e-04
4.28803030303030e+00 4.13789181389552e-02 3.37993271732462e-04
4.31560606060606e+00 4.11626586472486e-02 3.37306209877906e-04
4.34318181818182e+00 4.09475293968557e-02 3.36613672292236e-04
4.37075757575758e+00 4.07335244807748e-02 3.35915785093626e-04
4.39833333333333e+00 4.05206380233593e-02 3.35212672667735e-04
4.42590909090909e+00 4.03088641787018e-02 3.34504457330636e-04
4.45348484848485e+00 4.00981971319338e-02 3.33791258986426e-04
4.48106060606061e+00 3.98886310985764e-02 3.33073195557945e-04
4.50863636363636e+00 3.96801603248435e-02 3.32350383379981e-04
4.53621212121212e+00 3.94727790860952e-02 3.31622936871070e-04
4.56378787878788e+00 3.92664816880747e-02 3.30890968200105e-04
4.59136363636364e+00 3.90612624662845e-02 3.30154587876112e-04
4.61893939393939e+00 3.88571157858323e-02 3.29413904421946e-04
4.64651515151515e+00 3.86540360417117e-02 3.28669024934930e-04
4.67409090909091e+00 3.84520176573337e-02 3.27920054767833e-04
4.70166666666667e+00 3.82510550856935e-02 3.27167097205072e-04
4.72924242424242e+00 3.80511428087776e-02 3.26410253858624e-04
4.75681818181818e+00 3.78522753378281e-02 3.25649625029783e-04
4.78439393939394e+00 3.76544472119357e-02 3.24885309398735e-04
4.81196969696970e+00 3.74576529991514e-02 3.24117403709555e-04
4.83954545454545e+00 3.72618872959158e-02 3.23346003151371e-04
4.86712121212121e+00 3.70671447273093e-02 3.22571201706765e-04
4.89469696969697e+00 3.68734199457020e-02 3.21793091849739e-04
4.92227272727273e+00 3.66807076318144e-02 3.21011764239390e-04
4.94984848484849e+00 3.64890024941673e-02 3.20227308087147e-04
4.97742424242424e+00 3.62982992693186e-02 3.19439811492454e-04
5.00500000000000e+00 3.61085927205676e-02 3.18649361149050e-04
5.03257575757576e+00 3.59198776389672e-02 3.17856042047079e-04
5.06015151515152e+00 3.57321488427937e-02 3.17059937827160e-04
5.08772727272727e+00 3.55454011777709e-02 3.16261131103975e-04
5.11530303030303e+00 3.53596295158258e-02 3.15459703180744e-04
5.14287878787879e+00 3.51748287560551e-02 3.14655733759603e-04
5.17045454545455e+00 3.49909938242142e-02 3.13849301283043e-04
5.19803030303030e+00 3.48081196729288e-02 3.13040483246191e-04
5.22560606060606e+00 3.46262012805001e-02 3.12229355919121e-04
5.25318181818182e+00 3.44452336518276e-02 3.11415994065378e-04
5.28075757575758e+00 3.42652118179163e-02 3.10600471271532e-04
5.30833333333333e+00 3.40861308360772e-02 3.09782860248527e-04
5.33590909090909e+00 3.39079857887786e-02 3.08963232561722e-04
5.36348484848485e+00 3.37307717845282e-02 3.08141658357314e-04
5.39106060606061e+00 3.35544839573977e-02 3.07318206680525e-04
5.41863636363636e+00 3.33791174672123e-02 3.06492945766668e-04
5.44621212121212e+00 3.32046674984464e-02 3.05665942778762e-04
5.47378787878788e+00 3.30311292610670e-02 3.04837263541504e-04
5.50136363636364e+00 3.28584979900745e-02 3.04006972983879e-04
5.52893939393939e+00 3.26867689453734e-02 3.03175134879000e-04
5.55651515151515e+00 3.25159374119478e-02 3.02341812265587e-04
5.58409090909091e+00 3.23459986988085e-02 3.01507067193663e-04
5.61166666666667e+00 3.21769481397915e-02 3.00670960466927e-04
5.63924242424242e+00 3.20087810931200e-02 2.99833551938311e-04
5.66681818181818e+00 3.18414929415708e-02 2.98994900780507e-04
5.69439393939394e+00 3.16750790914612e-02 2.98155065238786e-04
5.72196969696970e+00 3.15095349734126e-02 2.97314102380597e-04
5.74954545454545e+00 3.13448560419276e-02 2.96472068381333e-04
5.77712121212121e+00 3.11810377755477e-02 2.95629018785955e-04
5.80469696969697e+00 3.10180756758777e-02 2.94785008268708e-04
5.83227272727273e+00 3.08559652683171e-02 2.93940090389821e-04
5.85984848484849e+00 3.06947021016509e-02 2.93094317871912e-04
5.88742424242424e+00 3.05342817481993e-02 2.92247742853001e-04
5.91500000000000e+00 3.03746998028779e-02 2.91400416653035e-04
5.94257575757576e+00 3.02159518838981e-02 2.90552389537420e-04
5.97015151515152e+00 3.00580336323720e-02 2.89703710984406e-04
5.99772727272727e+00 2.99009407124534e-02 2.88854429930018e-04
6.02530303030303e+00 2.97446688104332e-02 2.88004594541104e-04
6.05287878787879e+00 2.95892136354096e-02 2.87154251985428e-04
6.08045454545455e+00 2.94345709189066e-02 2.86303448690569e-04
6.10803030303030e+00 2.92807364150072e-02 2.85452230580989e-04
6.13560606060606e+00 2.91277058994817e-02 2.84600642857405e-04
6.16318181818182e+00 2.89754751704303e-02 2.83748729773370e-04
6.19075757575758e+00 2.88240400479133e-02 2.82896534885927e-04
6.21833333333333e+00 2.86733963740781e-02 2.82044101285150e-04
6.24590909090909e+00 2.85235400123182e-02 2.81191471379690e-04
6.27348484848485e+00 2.83744668478895e-02 2.80338686679676e-04
6.30106060606061e+00 2.82261727875523e-02 2.79485788039375e-04
6.32863636363636e+00 2.80786537596919e-02 2.78632815879557e-04
6.35621212121212e+00 2.79319057135075e-02 2.77779809979089e-04
6.38378787878788e+00 2.77859246196026e-02 2.76926809263795e-04
6.41136363636364e+00 2.76407064696396e-02 2.76073852146985e-04
6.43893939393939e+00 2.74962472762298e-02 2.75220976322911e-04
6.46651515151515e+00 2.73525430730453e-02 2.74368219091407e-04
6.49409090909091e+00 2.72095899140430e-02 2.73515617156082e-04
6.52166666666667e+00 2.70673838740261e-02 2.72663206419868e-04
6.54924242424242e+00 2.69259210483121e-02 2.71811022211724e-04
6.57681818181818e+00 2.67851975528389e-02 2.70959099494501e-04
6.60439393939394e+00 2.66452095234159e-02 2.70107472668611e-04
6.63196969696970e+00 2.65059531162623e-02 2.69256175373383e-04
6.65954545454546e+00 2.63674245076865e-02 2.68405240706770e-04
6.68712121212121e+00 2.62296198941860e-02 2.67554701426810e-04
6.71469696969697e+00 2.60925354917245e-02 2.66704589760819e-04
6.74227272727273e+00 2.59561675362489e-02 2.65854937212188e-04
6.76984848484848e+00 2.58205122833785e-02 2.65005774773463e-04
6.79742424242424e+00 2.56855660084994e-02 2.64157133121658e-04
6.82500000000000e+00 2.55513250060671e-02 2.63309042432720e-04
6.85257575757576e+00 2.54177855901024e-02 2.62461532193763e-04
6.88015151515151e+00 2.52849440938903e-02 2.61614631409607e-04
6.90772727272727e+00 2.51527968700695e-02 2.60768368792202e-04
6.93530303030303e+00 2.50213402899591e-02 2.59922772580266e-04
6.96287878787879e+00 2.48905707440343e-02 2.59077870356726e-04
6.99045454545455e+00 2.47604846416349e-02 2.58233689248997e-04
7.01803030303030e+00 2.46310784110501e-02 2.57390256112747e-04
7.04560606060606e+00 2.45023484988679e-02 2.56547597356525e-04
7.07318181818182e+00 2.43742913704322e-02 2.55705738764215e-04
7.10075757575758e+00 2.42469035095600e-02 2.54864705689387e-04
7.12833333333333e+00 2.41201814186222e-02 2.54024523233551e-04
7.15590909090909e+00 2.39941216179142e-02 2.53185216075621e-04
7.18348484848485e+00 2.38687206460957e-02 2.52346808299229e-04
7.21106060606061e+00 2.37439750599163e-02 2.51509323581323e-04
7.23863636363636e+00 2.36198814342916e-02 2.50672785365173e-04
7.26621212121212e+00 2.34964363616959e-02 2.49837216694493e-04
7.29378787878788e+00 2.33736364525838e-02 2.49002640045517e-04
7.32136363636364e+00 2.32514783351246e-02 2.48169077592946e-04
7.34893939393939e+00 2.31299586551101e-02 2.47336551045676e-04
7.37651515151515e+00 2.30090740760255e-02 2.46505081900598e-04
7.40409090909091e+00 2.28888212784659e-02 2.45674691281911e-04
7.43166666666667e+00 2.27691969605391e-02 2.44845399778566e-04
7.45924242424242e+00 2.26501978376097e-02 2.44017227621007e-04
7.48681818181818e+00 2.25318206423662e-02 2.43190194843352e-04
7.51439393939394e+00 2.24140621242574e-02 2.42364321127132e-04
7.54196969696970e+00 2.22969190498787e-02 2.41539625643203e-04
7.56954545454545e+00 2.21803882027244e-02 2.40716127223292e-04
7.59712121212121e+00 2.20644663832514e-02 2.39893844517496e-04
7.62469696969697e+00 2.19491504083333e-02 2.39072795842289e-04
7.65227272727273e+00 2.18344371116328e-02 2.38252999026716e-04
7.67984848484848e+00 2.17203233433610e-02 2.37434471578956e-04
7.70742424242424e+00 2.16068059703371e-02 2.36617230839272e-04
7.73500000000000e+00 2.14938818754615e-02 2.35801293832181e-04
7.76257575757576e+00 2.13815479580728e-02 2.34986677116837e-04
7.79015151515152e+00 2.12698011337148e-02 2.34173396948761e-04
7.81772727272727e+00 2.11586383341932e-02 2.33361469428386e-04
7.84530303030303e+00 2.10480565070650e-02 2.32550910357252e-04
7.87287878787879e+00 2.09380526159829e-02 2.31741735092423e-04
7.90045454545455e+00 2.08286236404681e-02 2.30933958703625e-04
7.92803030303030e+00 2.07197665759648e-02 2.30127596117534e-04
7.95560606060606e+00 2.06114784333458e-02 2.29322661977817e-04
7.98318181818182e+00 2.05037562392433e-02 2.28519170503543e-04
8.01075757575758e+00 2.03965970358294e-02 2.27717135641756e-04
8.03833333333333e+00 2.02899978808667e-02 2.26916571207697e-04
8.06590909090909e+00 2.01839558472302e-02 2.26117490748640e-04
8.09348484848485e+00 2.00784680232258e-02 2.25319907406094e-04
8.12106060606061e+00 1.99735315123766e-02 2.24523834064104e-04
8.14863636363636e+00 1.98691434334712e-02 2.23729283485414e-04
8.17621212121212e+00 1.97653009201008e-02 2.22936268179014e-04
8.20378787878788e+00 1.96620011209654e-02 2.22144800266044e-04
8.23136363636364e+00 1.95592411996668e-02 2.21354891689675e-04
8.25893939393939e+00 1.94570183346309e-02 2.20566554083899e-04
8.28651515151515e+00 1.93553297191522e-02 2.19779798973980e-04
8.31409090909091e+00 1.92541725609487e-02 2.18994637648093e-04
8.34166666666667e+00 1.91535440824545e-02 2.18211081027397e-04
8.36924242424242e+00 1.90534415206206e-02 2.17429139805373e-04
8.39681818181818e+00 1.89538621269564e-02 2.16648824575907e-04
8.42439393939394e+00 1.88548031670990e-02 2.15870145708309e-04
8.45196969696970e+00 1.87562619210947e-02 2.15093113220870e-04
8.47954545454546e+00 1.86582356832054e-02 2.14317736916364e-04
8.50712121212121e+00 1.85607217619482e-02 2.13544026506441e-04
8.53469696969697e+00 1.84637174796777e-02 2.12771991490012e-04
8.56227272727273e+00 1.83672201728575e-02 2.12001641030289e-04
8.58984848484848e+00 1.82712271918718e-02 2.11232984086383e-04
8.61742424242424e+00 1.81757359010629e-02 2.10466029534263e-04
8.64500000000000e+00 1.80807436783263e-02 2.09700786048431e-04
8.67257575757576e+00 1.79862479153728e-02 2.08937261982167e-04
8.70015151515152e+00 1.78922460175447e-02 2.08175465495534e-04
