Energy (eV)          EEDF (eV^-(3/2))     First Anisotropy
8.39655172413793e-03 6.69259516952010e-01 4.61285371857512e-04
2.51896551724138e-02 6.61340852172293e-01 7.59761141255781e-04
4.19827586206897e-02 6.53515880856581e-01 9.97812575380076e-04
5.87758620689655e-02 6.45783494446701e-01 1.17555358558355e-03
7.55689655172414e-02 6.38142597466907e-01 1.32124156314897e-03
9.23620689655173e-02 6.30592107426603e-01 1.44564041335517e-03
1.09155172413793e-01 6.23130954599783e-01 1.55436013903741e-03
1.25948275862069e-01 6.15758082012550e-01 1.65081193229401e-03
1.42741379310345e-01 6.08472445069786e-01 1.73727355176951e-03
1.59534482758621e-01 6.01273011658644e-01 1.81536566316482e-03
1.76327586206897e-01 5.94158761812138e-01 1.88629590312946e-03
1.93120689655172e-01 5.87128687601669e-01 1.95099636049546e-03
2.09913793103448e-01 5.80181793098940e-01 2.01020670959583e-03
2.26706896551724e-01 5.73317094090968e-01 2.06452727664781e-03
2.43500000000000e-01 5.66533618072979e-01 2.11445443092940e-03
2.60293103448276e-01 5.59830403988322e-01 2.16040504841307e-03
2.77086206896552e-01 5.53206502205882e-01 2.20273393235030e-03
2.93879310344828e-01 5.46660974279787e-01 2.24174653970125e-03
3.10672413793104e-01 5.40192892915293e-01 2.27770848119182e-03
3.27465517241379e-01 5.33801341744808e-01 2.31085275122889e-03
3.44258620689655e-01 5.27485415285035e-01 2.34138531898297e-03
3.61051724137931e-01 5.21244218744346e-01 2.36948952760053e-03
3.77844827586207e-01 5.15076867903096e-01 2.39532957880617e-03
3.94637931034483e-01 5.08982489036675e-01 2.41905335330947e-03
4.11431034482759e-01 5.02960218726966e-01 2.44079469956084e-03
4.28224137931035e-01 4.97009203801689e-01 2.46067531526082e-03
4.45017241379310e-01 4.91128601154746e-01 2.47880630819182e-03
4.61810344827586e-01 4.85317577682886e-01 2.49528950012354e-03
4.78603448275862e-01 4.79575310114071e-01 2.51021852570303e-03
4.95396551724138e-01 4.73900984942113e-01 2.52367976238624e-03
5.12189655172414e-01 4.68293798273235e-01 2.53575313062241e-03
5.28982758620690e-01 4.62752955715453e-01 2.54651276889023e-03
5.45775862068966e-01 4.57277672296915e-01 2.55602762779423e-03
5.62568965517241e-01 4.51867172313422e-01 2.56436198039646e-03
5.79362068965517e-01 4.46520689258248e-01 2.57157586775610e-03
5.96155172413793e-01 4.41237465675304e-01 2.57772548976240e-03
6.12948275862069e-01 4.36016753088681e-01 2.58286354837482e-03
6.29741379310345e-01 4.30857811861078e-01 2.58703955131783e-03
6.46534482758621e-01 4.25759911123298e-01 2.59030007984820e-03
6.63327586206897e-01 4.20722328645131e-01 2.59268903210751e-03
6.80120689655172e-01 4.15744350734817e-01 2.59424783089905e-03
6.96913793103448e-01 4.10825272159510e-01 2.59501561882926e-03
7.13706896551724e-01 4.05964396016610e-01 2.59502942941373e-03
7.30500000000000e-01 4.01161033662856e-01 2.59432434169703e-03
7.47293103448276e-01 3.96414504589823e-01 2.59293362036925e-03
7.64086206896552e-01 3.91724136353610e-01 2.59088884225424e-03
7.80879310344828e-01 3.87089264454286e-01 2.58822001157832e-03
7.97672413793104e-01 3.82509232266263e-01 2.58495566448076e-03
8.14465517241379e-01 3.77983390921497e-01 2.58112296475284e-03
8.31258620689655e-01 3.73511099240620e-01 2.57674779024664e-03
8.48051724137931e-01 3.69091723624894e-01 2.57185481601377e-03
8.64844827586207e-01 3.64724637967457e-01 2.56646758321190e-03
8.81637931034483e-01 3.60409223579564e-01 2.56060856961637e-03
8.98431034482759e-01 3.56144869083029e-01 2.55429925126044e-03
9.15224137931035e-01 3.51930970342960e-01 2.54756015972419e-03
9.32017241379311e-01 3.47766930363355e-01 2.54041093543191e-03
9.48810344827586e-01 3.43652159220827e-01 2.53287037669079e-03
9.65603448275862e-01 3.39586073963219e-01 2.52495648549288e-03
9.82396551724138e-01 3.35568098544348e-01 2.51668650915389e-03
9.99189655172414e-01 3.31597663729442e-01 2.50807698410840e-03
1.01598275862069e+00 3.27674207003652e-01 2.49914376174565e-03
1.03277586206897e+00 3.23797172550071e-01 2.48990205184034e-03
1.04956896551724e+00 3.19966011100332e-01 2.48036646483577e-03
1.06636206896552e+00 3.16180179850592e-01 2.47055101395287e-03
1.08315517241379e+00 3.12439142490134e-01 2.46046915905629e-03
1.09994827586207e+00 3.08742369017722e-01 2.45013384942217e-03
1.11674137931034e+00 3.05089335671371e-01 2.43955751530555e-03
1.13353448275862e+00 3.01479524951239e-01 2.42875210771678e-03
1.15032758620690e+00 2.97912425447363e-01 2.41772913577556e-03
1.16712068965517e+00 2.94387531771475e-01 2.40649965605246e-03
1.18391379310345e+00 2.90904344574970e-01 2.39507430752446e-03
1.20070689655172e+00 2.87462370387000e-01 2.38346334451359e-03
1.21750000000000e+00 2.84061121548348e-01 2.37167662450732e-03
1.23429310344828e+00 2.80700116225109e-01 2.35972364362200e-03
1.25108620689655e+00 2.77378878230206e-01 2.34761354792542e-03
1.26787931034483e+00 2.74096937063893e-01 2.33535514269831e-03
1.28467241379310e+00 2.70853827766351e-01 2.32295692467314e-03
1.30146551724138e+00 2.67649090855059e-01 2.31042706812541e-03
1.31825862068966e+00 2.64482272333248e-01 2.29777345080472e-03
1.33505172413793e+00 2.61352923550799e-01 2.28500367849291e-03
1.35184482758621e+00 2.58260601143675e-01 2.27212507069666e-03
1.36863793103448e+00 2.55204867039310e-01 2.25914468408284e-03
1.38543103448276e+00 2.52185288325181e-01 2.24606933468360e-03
1.40222413793103e+00 2.49201437190234e-01 2.23290558342001e-03
1.41901724137931e+00 2.46252890927623e-01 2.21965975739654e-03
1.43581034482759e+00 2.43339231810378e-01 2.20633797008426e-03
1.45260344827586e+00 2.40460047034782e-01 2.19294610684554e-03
1.46939655172414e+00 2.37614928720798e-01 2.17948984437611e-03
1.48618965517241e+00 2.34803473794337e-01 2.16597466913581e-03
1.50298275862069e+00 2.32025283932518e-01 2.15240586300202e-03
1.51977586206897e+00 2.29279965562093e-01 2.13878852108810e-03
1.53656896551724e+00 2.26567129747880e-01 2.12512756865281e-03
1.55336206896552e+00 2.23886392139809e-01 2.11142774697507e-03
1.57015517241379e+00 2.21237372969633e-01 2.09769362973590e-03
1.58694827586207e+00 2.18619696945121e-01 2.08392963859686e-03
1.60374137931034e+00 2.16032993198815e-01 2.07014002936089e-03
1.62053448275862e+00 2.13476895283289e-01 2.05632890708413e-03
1.63732758620690e+00 2.10951041070692e-01 2.04250024047517e-03
1.65412068965517e+00 2.08455072703192e-01 2.02865784839037e-03
1.67091379310345e+00 2.05988636586974e-01 2.01480541381539e-03
1.68770689655172e+00 2.03551383296787e-01 2.00094649721336e-03
1.70450000000000e+00 2.01142967528036e-01 1.98708452338787e-03
1.72129310344828e+00 1.98763048089684e-01 1.97322279714129e-03
1.73808620689655e+00 1.96411287800238e-01 1.95936450489766e-03
1.75487931034483e+00 1.94087353494650e-01 1.94551271542555e-03
1.77167241379310e+00 1.91790915936221e-01 1.93167039465560e-03
1.78846551724138e+00 1.89521649771362e-01 1.91784039308244e-03
1.80525862068966e+00 1.87279233521281e-01 1.90402545734330e-03
1.82205172413793e+00 1.85063349498120e-01 1.89022824129295e-03
1.83884482758621e+00 1.82873683761268e-01 1.87645129382371e-03
1.85563793103448e+00 1.80709926108295e-01 1.86269706968047e-03
1.87243103448276e+00 1.78571769995079e-01 1.84896793980180e-03
1.88922413793103e+00 1.76458912493613e-01 1.83526617956079e-03
1.90601724137931e+00 1.74371054282315e-01 1.82159397888543e-03
1.92281034482759e+00 1.72307899569899e-01 1.80795345193135e-03
1.93960344827586e+00 1.70269156054643e-01 1.79434662574198e-03
1.95639655172414e+00 1.68254534914161e-01 1.78077544973457e-03
1.97318965517241e+00 1.66263750732824e-01 1.76724180476255e-03
1.98998275862069e+00 1.64296521462422e-01 1.75374749219121e-03
2.00677586206897e+00 1.62352568411499e-01 1.74029424279853e-03
2.02356896551724e+00 1.60431616176137e-01 1.72688372528280e-03
2.04036206896552e+00 1.58533392601943e-01 1.71351753574709e-03
2.05715517241379e+00 1.56657628773048e-01 1.70019720605754e-03
2.07394827586207e+00 1.54804058946053e-01 1.68692421184429e-03
2.09074137931035e+00 1.52972420513312e-01 1.67369996238513e-03
2.10753448275862e+00 1.51162453991656e-01 1.66052580846430e-03
2.12432758620690e+00 1.49373902959342e-01 1.64740304990602e-03
2.14112068965517e+00 1.47606514020572e-01 1.63433292584727e-03
2.15791379310345e+00 1.45860036794020e-01 1.62131662213535e-03
2.17470689655172e+00 1.44134223852614e-01 1.60835527842916e-03
2.19150000000000e+00 1.42428830689261e-01 1.59544997885038e-03
2.20829310344828e+00 1.40743615705225e-01 1.58260176063536e-03
2.22508620689655e+00 1.39078340145260e-01 1.56981161409073e-03
2.24187931034483e+00 1.37432768093915e-01 1.55708048203669e-03
2.25867241379310e+00 1.35806666419569e-01 1.54440926811132e-03
2.27546551724138e+00 1.34199804742106e-01 1.53179882796870e-03
2.29225862068966e+00 1.32611955421262e-01 1.51924997564117e-03
2.30905172413793e+00 1.31042893503115e-01 1.50676348965276e-03
2.32584482758621e+00 1.29492396688889e-01 1.49434010456848e-03
2.34263793103448e+00 1.27960245323241e-01 1.48198051700907e-03
2.35943103448276e+00 1.26446222343101e-01 1.46968539142708e-03
2.37622413793103e+00 1.24950113247540e-01 1.45745535199519e-03
2.39301724137931e+00 1.23471706086063e-01 1.44529098829662e-03
2.40981034482759e+00 1.22010791409653e-01 1.43319286078691e-03
2.42660344827586e+00 1.20567162241691e-01 1.42116149300869e-03
2.44339655172414e+00 1.19140614066272e-01 1.40919737697906e-03
2.46018965517241e+00 1.17730944781348e-01 1.39730097835784e-03
2.47698275862069e+00 1.16337954670668e-01 1.38547272897716e-03
2.49377586206897e+00 1.14961446392133e-01 1.37371303194369e-03
2.51056896551724e+00 1.13601224932959e-01 1.36202226653438e-03
2.52736206896552e+00 1.12257097582571e-01 1.35040078102914e-03
2.54415517241379e+00 1.10928873921049e-01 1.33884889754351e-03
2.56094827586207e+00 1.09616365776193e-01 1.32736691667099e-03
2.57774137931035e+00 1.08319387197360e-01 1.31595511060647e-03
2.59453448275862e+00 1.07037754443997e-01 1.30461372772626e-03
2.61132758620690e+00 1.05771285944542e-01 1.29334299699274e-03
2.62812068965517e+00 1.04519802271149e-01 1.28214312135721e-03
2.64491379310345e+00 1.03283126128349e-01 1.27101428210270e-03
2.66170689655172e+00 1.02061082313680e-01 1.25995664302535e-03
2.67850000000000e+00 1.00853497693282e-01 1.24897034410552e-03
2.69529310344828e+00 9.96602011906987e-02 1.23805550670569e-03
2.71208620689655e+00 9.84810237448992e-02 1.22721223321740e-03
2.72887931034483e+00 9.73157983037882e-02 1.21644060639159e-03
2.74567241379310e+00 9.61643597874734e-02 1.20574069436039e-03
2.76246551724138e+00 9.50265450652595e-02 1.19511254470090e-03
2.77925862068966e+00 9.39021929447612e-02 1.18455618823221e-03
2.79605172413793e+00 9.27911441366948e-02 1.17407164267336e-03
2.81284482758621e+00 9.16932412326734e-02 1.16365890694936e-03
2.82963793103448e+00 9.06083286944823e-02 1.15331796480045e-03
2.84643103448276e+00 8.95362528203254e-02 1.14304878825729e-03
2.86322413793103e+00 8.84768617233942e-02 1.13285133217966e-03
2.88001724137931e+00 8.74300053213151e-02 1.12272553768856e-03
2.89681034482759e+00 8.63955353037839e-02 1.11267133546905e-03
2.91360344827586e+00 8.53733051118819e-02 1.10268864053185e-03
2.93039655172414e+00 8.43631699277033e-02 1.09277735547836e-03
2.94718965517241e+00 8.33649866433151e-02 1.08293737364086e-03
2.96398275862069e+00 8.23786138407945e-02 1.07316857405802e-03
2.98077586206897e+00 8.14039117820418e-02 1.06347082458109e-03
2.99756896551724e+00 8.04407423790106e-02 1.05384398486184e-03
3.01436206896552e+00 7.94889691744348e-02 1.04428790153314e-03
3.03115517241379e+00 7.85484573318376e-02 1.03480241116356e-03
3.04794827586207e+00 7.76190736069732e-02 1.02538734310252e-03
3.06474137931035e+00 7.67006863292208e-02 1.01604251485715e-03
3.08153448275862e+00 7.57931653917930e-02 1.00676773490376e-03
3.09832758620690e+00 7.48963822243353e-02 9.97562805397638e-04
3.11512068965517e+00 7.40102097749647e-02 9.88427517738130e-04
3.13191379310345e+00 7.31345225006807e-02 9.79361655244731e-04
3.14870689655172e+00 7.22691963410710e-02 9.70364995738734e-04
3.16550000000000e+00 7.14141087009730e-02 9.61437307288666e-04
3.18229310344828e+00 7.05691384410894e-02 9.52578351460879e-04
3.19908620689655e+00 6.97341658501985e-02 9.43787882961023e-04
3.21587931034483e+00 6.89090726386613e-02 9.35065649073139e-04
3.23267241379310e+00 6.80937419138312e-02 9.26411392811802e-04
3.24946551724138e+00 6.72880581637105e-02 9.17824848934472e-04
3.26625862068966e+00 6.64919072479378e-02 9.09305746301207e-04
3.28305172413793e+00 6.57051763741813e-02 9.00853810152253e-04
3.29984482758621e+00 6.49277540823656e-02 8.92468758282423e-04
3.31663793103448e+00 6.41595302358631e-02 8.84150303290969e-04
3.33343103448276e+00 6.34003959988272e-02 8.75898154751853e-04
3.35022413793103e+00 6.26502438209708e-02 8.67712015543260e-04
3.36701724137931e+00 6.19089674289610e-02 8.59591583993354e-04
3.38381034482759e+00 6.11764618046525e-02 8.51536555948757e-04
3.40060344827586e+00 6.04526231703980e-02 8.43546621252868e-04
3.41739655172414e+00 5.97373489806465e-02 8.35621465792598e-04
3.43418965517241e+00 5.90305379010382e-02 8.27760773470397e-04
3.45098275862069e+00 5.83320897942286e-02 8.19964222825231e-04
3.46777586206897e+00 5.76419057116879e-02 8.12231488984745e-04
3.48456896551724e+00 5.69598878736248e-02 8.04562245546415e-04
3.50136206896552e+00 5.62859396553016e-02 7.96956161335243e-04
3.51815517241379e+00 5.56199655790373e-02 7.89412902265427e-04
3.53494827586207e+00 5.49618712949229e-02 7.81932133135790e-04
3.55174137931035e+00 5.43115635676118e-02 7.74513514518285e-04
3.56853448275862e+00 5.36689502685250e-02 7.67156704533730e-04
3.58532758620690e+00 5.30339403573231e-02 7.59861360565779e-04
3.60212068965517e+00 5.24064438691579e-02 7.52627136274808e-04
3.61891379310345e+00 5.17863719070747e-02 7.45453683291963e-04
3.63570689655172e+00 5.11736366242127e-02 7.38340652855674e-04
3.65250000000000e+00 5.05681512114986e-02 7.31287692945725e-04
3.66929310344828e+00 4.99698298902464e-02 7.24294450363046e-04
3.68608620689655e+00 4.93785878934853e-02 7.17360570433474e-04
3.70287931034483e+00 4.87943414603744e-02 7.10485696579158e-04
3.71967241379310e+00 4.82170078195293e-02 7.03669472340176e-04
3.73646551724138e+00 4.76465051774231e-02 6.96911538688335e-04
3.75325862068966e+00 4.70827527113237e-02 6.90211535528650e-04
3.77005172413793e+00 4.65256705532688e-02 6.83569103150258e-04
3.78684482758621e+00 4.59751797788732e-02 6.76983879647989e-04
3.80363793103448e+00 4.54312024004529e-02 6.70455502356675e-04
3.82043103448276e+00 4.48936613516228e-02 6.63983609236371e-04
3.83722413793104e+00 4.43624804764953e-02 6.57567836397302e-04
3.85401724137931e+00 4.38375845229891e-02 6.51207819470144e-04
3.87081034482759e+00 4.33188991280236e-02 6.44903194928768e-04
3.88760344827586e+00 4.28063508070955e-02 6.38653597714332e-04
3.90439655172414e+00 4.22998669477688e-02 6.32458662544567e-04
3.92118965517241e+00 4.17993757954421e-02 6.26318025176934e-04
3.93798275862069e+00 4.13048064432894e-02 6.20231320127915e-04
3.95477586206897e+00 4.08160888259284e-02 6.14198181923926e-04
3.97156896551724e+00 4.03331537057382e-02 6.08218246308205e-04
3.98836206896552e+00 3.98559326631500e-02 6.02291148051270e-04
4.00515517241379e+00 3.93843580904919e-02 5.96416522145709e-04
4.02194827586207e+00 3.89183631788335e-02 5.90594004959977e-04
4.03874137931035e+00 3.84578819086155e-02 5.84823232136117e-04
4.05553448275862e+00 3.80028490436665e-02 5.79103839731169e-04
4.07232758620690e+00 3.75532001185542e-02 5.73435465320192e-04
4.08912068965517e+00 3.71088714295411e-02 5.67817745977784e-04
4.10591379310345e+00 3.66698000287708e-02 5.62250319368640e-04
4.12270689655172e+00 3.62359237121045e-02 5.56732824802109e-04
4.13950000000000e+00 3.58071810103924e-02 5.51264901294074e-04
4.15629310344828e+00 3.53835111838252e-02 5.45846188917427e-04
4.17308620689655e+00 3.49648542092560e-02 5.40476328573408e-04
4.18987931034483e+00 3.45511507757113e-02 5.35154961675590e-04
4.20667241379310e+00 3.41423422729840e-02 5.29881731464894e-04
4.22346551724138e+00 3.37383707834075e-02 5.24656281192318e-04
4.24025862068966e+00 3.33391790764837e-02 5.19478255088806e-04
4.25705172413793e+00 3.29447105979115e-02 5.14347299303306e-04
4.27384482758621e+00 3.25549094616486e-02 5.09263060157681e-04
4.29063793103448e+00 3.21697204446947e-02 5.04225185074275e-04
4.30743103448276e+00 3.17890889765385e-02 4.99233323472670e-04
4.32422413793104e+00 3.14129611314969e-02 4.94287125093742e-04
4.34101724137931e+00 3.10412836236501e-02 4.89386240886902e-04
4.35781034482759e+00 3.06740037966895e-02 4.84530323867475e-04
4.37460344827586e+00 3.03110696165262e-02 4.79719027507020e-04
4.39139655172414e+00 2.99524296663731e-02 4.74952006582193e-04
4.40818965517241e+00 2.95980331369789e-02 4.70228917994467e-04
4.42498275862069e+00 2.92478298194955e-02 4.65549419224139e-04
4.44177586206897e+00 2.89017701007042e-02 4.60913169142267e-04
4.45856896551724e+00 2.85598049536212e-02 4.56319828794773e-04
4.47536206896552e+00 2.82218859306133e-02 4.51769059917599e-04
4.49215517241379e+00 2.78879651587660e-02 4.47260525713117e-04
4.50894827586207e+00 2.75579953308451e-02 4.42793891600394e-04
4.52574137931035e+00 2.72319296986526e-02 4.38368823788954e-04
4.54253448275862e+00 2.69097220685330e-02 4.33984990021279e-04
4.55932758620690e+00 2.65913267926771e-02 4.29642060290843e-04
4.57612068965517e+00 2.62766987627094e-02 4.25339705472031e-04
4.59291379310345e+00 2.59657934053297e-02 4.21077598030333e-04
4.60970689655172e+00 2.56585666739447e-02 4.16855412709571e-04
4.62650000000000e+00 2.53549750424805e-02 4.12672825215695e-04
4.64329310344828e+00 2.50549755011538e-02 4.08529513102723e-04
4.66008620689655e+00 2.47585255477992e-02 4.04425155601676e-04
4.67687931034483e+00 2.44655831843910e-02 4.00359433391377e-04
4.69367241379310e+00 2.41761069091901e-02 3.96332029462219e-04
4.71046551724138e+00 2.38900557109120e-02 3.92342627881555e-04
4.72725862068966e+00 2.36073890647147e-02 3.88390914426832e-04
4.74405172413793e+00 2.33280669246409e-02 3.84476577198335e-04
4.76084482758621e+00 2.30520497179901e-02 3.80599305433022e-04
4.77763793103448e+00 2.27792983414286e-02 3.76758790110620e-04
4.79443103448276e+00 2.25097741537154e-02 3.72954724539920e-04
4.81122413793103e+00 2.22434389702720e-02 3.69186803219144e-04
4.82801724137931e+00 2.19802550594098e-02 3.65454722416150e-04
4.84481034482759e+00 2.17201851353303e-02 3.61758180729485e-04
4.86160344827586e+00 2.14631923528843e-02 3.58096877993384e-04
4.87839655172414e+00 2.12092403039150e-02 3.54470515833295e-04
4.89518965517241e+00 2.09582930105206e-02 3.50878798202788e-04
4.91198275862069e+00 2.07103149199967e-02 3.47321430331385e-04
4.92877586206897e+00 2.04652709012924e-02 3.43798119256417e-04
4.94556896551724e+00 2.02231262385247e-02 3.40308574337004e-04
4.96236206896552e+00 1.99838466260981e-02 3.36852506243036e-04
4.97915517241379e+00 1.97473981652699e-02 3.33429627464193e-04
4.99594827586207e+00 1.95137473579073e-02 3.30039652802166e-04
5.01274137931035e+00 1.92828611017777e-02 3.26682298399094e-04
5.02953448275862e+00 1.90547066872203e-02 3.23357282224766e-04
5.04632758620690e+00 1.88292517911370e-02 3.20064324548047e-04
5.06312068965517e+00 1.86064644724468e-02 3.16803147003206e-04
5.07991379310345e+00 1.83863131688610e-02 3.13573473056256e-04
5.09670689655172e+00 1.81687666910984e-02 3.10375028456474e-04
5.11350000000000e+00 1.79537942184992e-02 3.07207540339093e-04
5.13029310344828e+00 1.77413652958998e-02 3.04070737810931e-04
5.14708620689655e+00 1.75314498276661e-02 3.00964351824495e-04
5.16387931034483e+00 1.73240180750590e-02 2.97888115012998e-04
5.18067241379310e+00 1.71190406508019e-02 2.94841762261954e-04
5.19746551724138e+00 1.69164885149474e-02 2.91825029867230e-04
5.21425862068966e+00 1.67163329719164e-02 2.88837655951469e-04
5.23105172413793e+00 1.65185456652676e-02 2.85879380867365e-04
5.24784482758621e+00 1.63230985737093e-02 2.82949946388419e-04
5.26463793103448e+00 1.61299640082310e-02 2.80049096107882e-04
5.28143103448276e+00 1.59391146070675e-02 2.77176575824883e-04
5.29822413793103e+00 1.57505233318504e-02 2.74332132766618e-04
