Energy (eV)          EEDF (eV^-(3/2))     First Anisotropy
7.66964285714286e-03 2.86606501862095e-01 1.43151291399663e-04
2.30089285714286e-02 2.84845029244999e-01 2.36451973298300e-04
3.83482142857143e-02 2.83094382572499e-01 3.12324928939422e-04
5.36875000000000e-02 2.81354495307936e-01 3.70076850182360e-04
6.90267857142857e-02 2.79625301321400e-01 4.18334350817915e-04
8.43660714285714e-02 2.77906734895858e-01 4.60355559235124e-04
9.97053571428572e-02 2.76198730714421e-01 4.97824852320669e-04
1.15044642857143e-01 2.74501223861785e-01 5.31758369861006e-04
1.30383928571429e-01 2.72814149817180e-01 5.62829372932282e-04
1.45723214285714e-01 2.71137444474268e-01 5.91513246704983e-04
1.61062500000000e-01 2.69471044095059e-01 6.18161554955236e-04
1.76401785714286e-01 2.67814885346047e-01 6.43043631281483e-04
1.91741071428571e-01 2.66168905282922e-01 6.66371649089843e-04
2.07080357142857e-01 2.64533041356641e-01 6.88316578497628e-04
2.22419642857143e-01 2.62907231385403e-01 7.09018793070268e-04
2.37758928571429e-01 2.61291413578086e-01 7.28595377368017e-04
2.53098214285714e-01 2.59685526530044e-01 7.47145321750722e-04
2.68437500000000e-01 2.58089509200665e-01 7.64753299422267e-04
2.83776785714286e-01 2.56503300931180e-01 7.81492477718427e-04
2.99116071428571e-01 2.54926841435617e-01 7.97426653276301e-04
3.14455357142857e-01 2.53360070803687e-01 8.12611898787666e-04
3.29794642857143e-01 2.51802929482850e-01 8.27097849708085e-04
3.45133928571429e-01 2.50255358291774e-01 8.40928723829054e-04
3.60473214285714e-01 2.48717298417271e-01 8.54144144831604e-04
3.75812500000000e-01 2.47188691398810e-01 8.66779805432554e-04
3.91151785714286e-01 2.45669479139574e-01 8.78868010805989e-04
4.06491071428571e-01 2.44159603899801e-01 8.90438129879252e-04
4.21830357142857e-01 2.42659008298241e-01 9.01516971236148e-04
4.37169642857143e-01 2.41167635298956e-01 9.12129096680026e-04
4.52508928571429e-01 2.39685428220215e-01 9.22297085506093e-04
4.67848214285714e-01 2.38212330731867e-01 9.32041763709317e-04
4.83187500000000e-01 2.36748286843538e-01 9.41382395877263e-04
4.98526785714286e-01 2.35293240912191e-01 9.50336850540411e-04
5.13866071428571e-01 2.33847137636772e-01 9.58921745050687e-04
5.29205357142857e-01 2.32409922058861e-01 9.67152571397656e-04
5.44544642857143e-01 2.30981539552253e-01 9.75043804337613e-04
5.59883928571429e-01 2.29561935829250e-01 9.82608995584461e-04
5.75223214285714e-01 2.28151056938292e-01 9.89860860538199e-04
5.90562500000000e-01 2.26748849254428e-01 9.96811351219476e-04
6.05901785714286e-01 2.25355259484780e-01 1.00347172119408e-03
6.21241071428571e-01 2.23970234664005e-01 1.00985258497684e-03
6.36580357142857e-01 2.22593722154471e-01 1.01596397097947e-03
6.51919642857143e-01 2.21225669637655e-01 1.02181536741735e-03
6.67258928571429e-01 2.19866025118777e-01 1.02741576302564e-03
6.82598214285714e-01 2.18514736924620e-01 1.03277368708630e-03
6.97937500000000e-01 2.17171753695544e-01 1.03789724229236e-03
7.13276785714286e-01 2.15837024389572e-01 1.04279413473978e-03
7.28616071428571e-01 2.14510498278430e-01 1.04747170259160e-03
7.43955357142857e-01 2.13192124947402e-01 1.05193694207697e-03
7.59294642857143e-01 2.11881854288030e-01 1.05619652985303e-03
7.74633928571429e-01 2.10579636501612e-01 1.06025684299601e-03
7.89973214285714e-01 2.09285422097161e-01 1.06412398029709e-03
8.05312500000000e-01 2.07999161884556e-01 1.06780377886254e-03
8.20651785714286e-01 2.06720806977654e-01 1.07130182960095e-03
8.35991071428571e-01 2.05450308790765e-01 1.07462349277958e-03
8.51330357142857e-01 2.04187619038293e-01 1.07777391230751e-03
8.66669642857143e-01 2.02932689728409e-01 1.08075802772928e-03
8.82008928571429e-01 2.01685473165737e-01 1.08358058494336e-03
8.97348214285714e-01 2.00445921949426e-01 1.08624614883207e-03
9.12687500000000e-01 1.99213988967166e-01 1.08875911233962e-03
9.28026785714286e-01 1.97989627397596e-01 1.09112370513275e-03
9.43366071428571e-01 1.96772790707114e-01 1.09334400283653e-03
9.58705357142857e-01 1.95563432649380e-01 1.09542393558773e-03
9.74044642857143e-01 1.94361507259735e-01 1.09736729493257e-03
9.89383928571429e-01 1.93166968857294e-01 1.09917773993968e-03
1.00472321428571e+00 1.91979772043106e-01 1.10085880616430e-03
1.02006250000000e+00 1.90799871691387e-01 1.10241390691887e-03
1.03540178571429e+00 1.89627222968678e-01 1.10384634576992e-03
1.05074107142857e+00 1.88461781295471e-01 1.10515931654184e-03
1.06608035714286e+00 1.87303502388455e-01 1.10635591002307e-03
1.08141964285714e+00 1.86152342214796e-01 1.10743912131775e-03
1.09675892857143e+00 1.85008257023120e-01 1.10841184392715e-03
1.11209821428571e+00 1.83871203341271e-01 1.10927688904091e-03
1.12743750000000e+00 1.82741137943623e-01 1.11003697955322e-03
1.14277678571429e+00 1.81618017890394e-01 1.11069475588371e-03
1.15811607142857e+00 1.80501800485984e-01 1.11125277987479e-03
1.17345535714286e+00 1.79392443316485e-01 1.11171353764373e-03
1.18879464285714e+00 1.78289904209807e-01 1.11207944533728e-03
1.20413392857143e+00 1.77194141262468e-01 1.11235284263844e-03
1.21947321428571e+00 1.76105112837528e-01 1.11253600936558e-03
1.23481250000000e+00 1.75022777535939e-01 1.11263115905817e-03
1.25015178571429e+00 1.73947094230714e-01 1.11264044343265e-03
1.26549107142857e+00 1.72878022030381e-01 1.11256595511599e-03
1.28083035714286e+00 1.71815520311676e-01 1.11240972951064e-03
1.29616964285714e+00 1.70759548684467e-01 1.11217374934657e-03
1.31150892857143e+00 1.69710067015123e-01 1.11185993807131e-03
1.32684821428571e+00 1.68667035424585e-01 1.11147017445319e-03
1.34218750000000e+00 1.67630414263061e-01 1.11100628611690e-03
1.35752678571429e+00 1.66600164139955e-01 1.11047005310207e-03
1.37286607142857e+00 1.65576245891567e-01 1.10986320985654e-03
1.38820535714286e+00 1.64558620609793e-01 1.10918744648733e-03
1.40354464285714e+00 1.63547249611053e-01 1.10844441249312e-03
1.41888392857143e+00 1.62542094456817e-01 1.10763571027012e-03
1.43422321428571e+00 1.61543116951793e-01 1.10676290815793e-03
1.44956250000000e+00 1.60550279121435e-01 1.10582753411861e-03
1.46490178571429e+00 1.59563543238321e-01 1.10483107867524e-03
1.48024107142857e+00 1.58582871793427e-01 1.10377499641351e-03
1.49558035714286e+00 1.57608227521483e-01 1.10266070683675e-03
1.51091964285714e+00 1.56639573373269e-01 1.10148959751334e-03
1.52625892857143e+00 1.55676872533762e-01 1.10026301781432e-03
1.54159821428571e+00 1.54720088420428e-01 1.09898229069649e-03
1.55693750000000e+00 1.53769184663106e-01 1.09764870662262e-03
1.57227678571429e+00 1.52824125127400e-01 1.09626352605133e-03
1.58761607142857e+00 1.51884873888979e-01 1.09482798060073e-03
1.60295535714286e+00 1.50951395256106e-01 1.09334327364070e-03
1.61829464285714e+00 1.50023653744810e-01 1.09181058300395e-03
1.63363392857143e+00 1.49101614095003e-01 1.09023105501139e-03
1.64897321428571e+00 1.48185241268873e-01 1.08860581520067e-03
1.66431250000000e+00 1.47274500432799e-01 1.08693596253286e-03
1.67965178571429e+00 1.46369356978204e-01 1.08522257154557e-03
1.69499107142857e+00 1.45469776498446e-01 1.08346669327637e-03
1.71033035714286e+00 1.44575724808929e-01 1.08166935567619e-03
1.72566964285714e+00 1.43687167924752e-01 1.07983156598425e-03
1.74100892857143e+00 1.42804072075088e-01 1.07795430506314e-03
1.75634821428571e+00 1.41926403701667e-01 1.07603853722658e-03
1.77168750000000e+00 1.41054129442450e-01 1.07408520474950e-03
1.78702678571429e+00 1.40187216150291e-01 1.07209522976019e-03
1.80236607142857e+00 1.39325630872078e-01 1.07006951498841e-03
1.81770535714286e+00 1.38469340866754e-01 1.06800894405442e-03
1.83304464285714e+00 1.37618313585119e-01 1.06591438357650e-03
1.84838392857143e+00 1.36772516682705e-01 1.06378667781950e-03
1.86372321428571e+00 1.35931918018348e-01 1.06162665774045e-03
1.87906250000000e+00 1.35096485639383e-01 1.05943513580359e-03
1.89440178571429e+00 1.34266187798419e-01 1.05721290766367e-03
1.90974107142857e+00 1.33440992934433e-01 1.05496075278290e-03
1.92508035714286e+00 1.32620869688984e-01 1.05267943463229e-03
1.94041964285714e+00 1.31805786887888e-01 1.05036970258147e-03
1.95575892857143e+00 1.30995713552796e-01 1.04803228685406e-03
1.97109821428571e+00 1.30190618899833e-01 1.04566790688476e-03
1.98643750000000e+00 1.29390472326144e-01 1.04327726643200e-03
2.00177678571429e+00 1.28595243425008e-01 1.04086105509061e-03
2.01711607142857e+00 1.27804901968659e-01 1.03841994880844e-03
2.03245535714286e+00 1.27019417922910e-01 1.03595461002463e-03
2.04779464285714e+00 1.26238761430482e-01 1.03346568937824e-03
2.06313392857143e+00 1.25462902821443e-01 1.03095382095911e-03
2.07847321428571e+00 1.24691812611917e-01 1.02841963005222e-03
2.09381250000000e+00 1.23925461491811e-01 1.02586372853604e-03
2.10915178571429e+00 1.23163820338485e-01 1.02328671625258e-03
2.12449107142857e+00 1.22406860201082e-01 1.02068918144608e-03
2.13983035714286e+00 1.21654552313770e-01 1.01807170085558e-03
2.15516964285714e+00 1.20906868080523e-01 1.01543484126974e-03
2.17050892857143e+00 1.20163779084564e-01 1.01277915505891e-03
2.18584821428571e+00 1.19425257087135e-01 1.01010518736986e-03
2.20118750000000e+00 1.18691274016280e-01 1.00741347179544e-03
2.21652678571429e+00 1.17961801979225e-01 1.00470453162395e-03
2.23186607142857e+00 1.17236813248068e-01 1.00197888021560e-03
2.24720535714286e+00 1.16516280271785e-01 9.99237021061624e-04
2.26254464285714e+00 1.15800175662308e-01 9.96479449207175e-04
2.27788392857143e+00 1.15088472203085e-01 9.93706647048624e-04
2.29322321428571e+00 1.14381142847912e-01 9.90919091032083e-04
2.30856250000000e+00 1.13678160710649e-01 9.88117247579561e-04
2.32390178571429e+00 1.12979499076469e-01 9.85301574233909e-04
2.33924107142857e+00 1.12285131388748e-01 9.82472519985319e-04
2.35458035714286e+00 1.11595031259980e-01 9.79630525305776e-04
2.36991964285714e+00 1.10909172459016e-01 9.76776023456850e-04
2.38525892857143e+00 1.10227528918836e-01 9.73909436536969e-04
2.40059821428571e+00 1.09550074735441e-01 9.71031181728945e-04
2.41593750000000e+00 1.08876784158399e-01 9.68141667467371e-04
2.43127678571429e+00 1.08207631601102e-01 9.65241294492782e-04
2.44661607142857e+00 1.07542591628711e-01 9.62330456137086e-04
2.46195535714286e+00 1.06881638968115e-01 9.59409538339665e-04
2.47729464285714e+00 1.06224748496200e-01 9.56478920854031e-04
2.49263392857143e+00 1.05571895246926e-01 9.53538973529602e-04
2.50797321428571e+00 1.04923054410274e-01 9.50590062147806e-04
2.52331250000000e+00 1.04278201323539e-01 9.47632544815856e-04
2.53865178571429e+00 1.03637311480688e-01 9.44666772940463e-04
2.55399107142857e+00 1.03000360521274e-01 9.41693091479849e-04
2.56933035714286e+00 1.02367324239530e-01 9.38711838946206e-04
2.58466964285714e+00 1.01738178573562e-01 9.35723348522097e-04
2.60000892857143e+00 1.01112899611809e-01 9.32727944562022e-04
2.61534821428571e+00 1.00491463592037e-01 9.29725948051777e-04
2.63068750000000e+00 9.98738468933137e-02 9.26717673214618e-04
2.64602678571429e+00 9.92600260445568e-02 9.23703428413293e-04
2.66136607142857e+00 9.86499777143198e-02 9.20683516373663e-04
2.67670535714286e+00 9.80436787191080e-02 9.17658234177369e-04
2.69204464285714e+00 9.74411060134134e-02 9.14627874297599e-04
2.70738392857143e+00 9.68422366956174e-02 9.11592721306350e-04
2.72272321428571e+00 9.62470480070309e-02 9.08553056987559e-04
2.73806250000000e+00 9.56555173244767e-02 9.05509157141649e-04
2.75340178571429e+00 9.50676221681247e-02 9.02461292423772e-04
2.76874107142857e+00 9.44833401920549e-02 8.99409728543673e-04
2.78408035714286e+00 9.39026491918798e-02 8.96354726250629e-04
2.79941964285714e+00 9.33255270955379e-02 8.93296542296779e-04
2.81475892857143e+00 9.27519519686958e-02 8.90235426336867e-04
2.83009821428571e+00 9.21819020138328e-02 8.87171625722207e-04
2.84543750000000e+00 9.16153555633769e-02 8.84105382491333e-04
2.86077678571429e+00 9.10522910868915e-02 8.81036934150292e-04
2.87611607142857e+00 9.04926871823484e-02 8.77966513852122e-04
2.89145535714286e+00 8.99365225831228e-02 8.74894350376483e-04
2.90679464285714e+00 8.93837761494753e-02 8.71820669027224e-04
2.92213392857143e+00 8.88344268735027e-02 8.68745688712208e-04
2.93747321428571e+00 8.82884538782654e-02 8.65669626442244e-04
2.95281250000000e+00 8.77458364114265e-02 8.62592694496096e-04
2.96815178571429e+00 8.72065538518521e-02 8.59515101148341e-04
2.98349107142857e+00 8.66705857015306e-02 8.56437050831038e-04
2.99883035714286e+00 8.61379115920003e-02 8.53358744109690e-04
3.01416964285714e+00 8.56085112764575e-02 8.50280378520910e-04
3.02950892857143e+00 8.50823646343003e-02 8.47202145820743e-04
3.04484821428571e+00 8.45594516702961e-02 8.44124236210735e-04
3.06018750000000e+00 8.40397525086782e-02 8.41046835665754e-04
3.07552678571429e+00 8.35232473992179e-02 8.37970126614146e-04
3.09086607142857e+00 8.30099167097297e-02 8.34894288084176e-04
3.10620535714286e+00 8.24997409319871e-02 8.31819495677205e-04
3.12154464285714e+00 8.19927006744003e-02 8.28745922350727e-04
3.13688392857143e+00 8.14887766661923e-02 8.25673735824519e-04
3.15222321428571e+00 8.09879497566039e-02 8.22603102553279e-04
3.16756250000000e+00 8.04902009094089e-02 8.19534185207134e-04
3.18290178571429e+00 7.99955112085059e-02 8.16467143308230e-04
3.19824107142857e+00 7.95038618509598e-02 8.13402133363791e-04
3.21358035714286e+00 7.90152341524521e-02 8.10339308837325e-04
3.22891964285714e+00 7.85296095404795e-02 8.07278820881499e-04
3.24425892857143e+00 7.80469695581961e-02 8.04220815892282e-04
3.25959821428571e+00 7.75672958636546e-02 8.01165439246060e-04
3.27493750000000e+00 7.70905702247039e-02 7.98112832923168e-04
3.29027678571429e+00 7.66167745241451e-02 7.95063136104352e-04
3.30561607142857e+00 7.61458907532629e-02 7.92016485291904e-04
3.32095535714286e+00 7.56779010168534e-02 7.88973014279910e-04
3.33629464285714e+00 7.52127875268990e-02 7.85932854841190e-04
3.35163392857143e+00 7.47505326061074e-02 7.82896134419638e-04
3.36697321428571e+00 7.42911186871867e-02 7.79862979648083e-04
3.38231250000000e+00 7.38345283080946e-02 7.76833514106225e-04
3.39765178571429e+00 7.33807441167967e-02 7.73807858879929e-04
3.41299107142857e+00 7.29297488652477e-02 7.70786132672011e-04
3.42833035714286e+00 7.24815254140335e-02 7.67768451771956e-04
3.44366964285714e+00 7.20360567264832e-02 7.64754930700090e-04
3.45900892857143e+00 7.15933258719325e-02 7.61745680029850e-04
3.47434821428571e+00 7.11533160250311e-02 7.58740809701531e-04
3.48968750000000e+00 7.07160104613139e-02 7.55740426905785e-04
3.50502678571429e+00 7.02813925615974e-02 7.52744636608624e-04
3.52036607142857e+00 6.98494458063742e-02 7.49753541653351e-04
3.53570535714286e+00 6.94201537801017e-02 7.46767242729813e-04
3.55104464285714e+00 6.89935001657178e-02 7.43785838979186e-04
3.56638392857143e+00 6.85694687476510e-02 7.40809425938166e-04
3.58172321428571e+00 6.81480434111595e-02 7.37838098661997e-04
3.59706250000000e+00 6.77292081381986e-02 7.34871949725939e-04
3.61240178571429e+00 6.73129470114870e-02 7.31911069718641e-04
3.62774107142857e+00 6.68992442092795e-02 7.28955547335827e-04
3.64308035714286e+00 6.64880840093359e-02 7.26005469349684e-04
3.65841964285714e+00 6.60794507838045e-02 7.23060921177190e-04
3.67375892857143e+00 6.56733290020042e-02 7.20121984938498e-04
3.68909821428571e+00 6.52697032297913e-02 7.17188742401931e-04
3.70443750000000e+00 6.48685581257013e-02 7.14261273096059e-04
3.71977678571429e+00 6.44698784447124e-02 7.11339654773876e-04
3.73511607142857e+00 6.40736490333676e-02 7.08423963499115e-04
3.75045535714286e+00 6.36798548334490e-02 7.05514273615736e-04
3.76579464285714e+00 6.32884808772028e-02 7.02610658282597e-04
3.78113392857143e+00 6.28995122899104e-02 6.99713187639157e-04
3.79647321428571e+00 6.25129342892835e-02 6.96821931583718e-04
3.81181250000000e+00 6.21287321818585e-02 6.93936957989711e-04
3.82715178571429e+00 6.17468913664817e-02 6.91058333142385e-04
3.84249107142857e+00 6.13673973297551e-02 6.88186121818436e-04
3.85783035714286e+00 6.09902356494404e-02 6.85320387256293e-04
3.87316964285714e+00 6.06153919899984e-02 6.82461191659120e-04
3.88850892857143e+00 6.02428521049672e-02 6.79608594461300e-04
3.90384821428571e+00 5.98726018363849e-02 6.76762654950758e-04
3.91918750000000e+00 5.95046271114162e-02 6.73923430582870e-04
3.93452678571429e+00 5.91389139455840e-02 6.71090977391914e-04
3.94986607142857e+00 5.87754484385125e-02 6.68265350064691e-04
3.96520535714286e+00 5.84142167770840e-02 6.65446601911215e-04
3.98054464285714e+00 5.80552052312685e-02 6.62634785338585e-04
3.99588392857143e+00 5.76984001563256e-02 6.59829950212206e-04
4.01122321428571e+00 5.73437879922529e-02 6.57032146331886e-04
4.02656250000000e+00 5.69913552606276e-02 6.54241421837694e-04
4.04190178571429e+00 5.66410885676056e-02 6.51457823597672e-04
4.05724107142857e+00 5.62929745999386e-02 6.48681397275996e-04
4.07258035714286e+00 5.59470001279049e-02 6.45912187304471e-04
4.08791964285714e+00 5.56031520014067e-02 6.43150237329058e-04
4.10325892857143e+00 5.52614171520106e-02 6.40395588660099e-04
4.11859821428571e+00 5.49217825924200e-02 6.37648282611379e-04
4.13393750000000e+00 5.45842354135166e-02 6.34908358992425e-04
4.14927678571429e+00 5.42487627871448e-02 6.32175856474116e-04
4.16461607142857e+00 5.39153519623838e-02 6.29450812651827e-04
4.17995535714286e+00 5.35839902682691e-02 6.26733264017797e-04
4.19529464285714e+00 5.32546651101387e-02 6.24023246382092e-04
4.21063392857143e+00 5.29273639715251e-02 6.21320793406651e-04
4.22597321428571e+00 5.26020744136503e-02 6.18625938815728e-04
4.24131250000000e+00 5.22787840726530e-02 6.15938714969452e-04
4.25665178571429e+00 5.19574806621754e-02 6.13259153208789e-04
4.27199107142857e+00 5.16381519698715e-02 6.10587283914208e-04
4.28733035714286e+00 5.13207858599357e-02 6.07923136478870e-04
4.30266964285714e+00 5.10053702696805e-02 6.05266739705744e-04
4.31800892857143e+00 5.06918932112908e-02 6.02618120420490e-04
4.33334821428571e+00 5.03803427713418e-02 5.99977305561136e-04
4.34868750000000e+00 5.00707071081975e-02 5.97344320828208e-04
4.36402678571429e+00 4.97629744544160e-02 5.94719191010197e-04
4.37936607142857e+00 4.94571331134766e-02 5.92101940038281e-04
4.39470535714286e+00 4.91531714621314e-02 5.89492590960443e-04
4.41004464285714e+00 4.88510779471967e-02 5.86891166316066e-04
4.42538392857143e+00 4.85508410871815e-02 5.84297686823117e-04
4.44072321428571e+00 4.82524494718263e-02 5.81712173354371e-04
4.45606250000000e+00 4.79558917596623e-02 5.79134645659524e-04
4.47140178571429e+00 4.76611566802475e-02 5.76565122672781e-04
4.48674107142857e+00 4.73682330310985e-02 5.74003622563663e-04
4.50208035714286e+00 4.70771096798778e-02 5.71450162711824e-04
4.51741964285714e+00 4.67877755613842e-02 5.68904760061004e-04
4.53275892857143e+00 4.65002196790655e-02 5.66367429876110e-04
4.54809821428571e+00 4.62144311045773e-02 5.63838187612612e-04
4.56343750000000e+00 4.59303989754907e-02 5.61317047706716e-04
4.57877678571429e+00 4.56481124973738e-02 5.58804023865816e-04
4.59411607142857e+00 4.53675609409124e-02 5.56299129115833e-04
4.60945535714286e+00 4.50887336439464e-02 5.53802375777061e-04
4.62479464285714e+00 4.48116200086452e-02 5.51313775798438e-04
4.64013392857143e+00 4.45362095029133e-02 5.48833339580568e-04
4.65547321428571e+00 4.42624916599680e-02 5.46361077744705e-04
4.67081250000000e+00 4.39904560761862e-02 5.43896999986898e-04
4.68615178571429e+00 4.37200924130422e-02 5.41441115352502e-04
4.70149107142857e+00 4.34513903944049e-02 5.38993432280395e-04
4.71683035714286e+00 4.31843398084341e-02 5.36553958579696e-04
4.73216964285714e+00 4.29189305049283e-02 5.34122701745628e-04
4.74750892857143e+00 4.26551523966317e-02 5.31699667844718e-04
4.76284821428571e+00 4.23929954588298e-02 5.29284863189147e-04
4.77818750000000e+00 4.21324497273256e-02 5.26878293251350e-04
4.79352678571429e+00 4.18735053002451e-02 5.24479962923553e-04
4.80886607142857e+00 4.16161523354979e-02 5.22089876559048e-04
4.82420535714286e+00 4.13603810525449e-02 5.19708037949799e-04
4.83954464285714e+00 4.11061817299066e-02 5.17334450624992e-04
