Energy (eV)          EEDF (eV^-(3/2))     First Anisotropy
4.11111111111111e-03 2.18229717357829e+00 1.54268367815099e-03
1.23333333333333e-02 2.15450135022004e+00 2.53972416391722e-03
2.05555555555556e-02 2.12705956109277e+00 3.33242613856925e-03
2.87777777777778e-02 2.09996729673089e+00 3.92243788859583e-03
3.70000000000000e-02 2.07322010538810e+00 4.40451361816324e-03
4.52222222222222e-02 2.04681359186466e+00 4.81479826629051e-03
5.34444444444444e-02 2.02074341695455e+00 5.17215523245882e-03
6.16666666666667e-02 1.99500529668236e+00 5.48806928230175e-03
6.98888888888889e-02 1.96959500173116e+00 5.77021877098301e-03
7.81111111111111e-02 1.94450835660104e+00 6.02407366371478e-03
8.63333333333333e-02 1.91974123897533e+00 6.25371469243245e-03
9.45555555555556e-02 1.89528957904506e+00 6.46229511322004e-03
1.02777777777778e-01 1.87114935881560e+00 6.65231999032426e-03
1.11000000000000e-01 1.84731661149537e+00 6.82582459086486e-03
1.19222222222222e-01 1.82378742087786e+00 6.98449343489258e-03
1.27444444444444e-01 1.80055792056548e+00 7.12974262634879e-03
1.35666666666667e-01 1.77762429324492e+00 7.26277846262323e-03
1.43888888888889e-01 1.75498277057105e+00 7.38464033496787e-03
1.52111111111111e-01 1.73262963201411e+00 7.49623277645736e-03
1.60333333333333e-01 1.71056120443113e+00 7.59834980127340e-03
1.68555555555556e-01 1.68877386146745e+00 7.69169380167217e-03
1.76777777777778e-01 1.66726402284008e+00 7.77689034623876e-03
1.85000000000000e-01 1.64602815411186e+00 7.85450000627480e-03
1.93222222222222e-01 1.62506276573625e+00 7.92502788730876e-03
2.01444444444444e-01 1.60436441261359e+00 7.98893135062018e-03
2.09666666666667e-01 1.58392969343082e+00 8.04662636614369e-03
2.17888888888889e-01 1.56375525039266e+00 8.09849281454519e-03
2.26111111111111e-01 1.54383776837100e+00 8.14487892470176e-03
2.34333333333333e-01 1.52417397446170e+00 8.18610496956837e-03
2.42555555555556e-01 1.50476063744877e+00 8.22246644333173e-03
2.50777777777778e-01 1.48559456719873e+00 8.25423673752475e-03
2.59000000000000e-01 1.46667261436191e+00 8.28166947496866e-03
2.67222222222222e-01 1.44799166962368e+00 8.30500052802359e-03
2.75444444444444e-01 1.42954866327281e+00 8.32444974049741e-03
2.83666666666667e-01 1.41134056463537e+00 8.34022243281081e-03
2.91888888888889e-01 1.39336438176619e+00 8.35251074601415e-03
3.00111111111111e-01 1.37561716076311e+00 8.36149482649987e-03
3.08333333333333e-01 1.35809598534733e+00 8.36734383926880e-03
3.16555555555556e-01 1.34079797638522e+00 8.37021689897810e-03
3.24777777777778e-01 1.32372029136411e+00 8.37026386951497e-03
3.33000000000000e-01 1.30686012407963e+00 8.36762610616118e-03
3.41222222222222e-01 1.29021470401687e+00 8.36243712202777e-03
3.49444444444444e-01 1.27378129594893e+00 8.35482316293232e-03
3.57666666666667e-01 1.25755719944395e+00 8.34490372783289e-03
3.65888888888889e-01 1.24153974855465e+00 8.33279205919880e-03
3.74111111111111e-01 1.22572631124418e+00 8.31859558854924e-03
3.82333333333333e-01 1.21011428899960e+00 8.30241631430938e-03
3.90555555555556e-01 1.19470111640547e+00 8.28435117180575e-03
3.98777777777778e-01 1.17948426068541e+00 8.26449234728879e-03
4.07000000000000e-01 1.16446122139751e+00 8.24292758790314e-03
4.15222222222222e-01 1.14962952990974e+00 8.21974048674853e-03
4.23444444444444e-01 1.13498674903295e+00 8.19501072514862e-03
4.31666666666667e-01 1.12053047258832e+00 8.16881429737431e-03
4.39888888888889e-01 1.10625832511007e+00 8.14122373412051e-03
4.48111111111111e-01 1.09216796135516e+00 8.11230830967571e-03
4.56333333333333e-01 1.07825706595167e+00 8.08213421161492e-03
4.64555555555556e-01 1.06452335301871e+00 8.05076471919732e-03
4.72777777777778e-01 1.05096456576308e+00 8.01826034944895e-03
4.81000000000000e-01 1.03757847619220e+00 7.98467901166085e-03
4.89222222222222e-01 1.02436288466280e+00 7.95007615184620e-03
4.97444444444444e-01 1.01131561954838e+00 7.91450487130102e-03
5.05666666666667e-01 9.98434536858012e-01 7.87801603870951e-03
5.13888888888889e-01 9.85717519958443e-01 7.84065840839994e-03
5.22111111111111e-01 9.73162479150575e-01 7.80247873155968e-03
5.30333333333333e-01 9.60767351351616e-01 7.76352184227656e-03
5.38555555555556e-01 9.48530099756312e-01 7.72383075575997e-03
5.46777777777778e-01 9.36448713480973e-01 7.68344674437550e-03
5.55000000000000e-01 9.24521207297446e-01 7.64240942470804e-03
5.63222222222222e-01 9.12745621241441e-01 7.60075683996792e-03
5.71444444444445e-01 9.01120020312668e-01 7.55852552423337e-03
5.79666666666667e-01 8.89642494137918e-01 7.51575056421857e-03
5.87888888888889e-01 8.78311156714917e-01 7.47246566883517e-03
5.96111111111111e-01 8.67124146043720e-01 7.42870323532133e-03
6.04333333333333e-01 8.56079623840522e-01 7.38449439662028e-03
6.12555555555556e-01 8.45175775235759e-01 7.33986908085520e-03
6.20777777777778e-01 8.34410808459193e-01 7.29485605408298e-03
6.29000000000000e-01 8.23782954595982e-01 7.24948297390502e-03
6.37222222222222e-01 8.13290467244738e-01 7.20377644068586e-03
6.45444444444444e-01 8.02931622247923e-01 7.15776203495596e-03
6.53666666666667e-01 7.92704717393563e-01 7.11146435394066e-03
6.61888888888889e-01 7.82608072181128e-01 7.06490705576884e-03
6.70111111111111e-01 7.72640027499103e-01 7.01811290185295e-03
6.78333333333333e-01 7.62798945367955e-01 6.97110378450058e-03
6.86555555555556e-01 7.53083208671095e-01 6.92390076554072e-03
6.94777777777778e-01 7.43491220875874e-01 6.87652410169198e-03
7.03000000000000e-01 7.34021405811404e-01 6.82899327981265e-03
7.11222222222222e-01 7.24672207368801e-01 6.78132705082444e-03
7.19444444444444e-01 7.15442089259286e-01 6.73354345263911e-03
7.27666666666667e-01 7.06329534749754e-01 6.68565983290011e-03
7.35888888888889e-01 6.97333046449993e-01 6.63769287874600e-03
7.44111111111111e-01 6.88451146029654e-01 6.58965864553392e-03
7.52333333333333e-01 6.79682373987780e-01 6.54157257355714e-03
7.60555555555556e-01 6.71025289413061e-01 6.49344951448425e-03
7.68777777777778e-01 6.62478469736387e-01 6.44530374697470e-03
7.77000000000000e-01 6.54040510529398e-01 6.39714900102803e-03
7.85222222222222e-01 6.45710025240939e-01 6.34899848155596e-03
7.93444444444445e-01 6.37485644980302e-01 6.30086488296135e-03
8.01666666666667e-01 6.29366018282604e-01 6.25276040383469e-03
8.09888888888889e-01 6.21349810916166e-01 6.20469676788777e-03
8.18111111111111e-01 6.13435705633404e-01 6.15668524426315e-03
8.26333333333333e-01 6.05622401964433e-01 6.10873665789674e-03
8.34555555555556e-01 5.97908616003429e-01 6.06086140835173e-03
8.42777777777778e-01 5.90293080188989e-01 6.01306947965800e-03
8.51000000000000e-01 5.82774543122080e-01 5.96537045777565e-03
8.59222222222222e-01 5.75351769333812e-01 5.91777354758280e-03
8.67444444444444e-01 5.68023539091411e-01 5.87028758238591e-03
8.75666666666667e-01 5.60788648189892e-01 5.82292103367524e-03
8.83888888888889e-01 5.53645907778199e-01 5.77568202634859e-03
8.92111111111111e-01 5.46594144139508e-01 5.72857835354557e-03
9.00333333333333e-01 5.39632198506553e-01 5.68161748313785e-03
9.08555555555556e-01 5.32758926871266e-01 5.63480657156362e-03
9.16777777777778e-01 5.25973199789686e-01 5.58815247009890e-03
9.25000000000000e-01 5.19273902217855e-01 5.54166173775088e-03
9.33222222222222e-01 5.12659933306821e-01 5.49534065385047e-03
9.41444444444445e-01 5.06130206229099e-01 5.44919522435686e-03
9.49666666666667e-01 4.99683647993596e-01 5.40323118845316e-03
9.57888888888889e-01 4.93319199289011e-01 5.35745402990720e-03
9.66111111111111e-01 4.87035814289789e-01 5.31186898818293e-03
9.74333333333333e-01 4.80832460490993e-01 5.26648106249202e-03
9.82555555555556e-01 4.74708118538678e-01 5.22129502220029e-03
9.90777777777778e-01 4.68661782056537e-01 5.17631541082406e-03
9.99000000000000e-01 4.62692457498233e-01 5.13154655462541e-03
1.00722222222222e+00 4.56799163971778e-01 5.08699257336578e-03
1.01544444444444e+00 4.50980933078418e-01 5.04265739676439e-03
1.02366666666667e+00 4.45236808694499e-01 4.99854473633596e-03
1.03188888888889e+00 4.39565846983121e-01 4.95465811324415e-03
1.04011111111111e+00 4.33967116074037e-01 4.91100088879854e-03
1.04833333333333e+00 4.28439695966074e-01 4.86757623545567e-03
1.05655555555556e+00 4.22982678376231e-01 4.82438716454698e-03
1.06477777777778e+00 4.17595166541942e-01 4.78143650106328e-03
1.07300000000000e+00 4.12276275220471e-01 4.73872690978794e-03
1.08122222222222e+00 4.07025130394858e-01 4.69626092172003e-03
1.08944444444444e+00 4.01840869180481e-01 4.65404091659137e-03
1.09766666666667e+00 3.96722639638709e-01 4.61206910968850e-03
1.10588888888889e+00 3.91669600772247e-01 4.57034757604055e-03
1.11411111111111e+00 3.86680922249921e-01 4.52887827488929e-03
1.12233333333333e+00 3.81755784316361e-01 4.48766302406214e-03
1.13055555555556e+00 3.76893377657506e-01 4.44670352317584e-03
1.13877777777778e+00 3.72092903227232e-01 4.40600133127025e-03
1.14700000000000e+00 3.67353572238282e-01 4.36555788870289e-03
1.15522222222222e+00 3.62674605908923e-01 4.32537453932680e-03
1.16344444444444e+00 3.58055235376747e-01 4.28545251487515e-03
1.17166666666667e+00 3.53494701535146e-01 4.24579292303778e-03
1.17988888888889e+00 3.48992255021497e-01 4.20639676778500e-03
1.18811111111111e+00 3.44547155979726e-01 4.16726496996291e-03
1.19633333333333e+00 3.40158673977201e-01 4.12839834471384e-03
1.20455555555556e+00 3.35826087884876e-01 4.08979762102269e-03
1.21277777777778e+00 3.31548685725012e-01 4.05146342194976e-03
1.22100000000000e+00 3.27325764656418e-01 4.01339628309033e-03
1.22922222222222e+00 3.23156630755496e-01 3.97559667130114e-03
1.23744444444444e+00 3.19040598937137e-01 3.93806497082191e-03
1.24566666666667e+00 3.14976992810980e-01 3.90080147256979e-03
1.25388888888889e+00 3.10965144664884e-01 3.86380639131337e-03
1.26211111111111e+00 3.07004395259460e-01 3.82707988310172e-03
1.27033333333333e+00 3.03094093751965e-01 3.79062202540536e-03
1.27855555555556e+00 2.99233597589488e-01 3.75443283366887e-03
1.28677777777778e+00 2.95422272375005e-01 3.71851224387895e-03
1.29500000000000e+00 2.91659491848961e-01 3.68286012820598e-03
1.30322222222222e+00 2.87944637699521e-01 3.64747631089378e-03
1.31144444444444e+00 2.84277099490271e-01 3.61236055596369e-03
1.31966666666667e+00 2.80656274533700e-01 3.57751255764954e-03
1.32788888888889e+00 2.77081567871725e-01 3.54293195497752e-03
1.33611111111111e+00 2.73552392097428e-01 3.50861834658136e-03
1.34433333333333e+00 2.70068167285626e-01 3.47457127325343e-03
1.35255555555556e+00 2.66628320897676e-01 3.44079023202142e-03
1.36077777777778e+00 2.63232287663507e-01 3.40727466079609e-03
1.36900000000000e+00 2.59879509561034e-01 3.37402395168016e-03
1.37722222222222e+00 2.56569435651321e-01 3.34103746450441e-03
1.38544444444444e+00 2.53301522012727e-01 3.30831451595525e-03
1.39366666666667e+00 2.50075231629411e-01 3.27585437105796e-03
1.40188888888889e+00 2.46890034370203e-01 3.24365625560077e-03
1.41011111111111e+00 2.43745406833600e-01 3.21171936877428e-03
1.41833333333333e+00 2.40640832284606e-01 3.18004286784736e-03
1.42655555555556e+00 2.37575800569905e-01 3.14862588018091e-03
1.43477777777778e+00 2.34549808013845e-01 3.11746748971726e-03
1.44300000000000e+00 2.31562357396762e-01 3.08656674834297e-03
1.45122222222222e+00 2.28612957811488e-01 3.05592268745768e-03
1.45944444444444e+00 2.25701124603523e-01 3.02553430837246e-03
1.46766666666667e+00 2.22826379272692e-01 2.99540057474349e-03
1.47588888888889e+00 2.19988249451279e-01 2.96552042319343e-03
1.48411111111111e+00 2.17186268768996e-01 2.93589277412683e-03
1.49233333333333e+00 2.14419976795661e-01 2.90651651827439e-03
1.50055555555556e+00 2.11688918965613e-01 2.87739052697636e-03
1.50877777777778e+00 2.08992646485911e-01 2.84851364029701e-03
1.51700000000000e+00 2.06330716314343e-01 2.81988467675414e-03
1.52522222222222e+00 2.03702691034287e-01 2.79150244323363e-03
1.53344444444444e+00 2.01108138800477e-01 2.76336572651699e-03
1.54166666666667e+00 1.98546633252185e-01 2.73547328656968e-03
1.54988888888889e+00 1.96017753491296e-01 2.70782386564520e-03
1.55811111111111e+00 1.93521083964459e-01 2.68041619756389e-03
1.56633333333333e+00 1.91056214411186e-01 2.65324899589716e-03
1.57455555555556e+00 1.88622739796489e-01 2.62632096279188e-03
1.58277777777778e+00 1.86220260229804e-01 2.59963077851592e-03
1.59100000000000e+00 1.83848380943229e-01 2.57317710980928e-03
1.59922222222222e+00 1.81506712182211e-01 2.54695861840108e-03
1.60744444444444e+00 1.79194869156488e-01 2.52097395353636e-03
1.61566666666667e+00 1.76912471963371e-01 2.49522174602940e-03
1.62388888888889e+00 1.74659145566239e-01 2.46970061608502e-03
1.63211111111111e+00 1.72434519691533e-01 2.44440918127616e-03
1.64033333333333e+00 1.70238228781831e-01 2.41934604616653e-03
1.64855555555556e+00 1.68069911935827e-01 2.39450980989949e-03
1.65677777777778e+00 1.65929212836666e-01 2.36989905700185e-03
1.66500000000000e+00 1.63815779730797e-01 2.34551236456691e-03
1.67322222222222e+00 1.61729265332353e-01 2.32134830958585e-03
1.68144444444444e+00 1.59669326778836e-01 2.29740546235741e-03
1.68966666666667e+00 1.57635625563282e-01 2.27368238122247e-03
1.69788888888889e+00 1.55627827513503e-01 2.25017761929634e-03
1.70611111111111e+00 1.53645602701922e-01 2.22688973134137e-03
1.71433333333333e+00 1.51688625403221e-01 2.20381726465029e-03
1.72255555555556e+00 1.49756574040853e-01 2.18095876558403e-03
1.73077777777778e+00 1.47849131123654e-01 2.15831277148194e-03
1.73900000000000e+00 1.45965983225582e-01 2.13587781685109e-03
1.74722222222222e+00 1.44106820901953e-01 2.11365243968813e-03
1.75544444444444e+00 1.42271338649472e-01 2.09163517566790e-03
1.76366666666667e+00 1.40459234846217e-01 2.06982455348357e-03
1.77188888888889e+00 1.38670211731835e-01 2.04821910065167e-03
1.78011111111111e+00 1.36903975328527e-01 2.02681734944190e-03
1.78833333333333e+00 1.35160235402867e-01 2.00561782886573e-03
1.79655555555556e+00 1.33438705418134e-01 1.98461907031837e-03
1.80477777777778e+00 1.31739102478225e-01 1.96381960046012e-03
1.81300000000000e+00 1.30061147308423e-01 1.94321794655829e-03
1.82122222222222e+00 1.28404564181956e-01 1.92281264194685e-03
1.82944444444444e+00 1.26769080883972e-01 1.90260222090165e-03
1.83766666666667e+00 1.25154428658421e-01 1.88258521451747e-03
1.84588888888889e+00 1.23560342189336e-01 1.86276015572113e-03
1.85411111111111e+00 1.21986559531515e-01 1.84312558439547e-03
1.86233333333333e+00 1.20432822076130e-01 1.82368004033669e-03
1.87055555555556e+00 1.18898874508256e-01 1.80442206812992e-03
1.87877777777778e+00 1.17384464757212e-01 1.78535021088384e-03
1.88700000000000e+00 1.15889343978462e-01 1.76646301484745e-03
1.89522222222222e+00 1.14413266489147e-01 1.74775903413146e-03
1.90344444444444e+00 1.12955989735664e-01 1.72923682618891e-03
1.91166666666667e+00 1.11517274246621e-01 1.71089494816744e-03
1.91988888888889e+00 1.10096883615275e-01 1.69273196124418e-03
1.92811111111111e+00 1.08694584438664e-01 1.67474643505956e-03
1.93633333333333e+00 1.07310146286660e-01 1.65693694152349e-03
1.94455555555556e+00 1.05943341664124e-01 1.63930205903421e-03
1.95277777777778e+00 1.04593945966919e-01 1.62184036696234e-03
1.96100000000000e+00 1.03261737464995e-01 1.60455044964578e-03
1.96922222222222e+00 1.01946497245746e-01 1.58743090047785e-03
1.97744444444444e+00 1.00648009184848e-01 1.57048031792067e-03
1.98566666666667e+00 9.93660599045807e-02 1.55369730227838e-03
1.99388888888889e+00 9.81004387574549e-02 1.53708045945015e-03
2.00211111111111e+00 9.68509377727088e-02 1.52062840477078e-03
2.01033333333333e+00 9.56173516284882e-02 1.50433975756168e-03
2.01855555555556e+00 9.43994776181241e-02 1.48821314478552e-03
2.02677777777778e+00 9.31971156111516e-02 1.47224719618844e-03
2.03500000000000e+00 9.20100680375878e-02 1.45644054776093e-03
2.04322222222222e+00 9.08381398381206e-02 1.44079184528129e-03
2.05144444444444e+00 8.96811384379009e-02 1.42529974079829e-03
2.05966666666667e+00 8.85388737096045e-02 1.40996288977683e-03
2.06788888888889e+00 8.74111579582415e-02 1.39477995435034e-03
2.07611111111111e+00 8.62978058740917e-02 1.37974960665131e-03
2.08433333333333e+00 8.51986345077109e-02 1.36487052401556e-03
2.09255555555556e+00 8.41134632398819e-02 1.35014139215135e-03
2.10077777777778e+00 8.30421137470597e-02 1.33556090085993e-03
2.10900000000000e+00 8.19844099868219e-02 1.32112774703663e-03
2.11722222222222e+00 8.09401781540324e-02 1.30684063774532e-03
2.12544444444444e+00 7.99092466573045e-02 1.29269828711441e-03
2.13366666666667e+00 7.88914460862512e-02 1.27869941381163e-03
2.14188888888889e+00 7.78866091974528e-02 1.26484274386570e-03
2.15011111111111e+00 7.68945708730232e-02 1.25112701355684e-03
2.15833333333333e+00 7.59151680981715e-02 1.23755096519442e-03
2.16655555555556e+00 7.49482399344252e-02 1.22411334986776e-03
2.17477777777778e+00 7.39936274889895e-02 1.21081292367486e-03
2.18300000000000e+00 7.30511739013343e-02 1.19764845032719e-03
2.19122222222222e+00 7.21207243045883e-02 1.18461870381958e-03
2.19944444444444e+00 7.12021258044137e-02 1.17172246569021e-03
2.20766666666667e+00 7.02952274499610e-02 1.15895852278653e-03
2.21588888888889e+00 6.93998802209519e-02 1.14632566971495e-03
2.22411111111111e+00 6.85159369911796e-02 1.13382271135203e-03
2.23233333333333e+00 6.76432525083737e-02 1.12144845912556e-03
2.24055555555556e+00 6.67816833703408e-02 1.10920173340406e-03
2.24877777777778e+00 6.59310879977856e-02 1.09708136017234e-03
2.25700000000000e+00 6.50913266219864e-02 1.08508617329421e-03
2.26522222222222e+00 6.42622612507736e-02 1.07321501683279e-03
2.27344444444444e+00 6.34437556495783e-02 1.06146674263141e-03
2.28166666666667e+00 6.26356753156661e-02 1.04984020833655e-03
2.28988888888889e+00 6.18378874662823e-02 1.03833427952664e-03
2.29811111111111e+00 6.10502610064785e-02 1.02694783189516e-03
2.30633333333333e+00 6.02726665110534e-02 1.01567974797387e-03
2.31455555555556e+00 5.95049762032938e-02 1.00452891921017e-03
2.32277777777778e+00 5.87470639308591e-02 9.93494243035590e-04
2.33100000000000e+00 5.79988051544885e-02 9.82574624832862e-04
2.33922222222222e+00 5.72600769180022e-02 9.71768979953966e-04
2.34744444444444e+00 5.65307578313080e-02 9.61076231583538e-04
2.35566666666667e+00 5.58107280475377e-02 9.50495308989264e-04
2.36388888888889e+00 5.50998692521963e-02 9.40025149373047e-04
2.37211111111111e+00 5.43980646347856e-02 9.29664699770159e-04
2.38033333333333e+00 5.37051988726147e-02 9.19412914161187e-04
2.38855555555556e+00 5.30211581118566e-02 9.09268755279237e-04
2.39677777777778e+00 5.23458299461469e-02 8.99231192024115e-04
2.40500000000000e+00 5.16791034062615e-02 8.89299201173461e-04
2.41322222222222e+00 5.10208689336488e-02 8.79471769139146e-04
2.42144444444444e+00 5.03710183652002e-02 8.69747890079777e-04
2.42966666666667e+00 4.97294449129567e-02 8.60126564352141e-04
2.43788888888889e+00 4.90960431541992e-02 8.50606800121868e-04
2.44611111111111e+00 4.84707090064083e-02 8.41187615016692e-04
2.45433333333333e+00 4.78533397127567e-02 8.31868033580255e-04
2.46255555555556e+00 4.72438338252296e-02 8.22647088845135e-04
2.47077777777778e+00 4.66420911856273e-02 8.13523820051309e-04
2.47900000000000e+00 4.60480129161492e-02 8.04497274135698e-04
2.48722222222222e+00 4.54615013960316e-02 7.95566507261635e-04
2.49544444444444e+00 4.48824602479026e-02 7.86730583151050e-04
2.50366666666667e+00 4.43107943197659e-02 7.77988571713566e-04
2.51188888888889e+00 4.37464096759702e-02 7.69339550448851e-04
2.52011111111111e+00 4.31892135751008e-02 7.60782605886766e-04
2.52833333333333e+00 4.26391144569845e-02 7.52316831341570e-04
2.53655555555556e+00 4.20960219276485e-02 7.43941328282095e-04
2.54477777777778e+00 4.15598467424539e-02 7.35655204318132e-04
2.55300000000000e+00 4.10305007975227e-02 7.27457574497637e-04
2.56122222222222e+00 4.05078971091061e-02 7.19347562639519e-04
2.56944444444444e+00 3.99919498013637e-02 7.11324299859555e-04
2.57766666666667e+00 3.94825740903666e-02 7.03386923356497e-04
2.58588888888889e+00 3.89796862758810e-02 6.95534577633754e-04
2.59411111111111e+00 3.84832037218404e-02 6.87766415754474e-04
