Energy (eV)          EEDF (eV^-(3/2))     First Anisotropy
7.13333333333333e-02 7.22651039729725e-02 6.93765209850506e-05
2.14000000000000e-01 7.06208099514993e-02 1.13639054560054e-04
3.56666666666667e-01 6.90139296085770e-02 1.47595383730117e-04
4.99333333333333e-01 6.74436116379190e-02 1.71964776432304e-04
6.42000000000000e-01 6.59090241128054e-02 1.91140432038893e-04
7.84666666666667e-01 6.44093540383978e-02 2.06825405114957e-04
9.27333333333333e-01 6.29438069133685e-02 2.19921921334663e-04
1.07000000000000e+00 6.15116063165534e-02 2.30987105644914e-04
1.21266666666667e+00 6.01119934978594e-02 2.40398422185822e-04
1.35533333333333e+00 5.87442269588872e-02 2.48428141351412e-04
1.49800000000000e+00 5.74075820812730e-02 2.55281746245857e-04
1.64066666666667e+00 5.61013507432112e-02 2.61119717180088e-04
1.78333333333333e+00 5.48248409175900e-02 2.66070786497324e-04
1.92600000000000e+00 5.35773763320897e-02 2.70240457475244e-04
2.06866666666667e+00 5.23582961084196e-02 2.73716727709229e-04
2.21133333333333e+00 5.11669543929394e-02 2.76574069817341e-04
2.35400000000000e+00 5.00027200338204e-02 2.78876286098387e-04
2.49666666666667e+00 4.88649762450768e-02 2.80678611436699e-04
2.63933333333333e+00 4.77531202651542e-02 2.82029292408648e-04
2.78200000000000e+00 4.66665630523271e-02 2.82970797604322e-04
2.92466666666667e+00 4.56047289715244e-02 2.83540763481749e-04
3.06733333333333e+00 4.45670554778255e-02 2.83772740710273e-04
3.21000000000000e+00 4.35529928300574e-02 2.83696792525913e-04
3.35266666666667e+00 4.25620037987346e-02 2.83339982334861e-04
3.49533333333333e+00 4.15935633721237e-02 2.82726771864818e-04
3.63800000000000e+00 4.06471584874981e-02 2.81879350912506e-04
3.78066666666667e+00 3.97222877587034e-02 2.80817914741814e-04
3.92333333333333e+00 3.88184612028649e-02 2.79560896211390e-04
4.06600000000000e+00 3.79351999885390e-02 2.78125162802377e-04
4.20866666666667e+00 3.70720361815485e-02 2.76526186641598e-04
4.35133333333333e+00 3.62285124906818e-02 2.74778189333869e-04
4.49400000000000e+00 3.54041820318871e-02 2.72894267273111e-04
4.63666666666667e+00 3.45986080911296e-02 2.70886502099747e-04
4.77933333333333e+00 3.38113638876292e-02 2.68766056016412e-04
4.92200000000000e+00 3.30420323532137e-02 2.66543255528579e-04
5.06466666666667e+00 3.22902059110433e-02 2.64227666622889e-04
5.20733333333333e+00 3.15554862550864e-02 2.61828160239791e-04
5.35000000000000e+00 3.08374841437505e-02 2.59352970515121e-04
5.49266666666667e+00 3.01358191934049e-02 2.56809747920908e-04
5.63533333333333e+00 2.94501196729140e-02 2.54205605837336e-04
5.77800000000000e+00 2.87800223106902e-02 2.51547162407553e-04
5.92066666666667e+00 2.81251721020188e-02 2.48840579290757e-04
6.06333333333333e+00 2.74852221175730e-02 2.46091595758931e-04
6.20600000000000e+00 2.68598333230652e-02 2.43305559602208e-04
6.34866666666667e+00 2.62486743994460e-02 2.40487456132600e-04
6.49133333333333e+00 2.56514215644156e-02 2.37641933754378e-04
6.63400000000000e+00 2.50677584038860e-02 2.34773327307350e-04
6.77666666666667e+00 2.44973757041912e-02 2.31885680251532e-04
6.91933333333333e+00 2.39399712856869e-02 2.28982764234060e-04
7.06200000000000e+00 2.33952498452762e-02 2.26068097059894e-04
7.20466666666667e+00 2.28629227998275e-02 2.23144959975224e-04
7.34733333333333e+00 2.23427081310225e-02 2.20216412897568e-04
7.49000000000000e+00 2.18343302382410e-02 2.17285308475181e-04
7.63266666666667e+00 2.13375197924353e-02 2.14354305763426e-04
7.77533333333333e+00 2.08520135914510e-02 2.11425882251678e-04
7.91800000000000e+00 2.03775544226052e-02 2.08502345014211e-04
8.06066666666667e+00 1.99138909263179e-02 2.05585841676896e-04
8.20333333333333e+00 1.94607774611869e-02 2.02678370031938e-04
8.34600000000000e+00 1.90179739756324e-02 1.99781786985552e-04
8.48866666666667e+00 1.85852458806340e-02 1.96897817452110e-04
8.63133333333333e+00 1.81623639238911e-02 1.94028062121407e-04
8.77400000000000e+00 1.77491040699471e-02 1.91174004710086e-04
8.91666666666667e+00 1.73452473814218e-02 1.88337019245316e-04
9.05933333333333e+00 1.69505799016395e-02 1.85518376395870e-04
9.20200000000000e+00 1.65648925426787e-02 1.82719249398871e-04
9.34466666666667e+00 1.61879809745335e-02 1.79940720074536e-04
9.48733333333333e+00 1.58196455156327e-02 1.77183784026072e-04
9.63000000000000e+00 1.54596910282981e-02 1.74449355518847e-04
9.77266666666667e+00 1.51079268153041e-02 1.71738272482948e-04
9.91533333333333e+00 1.47641665177532e-02 1.69051300811787e-04
1.00580000000000e+01 1.44282280174568e-02 1.66389138287796e-04
1.02006666666667e+01 1.40999333413475e-02 1.63752419234681e-04
1.03433333333333e+01 1.37791085624004e-02 1.61141717620304e-04
1.04860000000000e+01 1.34655837133337e-02 1.58557549851170e-04
1.06286666666667e+01 1.31591926971250e-02 1.56000379897328e-04
1.07713333333333e+01 1.28597731902399e-02 1.53470621368528e-04
1.09140000000000e+01 1.25671665655276e-02 1.50968639336689e-04
1.10566666666667e+01 1.22812178077681e-02 1.48494755253028e-04
1.11993333333333e+01 1.20017754236808e-02 1.46049248499629e-04
1.13420000000000e+01 1.17286913696375e-02 1.43632357844247e-04
1.14846666666667e+01 1.14618209728641e-02 1.41244285741204e-04
1.16273333333333e+01 1.12010228477291e-02 1.38885199565471e-04
1.17700000000000e+01 1.09461588280007e-02 1.36555232770482e-04
1.19126666666667e+01 1.06970938933198e-02 1.34254488663432e-04
1.20553333333333e+01 1.04536960913147e-02 1.31983041382240e-04
1.21980000000000e+01 1.02158364741350e-02 1.29740936812384e-04
1.23406666666667e+01 9.98338902984293e-03 1.27528195911192e-04
1.24833333333333e+01 9.75623060993392e-03 1.25344815475767e-04
1.26260000000000e+01 9.53424086989289e-03 1.23190768863574e-04
1.27686666666667e+01 9.31730220517574e-03 1.21066008927631e-04
1.29113333333333e+01 9.10529968374583e-03 1.18970468613994e-04
1.30540000000000e+01 8.89812099041368e-03 1.16904061522031e-04
1.31966666666667e+01 8.69565636709923e-03 1.14866684502350e-04
1.33393333333333e+01 8.49779855002756e-03 1.12858218114972e-04
1.34820000000000e+01 8.30444271762228e-03 1.10878527058403e-04
1.36246666666667e+01 8.11548643476191e-03 1.08927462473965e-04
1.37673333333333e+01 7.93082959430395e-03 1.07004862289937e-04
1.39100000000000e+01 7.75037436831507e-03 1.05110551543098e-04
1.40526666666667e+01 7.57402515605399e-03 1.03244344426521e-04
1.41953333333333e+01 7.40168852951792e-03 1.01406044540302e-04
1.43380000000000e+01 7.23327318780434e-03 9.95954451249433e-05
1.44806666666667e+01 7.06868990857065e-03 9.78123308842071e-05
1.46233333333333e+01 6.90785149731994e-03 9.60564781593573e-05
1.47660000000000e+01 6.75067274470030e-03 9.43276550902611e-05
1.49086666666667e+01 6.59707038120856e-03 9.26256232404434e-05
1.50513333333333e+01 6.44696302995297e-03 9.09501377087429e-05
1.51940000000000e+01 6.30027116670705e-03 8.93009472312390e-05
1.53366666666667e+01 6.15691707764030e-03 8.76777956318758e-05
1.54793333333333e+01 6.01682481531468e-03 8.60804218830233e-05
1.56220000000000e+01 5.87992016132045e-03 8.45085601590645e-05
1.57646666666667e+01 5.74613058683129e-03 8.29619411328278e-05
1.59073333333333e+01 5.61538521160916e-03 8.14402919945665e-05
1.60500000000000e+01 5.48761476905965e-03 7.99433364661854e-05
1.61926666666667e+01 5.36275156942256e-03 7.84707959610754e-05
1.63353333333333e+01 5.24072946157592e-03 7.70223895694033e-05
1.64780000000000e+01 5.12148380035803e-03 7.55978340404336e-05
1.66206666666667e+01 5.00495141221719e-03 7.41968448211258e-05
1.67633333333333e+01 4.89107055962074e-03 7.28191360142922e-05
1.69060000000000e+01 4.77978091050005e-03 7.14644203352327e-05
1.70486666666667e+01 4.67102350619484e-03 7.01324100425147e-05
1.71913333333333e+01 4.56474072828714e-03 6.88228168744698e-05
1.73340000000000e+01 4.46087627003395e-03 6.75353519853177e-05
1.74766666666667e+01 4.35937510645288e-03 6.62697267799208e-05
1.76193333333333e+01 4.26018346341339e-03 6.50256528331755e-05
1.77620000000000e+01 4.16324879093046e-03 6.38028418099424e-05
1.79046666666667e+01 4.06851973524818e-03 6.26010062141539e-05
1.80473333333333e+01 3.97594611003284e-03 6.14198592948918e-05
1.81900000000000e+01 3.88547887140835e-03 6.02591149537351e-05
1.83326666666667e+01 3.79707009190435e-03 5.91184884173717e-05
1.84753333333333e+01 3.71067293360646e-03 5.79976961335333e-05
1.86180000000000e+01 3.62624162482168e-03 5.68964556687631e-05
1.87606666666667e+01 3.54373143576642e-03 5.58144863126284e-05
1.89033333333333e+01 3.46309865353944e-03 5.47515089661455e-05
1.90460000000000e+01 3.38430056031241e-03 5.37072460324813e-05
1.91886666666667e+01 3.30729541064156e-03 5.26814219599403e-05
1.93313333333333e+01 3.23204240813832e-03 5.16737631250745e-05
1.94740000000000e+01 3.15850168508670e-03 5.06839977183979e-05
1.96166666666667e+01 3.08663428127009e-03 4.97118562325235e-05
1.97593333333333e+01 3.01640212222326e-03 4.87570713417751e-05
1.99020000000000e+01 2.94776800018452e-03 4.78193777846557e-05
2.00446666666667e+01 2.88069555433630e-03 4.68985128027923e-05
2.01873333333333e+01 2.81514925053046e-03 4.59942160185614e-05
2.03300000000000e+01 2.75109436348876e-03 4.51062293157459e-05
2.04726666666667e+01 2.68849695836285e-03 4.42342972343306e-05
2.06153333333333e+01 2.62732387183218e-03 4.33781668473887e-05
2.07580000000000e+01 2.56754269547191e-03 4.25375876411105e-05
2.09006666666667e+01 2.50912175854411e-03 4.17123118699535e-05
2.10433333333333e+01 2.45203011037469e-03 4.09020944338055e-05
2.11860000000000e+01 2.39623750481288e-03 4.01066927583618e-05
2.13286666666667e+01 2.34171438417151e-03 3.93258671146473e-05
2.14713333333333e+01 2.28843186279561e-03 3.85593804972940e-05
2.16140000000000e+01 2.23636171254262e-03 3.78069985060556e-05
2.17566666666667e+01 2.18547634779498e-03 3.70684896332956e-05
2.18993333333333e+01 2.13574881013922e-03 3.63436251440554e-05
2.20420000000000e+01 2.08715275480053e-03 3.56321789593517e-05
2.21846666666667e+01 2.03966243665589e-03 3.49339279148474e-05
2.23273333333333e+01 1.99325269594825e-03 3.42486516432455e-05
2.24700000000000e+01 1.94789894561316e-03 3.35761324598886e-05
2.26126666666667e+01 1.90357715822573e-03 3.29161555954934e-05
2.27553333333333e+01 1.86026385267940e-03 3.22685090813013e-05
2.28980000000000e+01 1.81793608234654e-03 3.16329836373845e-05
2.30406666666667e+01 1.77657142289676e-03 3.10093728820275e-05
2.31833333333333e+01 1.73614795987490e-03 3.03974732199686e-05
2.33260000000000e+01 1.69664427764097e-03 2.97970837337285e-05
2.34686666666667e+01 1.65803944800182e-03 2.92080063719613e-05
2.36113333333333e+01 1.62031301862709e-03 2.86300458410343e-05
2.37540000000000e+01 1.58344500271772e-03 2.80630094996205e-05
2.38966666666667e+01 1.54741586839652e-03 2.75067075281023e-05
2.40393333333333e+01 1.51220652790540e-03 2.69609528236760e-05
2.41820000000000e+01 1.47779832795468e-03 2.64255608983800e-05
2.43246666666667e+01 1.44417303982190e-03 2.59003500314255e-05
2.44673333333333e+01 1.41131284927734e-03 2.53851411679531e-05
2.46100000000000e+01 1.37920034756961e-03 2.48797578206164e-05
2.47526666666667e+01 1.34781852218541e-03 2.43840262065277e-05
2.48953333333333e+01 1.31715074745395e-03 2.38977751497409e-05
2.50380000000000e+01 1.28718077612717e-03 2.34208359864692e-05
2.51806666666667e+01 1.25789273075623e-03 2.29530426881597e-05
2.53233333333333e+01 1.22927109492901e-03 2.24942317677454e-05
2.54660000000000e+01 1.20130070540582e-03 2.20442421885329e-05
2.56086666666667e+01 1.17396674407159e-03 2.16029154747698e-05
2.57513333333333e+01 1.14725472976343e-03 2.11700956216742e-05
2.58940000000000e+01 1.12115051092555e-03 2.07456290079958e-05
2.60366666666667e+01 1.09564025809856e-03 2.03293644953087e-05
2.61793333333333e+01 1.07071045629735e-03 1.99211533417975e-05
2.63220000000000e+01 1.04634789815094e-03 1.95208491184689e-05
2.64646666666667e+01 1.02253967689318e-03 1.91283077982800e-05
2.66073333333333e+01 9.99273179253656e-04 1.87433876736390e-05
2.67500000000000e+01 9.76536079050658e-04 1.83659492762246e-05
2.68926666666667e+01 9.54316330649805e-04 1.79958554569497e-05
2.70353333333333e+01 9.32602162333240e-04 1.76329713071145e-05
2.71780000000000e+01 9.11382070316035e-04 1.72771640817747e-05
2.73206666666667e+01 8.90644812641394e-04 1.69283032714429e-05
2.74633333333333e+01 8.70379402995933e-04 1.65862605268174e-05
2.76060000000000e+01 8.50575105121591e-04 1.62509095856277e-05
2.77486666666667e+01 8.31221427118302e-04 1.59221263368845e-05
2.78913333333333e+01 8.12308115675237e-04 1.55997887490990e-05
2.80340000000000e+01 7.93825150852185e-04 1.52837768005184e-05
2.81766666666667e+01 7.75762740762503e-04 1.49739725366621e-05
2.83193333333333e+01 7.58111316192238e-04 1.46702600019336e-05
2.84620000000000e+01 7.40861525726656e-04 1.43725251731527e-05
2.86046666666667e+01 7.24004230788080e-04 1.40806560110394e-05
2.87473333333333e+01 7.07530500616730e-04 1.37945423951176e-05
2.88900000000000e+01 6.91431607719661e-04 1.35140760604431e-05
2.90326666666667e+01 6.75699023239791e-04 1.32391506436336e-05
2.91753333333333e+01 6.60324412274077e-04 1.29696616209548e-05
2.93180000000000e+01 6.45299629623611e-04 1.27055062481417e-05
2.94606666666667e+01 6.30616715471724e-04 1.24465836015146e-05
2.96033333333333e+01 6.16267891016768e-04 1.21927945191366e-05
2.97460000000000e+01 6.02245554503494e-04 1.19440415436187e-05
2.98886666666667e+01 5.88542277189623e-04 1.17002289588097e-05
3.00313333333333e+01 5.75150799272015e-04 1.14612627339127e-05
3.01740000000000e+01 5.62064026180792e-04 1.12270504691641e-05
3.03166666666667e+01 5.49275024815102e-04 1.09975014285390e-05
3.04593333333333e+01 5.36777019742928e-04 1.07725264867106e-05
3.06020000000000e+01 5.24563389740602e-04 1.05520380774929e-05
3.07446666666667e+01 5.12627664279805e-04 1.03359502229587e-05
3.08873333333333e+01 5.00963519982579e-04 1.01241784831298e-05
3.10300000000000e+01 4.89564777390042e-04 9.91663990707058e-06
3.11726666666667e+01 4.78425397683848e-04 9.71325305877877e-06
3.13153333333333e+01 4.67539479379220e-04 9.51393796949251e-06
3.14580000000000e+01 4.56901255307734e-04 9.31861609132538e-06
3.16006666666667e+01 4.46505089557584e-04 9.12721032025414e-06
3.17433333333333e+01 4.36345474388623e-04 8.93964495093015e-06
3.18860000000000e+01 4.26417027415070e-04 8.75584563274714e-06
3.20286666666667e+01 4.16714488749973e-04 8.57573939021993e-06
3.21713333333333e+01 4.07232718127325e-04 8.39925458018906e-06
3.23140000000000e+01 3.97966692271477e-04 8.22632085021466e-06
3.24566666666667e+01 3.88911502232177e-04 8.05686915661036e-06
3.25993333333333e+01 3.80062350699825e-04 7.89083172393406e-06
3.27420000000000e+01 3.71414549549254e-04 7.72814200560240e-06
3.28846666666667e+01 3.62963517352621e-04 7.56873469981903e-06
3.30273333333333e+01 3.54704776874816e-04 7.41254571124648e-06
3.31700000000000e+01 3.46633952780078e-04 7.25951211373919e-06
3.33126666666667e+01 3.38746769310870e-04 7.10957216438181e-06
3.34553333333333e+01 3.31039047951328e-04 6.96266526723927e-06
3.35980000000000e+01 3.23506705285941e-04 6.81873193810907e-06
3.37406666666667e+01 3.16145750833335e-04 6.67771381686481e-06
3.38833333333333e+01 3.08952284866460e-04 6.53955363318508e-06
3.40260000000000e+01 3.01922496413281e-04 6.40419517322887e-06
3.41686666666667e+01 2.95052661235127e-04 6.27158329045963e-06
3.43113333333333e+01 2.88339139793082e-04 6.14166387325693e-06
3.44540000000000e+01 2.81778375381294e-04 6.01438381342139e-06
3.45966666666667e+01 2.75366892240233e-04 5.88969101563889e-06
3.47393333333333e+01 2.69101293659475e-04 5.76753436688193e-06
3.48820000000000e+01 2.62978260234830e-04 5.64786370665373e-06
3.50246666666667e+01 2.56994548107527e-04 5.53062983523548e-06
3.51673333333333e+01 2.51146987194211e-04 5.41578448478835e-06
3.53100000000000e+01 2.45432479559710e-04 5.30328029125045e-06
3.54526666666667e+01 2.39847997773723e-04 5.19307080149555e-06
3.55953333333333e+01 2.34390583259498e-04 5.08511044605001e-06
3.57380000000000e+01 2.29057344774575e-04 4.97935451255868e-06
3.58806666666667e+01 2.23845456877142e-04 4.87575915197240e-06
3.60233333333333e+01 2.18752158385415e-04 4.77428135279701e-06
3.61660000000000e+01 2.13774750959210e-04 4.67487891604757e-06
3.63086666666667e+01 2.08910597668647e-04 4.57751046056994e-06
3.64513333333333e+01 2.04157121556797e-04 4.48213539874227e-06
3.65940000000000e+01 1.99511804315410e-04 4.38871391284149e-06
3.67366666666667e+01 1.94972184949124e-04 4.29720695959282e-06
3.68793333333333e+01 1.90535858434465e-04 4.20757624724842e-06
3.70220000000000e+01 1.86200474483469e-04 4.11978421329212e-06
3.71646666666667e+01 1.81963736297045e-04 4.03379402830214e-06
3.73073333333333e+01 1.77823399313841e-04 3.94956957433440e-06
3.74500000000000e+01 1.73777270055951e-04 3.86707542389503e-06
3.75926666666667e+01 1.69823204965471e-04 3.78627684319333e-06
3.77353333333333e+01 1.65959109237204e-04 3.70713977176000e-06
3.78780000000000e+01 1.62182935741014e-04 3.62963080262044e-06
3.80206666666667e+01 1.58492683936017e-04 3.55371718500675e-06
3.81633333333333e+01 1.54886398781505e-04 3.47936680514487e-06
3.83060000000000e+01 1.51362169730858e-04 3.40654816756450e-06
3.84486666666667e+01 1.47918129718197e-04 3.33523039733205e-06
3.85913333333333e+01 1.44552454142273e-04 3.26538322194369e-06
3.87340000000000e+01 1.41263359927201e-04 3.19697695371059e-06
3.88766666666667e+01 1.38049104576727e-04 3.12998249156868e-06
3.90193333333333e+01 1.34907985226197e-04 3.06437130401779e-06
3.91620000000000e+01 1.31838337765673e-04 3.00011541252359e-06
3.93046666666667e+01 1.28838535957311e-04 2.93718739295421e-06
3.94473333333333e+01 1.25906990550840e-04 2.87556035950826e-06
3.95900000000000e+01 1.23042148464917e-04 2.81520794907800e-06
3.97326666666667e+01 1.20242491963413e-04 2.75610432235798e-06
3.98753333333333e+01 1.17506537830135e-04 2.69822414870741e-06
4.00180000000000e+01 1.14832836604562e-04 2.64154259142194e-06
4.01606666666667e+01 1.12219971813108e-04 2.58603530855418e-06
4.03033333333333e+01 1.09666559199105e-04 2.53167843865899e-06
4.04460000000000e+01 1.07171246009330e-04 2.47844858692365e-06
4.05886666666667e+01 1.04732710276552e-04 2.42632282573656e-06
4.07313333333333e+01 1.02349660101096e-04 2.37527868126616e-06
4.08740000000000e+01 1.00020832984770e-04 2.32529412040181e-06
4.10166666666667e+01 9.77449951612889e-05 2.27634755110306e-06
4.11593333333333e+01 9.55209409259507e-05 2.22841780976561e-06
4.13020000000000e+01 9.33474920138214e-05 2.18148414892760e-06
4.14446666666667e+01 9.12234969748456e-05 2.13552623742834e-06
4.15873333333333e+01 8.91478305484010e-05 2.09052414851717e-06
4.17300000000000e+01 8.71193930828120e-05 2.04645834828221e-06
4.18726666666667e+01 8.51371099521567e-05 2.00330969564437e-06
4.20153333333333e+01 8.31999309727000e-05 1.96105943116725e-06
4.21580000000000e+01 8.13068298609858e-05 1.91968916616752e-06
4.23006666666667e+01 7.94568036895620e-05 1.87918088256726e-06
4.24433333333333e+01 7.76488723424828e-05 1.83951692236520e-06
4.25860000000000e+01 7.58820780094204e-05 1.80067997739023e-06
4.27286666666667e+01 7.41554846777094e-05 1.76265308903264e-06
4.28713333333333e+01 7.24681776243010e-05 1.72541963833886e-06
4.30140000000000e+01 7.08192629435024e-05 1.68896333637175e-06
4.31566666666667e+01 6.92078670729163e-05 1.65326822383883e-06
4.32993333333333e+01 6.76331363194056e-05 1.61831866177517e-06
4.34420000000000e+01 6.60942364182263e-05 1.58409932247557e-06
4.35846666666667e+01 6.45903520906017e-05 1.55059518903622e-06
4.37273333333333e+01 6.31206866014169e-05 1.51779154659189e-06
4.38700000000000e+01 6.16844613476622e-05 1.48567397378727e-06
4.40126666666667e+01 6.02809154455295e-05 1.45422834224654e-06
4.41553333333333e+01 5.89093053177120e-05 1.42344080833290e-06
4.42980000000000e+01 5.75689043092108e-05 1.39329780512814e-06
4.44406666666667e+01 5.62590023019834e-05 1.36378604184281e-06
4.45833333333333e+01 5.49789053298657e-05 1.33489249606800e-06
4.47260000000000e+01 5.37279352199235e-05 1.30660440623379e-06
4.48686666666667e+01 5.25054292328155e-05 1.27890927097128e-06
4.50113333333333e+01 5.13107397034866e-05 1.25179484182813e-06
