Energy (eV)          EEDF (eV^-(3/2))     First Anisotropy
7.32352941176471e-02 5.76646839205782e-02 5.20887812526211e-05
2.19705882352941e-01 5.65053064638402e-02 8.54359307784047e-05
3.66176470588235e-01 5.53692388739113e-02 1.11265615540011e-04
5.12647058823529e-01 5.42560124916546e-02 1.29987908564172e-04
6.59117647058824e-01 5.31651680862798e-02 1.44874275316709e-04
8.05588235294118e-01 5.20962556563888e-02 1.57187444510583e-04
9.52058823529412e-01 5.10488342484443e-02 1.67593722549288e-04
1.09852941176471e+00 5.00224717714001e-02 1.76503052537254e-04
1.24500000000000e+00 4.90167448266565e-02 1.84192249773902e-04
1.39147058823529e+00 4.80312385343644e-02 1.90860380408952e-04
1.53794117647059e+00 4.70655463401049e-02 1.96657273597421e-04
1.68441176470588e+00 4.61192698717523e-02 2.01699664416976e-04
1.83088235294118e+00 4.51920187665095e-02 2.06081002626329e-04
1.97735294117647e+00 4.42834105100435e-02 2.09877745073695e-04
2.12382352941176e+00 4.33930702786639e-02 2.13153573410549e-04
2.27029411764706e+00 4.25206307886508e-02 2.15962325163390e-04
2.41676470588235e+00 4.16657321324431e-02 2.18350090961242e-04
2.56323529411765e+00 4.08280216428630e-02 2.20356754445937e-04
2.70970588235294e+00 4.00071537432211e-02 2.22017149286380e-04
2.85617647058824e+00 3.92027898048636e-02 2.23361943342123e-04
3.00264705882353e+00 3.84145980100864e-02 2.24418327485122e-04
3.14911764705882e+00 3.76422532070609e-02 2.25210558719407e-04
3.29558823529412e+00 3.68854367841124e-02 2.25760394731680e-04
3.44205882352941e+00 3.61438365353977e-02 2.26087446735035e-04
3.58852941176471e+00 3.54171465321170e-02 2.26209467631468e-04
3.73500000000000e+00 3.47050669963351e-02 2.26142590268013e-04
3.88147058823529e+00 3.40073041791149e-02 2.25901526734701e-04
4.02794117647059e+00 3.33235702337622e-02 2.25499735305803e-04
4.17441176470588e+00 3.26535831027908e-02 2.24949561845188e-04
4.32088235294118e+00 3.19970663996086e-02 2.24262361183968e-04
4.46735294117647e+00 3.13537492945185e-02 2.23448600797513e-04
4.61382352941177e+00 3.07233664029923e-02 2.22517950392879e-04
4.76029411764706e+00 3.01056576774978e-02 2.21479360178897e-04
4.90676470588235e+00 2.95003682962118e-02 2.20341128666048e-04
5.05323529411765e+00 2.89072485619980e-02 2.19110962116426e-04
5.19970588235294e+00 2.83260537979958e-02 2.17796027522307e-04
5.34617647058824e+00 2.77565442467039e-02 2.16402998947118e-04
5.49264705882353e+00 2.71984849720815e-02 2.14938099193249e-04
5.63911764705882e+00 2.66516457595187e-02 2.13407136504242e-04
5.78558823529412e+00 2.61158010240438e-02 2.11815537386806e-04
5.93205882352941e+00 2.55907297161810e-02 2.10168376575870e-04
6.07852941176471e+00 2.50762152307627e-02 2.08470403641576e-04
6.22500000000000e+00 2.45720453175801e-02 2.06726067042962e-04
6.37147058823529e+00 2.40780119945965e-02 2.04939536230567e-04
6.51794117647059e+00 2.35939114597768e-02 2.03114721340719e-04
6.66441176470588e+00 2.31195440094331e-02 2.01255291108573e-04
6.81088235294118e+00 2.26547139550170e-02 1.99364689624043e-04
6.95735294117647e+00 2.21992295423980e-02 1.97446151340437e-04
7.10382352941177e+00 2.17529028727591e-02 1.95502714846720e-04
7.25029411764706e+00 2.13155498256867e-02 1.93537235776796e-04
7.39676470588235e+00 2.08869899813713e-02 1.91552398371348e-04
7.54323529411765e+00 2.04670465480593e-02 1.89550726122239e-04
7.68970588235294e+00 2.00555462884812e-02 1.87534591941859e-04
7.83617647058824e+00 1.96523194483920e-02 1.85506227247967e-04
7.98264705882353e+00 1.92571996870341e-02 1.83467730670849e-04
8.12911764705882e+00 1.88700240070110e-02 1.81421075857559e-04
8.27558823529412e+00 1.84906326885806e-02 1.79368118711533e-04
8.42205882352941e+00 1.81188692232452e-02 1.77310604420693e-04
8.56852941176471e+00 1.77545802491885e-02 1.75250173775034e-04
8.71500000000000e+00 1.73976154880115e-02 1.73188369069950e-04
8.86147058823530e+00 1.70478276831312e-02 1.71126639807343e-04
9.00794117647059e+00 1.67050725378320e-02 1.69066347793991e-04
9.15441176470588e+00 1.63692086569628e-02 1.67008771903657e-04
9.30088235294118e+00 1.60400974881917e-02 1.64955112784524e-04
9.44735294117647e+00 1.57176032648514e-02 1.62906497079678e-04
9.59382352941176e+00 1.54015929499320e-02 1.60863981397443e-04
9.74029411764706e+00 1.50919361815163e-02 1.58828556200254e-04
9.88676470588235e+00 1.47885052180346e-02 1.56801149265152e-04
1.00332352941176e+01 1.44911748865531e-02 1.54782628969517e-04
1.01797058823529e+01 1.41998225305135e-02 1.52773807481800e-04
1.03261764705882e+01 1.39143279597378e-02 1.50775443678108e-04
1.04726470588235e+01 1.36345734005303e-02 1.48788246012902e-04
1.06191176470588e+01 1.33604434470934e-02 1.46812874781797e-04
1.07655882352941e+01 1.30918250164028e-02 1.44849945609822e-04
1.09120588235294e+01 1.28286072939813e-02 1.42900031127405e-04
1.10585294117647e+01 1.25706816958938e-02 1.40963662493194e-04
1.12050000000000e+01 1.23179418213390e-02 1.39041332555207e-04
1.13514705882353e+01 1.20702834087534e-02 1.37133497481560e-04
1.14979411764706e+01 1.18276042928042e-02 1.35240578643859e-04
1.16444117647059e+01 1.15898043622457e-02 1.33362964403026e-04
1.17908823529412e+01 1.13567855186178e-02 1.31501011536642e-04
1.19373529411765e+01 1.11284516376785e-02 1.29655047650072e-04
1.20838235294118e+01 1.09047085239548e-02 1.27825372155850e-04
1.22302941176471e+01 1.06854638777786e-02 1.26012257155124e-04
1.23767647058824e+01 1.04706272552125e-02 1.24215949662565e-04
1.25232352941176e+01 1.02601100307390e-02 1.22436672621027e-04
1.26697058823529e+01 1.00538253606974e-02 1.20674626138471e-04
1.28161764705882e+01 9.85168814746501e-03 1.18929988664528e-04
1.29626470588235e+01 9.65361500434935e-03 1.17202918110115e-04
1.31091176470588e+01 9.45952422118854e-03 1.15493552701010e-04
1.32555882352941e+01 9.26933573206935e-03 1.13802012627844e-04
1.34020588235294e+01 9.08297107795143e-03 1.12128400579722e-04
1.35485294117647e+01 8.90035337872036e-03 1.10472802215018e-04
1.36950000000000e+01 8.72140729997453e-03 1.08835287708462e-04
1.38414705882353e+01 8.54605902194665e-03 1.07215912353301e-04
1.39879411764706e+01 8.37423620905265e-03 1.05614717351995e-04
1.41344117647059e+01 8.20586798005248e-03 1.04031730570106e-04
1.42808823529412e+01 8.04088487880864e-03 1.02466967083738e-04
1.44273529411765e+01 7.87921884674525e-03 1.00920430382546e-04
1.45738235294118e+01 7.72080319138347e-03 9.93921126724235e-05
1.47202941176471e+01 7.56557256227379e-03 9.78819951342211e-05
1.48667647058824e+01 7.41346292286996e-03 9.63900490648178e-05
1.50132352941176e+01 7.26441152411229e-03 9.49162362563237e-05
1.51597058823529e+01 7.11835687854053e-03 9.34605095338737e-05
1.53061764705882e+01 6.97523873493210e-03 9.20228132689577e-05
1.54526470588235e+01 6.83499805344526e-03 9.06030838694768e-05
1.55991176470588e+01 6.69757698126363e-03 8.92012501101883e-05
1.57455882352941e+01 6.56291882957912e-03 8.78172339920465e-05
1.58920588235294e+01 6.43096804761966e-03 8.64509508883407e-05
1.60385294117647e+01 6.30167020236187e-03 8.51023096604225e-05
1.61850000000000e+01 6.17497195518537e-03 8.37712134818045e-05
1.63314705882353e+01 6.05082103986871e-03 8.24575600583756e-05
1.64779411764706e+01 5.92916624102889e-03 8.11612419795933e-05
1.66244117647059e+01 5.80995737299432e-03 7.98821470538337e-05
1.67708823529412e+01 5.69314525910134e-03 7.86201585166396e-05
1.69173529411765e+01 5.57868171207819e-03 7.73751556746917e-05
1.70638235294118e+01 5.46651951212288e-03 7.61470139684312e-05
1.72102941176471e+01 5.35661238950033e-03 7.49356050122937e-05
1.73567647058824e+01 5.24891500475157e-03 7.37407972175713e-05
1.75032352941176e+01 5.14338292999002e-03 7.25624559232613e-05
1.76497058823529e+01 5.03997263057303e-03 7.14004436359882e-05
1.77961764705882e+01 4.93864144714460e-03 7.02546202589920e-05
1.79426470588235e+01 4.83934757803632e-03 6.91248433106715e-05
1.80891176470588e+01 4.74205006202318e-03 6.80109680428961e-05
1.82355882352941e+01 4.64670876194439e-03 6.69128479114277e-05
1.83820588235294e+01 4.55328434656628e-03 6.58303345816296e-05
1.85285294117647e+01 4.46173827596179e-03 6.47632779180164e-05
1.86750000000000e+01 4.37203278506833e-03 6.37115264432413e-05
1.88214705882353e+01 4.28413086810839e-03 6.26749274036461e-05
1.89679411764706e+01 4.19799626332412e-03 6.16533269242357e-05
1.91144117647059e+01 4.11359343801875e-03 6.06465701563721e-05
1.92608823529412e+01 4.03088757389808e-03 5.96545013445310e-05
1.94073529411765e+01 3.94984455312076e-03 5.86769641838804e-05
1.95538235294118e+01 3.87043094296353e-03 5.77138017965203e-05
1.97002941176471e+01 3.79261398330954e-03 5.67648566954844e-05
1.98467647058824e+01 3.71636157270041e-03 5.58299711361816e-05
1.99932352941176e+01 3.64164225509359e-03 5.49089871451452e-05
2.01397058823529e+01 3.56842520688553e-03 5.40017466231140e-05
2.02861764705882e+01 3.49668022419712e-03 5.31080914430010e-05
2.04326470588235e+01 3.42637771041329e-03 5.22278635429822e-05
2.05791176470588e+01 3.35748866397373e-03 5.13609049550531e-05
2.07255882352941e+01 3.28998466673169e-03 5.05070580691950e-05
2.08720588235294e+01 3.22383787124769e-03 4.96661655908840e-05
2.10185294117647e+01 3.15902099030022e-03 4.88380704895415e-05
2.11650000000000e+01 3.09550728529096e-03 4.80226162602299e-05
2.13114705882353e+01 3.03327055521430e-03 4.72196469257860e-05
2.14579411764706e+01 2.97228512584899e-03 4.64290070997931e-05
2.16044117647059e+01 2.91252583916695e-03 4.56505420461272e-05
2.17508823529412e+01 2.85396804295486e-03 4.48840976859606e-05
2.18973529411765e+01 2.79658758090391e-03 4.41295207998736e-05
2.20438235294118e+01 2.74036078185444e-03 4.33866589771598e-05
2.21902941176471e+01 2.68526445083354e-03 4.26553605581529e-05
2.23367647058824e+01 2.63127585921481e-03 4.19354748358640e-05
2.24832352941176e+01 2.57837273534225e-03 4.12268520437347e-05
2.26297058823529e+01 2.52653325534235e-03 4.05293433939902e-05
2.27761764705882e+01 2.47573603412179e-03 3.98428011135951e-05
2.29226470588235e+01 2.42596011654524e-03 3.91670784779191e-05
2.30691176470588e+01 2.37718496879083e-03 3.85020298022208e-05
2.32155882352941e+01 2.32939047008335e-03 3.78475105915890e-05
2.33620588235294e+01 2.28255690377290e-03 3.72033774867086e-05
2.35085294117647e+01 2.23666494983188e-03 3.65694882043922e-05
2.36550000000000e+01 2.19169567667148e-03 3.59457016883806e-05
2.38014705882353e+01 2.14763053333185e-03 3.53318780873677e-05
2.39479411764706e+01 2.10445134182949e-03 3.47278787744517e-05
2.40944117647059e+01 2.06214028965843e-03 3.41335663649987e-05
2.42408823529412e+01 2.02067992244207e-03 3.35488046999670e-05
2.43873529411765e+01 1.98005313689762e-03 3.29734589607648e-05
2.45338235294118e+01 1.94024317327853e-03 3.24073956151997e-05
2.46802941176471e+01 1.90123360897040e-03 3.18504823593579e-05
2.48267647058824e+01 1.86300835154372e-03 3.13025882339940e-05
2.49732352941177e+01 1.82555163211531e-03 3.07635835980531e-05
2.51197058823529e+01 1.78884799884315e-03 3.02333401366904e-05
2.52661764705882e+01 1.75288231055237e-03 2.97117308682117e-05
2.54126470588235e+01 1.71763973048902e-03 2.91986301499819e-05
2.55591176470588e+01 1.68310572019949e-03 2.86939136564680e-05
2.57055882352941e+01 1.64926603366338e-03 2.81974584643551e-05
2.58520588235294e+01 1.61610671101982e-03 2.77091430007961e-05
2.59985294117647e+01 1.58361407321151e-03 2.72288469885731e-05
2.61450000000000e+01 1.55177471620548e-03 2.67564515331307e-05
2.62914705882353e+01 1.52057550546349e-03 2.62918390938217e-05
2.64379411764706e+01 1.49000357052373e-03 2.58348934834178e-05
2.65844117647059e+01 1.46004629969158e-03 2.53854998669428e-05
2.67308823529412e+01 1.43069133483682e-03 2.49435447375889e-05
2.68773529411765e+01 1.40192656640151e-03 2.45089159816974e-05
2.70238235294118e+01 1.37374012808208e-03 2.40815028302093e-05
2.71702941176471e+01 1.34612039226147e-03 2.36611958076992e-05
2.73167647058824e+01 1.31905596510170e-03 2.32478867994141e-05
2.74632352941176e+01 1.29253568184359e-03 2.28414690223009e-05
2.76097058823529e+01 1.26654860220093e-03 2.24418370196080e-05
2.77561764705882e+01 1.24108400584756e-03 2.20488866550554e-05
2.79026470588235e+01 1.21613138799484e-03 2.16625151065941e-05
2.80491176470588e+01 1.19168045505816e-03 2.12826208416213e-05
2.81955882352941e+01 1.16772112049467e-03 2.09091036648321e-05
2.83420588235294e+01 1.14424350038629e-03 2.05418646738369e-05
2.84885294117647e+01 1.12123790962226e-03 2.01808062129432e-05
2.86350000000000e+01 1.09869485781580e-03 1.98258319230676e-05
2.87814705882353e+01 1.07660504538910e-03 1.94768467136379e-05
2.89279411764706e+01 1.05495935973699e-03 1.91337567538314e-05
2.90744117647059e+01 1.03374887146785e-03 1.87964694635750e-05
2.92208823529412e+01 1.01296483071995e-03 1.84648934892475e-05
2.93673529411765e+01 9.92598663620496e-04 1.81389387399108e-05
2.95138235294118e+01 9.72641968539856e-04 1.78185163468662e-05
2.96602941176471e+01 9.53086512837669e-04 1.75035386217686e-05
2.98067647058824e+01 9.33924229394926e-04 1.71939190948477e-05
2.99532352941177e+01 9.15147213286088e-04 1.68895724883013e-05
3.00997058823529e+01 8.96747718518048e-04 1.65904147058361e-05
3.02461764705882e+01 8.78718154834829e-04 1.62963628220901e-05
3.03926470588235e+01 8.61051084586350e-04 1.60073350719477e-05
3.05391176470588e+01 8.43739219660210e-04 1.57232508274414e-05
3.06855882352941e+01 8.26775418529857e-04 1.54440306241010e-05
3.08320588235294e+01 8.10152683142004e-04 1.51695961248783e-05
3.09785294117647e+01 7.93864156198769e-04 1.48998700829752e-05
3.11250000000000e+01 7.77903118271682e-04 1.46347763700481e-05
3.12714705882353e+01 7.62262985029724e-04 1.43742399516264e-05
3.14179411764706e+01 7.46937304523154e-04 1.41181868757910e-05
3.15644117647059e+01 7.31919754521933e-04 1.38665442618237e-05
3.17108823529412e+01 7.17204139907625e-04 1.36192402785941e-05
3.18573529411765e+01 7.02784390162513e-04 1.33762041642148e-05
3.20038235294118e+01 6.88654556729096e-04 1.31373661937082e-05
3.21502941176471e+01 6.74808810694452e-04 1.29026576458127e-05
3.22967647058824e+01 6.61241440338874e-04 1.26720108243527e-05
3.24432352941176e+01 6.47946848779644e-04 1.24453590356621e-05
3.25897058823529e+01 6.34919551662140e-04 1.22226365770975e-05
3.27361764705882e+01 6.22154174897474e-04 1.20037787255764e-05
3.28826470588235e+01 6.09645452445507e-04 1.17887217261457e-05
3.30291176470588e+01 5.97388224142474e-04 1.15774027722043e-05
3.31755882352941e+01 5.85377433608104e-04 1.13697600194903e-05
3.33220588235294e+01 5.73608126050711e-04 1.11657325576654e-05
3.34685294117647e+01 5.62075446333860e-04 1.09652603812467e-05
3.36150000000000e+01 5.50774636936066e-04 1.07682844051367e-05
3.37614705882353e+01 5.39701035988187e-04 1.05747464443097e-05
3.39079411764706e+01 5.28850075350296e-04 1.03845892026109e-05
3.40544117647059e+01 5.18217278727222e-04 1.01977562616193e-05
3.42008823529412e+01 5.07798259821950e-04 1.00141920625966e-05
3.43473529411765e+01 4.97588720555556e-04 9.83384191665260e-06
3.44938235294118e+01 4.87584449204677e-04 9.65665197954439e-06
3.46402941176471e+01 4.77781318754855e-04 9.48256922596370e-06
3.47867647058824e+01 4.68175285167329e-04 9.31154146109837e-06
3.49332352941177e+01 4.58762385710762e-04 9.14351730230482e-06
3.50797058823529e+01 4.49538737326497e-04 8.97844616841129e-06
3.52261764705882e+01 4.40500535026739e-04 8.81627826910586e-06
3.53726470588235e+01 4.31644050324880e-04 8.65696459441121e-06
3.55191176470588e+01 4.22965629697403e-04 8.50045689852684e-06
3.56655882352941e+01 4.14461693100295e-04 8.34670770678612e-06
3.58120588235294e+01 4.06128732420407e-04 8.19567029372608e-06
3.59585294117647e+01 3.97963310101111e-04 8.04729866076907e-06
3.61050000000000e+01 3.89962057699579e-04 7.90154754441269e-06
3.62514705882353e+01 3.82121674497204e-04 7.75837240000480e-06
3.63979411764706e+01 3.74438926137985e-04 7.61772939179569e-06
3.65444117647059e+01 3.66910643294275e-04 7.47957538308761e-06
3.66908823529412e+01 3.59533720359350e-04 7.34386792170865e-06
3.68373529411765e+01 3.52305114185663e-04 7.21056524482799e-06
3.69838235294118e+01 3.45221842770427e-04 7.07962625964610e-06
3.71302941176471e+01 3.38280984085376e-04 6.95101052378151e-06
3.72767647058824e+01 3.31479674851088e-04 6.82467825118480e-06
3.74232352941177e+01 3.24815109355808e-04 6.70059029766843e-06
3.75697058823529e+01 3.18284538298012e-04 6.57870815169749e-06
3.77161764705882e+01 3.11885267652272e-04 6.45899392528189e-06
3.78626470588235e+01 3.05614657557896e-04 6.34141034497108e-06
3.80091176470588e+01 2.99470121229909e-04 6.22592073903452e-06
3.81555882352941e+01 2.93449123907554e-04 6.11248904050399e-06
3.83020588235294e+01 2.87549181761137e-04 6.00107977048430e-06
3.84485294117647e+01 2.81767860915582e-04 5.89165802123575e-06
3.85950000000000e+01 2.76102776430090e-04 5.78418946017646e-06
3.87414705882353e+01 2.70551591314289e-04 5.67864031721019e-06
3.88879411764706e+01 2.65112015564170e-04 5.57497737638633e-06
3.90344117647059e+01 2.59781805217409e-04 5.47316796766214e-06
3.91808823529412e+01 2.54558761427667e-04 5.37317995549462e-06
3.93273529411765e+01 2.49440729570378e-04 5.27498174071797e-06
3.94738235294118e+01 2.44425598314761e-04 5.17854224592394e-06
3.96202941176471e+01 2.39511298792565e-04 5.08383090066528e-06
3.97667647058824e+01 2.34695803731173e-04 4.99081764418083e-06
3.99132352941176e+01 2.29977126617301e-04 4.89947291418411e-06
4.00597058823529e+01 2.25353320877501e-04 4.80976763928592e-06
4.02061764705882e+01 2.20822479075171e-04 4.72167323151499e-06
4.03526470588235e+01 2.16382732123678e-04 4.63516157893643e-06
4.04991176470588e+01 2.12032248515312e-04 4.55020503568164e-06
4.06455882352941e+01 2.07769233576113e-04 4.46677642288450e-06
4.07920588235294e+01 2.03591928693965e-04 4.38484901610959e-06
4.09385294117647e+01 1.99498610625144e-04 4.30439653264872e-06
4.10850000000000e+01 1.95487590772604e-04 4.22539313319101e-06
4.12314705882353e+01 1.91557214489388e-04 4.14781341208055e-06
4.13779411764706e+01 1.87705860396046e-04 4.07163239056917e-06
4.15244117647059e+01 1.83931939711778e-04 3.99682551016139e-06
4.16708823529412e+01 1.80233895599016e-04 3.92336862380552e-06
4.18173529411765e+01 1.76610202529761e-04 3.85123799622833e-06
4.19638235294118e+01 1.73059365630191e-04 3.78041029296464e-06
4.21102941176471e+01 1.69579920090439e-04 3.71086256928603e-06
4.22567647058824e+01 1.66170430551375e-04 3.64257227117932e-06
4.24032352941176e+01 1.62829490512484e-04 3.57551722677694e-06
4.25497058823529e+01 1.59555721751644e-04 3.50967564030193e-06
4.26961764705882e+01 1.56347773756586e-04 3.44502608609899e-06
4.28426470588235e+01 1.53204323167766e-04 3.38154750275051e-06
4.29891176470588e+01 1.50124073232449e-04 3.31921918543247e-06
4.31355882352941e+01 1.47105753276681e-04 3.25802078578267e-06
4.32820588235294e+01 1.44148118160051e-04 3.19793230250324e-06
4.34285294117647e+01 1.41249947783403e-04 3.13893407188946e-06
4.35750000000000e+01 1.38410046578284e-04 3.08100676825221e-06
4.37214705882353e+01 1.35627243013742e-04 3.02413139651416e-06
4.38679411764706e+01 1.32900389113044e-04 2.96828928687972e-06
4.40144117647059e+01 1.30228359980108e-04 2.91346208958353e-06
4.41608823529412e+01 1.27610053335449e-04 2.85963176817230e-06
4.43073529411765e+01 1.25044389067188e-04 2.80678059909019e-06
4.44538235294118e+01 1.22530308768063e-04 2.75489116350289e-06
4.46002941176471e+01 1.20066775316476e-04 2.70394633906606e-06
4.47467647058824e+01 1.17652772442677e-04 2.65392929999480e-06
4.48932352941177e+01 1.15287304309532e-04 2.60482351057946e-06
4.50397058823529e+01 1.12969395101707e-04 2.55661272044413e-06
4.51861764705882e+01 1.10698088623130e-04 2.50928095987643e-06
4.53326470588235e+01 1.08472447902530e-04 2.46281253522847e-06
4.54791176470588e+01 1.06291554806911e-04 2.41719202311814e-06
4.56255882352941e+01 1.04154509667435e-04 2.37240426981307e-06
4.57720588235294e+01 1.02060430894190e-04 2.32843438424828e-06
4.59185294117647e+01 1.00008454626810e-04 2.28526773100396e-06
4.60650000000000e+01 9.79977343732752e-05 2.24288993010474e-06
4.62114705882353e+01 9.60274406607106e-05 2.20128685144246e-06
