Energy (eV)          EEDF (eV^-(3/2))     First Anisotropy
2.43902439024390e-03 6.14875857058949e-01 6.87973782248483e-08
7.31707317073171e-03 6.14875786524257e-01 2.19288638155563e-07
1.21951219512195e-02 6.14875596959888e-01 5.52732075444341e-07
1.70731707317073e-02 6.14875277826208e-01 9.65503308416289e-07
2.19512195121951e-02 6.14874844674649e-01 1.40168480464104e-06
2.68292682926829e-02 6.14874313008058e-01 1.85756813405769e-06
3.17073170731707e-02 6.14873686124312e-01 2.33333283534476e-06
3.65853658536585e-02 6.14872972040704e-01 2.83012882609349e-06
4.14634146341463e-02 6.14872169400782e-01 3.37085392638975e-06
4.63414634146341e-02 6.14871272163445e-01 3.96439685757975e-06
5.12195121951219e-02 6.14870274912397e-01 4.59183631879039e-06
5.60975609756098e-02 6.14869181183161e-01 5.24373394307405e-06
6.09756097560976e-02 6.14867989287001e-01 5.93706628806005e-06
6.58536585365854e-02 6.14866694685090e-01 6.67974970991155e-06
7.07317073170732e-02 6.14865292567010e-01 7.45025722705758e-06
7.56097560975610e-02 6.14863787452444e-01 8.23271035995057e-06
8.04878048780488e-02 6.14862180310811e-01 9.04745306542305e-06
8.53658536585366e-02 6.14860467159781e-01 9.90785807418868e-06
9.02439024390244e-02 6.14858643978704e-01 1.08146525073113e-05
9.51219512195122e-02 6.14856706829273e-01 1.17681559028054e-05
1.00000000000000e-01 6.14854651852866e-01 1.27460875597158e-05
1.04878048780488e-01 6.14852483001597e-01 1.37202122814516e-05
1.09756097560976e-01 6.14850205639895e-01 1.47048478427105e-05
1.14634146341463e-01 6.14847818180755e-01 1.57202424793523e-05
1.19512195121951e-01 6.14845318999077e-01 1.67666171496920e-05
1.24390243902439e-01 6.14842706432604e-01 1.78442001235536e-05
1.29268292682927e-01 6.14839978785802e-01 1.89532163258528e-05
1.34146341463415e-01 6.14837134332933e-01 2.00938885713785e-05
1.39024390243902e-01 6.14834171320515e-01 2.12664385138439e-05
1.43902439024390e-01 6.14831087969292e-01 2.24710873909949e-05
1.48780487804878e-01 6.14827882475810e-01 2.37080565935228e-05
1.53658536585366e-01 6.14824553013696e-01 2.49775681017039e-05
1.58536585365854e-01 6.14821097734682e-01 2.62798448215287e-05
1.63414634146341e-01 6.14817514769435e-01 2.76151108307752e-05
1.68292682926829e-01 6.14813802228226e-01 2.89835915332349e-05
1.73170731707317e-01 6.14809958201477e-01 3.03855091690077e-05
1.78048780487805e-01 6.14805980761391e-01 3.18210465148268e-05
1.82926829268293e-01 6.14801867971533e-01 3.32902286534975e-05
1.87804878048780e-01 6.14797617917595e-01 3.47925657657382e-05
1.92682926829268e-01 6.14793228803543e-01 3.63267612283080e-05
1.97560975609756e-01 6.14788699046676e-01 3.78911953116142e-05
2.02439024390244e-01 6.14784027245024e-01 3.93838636443703e-05
2.07317073170732e-01 6.14779237907117e-01 4.07980645518135e-05
2.12195121951220e-01 6.14774330627303e-01 4.22290055725362e-05
2.17073170731707e-01 6.14769305206464e-01 4.36756203582014e-05
2.21951219512195e-01 6.14764161442538e-01 4.51377245081567e-05
2.26829268292683e-01 6.14758899129956e-01 4.66151454185850e-05
2.31707317073171e-01 6.14753518059154e-01 4.81077215492494e-05
2.36585365853659e-01 6.14748018016144e-01 4.96153017612726e-05
2.41463414634146e-01 6.14742398782141e-01 5.11377447205674e-05
2.46341463414634e-01 6.14736660133226e-01 5.26749183358848e-05
2.51219512195122e-01 6.14730801840055e-01 5.42266992416007e-05
2.56097560975610e-01 6.14724823667606e-01 5.57929723189484e-05
2.60975609756098e-01 6.14718725374952e-01 5.73736302451485e-05
2.65853658536585e-01 6.14712506715064e-01 5.89685730804179e-05
2.70731707317073e-01 6.14706167434637e-01 6.05777071722353e-05
2.75609756097561e-01 6.14699707274095e-01 6.22009383293880e-05
2.80487804878049e-01 6.14693125968813e-01 6.38381466494448e-05
2.85365853658537e-01 6.14686423254317e-01 6.54891072149050e-05
2.90243902439024e-01 6.14679598883734e-01 6.71533821392842e-05
2.95121951219512e-01 6.14672652654306e-01 6.88303587195713e-05
3.00000000000000e-01 6.14665584415140e-01 7.05301472115748e-05
3.04878048780488e-01 6.14658392594206e-01 7.23547374490806e-05
3.09756097560976e-01 6.14651057350526e-01 7.44716482670066e-05
3.14634146341463e-01 6.14643543510567e-01 7.69437322715359e-05
3.19512195121951e-01 6.14635819175109e-01 7.97455318121525e-05
3.24390243902439e-01 6.14627855469169e-01 8.28530587390225e-05
3.29268292682927e-01 6.14619626312740e-01 8.62436980467691e-05
3.34146341463415e-01 6.14611108210105e-01 8.98961202945488e-05
3.39024390243902e-01 6.14602280056066e-01 9.37902003847696e-05
3.43902439024390e-01 6.14593122957589e-01 9.79069421274835e-05
3.48780487804878e-01 6.14583620069504e-01 1.02228408106408e-04
3.53658536585366e-01 6.14573756443062e-01 1.06737654416252e-04
3.58536585365854e-01 6.14563518886235e-01 1.11418669866384e-04
3.63414634146341e-01 6.14552895834776e-01 1.16256319289515e-04
3.68292682926829e-01 6.14541877233135e-01 1.21236290632245e-04
3.73170731707317e-01 6.14530454424418e-01 1.26345044786845e-04
3.78048780487805e-01 6.14518620048791e-01 1.31569763447472e-04
3.82926829268293e-01 6.14506367950479e-01 1.36898285962331e-04
3.87804878048780e-01 6.14493693094487e-01 1.42319011299564e-04
3.92682926829268e-01 6.14480591497480e-01 1.47820818061435e-04
3.97560975609756e-01 6.14467060163995e-01 1.53393117652033e-04
4.02439024390244e-01 6.14453097011845e-01 1.58966224580438e-04
4.07317073170732e-01 6.14438714927908e-01 1.64741008842062e-04
4.12195121951219e-01 6.14423876355833e-01 1.70967960403083e-04
4.17073170731707e-01 6.14408546974599e-01 1.77615790133765e-04
4.21951219512195e-01 6.14392695738282e-01 1.84653488120148e-04
4.26829268292683e-01 6.14376294640787e-01 1.92051859102813e-04
4.31707317073171e-01 6.14359318496559e-01 1.99783424887684e-04
4.36585365853659e-01 6.14341744736112e-01 2.07822332566555e-04
4.41463414634146e-01 6.14323553215307e-01 2.16144268100354e-04
4.46341463414634e-01 6.14304726037382e-01 2.24726374912012e-04
4.51219512195122e-01 6.14285247386842e-01 2.33547177169190e-04
4.56097560975610e-01 6.14265103374367e-01 2.42586507448258e-04
4.60975609756098e-01 6.14244281891962e-01 2.51825438517806e-04
4.65853658536585e-01 6.14222772477639e-01 2.61246218995427e-04
4.70731707317073e-01 6.14200566188967e-01 2.70832212394269e-04
4.75609756097561e-01 6.14177655484926e-01 2.80567837860040e-04
4.80487804878049e-01 6.14154034115735e-01 2.90438508310043e-04
4.85365853658537e-01 6.14129697020874e-01 3.00430554914661e-04
4.90243902439024e-01 6.14104640236859e-01 3.10531149621298e-04
4.95121951219512e-01 6.14078860812859e-01 3.20728280124727e-04
5.00000000000000e-01 6.14052356726633e-01 3.30929130261664e-04
5.04878048780488e-01 6.14025141392713e-01 3.41058885572861e-04
5.09756097560976e-01 6.13997226160155e-01 3.51223690862477e-04
5.14634146341463e-01 6.13968605812322e-01 3.61508997227814e-04
5.19512195121951e-01 6.13939276514140e-01 3.71898278528589e-04
5.24390243902439e-01 6.13909235713687e-01 3.82375940156977e-04
5.29268292682927e-01 6.13878482049319e-01 3.92927278125085e-04
5.34146341463415e-01 6.13847015262219e-01 4.03538438932972e-04
5.39024390243902e-01 6.13814836114016e-01 4.14196381339247e-04
5.43902439024390e-01 6.13781946309192e-01 4.24888839915486e-04
5.48780487804878e-01 6.13748348421987e-01 4.35604290306061e-04
5.53658536585366e-01 6.13714045827536e-01 4.46331916074708e-04
5.58536585365854e-01 6.13679042637005e-01 4.57061577067216e-04
5.63414634146341e-01 6.13643343636480e-01 4.67783779221116e-04
5.68292682926829e-01 6.13606954229396e-01 4.78489645731625e-04
5.73170731707317e-01 6.13569880382316e-01 4.89170889179641e-04
5.78048780487805e-01 6.13532128573905e-01 4.99819782631486e-04
5.82926829268293e-01 6.13493705747239e-01 5.10429125444064e-04
5.87804878048780e-01 6.13454619266000e-01 5.20992197549484e-04
5.92682926829268e-01 6.13414876875556e-01 5.31502724731431e-04
5.97560975609756e-01 6.13374486665900e-01 5.41954901943744e-04
6.02439024390244e-01 6.13333457030154e-01 5.52652627873830e-04
6.07317073170732e-01 6.13291750335430e-01 5.64470564929858e-04
6.12195121951220e-01 6.13249244737202e-01 5.78199755201403e-04
6.17073170731707e-01 6.13205786586005e-01 5.93990691562848e-04
6.21951219512195e-01 6.13161234497326e-01 6.11702007558635e-04
6.26829268292683e-01 6.13115458615860e-01 6.31199676711996e-04
6.31707317073171e-01 6.13068339922424e-01 6.52356641579947e-04
6.36585365853659e-01 6.13019769580990e-01 6.75052461847276e-04
6.41463414634146e-01 6.12969648323488e-01 6.99172980173561e-04
6.46341463414634e-01 6.12917885870178e-01 7.24610004778283e-04
6.51219512195122e-01 6.12864400383534e-01 7.51261007860999e-04
6.56097560975610e-01 6.12809117953703e-01 7.79028839017473e-04
6.60975609756098e-01 6.12751972113714e-01 8.07821452890633e-04
6.65853658536585e-01 6.12692903382742e-01 8.37551650314600e-04
6.70731707317073e-01 6.12631858835802e-01 8.68136832123324e-04
6.75609756097561e-01 6.12568791698392e-01 8.99498764175488e-04
6.80487804878049e-01 6.12503660964784e-01 9.31563350734781e-04
6.85365853658537e-01 6.12436431038972e-01 9.64260409942299e-04
6.90243902439024e-01 6.12367071397995e-01 9.97523459558859e-04
6.95121951219512e-01 6.12295556275372e-01 1.03128954315502e-03
7.00000000000000e-01 6.12221864359851e-01 1.06602878711181e-03
7.04878048780488e-01 6.12145905417480e-01 1.10318540643219e-03
7.09756097560976e-01 6.12067458278572e-01 1.14406888312131e-03
7.14634146341463e-01 6.11986251502393e-01 1.18890963945787e-03
7.19512195121951e-01 6.11902034782597e-01 1.23744239420385e-03
7.24390243902439e-01 6.11814577870899e-01 1.28941333715008e-03
7.29268292682927e-01 6.11723669551994e-01 1.34457966285452e-03
7.34146341463415e-01 6.11629116667533e-01 1.40270912089854e-03
7.39024390243902e-01 6.11530743186853e-01 1.46357958337344e-03
7.43902439024390e-01 6.11428389322290e-01 1.52697862876609e-03
7.48780487804878e-01 6.11321910687014e-01 1.59270314152751e-03
7.53658536585366e-01 6.11211177493428e-01 1.66055892672341e-03
7.58536585365854e-01 6.11096073790265e-01 1.73036033915568e-03
7.63414634146341e-01 6.10976496736608e-01 1.80192992636739e-03
7.68292682926829e-01 6.10852355911144e-01 1.87509808499213e-03
7.73170731707317e-01 6.10723572655048e-01 1.94970272959714e-03
7.78048780487805e-01 6.10590079446999e-01 2.02558897194618e-03
7.82926829268293e-01 6.10451819309126e-01 2.10260880512004e-03
7.87804878048781e-01 6.10308745243272e-01 2.18062079087741e-03
7.92682926829268e-01 6.10160819696576e-01 2.25948977283284e-03
7.97560975609756e-01 6.10008014052473e-01 2.33908666055413e-03
8.02439024390244e-01 6.09850308139590e-01 2.41885911060124e-03
8.07317073170732e-01 6.09687746583312e-01 2.49779017950416e-03
8.12195121951219e-01 6.09520443053655e-01 2.57527665479334e-03
8.17073170731707e-01 6.09348520149747e-01 2.65124974739681e-03
8.21951219512195e-01 6.09172098518418e-01 2.72572325119533e-03
8.26829268292683e-01 6.08991296858953e-01 2.79871132954784e-03
8.31707317073171e-01 6.08806231926346e-01 2.87022853076750e-03
8.36585365853659e-01 6.08617018533286e-01 2.94028980063284e-03
8.41463414634146e-01 6.08423769551092e-01 3.00891049235855e-03
8.46341463414634e-01 6.08226595909755e-01 3.07610637428453e-03
8.51219512195122e-01 6.08025606597273e-01 3.14189363553069e-03
8.56097560975610e-01 6.07820908658380e-01 3.20628888980360e-03
8.60975609756098e-01 6.07612607192839e-01 3.26930917753177e-03
8.65853658536585e-01 6.07400805353382e-01 3.33097196654255e-03
8.70731707317073e-01 6.07185604343400e-01 3.39129515132477e-03
8.75609756097561e-01 6.06967103414499e-01 3.45029705026144e-03
8.80487804878049e-01 6.06745399864095e-01 3.50799639839114e-03
8.85365853658537e-01 6.06520589033497e-01 3.56441233216303e-03
8.90243902439024e-01 6.06292764307169e-01 3.61956438130148e-03
8.95121951219512e-01 6.06062017111362e-01 3.67347249076824e-03
9.00000000000000e-01 6.05828436909566e-01 3.72613349511007e-03
9.04878048780488e-01 6.05592114168301e-01 3.77799282870911e-03
9.09756097560976e-01 6.05353080966034e-01 3.82996800160682e-03
9.14634146341463e-01 6.05111311649857e-01 3.88249694968093e-03
9.19512195121951e-01 6.04866783301898e-01 3.93553847422940e-03
9.24390243902439e-01 6.04619475647512e-01 3.98905244547302e-03
9.29268292682927e-01 6.04369370964564e-01 4.04299980450659e-03
9.34146341463415e-01 6.04116453993828e-01 4.09734256420291e-03
9.39024390243902e-01 6.03860711850550e-01 4.15204380874757e-03
9.43902439024390e-01 6.03602133937246e-01 4.20706769178815e-03
9.48780487804878e-01 6.03340711857773e-01 4.26237943321530e-03
9.53658536585366e-01 6.03076439332743e-01 4.31794531469271e-03
9.58536585365854e-01 6.02809312116311e-01 4.37373267396877e-03
9.63414634146341e-01 6.02539327914398e-01 4.42970989803708e-03
9.68292682926829e-01 6.02266486304365e-01 4.48584641522060e-03
9.73170731707317e-01 6.01990788656197e-01 4.54211268535170e-03
9.78048780487805e-01 6.01712238055330e-01 4.59848018402719e-03
9.82926829268293e-01 6.01430839227739e-01 4.65492136984040e-03
9.87804878048780e-01 6.01146598468965e-01 4.71140963273533e-03
9.92682926829268e-01 6.00859523577801e-01 4.76791930290883e-03
9.97560975609756e-01 6.00569623785022e-01 4.82442575968777e-03
1.00243902439024e+00 6.00276909672922e-01 4.88381531520022e-03
1.00731707317073e+00 5.99981019171917e-01 4.95172895859389e-03
1.01219512195122e+00 5.99681285359574e-01 5.03258000756209e-03
1.01707317073171e+00 5.99376845059280e-01 5.12771766620734e-03
1.02195121951220e+00 5.99066878430541e-01 5.23650600259881e-03
1.02682926829268e+00 5.98750607893782e-01 5.35832100293156e-03
1.03170731707317e+00 5.98427297060428e-01 5.49255071464787e-03
1.03658536585366e+00 5.98096249667694e-01 5.63859539303071e-03
1.04146341463415e+00 5.97756808517810e-01 5.79586764838331e-03
1.04634146341463e+00 5.97408354421485e-01 5.96379259205906e-03
1.05121951219512e+00 5.97050305145540e-01 6.14180798023102e-03
1.05609756097561e+00 5.96682114364663e-01 6.32936435441578e-03
1.06097560975610e+00 5.96303270617331e-01 6.52592517785901e-03
1.06585365853659e+00 5.95913296265976e-01 6.73096696701637e-03
1.07073170731707e+00 5.95511746461527e-01 6.94397941739947e-03
1.07560975609756e+00 5.95098208112486e-01 7.16446552315519e-03
1.08048780487805e+00 5.94672298858765e-01 7.39194168977234e-03
1.08536585365854e+00 5.94233666050498e-01 7.62593783931221e-03
1.09024390243902e+00 5.93781985732131e-01 7.86599750681191e-03
1.09512195121951e+00 5.93316961632156e-01 8.11167792604197e-03
1.10000000000000e+00 5.92838324159010e-01 8.36445954030548e-03
1.10487804878049e+00 5.92345567859076e-01 8.62630493916990e-03
1.10975609756098e+00 5.91838154252476e-01 8.89576842985166e-03
1.11463414634146e+00 5.91315784272641e-01 9.17096614146541e-03
1.11951219512195e+00 5.90778180169782e-01 9.45155255831249e-03
1.12439024390244e+00 5.90225084870658e-01 9.73719079579735e-03
1.12926829268293e+00 5.89656261344230e-01 1.00275526050071e-02
1.13414634146341e+00 5.89071491973804e-01 1.03223183657285e-02
1.13902439024390e+00 5.88470577936102e-01 1.06211770696827e-02
1.14390243902439e+00 5.87853338587651e-01 1.09238262949606e-02
1.14878048780488e+00 5.87219610858832e-01 1.12299721722239e-02
1.15365853658537e+00 5.86569248655893e-01 1.15393293431876e-02
1.15853658536585e+00 5.85902122271212e-01 1.18516209118730e-02
1.16341463414634e+00 5.85218117802050e-01 1.21665783891324e-02
1.16829268292683e+00 5.84517136578038e-01 1.24839416309059e-02
1.17317073170732e+00 5.83799094597571e-01 1.28034587706231e-02
1.17804878048780e+00 5.83063921973305e-01 1.31248861462393e-02
1.18292682926829e+00 5.82311562386890e-01 1.34479882221206e-02
1.18780487804878e+00 5.81541972553094e-01 1.37725375055109e-02
1.19268292682927e+00 5.80755121693490e-01 1.40983144539368e-02
1.19756097560976e+00 5.79950991020276e-01 1.44251073714708e-02
1.20243902439024e+00 5.79129573230634e-01 1.47617910747719e-02
1.20731707317073e+00 5.78289639629940e-01 1.51088286232228e-02
1.21219512195122e+00 5.77431119751329e-01 1.54571558789732e-02
1.21707317073171e+00 5.76554011633064e-01 1.58061441445248e-02
1.22195121951220e+00 5.75658314819820e-01 1.61557568196393e-02
1.22682926829268e+00 5.74744030714476e-01 1.65059510577095e-02
1.23170731707317e+00 5.73811162915685e-01 1.68566779826831e-02
1.23658536585366e+00 5.72859717541786e-01 1.72078828998492e-02
1.24146341463415e+00 5.71889703541442e-01 1.75595055028883e-02
1.24634146341463e+00 5.70901132991288e-01 1.79114800775128e-02
1.25121951219512e+00 5.69894021380904e-01 1.82637357017054e-02
1.25609756097561e+00 5.68868387885416e-01 1.86161964425184e-02
1.26097560975610e+00 5.67824255626015e-01 1.89687815492911e-02
1.26585365853659e+00 5.66761651918711e-01 1.93214056432427e-02
1.27073170731707e+00 5.65680608511615e-01 1.96739789032928e-02
1.27560975609756e+00 5.64581161811053e-01 2.00264072480150e-02
1.28048780487805e+00 5.63463353096830e-01 2.03785925136405e-02
1.28536585365854e+00 5.62327228726944e-01 2.07304326280911e-02
1.29024390243902e+00 5.61172840332049e-01 2.10818217814216e-02
1.29512195121951e+00 5.60000244999925e-01 2.14326505926767e-02
1.30000000000000e+00 5.58809505450258e-01 2.17818612958291e-02
1.30487804878049e+00 5.57600846133419e-01 2.21296852082750e-02
1.30975609756098e+00 5.56374358132545e-01 2.24795936947980e-02
1.31463414634146e+00 5.55129834531339e-01 2.28337512761859e-02
1.31951219512195e+00 5.53867076856227e-01 2.31920068806575e-02
1.32439024390244e+00 5.52585895467595e-01 2.35542019300124e-02
1.32926829268293e+00 5.51286109908080e-01 2.39201710953052e-02
1.33414634146341e+00 5.49967549208371e-01 2.42897430488200e-02
1.33902439024390e+00 5.48630052151062e-01 2.46627412103979e-02
1.34390243902439e+00 5.47273467493183e-01 2.50389844860307e-02
1.34878048780488e+00 5.45897654148175e-01 2.54182879973731e-02
1.35365853658537e+00 5.44502481328072e-01 2.58004638010717e-02
1.35853658536585e+00 5.43087828646731e-01 2.61853215968033e-02
1.36341463414634e+00 5.41653586184988e-01 2.65726694230828e-02
1.36829268292683e+00 5.40199654518656e-01 2.69623143399917e-02
1.37317073170732e+00 5.38725944710320e-01 2.73540630980205e-02
1.37804878048780e+00 5.37232378265903e-01 2.77477227923663e-02
1.38292682926829e+00 5.35718887057005e-01 2.81431015021145e-02
1.38780487804878e+00 5.34185413210047e-01 2.85400089137827e-02
1.39268292682927e+00 5.32631908963239e-01 2.89382569287857e-02
1.39756097560976e+00 5.31058336492429e-01 2.93376602542633e-02
1.40243902439024e+00 5.29464667706909e-01 2.97382368053211e-02
1.40731707317073e+00 5.27850862474871e-01 3.01402209648722e-02
1.41219512195122e+00 5.26216867071384e-01 3.05436657642981e-02
1.41707317073171e+00 5.24562635338747e-01 3.09484139174117e-02
1.42195121951220e+00 5.22888130181539e-01 3.13542938650676e-02
1.42682926829268e+00 5.21193323545045e-01 3.17611340049912e-02
1.43170731707317e+00 5.19478196376763e-01 3.21687630085725e-02
1.43658536585366e+00 5.17742738572063e-01 3.25770101190426e-02
1.44146341463415e+00 5.15986948905085e-01 3.29857054316377e-02
1.44634146341463e+00 5.14210834945872e-01 3.33946801564317e-02
1.45121951219512e+00 5.12414412964715e-01 3.38037668644192e-02
1.45609756097561e+00 5.10597707824656e-01 3.42127997175329e-02
1.46097560975610e+00 5.08760752863020e-01 3.46216146831739e-02
1.46585365853659e+00 5.06903589762851e-01 3.50300497338539e-02
1.47073170731707e+00 5.05026268415047e-01 3.54379450325463e-02
1.47560975609756e+00 5.03128846771996e-01 3.58451431042815e-02
1.48048780487805e+00 5.01211390693441e-01 3.62514889944252e-02
1.48536585365854e+00 4.99273973785305e-01 3.66568304136910e-02
1.49024390243902e+00 4.97316677232215e-01 3.70610178675113e-02
1.49512195121951e+00 4.95339589624670e-01 3.74639047667239e-02
1.50000000000000e+00 4.93342806781916e-01 3.78695352952688e-02
1.50487804878049e+00 4.91325807520712e-01 3.82814391371830e-02
1.50975609756098e+00 4.89288125939176e-01 3.86942433923651e-02
1.51463414634146e+00 4.87229982731646e-01 3.91032712616084e-02
1.51951219512195e+00 4.85151586521110e-01 3.95087293209155e-02
1.52439024390244e+00 4.83053134828610e-01 3.99108067923261e-02
1.52926829268293e+00 4.80934815011467e-01 4.03096760599849e-02
1.53414634146341e+00 4.78796805171048e-01 4.07054931786004e-02
1.53902439024390e+00 4.76639275030547e-01 4.10983983778782e-02
