Energy (eV)          EEDF (eV^-(3/2))     First Anisotropy
7.89473684210526e-02 4.37009293940873e-02 3.74047104163650e-05
2.36842105263158e-01 4.29133634839030e-02 6.14157129532219e-05
3.94736842105263e-01 4.21399908659911e-02 8.01534979988481e-05
5.52631578947368e-01 4.13805557530345e-02 9.38397893837860e-05
7.10526315789474e-01 4.06348069683415e-02 1.04808838408477e-04
8.68421052631579e-01 3.99024978591672e-02 1.13958584931835e-04
1.02631578947368e+00 3.91833862195056e-02 1.21761364113018e-04
1.18421052631579e+00 3.84772342068646e-02 1.28506927596695e-04
1.34210526315789e+00 3.77838082718436e-02 1.34390396600413e-04
1.50000000000000e+00 3.71028790631341e-02 1.39551732439618e-04
1.65789473684211e+00 3.64342213684899e-02 1.44096032881148e-04
1.81578947368421e+00 3.57776140343420e-02 1.48105009627429e-04
1.97368421052632e+00 3.51328398962203e-02 1.51643952082926e-04
2.13157894736842e+00 3.44996856960071e-02 1.54766188957047e-04
2.28947368421053e+00 3.38779420225469e-02 1.57516074455438e-04
2.44736842105263e+00 3.32674032412943e-02 1.59931061624724e-04
2.60526315789474e+00 3.26678674181770e-02 1.62043183150966e-04
2.76315789473684e+00 3.20791362610275e-02 1.63880137102594e-04
2.92105263157895e+00 3.15010150533329e-02 1.65466102065816e-04
3.07894736842105e+00 3.09333125835019e-02 1.66822358665129e-04
3.23684210526316e+00 3.03758410879958e-02 1.67967772320328e-04
3.39473684210526e+00 2.98284161887862e-02 1.68919175074197e-04
3.55263157894737e+00 2.92908568272735e-02 1.69691669616605e-04
3.71052631578947e+00 2.87629852095347e-02 1.70298875062419e-04
3.86842105263158e+00 2.82446267471761e-02 1.70753128881201e-04
4.02631578947368e+00 2.77356099954118e-02 1.71065652617908e-04
4.18421052631579e+00 2.72357666005808e-02 1.71246689867034e-04
4.34210526315789e+00 2.67449312441900e-02 1.71305623046039e-04
4.50000000000000e+00 2.62629415847501e-02 1.71251071327554e-04
4.65789473684211e+00 2.57896382076157e-02 1.71090974126525e-04
4.81578947368421e+00 2.53248645710658e-02 1.70832663081110e-04
4.97368421052632e+00 2.48684669554708e-02 1.70482924101890e-04
5.13157894736842e+00 2.44202944095829e-02 1.70048050877432e-04
5.28947368421053e+00 2.39801987035183e-02 1.69533891412528e-04
5.44736842105263e+00 2.35480342795617e-02 1.68945889533741e-04
5.60526315789474e+00 2.31236582015584e-02 1.68289120719924e-04
5.76315789473684e+00 2.27069301101330e-02 1.67568323751677e-04
5.92105263157895e+00 2.22977121761322e-02 1.66787929460703e-04
6.07894736842105e+00 2.18958690529015e-02 1.65952085704163e-04
6.23684210526316e+00 2.15012678336771e-02 1.65064679672608e-04
6.39473684210526e+00 2.11137780075207e-02 1.64129358501852e-04
6.55263157894737e+00 2.07332714142857e-02 1.63149547240720e-04
6.71052631578947e+00 2.03596222041147e-02 1.62128465052339e-04
6.86842105263158e+00 1.99927067957201e-02 1.61069140426692e-04
7.02631578947368e+00 1.96324038338743e-02 1.59974424456561e-04
7.18421052631579e+00 1.92785941509273e-02 1.58847002905381e-04
7.34210526315789e+00 1.89311607273097e-02 1.57689407715003e-04
7.50000000000000e+00 1.85899886513864e-02 1.56504027040017e-04
7.65789473684210e+00 1.82549650829122e-02 1.55293114480880e-04
7.81578947368421e+00 1.79259792152166e-02 1.54058797780905e-04
7.97368421052632e+00 1.76029222389653e-02 1.52803086801752e-04
8.13157894736842e+00 1.72856873049261e-02 1.51527880694357e-04
8.28947368421053e+00 1.69741694898918e-02 1.50234974462398e-04
8.44736842105263e+00 1.66682657619175e-02 1.48926065448278e-04
8.60526315789474e+00 1.63678749451326e-02 1.47602758938030e-04
8.76315789473684e+00 1.60728976874013e-02 1.46266573356474e-04
8.92105263157895e+00 1.57832364274117e-02 1.44918945477169e-04
9.07894736842105e+00 1.54987953614144e-02 1.43561234899336e-04
9.23684210526316e+00 1.52194804125399e-02 1.42194728214786e-04
9.39473684210526e+00 1.49451991996399e-02 1.40820643248357e-04
9.55263157894737e+00 1.46758610058412e-02 1.39440132677260e-04
9.71052631578947e+00 1.44113767494424e-02 1.38054287412345e-04
9.86842105263158e+00 1.41516589544115e-02 1.36664140089487e-04
1.00263157894737e+01 1.38966217206528e-02 1.35270668156780e-04
1.01842105263158e+01 1.36461806954151e-02 1.33874796154184e-04
1.03421052631579e+01 1.34002530491027e-02 1.32477399054412e-04
1.05000000000000e+01 1.31587574427886e-02 1.31079305328100e-04
1.06578947368421e+01 1.29216140012261e-02 1.29681297735987e-04
1.08157894736842e+01 1.26887442931623e-02 1.28284116479962e-04
1.09736842105263e+01 1.24600712985025e-02 1.26888462217643e-04
1.11315789473684e+01 1.22355193832099e-02 1.25494996270236e-04
1.12894736842105e+01 1.20150142803684e-02 1.24104343666407e-04
1.14473684210526e+01 1.17984830575222e-02 1.22717094699570e-04
1.16052631578947e+01 1.15858541004305e-02 1.21333806275456e-04
1.17631578947368e+01 1.13770570834998e-02 1.19955004602138e-04
1.19210526315789e+01 1.11720229468274e-02 1.18581185112213e-04
1.20789473684211e+01 1.09706838785726e-02 1.17212814684950e-04
1.22368421052632e+01 1.07729732871968e-02 1.15850333735492e-04
1.23947368421053e+01 1.05788257797198e-02 1.14494156032486e-04
1.25526315789474e+01 1.03881771448129e-02 1.13144670650807e-04
1.27105263157895e+01 1.02009643267333e-02 1.11802243809417e-04
1.28684210526316e+01 1.00171254047091e-02 1.10467218612894e-04
1.30263157894737e+01 9.83659957675792e-03 1.09139916973324e-04
1.31842105263158e+01 9.65932713385736e-03 1.07820640433535e-04
1.33421052631579e+01 9.48524944576761e-03 1.06509670856421e-04
1.35000000000000e+01 9.31430893747611e-03 1.05207272158203e-04
1.36578947368421e+01 9.14644907036143e-03 1.03913689956517e-04
1.38157894736842e+01 8.98161432720517e-03 1.02629152989581e-04
1.39736842105263e+01 8.81975019003840e-03 1.01353874455277e-04
1.41315789473684e+01 8.66080312229555e-03 1.00088051631260e-04
1.42894736842105e+01 8.50472055449357e-03 9.88318673057414e-05
1.44473684210526e+01 8.35145086233634e-03 9.75854903101862e-05
1.46052631578947e+01 8.20094335403494e-03 9.63490759505253e-05
1.47631578947368e+01 8.05314825025913e-03 9.51227673108819e-05
1.49210526315789e+01 7.90801666782761e-03 9.39066948400127e-05
1.50789473684211e+01 7.76550060648201e-03 9.27009774095103e-05
1.52368421052632e+01 7.62555293000860e-03 9.15057233140633e-05
1.53947368421053e+01 7.48812735079252e-03 9.03210298535469e-05
1.55526315789474e+01 7.35317841719719e-03 8.91469842847390e-05
1.57105263157895e+01 7.22066149578758e-03 8.79836647212573e-05
1.58684210526316e+01 7.09053275669419e-03 8.68311397163538e-05
1.60263157894737e+01 6.96274916158256e-03 8.56894692473419e-05
1.61842105263158e+01 6.83726844613776e-03 8.45587050152409e-05
1.63421052631579e+01 6.71404910928631e-03 8.34388906722520e-05
1.65000000000000e+01 6.59305039707770e-03 8.23300627280779e-05
1.66578947368421e+01 6.47423228931519e-03 8.12322501356074e-05
1.68157894736842e+01 6.35755548847095e-03 8.01454750184101e-05
1.69736842105263e+01 6.24298140449442e-03 7.90697533593883e-05
1.71315789473684e+01 6.13047214214865e-03 7.80050945959047e-05
1.72894736842105e+01 6.01999049045260e-03 7.69515023849685e-05
1.74473684210526e+01 5.91149990774361e-03 7.59089748004927e-05
1.76052631578947e+01 5.80496451215859e-03 7.48775044730177e-05
1.77631578947368e+01 5.70034906784861e-03 7.38570792981531e-05
1.79210526315789e+01 5.59761897340932e-03 7.28476820460429e-05
1.80789473684211e+01 5.49674025216823e-03 7.18492909246887e-05
1.82368421052632e+01 5.39767953918243e-03 7.08618801136034e-05
1.83947368421053e+01 5.30040407028278e-03 6.98854193865276e-05
1.85526315789474e+01 5.20488167282913e-03 6.89198746240146e-05
1.87105263157895e+01 5.11108075344718e-03 6.79652082990382e-05
1.88684210526316e+01 5.01897028764952e-03 6.70213791135115e-05
1.90263157894737e+01 4.92851981104190e-03 6.60883425476077e-05
1.91842105263158e+01 4.83969940729514e-03 6.51660509693651e-05
1.93421052631579e+01 4.75247970015697e-03 6.42544537014148e-05
1.95000000000000e+01 4.66683184231098e-03 6.33534975326307e-05
1.96578947368421e+01 4.58272750589745e-03 6.24631263747491e-05
1.98157894736842e+01 4.50013887443354e-03 6.15832816645083e-05
1.99736842105263e+01 4.41903863229968e-03 6.07139027447620e-05
2.01315789473684e+01 4.33939995576164e-03 5.98549265355549e-05
2.02894736842105e+01 4.26119650528842e-03 5.90062879708049e-05
2.04473684210526e+01 4.18440241525727e-03 5.81679200673885e-05
2.06052631578947e+01 4.10899228694564e-03 5.73397539592327e-05
2.07631578947368e+01 4.03494117897498e-03 5.65217193054653e-05
2.09210526315789e+01 3.96222459911012e-03 5.57137439824648e-05
2.10789473684211e+01 3.89081849720733e-03 5.49157544015724e-05
2.12368421052632e+01 3.82069925619209e-03 5.41276758102627e-05
2.13947368421053e+01 3.75184368429355e-03 5.33494319982324e-05
2.15526315789474e+01 3.68422900834229e-03 5.25809455883369e-05
2.17105263157895e+01 3.61783286525240e-03 5.18221383123413e-05
2.18684210526316e+01 3.55263329466585e-03 5.10729307306744e-05
2.20263157894737e+01 3.48860873258525e-03 5.03332425532688e-05
2.21842105263158e+01 3.42573800304982e-03 4.96029926731225e-05
2.23421052631579e+01 3.36400031229640e-03 4.88820991731562e-05
2.25000000000000e+01 3.30337524101137e-03 4.81704796272755e-05
2.26578947368421e+01 3.24384273761329e-03 4.74680508399717e-05
2.28157894736842e+01 3.18538311241235e-03 4.67747290778620e-05
2.29736842105263e+01 3.12797703029267e-03 4.60904302891453e-05
2.31315789473684e+01 3.07160550435055e-03 4.54150698558296e-05
2.32894736842105e+01 3.01624989034740e-03 4.47485628520492e-05
2.34473684210526e+01 2.96189187956821e-03 4.40908240609817e-05
2.36052631578947e+01 2.90851349371927e-03 4.34417679696832e-05
2.37631578947368e+01 2.85609707826975e-03 4.28013090120591e-05
2.39210526315789e+01 2.80462529664134e-03 4.21693613395083e-05
2.40789473684211e+01 2.75408112512312e-03 4.15458390059270e-05
2.42368421052632e+01 2.70444784658097e-03 4.09306561430318e-05
2.43947368421053e+01 2.65570904495559e-03 4.03237267424516e-05
2.45526315789474e+01 2.60784860043393e-03 3.97249648257490e-05
2.47105263157895e+01 2.56085068350632e-03 3.91342846055072e-05
2.48684210526316e+01 2.51469974975538e-03 3.85516002783714e-05
2.50263157894737e+01 2.46938053527237e-03 3.79768262174205e-05
2.51842105263158e+01 2.42487805086712e-03 3.74098769746723e-05
2.53421052631579e+01 2.38117757783570e-03 3.68506672665110e-05
2.55000000000000e+01 2.33826466255017e-03 3.62991121551508e-05
2.56578947368421e+01 2.29612511169992e-03 3.57551268576996e-05
2.58157894736842e+01 2.25474498809172e-03 3.52186268825740e-05
2.59736842105263e+01 2.21411060553725e-03 3.46895281587062e-05
2.61315789473684e+01 2.17420852434646e-03 3.41677468543674e-05
2.62894736842105e+01 2.13502554734151e-03 3.36531995332280e-05
2.64473684210526e+01 2.09654871488114e-03 3.31458031502848e-05
2.66052631578947e+01 2.05876530117170e-03 3.26454750335599e-05
2.67631578947368e+01 2.02166280961184e-03 3.21521330315757e-05
2.69210526315789e+01 1.98522896867681e-03 3.16656953465102e-05
2.70789473684211e+01 1.94945172826759e-03 3.11860806438949e-05
2.72368421052632e+01 1.91431925531067e-03 3.07132081564637e-05
2.73947368421053e+01 1.87981992986088e-03 3.02469975259435e-05
2.75526315789474e+01 1.84594234163681e-03 2.97873689040684e-05
2.77105263157895e+01 1.81267528586191e-03 2.93342430481755e-05
2.78684210526316e+01 1.78000775957353e-03 2.88875411712083e-05
2.80263157894737e+01 1.74792895833592e-03 2.84471850588913e-05
2.81842105263158e+01 1.71642827219830e-03 2.80130970603508e-05
2.83421052631579e+01 1.68549528264400e-03 2.75852000676376e-05
2.85000000000000e+01 1.65511975880202e-03 2.71634176267047e-05
2.86578947368421e+01 1.62529165407660e-03 2.67476737995107e-05
2.88157894736842e+01 1.59600110313764e-03 2.63378932454230e-05
2.89736842105263e+01 1.56723841833936e-03 2.59340012982118e-05
2.91315789473684e+01 1.53899408652852e-03 2.55359238353645e-05
2.92894736842105e+01 1.51125876618937e-03 2.51435873735770e-05
2.94473684210526e+01 1.48402328396635e-03 2.47569190572116e-05
2.96052631578947e+01 1.45727863200939e-03 2.43758466374627e-05
2.97631578947368e+01 1.43101596471118e-03 2.40002985629325e-05
2.99210526315789e+01 1.40522659579232e-03 2.36302038596029e-05
3.00789473684211e+01 1.37990199568808e-03 2.32654921965079e-05
3.02368421052632e+01 1.35503378846337e-03 2.29060939478044e-05
3.03947368421053e+01 1.33061374905274e-03 2.25519400790574e-05
3.05526315789474e+01 1.30663380078147e-03 2.22029622077715e-05
3.07105263157895e+01 1.28308601244884e-03 2.18590926605750e-05
3.08684210526316e+01 1.25996259571417e-03 2.15202643654938e-05
3.10263157894737e+01 1.23725590274598e-03 2.11864109239990e-05
3.11842105263158e+01 1.21495842339315e-03 2.08574665981496e-05
3.13421052631579e+01 1.19306278299396e-03 2.05333662904464e-05
3.15000000000000e+01 1.17156173971799e-03 2.02140456123001e-05
3.16578947368421e+01 1.15044818217926e-03 1.98994407851832e-05
3.18157894736842e+01 1.12971512728489e-03 1.95894886895023e-05
3.19736842105263e+01 1.10935571772156e-03 1.92841269107290e-05
3.21315789473684e+01 1.08936321969521e-03 1.89832936457767e-05
3.22894736842105e+01 1.06973102089088e-03 1.86869277618657e-05
3.24473684210526e+01 1.05045262803695e-03 1.83949687834294e-05
3.26052631578947e+01 1.03152166500104e-03 1.81073568728921e-05
3.27631578947368e+01 1.01293187049919e-03 1.78240328866829e-05
3.29210526315789e+01 9.94677096031804e-04 1.75449382893767e-05
3.30789473684210e+01 9.76751304016994e-04 1.72700151931610e-05
3.32368421052632e+01 9.59148565624102e-04 1.69992063950550e-05
3.33947368421053e+01 9.41863058819191e-04 1.67324552955968e-05
3.35526315789474e+01 9.24889066595027e-04 1.64697059352269e-05
3.37105263157895e+01 9.08220974922156e-04 1.62109030285780e-05
3.38684210526316e+01 8.91853270897970e-04 1.59559918874726e-05
3.40263157894737e+01 8.75780541068498e-04 1.57049184654521e-05
3.41842105263158e+01 8.59997469444895e-04 1.54576293450550e-05
3.43421052631579e+01 8.44498835934200e-04 1.52140717202640e-05
3.45000000000000e+01 8.29279514471563e-04 1.49741934389531e-05
3.46578947368421e+01 8.14334471330102e-04 1.47379429323084e-05
3.48157894736842e+01 7.99658763585738e-04 1.45052692442029e-05
3.49736842105263e+01 7.85247537350599e-04 1.42761220588475e-05
3.51315789473684e+01 7.71096026172525e-04 1.40504516339587e-05
3.52894736842105e+01 7.57199549579614e-04 1.38282088371867e-05
3.54473684210526e+01 7.43553511371192e-04 1.36093451339313e-05
3.56052631578947e+01 7.30153398255277e-04 1.33938125710875e-05
3.57631578947368e+01 7.16994778238048e-04 1.31815638118115e-05
3.59210526315789e+01 7.04073299162305e-04 1.29725520742861e-05
3.60789473684210e+01 6.91384687376315e-04 1.27667311554217e-05
3.62368421052632e+01 6.78924746210345e-04 1.25640554531400e-05
3.63947368421053e+01 6.66689354592736e-04 1.23644799083920e-05
3.65526315789474e+01 6.54674465787920e-04 1.21679600269965e-05
3.67105263157895e+01 6.42876105955375e-04 1.19744519001557e-05
3.68684210526316e+01 6.31290372839047e-04 1.17839121495541e-05
3.70263157894737e+01 6.19913434571082e-04 1.15962979549389e-05
3.71842105263158e+01 6.08741528278941e-04 1.14115670429303e-05
3.73421052631579e+01 5.97770958963767e-04 1.12296776726143e-05
3.75000000000000e+01 5.86998098186414e-04 1.10505886619076e-05
3.76578947368421e+01 5.76419382870739e-04 1.08742593372709e-05
3.78157894736842e+01 5.66031314209614e-04 1.07006495513092e-05
3.79736842105263e+01 5.55830456421929e-04 1.05297196992781e-05
3.81315789473684e+01 5.45813435619369e-04 1.03614306714698e-05
3.82894736842105e+01 5.35976938769434e-04 1.01957438757792e-05
3.84473684210526e+01 5.26317712494694e-04 1.00326212273009e-05
3.86052631578947e+01 5.16832562099571e-04 9.87202513520863e-06
3.87631578947368e+01 5.07518350436881e-04 9.71391852435273e-06
3.89210526315789e+01 4.98371996873017e-04 9.55826479165744e-06
3.90789473684210e+01 4.89390476339779e-04 9.40502782028614e-06
3.92368421052632e+01 4.80570818262033e-04 9.25417199290399e-06
3.93947368421053e+01 4.71910105577853e-04 9.10566215039363e-06
3.95526315789474e+01 4.63405473839772e-04 8.95946360489059e-06
3.97105263157895e+01 4.55054110200321e-04 8.81554215197684e-06
3.98684210526316e+01 4.46853252484097e-04 8.67386403159230e-06
4.00263157894737e+01 4.38800188335975e-04 8.53439594510903e-06
4.01842105263158e+01 4.30892254241851e-04 8.39710504606001e-06
4.03421052631579e+01 4.23126834728175e-04 8.26195892871371e-06
4.05000000000000e+01 4.15501361436748e-04 8.12892564444367e-06
4.06578947368421e+01 4.08013312277435e-04 7.99797366593977e-06
4.08157894736842e+01 4.00660210649373e-04 7.86907189767577e-06
4.09736842105263e+01 3.93439624565630e-04 7.74218968567922e-06
4.11315789473684e+01 3.86349165850868e-04 7.61729678364514e-06
4.12894736842105e+01 3.79386489403252e-04 7.49436336689395e-06
4.14473684210526e+01 3.72549292349938e-04 7.37336002389859e-06
4.16052631578947e+01 3.65835313352885e-04 7.25425774598861e-06
4.17631578947368e+01 3.59242331810514e-04 7.13702794074877e-06
4.19210526315789e+01 3.52768167125050e-04 7.02164240099827e-06
4.20789473684210e+01 3.46410678027777e-04 6.90807331317752e-06
4.22368421052632e+01 3.40167761823652e-04 6.79629326515746e-06
4.23947368421053e+01 3.34037353697560e-04 6.68627521686858e-06
4.25526315789474e+01 3.28017426074831e-04 6.57799250800314e-06
4.27105263157895e+01 3.22105987906534e-04 6.47141886517834e-06
4.28684210526316e+01 3.16301084012513e-04 6.36652837412679e-06
4.30263157894737e+01 3.10600794475387e-04 6.26329549023752e-06
4.31842105263158e+01 3.05003233951473e-04 6.16169503114134e-06
4.33421052631579e+01 2.99506551100195e-04 6.06170216784767e-06
4.35000000000000e+01 2.94108927932167e-04 5.96329243488188e-06
4.36578947368421e+01 2.88808579209322e-04 5.86644170482985e-06
4.38157894736842e+01 2.83603751890950e-04 5.77112619448695e-06
4.39736842105263e+01 2.78492724516847e-04 5.67732247055983e-06
4.41315789473684e+01 2.73473806639270e-04 5.58500742556377e-06
4.42894736842105e+01 2.68545338297991e-04 5.49415828642451e-06
4.44473684210526e+01 2.63705689425837e-04 5.40475260777485e-06
4.46052631578947e+01 2.58953259354073e-04 5.31676826402505e-06
4.47631578947368e+01 2.54286476249724e-04 5.23018345764591e-06
4.49210526315789e+01 2.49703796596873e-04 5.14497669710904e-06
4.50789473684210e+01 2.45203704716843e-04 5.06112680177954e-06
4.52368421052632e+01 2.40784712235749e-04 4.97861290643786e-06
4.53947368421053e+01 2.36445357593337e-04 4.89741444039192e-06
4.55526315789474e+01 2.32184205588302e-04 4.81751113195700e-06
4.57105263157895e+01 2.27999846874457e-04 4.73888301258884e-06
4.58684210526316e+01 2.23890897495628e-04 4.66151039710533e-06
4.60263157894737e+01 2.19855998454808e-04 4.58537389016164e-06
4.61842105263158e+01 2.15893815228918e-04 4.51045438045486e-06
4.63421052631579e+01 2.12003037362460e-04 4.43673303395247e-06
4.65000000000000e+01 2.08182378007901e-04 4.36419130013982e-06
4.66578947368421e+01 2.04430573500978e-04 4.29281089391977e-06
4.68157894736842e+01 2.00746382966925e-04 4.22257379915745e-06
4.69736842105263e+01 1.97128587885524e-04 4.15346227193741e-06
4.71315789473684e+01 1.93575991688956e-04 4.08545882342420e-06
4.72894736842105e+01 1.90087419388683e-04 4.01854622513034e-06
4.74473684210526e+01 1.86661717156709e-04 3.95270750371671e-06
4.76052631578947e+01 1.83297751973474e-04 3.88792593496558e-06
4.77631578947368e+01 1.79994411231056e-04 3.82418504887101e-06
4.79210526315789e+01 1.76750602365959e-04 3.76146861395477e-06
4.80789473684210e+01 1.73565252518109e-04 3.69976064005742e-06
4.82368421052632e+01 1.70437308155357e-04 3.63904538089055e-06
4.83947368421053e+01 1.67365734725754e-04 3.57930731918518e-06
4.85526315789474e+01 1.64349516334453e-04 3.52053116923546e-06
4.87105263157895e+01 1.61387655388352e-04 3.46270187921927e-06
4.88684210526316e+01 1.58479172266826e-04 3.40580461713450e-06
4.90263157894737e+01 1.55623105015591e-04 3.34982477474511e-06
4.91842105263158e+01 1.52818509004778e-04 3.29474796312408e-06
4.93421052631579e+01 1.50064456639793e-04 3.24056000753663e-06
4.95000000000000e+01 1.47360037037112e-04 3.18724695126226e-06
4.96578947368421e+01 1.44704355723622e-04 3.13479504272573e-06
4.98157894736842e+01 1.42096534356852e-04 3.08319073748312e-06
