Energy (eV)          EEDF (eV^-(3/2))     First Anisotropy
1.86904761904762e-03 3.68141754971472e+00 2.07368863498864e-03
5.60714285714286e-03 3.65118616584103e+00 3.42169262645254e-03
9.34523809523809e-03 3.62120303866944e+00 4.51025392564594e-03
1.30833333333333e-02 3.59146612959435e+00 5.33313472424247e-03
1.68214285714286e-02 3.56197341651015e+00 6.01603640226402e-03
2.05595238095238e-02 3.53272289433730e+00 6.60657868638906e-03
2.42976190476190e-02 3.50371257418621e+00 7.12945095688808e-03
2.80357142857143e-02 3.47494048342814e+00 7.59958958291687e-03
3.17738095238095e-02 3.44640466586230e+00 8.02691845441556e-03
3.55119047619048e-02 3.41810318122484e+00 8.41846410124242e-03
3.92500000000000e-02 3.39003410512714e+00 8.77943712540811e-03
4.29880952380952e-02 3.36219552912826e+00 9.11384030573639e-03
4.67261904761905e-02 3.33458556032385e+00 9.42483546925290e-03
5.04642857142857e-02 3.30720232147906e+00 9.71497725174970e-03
5.42023809523809e-02 3.28004395070750e+00 9.98636870988652e-03
5.79404761904762e-02 3.25310860137091e+00 1.02407686265279e-02
6.16785714285714e-02 3.22639444208894e+00 1.04796678095547e-02
6.54166666666667e-02 3.19989965647056e+00 1.07043447137245e-02
6.91547619047619e-02 3.17362244300672e+00 1.09159068517160e-02
7.28928571428571e-02 3.14756101505624e+00 1.11153222715969e-02
7.66309523809524e-02 3.12171360057881e+00 1.13034438459606e-02
8.03690476190476e-02 3.09607844215364e+00 1.14810283034841e-02
8.41071428571429e-02 3.07065379675591e+00 1.16487513557503e-02
8.78452380952381e-02 3.04543793564833e+00 1.18072198206765e-02
9.15833333333333e-02 3.02042914434584e+00 1.19569814959906e-02
9.53214285714286e-02 2.99562572238839e+00 1.20985332419885e-02
9.90595238095238e-02 2.97102598333194e+00 1.22323276568001e-02
1.02797619047619e-01 2.94662825464270e+00 1.23587787160209e-02
1.06535714285714e-01 2.92243087716837e+00 1.24782663615582e-02
1.10273809523810e-01 2.89843220587054e+00 1.25911405027989e-02
1.14011904761905e-01 2.87463060899069e+00 1.26977244670652e-02
1.17750000000000e-01 2.85102446817128e+00 1.27983178282316e-02
1.21488095238095e-01 2.82761217816305e+00 1.28931988538791e-02
1.25226190476190e-01 2.80439214727382e+00 1.29826267098265e-02
1.28964285714286e-01 2.78136279668932e+00 1.30668433828678e-02
1.32702380952381e-01 2.75852256056045e+00 1.31460752669775e-02
1.36440476190476e-01 2.73586988574038e+00 1.32205345609629e-02
1.40178571428571e-01 2.71340323215911e+00 1.32904205793903e-02
1.43916666666667e-01 2.69112107222832e+00 1.33559209160889e-02
1.47654761904762e-01 2.66902189090353e+00 1.34172123903791e-02
1.51392857142857e-01 2.64710418544542e+00 1.34744618949509e-02
1.55130952380952e-01 2.62536646573595e+00 1.35278272271334e-02
1.58869047619048e-01 2.60380725375035e+00 1.35774578372629e-02
1.62607142857143e-01 2.58242508360034e+00 1.36234954031913e-02
1.66345238095238e-01 2.56121850143665e+00 1.36660744420536e-02
1.70083333333333e-01 2.54018606523236e+00 1.37053227748234e-02
1.73821428571429e-01 2.51932634503998e+00 1.37413620316094e-02
1.77559523809524e-01 2.49863792253285e+00 1.37743081133548e-02
1.81297619047619e-01 2.47811939103212e+00 1.38042715403432e-02
1.85035714285714e-01 2.45776935530686e+00 1.38313577743760e-02
1.88773809523810e-01 2.43758643179502e+00 1.38556675751765e-02
1.92511904761905e-01 2.41756924818819e+00 1.38772973292846e-02
1.96250000000000e-01 2.39771644344751e+00 1.38963392849986e-02
1.99988095238095e-01 2.37802666761812e+00 1.39128817723876e-02
2.03726190476190e-01 2.35849858202008e+00 1.39270094639541e-02
2.07464285714286e-01 2.33913085887007e+00 1.39388036172639e-02
2.11202380952381e-01 2.31992218128841e+00 1.39483422366551e-02
2.14940476190476e-01 2.30087124312607e+00 1.39557002266685e-02
2.18678571428571e-01 2.28197674913028e+00 1.39609495887624e-02
2.22416666666667e-01 2.26323741459816e+00 1.39641596058319e-02
2.26154761904762e-01 2.24465196537641e+00 1.39653969551817e-02
2.29892857142857e-01 2.22621913769955e+00 1.39647258172347e-02
2.33630952380952e-01 2.20793767833404e+00 1.39622080281110e-02
2.37369047619048e-01 2.18980634425956e+00 1.39579032237241e-02
2.41107142857143e-01 2.17182390266300e+00 1.39518689069087e-02
2.44845238095238e-01 2.15398913085541e+00 1.39441605756658e-02
2.48583333333333e-01 2.13630081612147e+00 1.39348317814537e-02
2.52321428571429e-01 2.11875775584049e+00 1.39239342437097e-02
2.56059523809524e-01 2.10135875719834e+00 1.39115179588559e-02
2.59797619047619e-01 2.08410263717640e+00 1.38976312523727e-02
2.63535714285714e-01 2.06698822240979e+00 1.38823208308483e-02
2.67273809523810e-01 2.05001434929325e+00 1.38656318753364e-02
2.71011904761905e-01 2.03317986371383e+00 1.38476081306993e-02
2.74750000000000e-01 2.01648362103615e+00 1.38282919424182e-02
2.78488095238095e-01 1.99992448596850e+00 1.38077242942422e-02
2.82226190476190e-01 1.98350133265572e+00 1.37859448856815e-02
2.85964285714286e-01 1.96721304443036e+00 1.37629922065264e-02
2.89702380952381e-01 1.95105851379491e+00 1.37389035625838e-02
2.93440476190476e-01 1.93503664229514e+00 1.37137151027870e-02
2.97178571428571e-01 1.91914634060160e+00 1.36874618845513e-02
3.00916666666667e-01 1.90338652827738e+00 1.36601779368965e-02
3.04654761904762e-01 1.88775613375792e+00 1.36318962780457e-02
3.08392857142857e-01 1.87225409423091e+00 1.36026489347237e-02
3.12130952380952e-01 1.85687935570790e+00 1.35724669980535e-02
3.15869047619048e-01 1.84163087280699e+00 1.35413806777586e-02
3.19607142857143e-01 1.82650760873070e+00 1.35094193045367e-02
3.23345238095238e-01 1.81150853519580e+00 1.34766113803126e-02
3.27083333333333e-01 1.79663263232045e+00 1.34429845806539e-02
3.30821428571429e-01 1.78187888868455e+00 1.34085658013723e-02
3.34559523809524e-01 1.76724630112975e+00 1.33733812039280e-02
3.38297619047619e-01 1.75273387473562e+00 1.33374562216806e-02
3.42035714285714e-01 1.73834062271234e+00 1.33008155681264e-02
3.45773809523809e-01 1.72406556645365e+00 1.32634832777923e-02
3.49511904761905e-01 1.70990773534889e+00 1.32254827461993e-02
3.53250000000000e-01 1.69586616675796e+00 1.31868367329250e-02
3.56988095238095e-01 1.68193990590919e+00 1.31475673666830e-02
3.60726190476190e-01 1.66812800594572e+00 1.31076961815381e-02
3.64464285714286e-01 1.65442952774854e+00 1.30672441524043e-02
3.68202380952381e-01 1.64084353991057e+00 1.30262316956918e-02
3.71940476190476e-01 1.62736911863926e+00 1.29846786719628e-02
3.75678571428571e-01 1.61400534779723e+00 1.29426044182727e-02
3.79416666666667e-01 1.60075131873535e+00 1.29000277799475e-02
3.83154761904762e-01 1.58760613026618e+00 1.28569671094027e-02
3.86892857142857e-01 1.57456888857106e+00 1.28134402669354e-02
3.90630952380952e-01 1.56163870723549e+00 1.27694646498153e-02
3.94369047619048e-01 1.54881470709166e+00 1.27250572209310e-02
3.98107142857143e-01 1.53609601619129e+00 1.26802344993037e-02
4.01845238095238e-01 1.52348176974656e+00 1.26350125871901e-02
4.05583333333333e-01 1.51097111004217e+00 1.25894071617527e-02
4.09321428571429e-01 1.49856318646493e+00 1.25434335006647e-02
4.13059523809524e-01 1.48625715535709e+00 1.24971065074014e-02
4.16797619047619e-01 1.47405217998897e+00 1.24504407075117e-02
4.20535714285714e-01 1.46194743047500e+00 1.24034502467295e-02
4.24273809523809e-01 1.44994208379922e+00 1.23561489143105e-02
4.28011904761905e-01 1.43803532367652e+00 1.23085501661279e-02
4.31750000000000e-01 1.42622634052507e+00 1.22606671202124e-02
4.35488095238095e-01 1.41451433138590e+00 1.22125125540659e-02
4.39226190476190e-01 1.40289849994506e+00 1.21640989260370e-02
4.42964285714286e-01 1.39137805640195e+00 1.21154383965073e-02
4.46702380952381e-01 1.37995221744172e+00 1.20665428228951e-02
4.50440476190476e-01 1.36862020615836e+00 1.20174237563624e-02
4.54178571428571e-01 1.35738125207360e+00 1.19680924614757e-02
4.57916666666667e-01 1.34623459101206e+00 1.19185599357255e-02
4.61654761904762e-01 1.33517946507367e+00 1.18688369041406e-02
4.65392857142857e-01 1.32421512255999e+00 1.18189338155401e-02
4.69130952380952e-01 1.31334081799027e+00 1.17688608606880e-02
4.72869047619048e-01 1.30255581198294e+00 1.17186279903404e-02
4.76607142857143e-01 1.29185937122811e+00 1.16682449042712e-02
4.80345238095238e-01 1.28125076843780e+00 1.16177210685155e-02
4.84083333333333e-01 1.27072928227599e+00 1.15670657055449e-02
4.87821428571429e-01 1.26029419737147e+00 1.15162878107113e-02
4.91559523809524e-01 1.24994480420671e+00 1.14653961686264e-02
4.95297619047619e-01 1.23968039909069e+00 1.14143993473639e-02
4.99035714285714e-01 1.22950028409185e+00 1.13633056941405e-02
5.02773809523809e-01 1.21940376704869e+00 1.13121233506100e-02
5.06511904761905e-01 1.20939016146410e+00 1.12608602681109e-02
5.10250000000000e-01 1.19945878647842e+00 1.12095242017782e-02
5.13988095238095e-01 1.18960896680511e+00 1.11581227060723e-02
5.17726190476190e-01 1.17984003273943e+00 1.11066631490357e-02
5.21464285714286e-01 1.17015132005778e+00 1.10551527265267e-02
5.25202380952381e-01 1.16054216999108e+00 1.10035984562980e-02
5.28940476190476e-01 1.15101192916306e+00 1.09520071734245e-02
5.32678571428571e-01 1.14155994959714e+00 1.09003855436305e-02
5.36416666666667e-01 1.13218558862057e+00 1.08487400766051e-02
5.40154761904762e-01 1.12288820883814e+00 1.07970771200873e-02
5.43892857142857e-01 1.11366717807292e+00 1.07454028552444e-02
5.47630952380952e-01 1.10452186937155e+00 1.06937233091541e-02
5.51369047619048e-01 1.09545166091293e+00 1.06420443672855e-02
5.55107142857143e-01 1.08645593598221e+00 1.05903717634807e-02
5.58845238095238e-01 1.07753408292899e+00 1.05387110919417e-02
5.62583333333333e-01 1.06868549511090e+00 1.04870677981776e-02
5.66321428571429e-01 1.05990957089705e+00 1.04354471904912e-02
5.70059523809524e-01 1.05120571358205e+00 1.03838544514815e-02
5.73797619047619e-01 1.04257333136056e+00 1.03322946323062e-02
5.77535714285714e-01 1.03401183727317e+00 1.02807726481045e-02
5.81273809523809e-01 1.02552064920865e+00 1.02292932887993e-02
5.85011904761905e-01 1.01709918982179e+00 1.01778612299221e-02
5.88750000000000e-01 1.00874688650847e+00 1.01264810269681e-02
5.92488095238095e-01 1.00046317135361e+00 1.00751571108580e-02
5.96226190476190e-01 9.92247481132308e-01 1.00238937981148e-02
5.99964285714286e-01 9.84099257231414e-01 9.97269530106376e-03
6.03702380952381e-01 9.76017945625042e-01 9.92156572229377e-03
6.07440476190476e-01 9.68002996824504e-01 9.87050905017889e-03
6.11178571428571e-01 9.60053865878500e-01 9.81952916847613e-03
6.14916666666667e-01 9.52170012298175e-01 9.76862986595111e-03
6.18654761904762e-01 9.44350900033093e-01 9.71781483095897e-03
6.22392857142857e-01 9.36595997423095e-01 9.66708764703698e-03
6.26130952380952e-01 9.28904777197615e-01 9.61645180196684e-03
6.29869047619048e-01 9.21276716404046e-01 9.56591069687121e-03
6.33607142857143e-01 9.13711296384187e-01 9.51546763765802e-03
6.37345238095238e-01 9.06208002739026e-01 9.46512584378027e-03
6.41083333333333e-01 8.98766325282828e-01 9.41488844045651e-03
6.44821428571429e-01 8.91385758041445e-01 9.36475846709172e-03
6.48559523809524e-01 8.84065799184626e-01 9.31473888573550e-03
6.52297619047619e-01 8.76805951003109e-01 9.26483257598777e-03
6.56035714285714e-01 8.69605719864449e-01 9.21504233081341e-03
6.59773809523809e-01 8.62464616210661e-01 9.16537086451354e-03
6.63511904761905e-01 8.55382154493459e-01 9.11582082073818e-03
6.67250000000000e-01 8.48357853151828e-01 9.06639476752685e-03
6.70988095238095e-01 8.41391234569522e-01 9.01709519322049e-03
6.74726190476190e-01 8.34481825072114e-01 8.96792451401474e-03
6.78464285714286e-01 8.27629154865009e-01 8.91888508155541e-03
6.82202380952381e-01 8.20832758011510e-01 8.86997917811900e-03
6.85940476190476e-01 8.14092172391902e-01 8.82120901262366e-03
6.89678571428571e-01 8.07406939699990e-01 8.77257672779322e-03
6.93416666666667e-01 8.00776605383738e-01 8.72408440736426e-03
6.97154761904762e-01 7.94200718623833e-01 8.67573407140635e-03
7.00892857142857e-01 7.87678832294293e-01 8.62752767243642e-03
7.04630952380952e-01 7.81210502958542e-01 8.57946710221801e-03
7.08369047619048e-01 7.74795290812557e-01 8.53155419860495e-03
7.12107142857143e-01 7.68432759663922e-01 8.48379073841181e-03
7.15845238095238e-01 7.62122476902203e-01 8.43617844401580e-03
7.19583333333333e-01 7.55864013461337e-01 8.38871897684572e-03
7.23321428571429e-01 7.49656943815182e-01 8.34141394373747e-03
7.27059523809524e-01 7.43500845923653e-01 8.29426490333522e-03
7.30797619047619e-01 7.37395301212422e-01 8.24727336174623e-03
7.34535714285714e-01 7.31339894536700e-01 8.20044076891266e-03
7.38273809523809e-01 7.25334214176440e-01 8.15376852465277e-03
7.42011904761905e-01 7.19377851784714e-01 8.10725798474857e-03
7.45750000000000e-01 7.13470402367901e-01 8.06091045673881e-03
7.49488095238095e-01 7.07611464250792e-01 8.01472719639266e-03
7.53226190476190e-01 7.01800639071507e-01 7.96870941345896e-03
7.56964285714286e-01 6.96037531732000e-01 7.92285827745911e-03
7.60702380952381e-01 6.90321750378725e-01 7.87717491361244e-03
7.64440476190476e-01 6.84652906369023e-01 7.83166039941718e-03
7.68178571428571e-01 6.79030614265784e-01 7.78631577012082e-03
7.71916666666667e-01 6.73454491789980e-01 7.74114202423624e-03
7.75654761904762e-01 6.67924159801809e-01 7.69614011959967e-03
7.79392857142857e-01 6.62439242268310e-01 7.65131097005489e-03
7.83130952380952e-01 6.56999366257807e-01 7.60665545066350e-03
7.86869047619048e-01 6.51604161894374e-01 7.56217440295902e-03
7.90607142857143e-01 6.46253262339457e-01 7.51786862906723e-03
7.94345238095238e-01 6.40946303766947e-01 7.47373889678070e-03
7.98083333333333e-01 6.35682925332238e-01 7.42978593416963e-03
8.01821428571428e-01 6.30462769166428e-01 7.38601043447269e-03
8.05559523809524e-01 6.25285480333094e-01 7.34241306103150e-03
8.09297619047619e-01 6.20150706810521e-01 7.29899444365045e-03
8.13035714285714e-01 6.15058099461868e-01 7.25575517552296e-03
8.16773809523810e-01 6.10007312029229e-01 7.21269581789307e-03
8.20511904761905e-01 6.04998001092152e-01 7.16981690476200e-03
8.24250000000000e-01 6.00029826050315e-01 7.12711893936963e-03
8.27988095238095e-01 5.95102449094776e-01 7.08460239121781e-03
8.31726190476190e-01 5.90215535201915e-01 7.04226770051852e-03
8.35464285714286e-01 5.85368752093609e-01 7.00011528268255e-03
8.39202380952381e-01 5.80561770220363e-01 6.95814552492061e-03
8.42940476190476e-01 5.75794262733592e-01 6.91635878336289e-03
8.46678571428571e-01 5.71065905479469e-01 6.87475538730266e-03
8.50416666666667e-01 5.66376376960686e-01 6.83333564348056e-03
8.54154761904762e-01 5.61725358320030e-01 6.79209983280147e-03
8.57892857142857e-01 5.57112533313655e-01 6.75104820754870e-03
8.61630952380952e-01 5.52537588304863e-01 6.71018099543303e-03
8.65369047619048e-01 5.48000212227376e-01 6.66949840368479e-03
8.69107142857143e-01 5.43500096569349e-01 6.62900061422435e-03
8.72845238095238e-01 5.39036935352409e-01 6.58868778761468e-03
8.76583333333333e-01 5.34610425106100e-01 6.54856005862561e-03
8.80321428571428e-01 5.30220264861587e-01 6.50861754004598e-03
8.84059523809524e-01 5.25866156116739e-01 6.46886032653584e-03
8.87797619047619e-01 5.21547802820696e-01 6.42928849160237e-03
8.91535714285714e-01 5.17264911349222e-01 6.38990208502623e-03
8.95273809523809e-01 5.13017190498383e-01 6.35070113650495e-03
8.99011904761905e-01 5.08804351450996e-01 6.31168565933240e-03
9.02750000000000e-01 5.04626107761615e-01 6.27285564747949e-03
9.06488095238095e-01 5.00482175332754e-01 6.23421107310750e-03
9.10226190476190e-01 4.96372272408564e-01 6.19575189004777e-03
9.13964285714286e-01 4.92296119542578e-01 6.15747803731996e-03
9.17702380952381e-01 4.88253439583114e-01 6.11938943631395e-03
9.21440476190476e-01 4.84243957650340e-01 6.08148598838594e-03
9.25178571428571e-01 4.80267401129945e-01 6.04376757818501e-03
9.28916666666667e-01 4.76323499642150e-01 6.00623407701696e-03
9.32654761904762e-01 4.72411985027497e-01 5.96888534012519e-03
9.36392857142857e-01 4.68532591324733e-01 5.93172120436646e-03
9.40130952380952e-01 4.64685054764497e-01 5.89474149139203e-03
9.43869047619048e-01 4.60869113739521e-01 5.85794601086511e-03
9.47607142857143e-01 4.57084508790822e-01 5.82133455650001e-03
9.51345238095238e-01 4.53330982590069e-01 5.78490690917268e-03
9.55083333333333e-01 4.49608279918421e-01 5.74866283327440e-03
9.58821428571428e-01 4.45916147660241e-01 5.71260207971177e-03
9.62559523809524e-01 4.42254334774732e-01 5.67672438894330e-03
9.66297619047619e-01 4.38622592282619e-01 5.64102948847682e-03
9.70035714285714e-01 4.35020673245727e-01 5.60551709072734e-03
9.73773809523809e-01 4.31448332760738e-01 5.57018689588818e-03
9.77511904761905e-01 4.27905327931913e-01 5.53503859483537e-03
9.81250000000000e-01 4.24391417858144e-01 5.50007186671435e-03
9.84988095238095e-01 4.20906363613255e-01 5.46528637687022e-03
9.88726190476190e-01 4.17449928239798e-01 5.43068177959497e-03
9.92464285714286e-01 4.14021876722825e-01 5.39625772090788e-03
9.96202380952381e-01 4.10621975977300e-01 5.36201383622661e-03
9.99940476190476e-01 4.07249994829087e-01 5.32794974374592e-03
1.00367857142857e+00 4.03905704021319e-01 5.29406506674693e-03
1.00741666666667e+00 4.00588876135919e-01 5.26035940397436e-03
1.01115476190476e+00 3.97299285681386e-01 5.22683235104100e-03
1.01489285714286e+00 3.94036708956458e-01 5.19348349403662e-03
1.01863095238095e+00 3.90800924157610e-01 5.16031240919202e-03
1.02236904761905e+00 3.87591711242752e-01 5.12731867578768e-03
1.02610714285714e+00 3.84408852006841e-01 5.09450183093554e-03
1.02984523809524e+00 3.81252130065688e-01 5.06186143680731e-03
1.03358333333333e+00 3.78121330753872e-01 5.02939703695879e-03
1.03732142857143e+00 3.75016241226233e-01 4.99710816627730e-03
1.04105952380952e+00 3.71936650328711e-01 4.96499435288254e-03
1.04479761904762e+00 3.68882348697297e-01 4.93305511667360e-03
1.04853571428571e+00 3.65853128631852e-01 4.90128997118652e-03
1.05227380952381e+00 3.62848784192587e-01 4.86969842216731e-03
1.05601190476190e+00 3.59869111076785e-01 4.83827996938688e-03
1.05975000000000e+00 3.56913906712872e-01 4.80703410524148e-03
1.06348809523810e+00 3.53982970139979e-01 4.77596031652569e-03
1.06722619047619e+00 3.51076102099664e-01 4.74505808305933e-03
1.07096428571429e+00 3.48193104918234e-01 4.71432687941877e-03
1.07470238095238e+00 3.45333782596199e-01 4.68376617359008e-03
1.07844047619048e+00 3.42497940693271e-01 4.65337542866225e-03
1.08217857142857e+00 3.39685386415607e-01 4.62315410150346e-03
1.08591666666667e+00 3.36895928503435e-01 4.59310164441619e-03
1.08965476190476e+00 3.34129377316135e-01 4.56321750383932e-03
1.09339285714286e+00 3.31385544722422e-01 4.53350112196479e-03
1.09713095238095e+00 3.28664244183326e-01 4.50395193546380e-03
1.10086904761905e+00 3.25965290644875e-01 4.47456938590503e-03
1.10460714285714e+00 3.23288500596232e-01 4.44535288308083e-03
1.10834523809524e+00 3.20633692056163e-01 4.41630185945621e-03
1.11208333333333e+00 3.18000684492420e-01 4.38741573473648e-03
1.11582142857143e+00 3.15389298900154e-01 4.35869392390507e-03
1.11955952380952e+00 3.12799357700123e-01 4.33013583872345e-03
1.12329761904762e+00 3.10230684815185e-01 4.30174088653152e-03
1.12703571428571e+00 3.07683105570799e-01 4.27350847171405e-03
1.13077380952381e+00 3.05156446769648e-01 4.24543799452280e-03
1.13451190476190e+00 3.02650536594380e-01 4.21752885251058e-03
1.13825000000000e+00 3.00165204680402e-01 4.18978043937490e-03
1.14198809523810e+00 2.97700282020812e-01 4.16219214636016e-03
1.14572619047619e+00 2.95255601037414e-01 4.13476336112327e-03
1.14946428571429e+00 2.92830995487782e-01 4.10749346910357e-03
1.15320238095238e+00 2.90426300534548e-01 4.08038185241045e-03
1.15694047619048e+00 2.88041352654539e-01 4.05342789116247e-03
1.16067857142857e+00 2.85675989706390e-01 4.02663096239503e-03
1.16441666666667e+00 2.83330050841701e-01 3.99999044137129e-03
1.16815476190476e+00 2.81003376571014e-01 3.97350570050911e-03
1.17189285714286e+00 2.78695808676952e-01 3.94717611066260e-03
1.17563095238095e+00 2.76407190278592e-01 3.92100104006940e-03
1.17936904761905e+00 2.74137365746540e-01 3.89497986278498e-03
