Energy (eV)          EEDF (eV^-(3/2))     First Anisotropy
1.19642857142857e-02 1.47568732220552e-01 7.39220554803470e-05
3.58928571428571e-02 1.46659864949072e-01 1.22100904194935e-04
5.98214285714286e-02 1.45756595336342e-01 1.61278663282485e-04
8.37500000000000e-02 1.44858888909875e-01 1.91098162893551e-04
1.07678571428571e-01 1.43966711405612e-01 2.16014273086942e-04
1.31607142857143e-01 1.43080028771704e-01 2.37709556065476e-04
1.55535714285714e-01 1.42198807160865e-01 2.57053872280797e-04
1.79464285714286e-01 1.41323012945853e-01 2.74571994428935e-04
2.03392857142857e-01 1.40452612698437e-01 2.90611627429629e-04
2.27321428571429e-01 1.39587573193329e-01 3.05418285896738e-04
2.51250000000000e-01 1.38727861417983e-01 3.19173539435976e-04
2.75178571428571e-01 1.37873444555720e-01 3.32016492212854e-04
2.99107142857143e-01 1.37024289998790e-01 3.44056728398598e-04
3.23035714285714e-01 1.36180365333964e-01 3.55382552059040e-04
3.46964285714286e-01 1.35341638353478e-01 3.66066465328111e-04
3.70892857142857e-01 1.34508077044812e-01 3.76168944699283e-04
3.94821428571429e-01 1.33679649590692e-01 3.85741119704289e-04
4.18750000000000e-01 1.32856324374137e-01 3.94826725780729e-04
4.42678571428571e-01 1.32038069968782e-01 4.03463556716795e-04
4.66607142857143e-01 1.31224855145708e-01 4.11684566475720e-04
4.90535714285714e-01 1.30416648864627e-01 4.19518719088096e-04
5.14464285714286e-01 1.29613420279953e-01 4.26991653595039e-04
5.38392857142857e-01 1.28815138734219e-01 4.34126212474495e-04
5.62321428571429e-01 1.28021773757443e-01 4.40942863778491e-04
5.86250000000000e-01 1.27233295070183e-01 4.47460045386655e-04
6.10178571428571e-01 1.26449672576719e-01 4.53694446114894e-04
6.34107142857143e-01 1.25670876369347e-01 4.59661238111049e-04
6.58035714285714e-01 1.24896876722001e-01 4.65374270513359e-04
6.81964285714286e-01 1.24127644094164e-01 4.70846231745868e-04
7.05892857142857e-01 1.23363149125973e-01 4.76088787540778e-04
7.29821428571429e-01 1.22603362637390e-01 4.81112696675947e-04
7.53750000000000e-01 1.21848255630207e-01 4.85927911550135e-04
7.77678571428571e-01 1.21097799282769e-01 4.90543663958395e-04
8.01607142857143e-01 1.20351964952912e-01 4.94968539353421e-04
8.25535714285714e-01 1.19610724172956e-01 4.99210541409106e-04
8.49464285714286e-01 1.18874048652416e-01 5.03277148167214e-04
8.73392857142857e-01 1.18141910274081e-01 5.07175361992746e-04
8.97321428571428e-01 1.17414281093129e-01 5.10911752106888e-04
9.21250000000000e-01 1.16691133338487e-01 5.14492493515491e-04
9.45178571428571e-01 1.15972439408527e-01 5.17923400863742e-04
9.69107142857143e-01 1.15258171873171e-01 5.21209958633923e-04
9.93035714285714e-01 1.14548303469767e-01 5.24357348124424e-04
1.01696428571429e+00 1.13842807105046e-01 5.27370471299022e-04
1.04089285714286e+00 1.13141655852511e-01 5.30253973086157e-04
1.06482142857143e+00 1.12444822950812e-01 5.33012260441939e-04
1.08875000000000e+00 1.11752281803427e-01 5.35649520992655e-04
1.11267857142857e+00 1.11064005971464e-01 5.38169735446959e-04
1.13660714285714e+00 1.10379969191424e-01 5.40576694427802e-04
1.16053571428571e+00 1.09700145355181e-01 5.42874013977980e-04
1.18446428571429e+00 1.09024508515410e-01 5.45065143795860e-04
1.20839285714286e+00 1.08353032884574e-01 5.47153379332090e-04
1.23232142857143e+00 1.07685692833990e-01 5.49141871725163e-04
1.25625000000000e+00 1.07022462892820e-01 5.51033637973172e-04
1.28017857142857e+00 1.06363317741966e-01 5.52831566066269e-04
1.30410714285714e+00 1.05708232228691e-01 5.54538424827995e-04
1.32803571428571e+00 1.05057181349886e-01 5.56156873144962e-04
1.35196428571429e+00 1.04410140256434e-01 5.57689463208413e-04
1.37589285714286e+00 1.03767084252248e-01 5.59138647630735e-04
1.39982142857143e+00 1.03127988793365e-01 5.60506785015757e-04
1.42375000000000e+00 1.02492829486986e-01 5.61796146083058e-04
1.44767857142857e+00 1.01861582086202e-01 5.63008915561411e-04
1.47160714285714e+00 1.01234222502247e-01 5.64147198583291e-04
1.49553571428571e+00 1.00610726790252e-01 5.65213026769638e-04
1.51946428571429e+00 9.99910711528274e-02 5.66208359137080e-04
1.54339285714286e+00 9.93752319391362e-02 5.67135086677665e-04
1.56732142857143e+00 9.87631856440219e-02 5.67995035715272e-04
1.59125000000000e+00 9.81549089070959e-02 5.68789971915583e-04
1.61517857142857e+00 9.75503785081174e-02 5.69521600599876e-04
1.63910714285714e+00 9.69495713774048e-02 5.70191571257709e-04
1.66303571428571e+00 9.63524645835417e-02 5.70801481891224e-04
1.68696428571429e+00 9.57590353363458e-02 5.71352878767272e-04
1.71089285714286e+00 9.51692609859892e-02 5.71847259585659e-04
1.73482142857143e+00 9.45831190221545e-02 5.72286075619917e-04
1.75875000000000e+00 9.40005870731653e-02 5.72670734527235e-04
1.78267857142857e+00 9.34216429018982e-02 5.73002599858962e-04
1.80660714285714e+00 9.28462644147264e-02 5.73282994456287e-04
1.83053571428571e+00 9.22744296507895e-02 5.73513203749489e-04
1.85446428571429e+00 9.17061167844839e-02 5.73694474924121e-04
1.87839285714286e+00 9.11413041246207e-02 5.73828019244726e-04
1.90232142857143e+00 9.05799701136155e-02 5.73915013484444e-04
1.92625000000000e+00 9.00220933266562e-02 5.73956602005870e-04
1.95017857142857e+00 8.94676524680565e-02 5.73953895858412e-04
1.97410714285714e+00 8.89166263790069e-02 5.73907975462691e-04
1.99803571428571e+00 8.83689940281244e-02 5.73819893237972e-04
2.02196428571429e+00 8.78247345135574e-02 5.73690672474527e-04
2.04589285714286e+00 8.72838270621820e-02 5.73521309120303e-04
2.06982142857143e+00 8.67462510288220e-02 5.73312772772741e-04
2.09375000000000e+00 8.62119858954542e-02 5.73066008290255e-04
2.11767857142857e+00 8.56810112679309e-02 5.72781934683218e-04
2.14160714285714e+00 8.51533068827488e-02 5.72461447317761e-04
2.16553571428571e+00 8.46288525986621e-02 5.72105420085324e-04
2.18946428571429e+00 8.41076283984743e-02 5.71714704138363e-04
2.21339285714286e+00 8.35896143882685e-02 5.71290129317311e-04
2.23732142857143e+00 8.30747907966597e-02 5.70832504860851e-04
2.26125000000000e+00 8.25631379740337e-02 5.70342620700008e-04
2.28517857142857e+00 8.20546363895850e-02 5.69821246256851e-04
2.30910714285714e+00 8.15492666372646e-02 5.69269132306659e-04
2.33303571428571e+00 8.10470094282890e-02 5.68687012819452e-04
2.35696428571429e+00 8.05478455926737e-02 5.68075603646011e-04
2.38089285714286e+00 8.00517560784970e-02 5.67435603692953e-04
2.40482142857143e+00 7.95587219511818e-02 5.66767695445543e-04
2.42875000000000e+00 7.90687243927683e-02 5.66072546037373e-04
2.45267857142857e+00 7.85817446992220e-02 5.65350806021578e-04
2.47660714285714e+00 7.80977642856884e-02 5.64603110979171e-04
2.50053571428571e+00 7.76167646797666e-02 5.63830083115320e-04
2.52446428571429e+00 7.71387275228265e-02 5.63032329945367e-04
2.54839285714286e+00 7.66636345693040e-02 5.62210445286201e-04
2.57232142857143e+00 7.61914676860129e-02 5.61365009650147e-04
2.59625000000000e+00 7.57222088514481e-02 5.60496591150105e-04
2.62017857142857e+00 7.52558401533295e-02 5.59605744280251e-04
2.64410714285714e+00 7.47923437932660e-02 5.58693011328956e-04
2.66803571428571e+00 7.43317020806861e-02 5.57758923784904e-04
2.69196428571429e+00 7.38738974339738e-02 5.56804001051014e-04
2.71589285714286e+00 7.34189123797941e-02 5.55828751297370e-04
2.73982142857143e+00 7.29667295524331e-02 5.54833671763969e-04
2.76375000000000e+00 7.25173316931313e-02 5.53819249541225e-04
2.78767857142857e+00 7.20707016478331e-02 5.52785960381532e-04
2.81160714285714e+00 7.16268223713444e-02 5.51734269956677e-04
2.83553571428571e+00 7.11856769218324e-02 5.50664635111867e-04
2.85946428571429e+00 7.07472484618087e-02 5.49577502623368e-04
2.88339285714286e+00 7.03115202574833e-02 5.48473309943871e-04
2.90732142857143e+00 6.98784756781317e-02 5.47352485439344e-04
2.93125000000000e+00 6.94480981954572e-02 5.46215449072264e-04
2.95517857142857e+00 6.90203713815221e-02 5.45062611255829e-04
2.97910714285714e+00 6.85952789124665e-02 5.43894373984475e-04
3.00303571428571e+00 6.81728045635069e-02 5.42711131963332e-04
3.02696428571429e+00 6.77529322097875e-02 5.41513271417806e-04
3.05089285714286e+00 6.73356458257625e-02 5.40301170753178e-04
3.07482142857143e+00 6.69209294845890e-02 5.39075200742714e-04
3.09875000000000e+00 6.65087673575168e-02 5.37835725133014e-04
3.12267857142857e+00 6.60991437119811e-02 5.36583099547460e-04
3.14660714285714e+00 6.56920429149392e-02 5.35317672510533e-04
3.17053571428571e+00 6.52874494283082e-02 5.34039786472959e-04
3.19446428571429e+00 6.48853478097036e-02 5.32749776677298e-04
3.21839285714286e+00 6.44857227118476e-02 5.31447971747319e-04
3.24232142857143e+00 6.40885588819876e-02 5.30134693839594e-04
3.26625000000000e+00 6.36938411613121e-02 5.28810259185387e-04
3.29017857142857e+00 6.33015544831876e-02 5.27474977045545e-04
3.31410714285714e+00 6.29116838761614e-02 5.26129150644927e-04
3.33803571428571e+00 6.25242144597869e-02 5.24773078108723e-04
3.36196428571429e+00 6.21391314452656e-02 5.23407051384776e-04
3.38589285714286e+00 6.17564201348805e-02 5.22031356774939e-04
3.40982142857143e+00 6.13760659214392e-02 5.20646275058626e-04
3.43375000000000e+00 6.09980542877141e-02 5.19252081981607e-04
3.45767857142857e+00 6.06223708048094e-02 5.17849047263393e-04
3.48160714285714e+00 6.02490011348699e-02 5.16437435454036e-04
3.50553571428571e+00 5.98779310272513e-02 5.15017506793337e-04
3.52946428571429e+00 5.95091463190788e-02 5.13589516189696e-04
3.55339285714286e+00 5.91426329347040e-02 5.12153713702318e-04
3.57732142857143e+00 5.87783768851717e-02 5.10710344642998e-04
3.60125000000000e+00 5.84163642676835e-02 5.09259650020078e-04
3.62517857142857e+00 5.80565812640826e-02 5.07801865597469e-04
3.64910714285714e+00 5.76990141433021e-02 5.06337222683648e-04
3.67303571428571e+00 5.73436492578444e-02 5.04865948923488e-04
3.69696428571429e+00 5.69904730442662e-02 5.03388267331989e-04
3.72089285714286e+00 5.66394720226595e-02 5.01904396734411e-04
3.74482142857143e+00 5.62906327961395e-02 5.00414551850932e-04
3.76875000000000e+00 5.59439420503323e-02 4.98918943702071e-04
3.79267857142857e+00 5.55993865519646e-02 4.97417778717967e-04
3.81660714285714e+00 5.52569531510823e-02 4.95911259467410e-04
3.84053571428571e+00 5.49166287778068e-02 4.94399585390136e-04
3.86446428571429e+00 5.45784004427559e-02 4.92882951883381e-04
3.88839285714286e+00 5.42422552365475e-02 4.91361550705440e-04
3.91232142857143e+00 5.39081803293086e-02 4.89835570046824e-04
3.93625000000000e+00 5.35761629701850e-02 4.88305194902027e-04
3.96017857142857e+00 5.32461904860272e-02 4.86770606227242e-04
3.98410714285714e+00 5.29182502834039e-02 4.85231981616047e-04
4.00803571428571e+00 5.25923298456082e-02 4.83689495978355e-04
4.03196428571429e+00 5.22684167330226e-02 4.82143320677676e-04
4.05589285714286e+00 5.19464985826436e-02 4.80593623902530e-04
4.07982142857143e+00 5.16265631076120e-02 4.79040570726565e-04
4.10375000000000e+00 5.13085980967424e-02 4.77484323451082e-04
4.12767857142857e+00 5.09925914132978e-02 4.75925040808794e-04
4.15160714285714e+00 5.06785309968204e-02 4.74362878591600e-04
4.17553571428571e+00 5.03664048603621e-02 4.72797990281856e-04
4.19946428571429e+00 5.00562010908017e-02 4.71230526237577e-04
4.22339285714286e+00 4.97479078483895e-02 4.69660634035443e-04
4.24732142857143e+00 4.94415133662972e-02 4.68088458522077e-04
4.27125000000000e+00 4.91370059501674e-02 4.66514142130496e-04
4.29517857142857e+00 4.88343739769686e-02 4.64937824127763e-04
4.31910714285714e+00 4.85336058966625e-02 4.63359641199473e-04
4.34303571428571e+00 4.82346902296385e-02 4.61779728037832e-04
4.36696428571429e+00 4.79376155669879e-02 4.60198216572363e-04
4.39089285714286e+00 4.76423705700687e-02 4.58615236287571e-04
4.41482142857143e+00 4.73489439700732e-02 4.57030914266969e-04
4.43875000000000e+00 4.70573245675982e-02 4.55445375486154e-04
4.46267857142857e+00 4.67675012315720e-02 4.53858742102151e-04
4.48660714285714e+00 4.64794629007763e-02 4.52271133998684e-04
4.51053571428571e+00 4.61931985814648e-02 4.50682669334848e-04
4.53446428571429e+00 4.59086973476017e-02 4.49093463818874e-04
4.55839285714286e+00 4.56259483404430e-02 4.47503631003047e-04
4.58232142857143e+00 4.53449407681240e-02 4.45913282321632e-04
4.60625000000000e+00 4.50656639052464e-02 4.44322527363145e-04
4.63017857142857e+00 4.47881070918744e-02 4.42731473199000e-04
4.65410714285714e+00 4.45122597349229e-02 4.41140224892963e-04
4.67803571428571e+00 4.42381113059471e-02 4.39548886013932e-04
4.70196428571429e+00 4.39656513413459e-02 4.37957557950281e-04
4.72589285714286e+00 4.36948694419628e-02 4.36366340184324e-04
4.74982142857143e+00 4.34257552726893e-02 4.34775330325051e-04
4.77375000000000e+00 4.31582985620707e-02 4.33184624361604e-04
4.79767857142857e+00 4.28924891013636e-02 4.31594316029114e-04
4.82160714285714e+00 4.26283167458059e-02 4.30004497285250e-04
4.84553571428571e+00 4.23657714125602e-02 4.28415258790235e-04
4.86946428571429e+00 4.21048430808886e-02 4.26826689259340e-04
4.89339285714286e+00 4.18455217917697e-02 4.25238875718665e-04
4.91732142857143e+00 4.15877976475200e-02 4.23651903533835e-04
4.94125000000000e+00 4.13316608114150e-02 4.22065856646167e-04
4.96517857142857e+00 4.10771015068058e-02 4.20480816973544e-04
4.98910714285714e+00 4.08241100182803e-02 4.18896864856940e-04
5.01303571428571e+00 4.05726766897486e-02 4.17314079510076e-04
5.03696428571429e+00 4.03227919245919e-02 4.15732538408009e-04
5.06089285714286e+00 4.00744461852961e-02 4.14152317525956e-04
5.08482142857143e+00 3.98276299930885e-02 4.12573491364311e-04
5.10875000000000e+00 3.95823339275758e-02 4.10996133169216e-04
5.13267857142857e+00 3.93385486259131e-02 4.09420314366497e-04
5.15660714285714e+00 3.90962647838687e-02 4.07846104980354e-04
5.18053571428571e+00 3.88554731540384e-02 4.06273574055216e-04
5.20446428571429e+00 3.86161645459720e-02 4.04702789078207e-04
5.22839285714286e+00 3.83783298258227e-02 4.03133816202425e-04
5.25232142857143e+00 3.81419599159988e-02 4.01566720268783e-04
5.27625000000000e+00 3.79070457948169e-02 4.00001565012464e-04
5.30017857142857e+00 3.76735784957209e-02 3.98438412527925e-04
5.32410714285714e+00 3.74415491082581e-02 3.96877323661831e-04
5.34803571428571e+00 3.72109487764127e-02 3.95318358409282e-04
5.37196428571429e+00 3.69817686987128e-02 3.93761575368085e-04
5.39589285714286e+00 3.67540001278935e-02 3.92207031947740e-04
5.41982142857143e+00 3.65276343705645e-02 3.90654784388800e-04
5.44375000000000e+00 3.63026627868775e-02 3.89104887956086e-04
5.46767857142857e+00 3.60790767897910e-02 3.87557396432995e-04
5.49160714285714e+00 3.58568678459666e-02 3.86012362490761e-04
5.51553571428571e+00 3.56360274742116e-02 3.84469838060708e-04
5.53946428571429e+00 3.54165472455689e-02 3.82929873818589e-04
5.56339285714286e+00 3.51984187829942e-02 3.81392519380465e-04
5.58732142857143e+00 3.49816337610375e-02 3.79857823319764e-04
5.61125000000000e+00 3.47661839055247e-02 3.78325833348493e-04
5.63517857142857e+00 3.45520609928651e-02 3.76796595839062e-04
5.65910714285714e+00 3.43392568508745e-02 3.75270156171460e-04
5.68303571428571e+00 3.41277633573197e-02 3.73746559083499e-04
5.70696428571429e+00 3.39175724399917e-02 3.72225848183284e-04
5.73089285714286e+00 3.37086760763976e-02 3.70708066132975e-04
5.75482142857143e+00 3.35010662934550e-02 3.69193254664000e-04
5.77875000000000e+00 3.32947351671871e-02 3.67681454746984e-04
5.80267857142857e+00 3.30896748220699e-02 3.66172706139616e-04
5.82660714285714e+00 3.28858774317895e-02 3.64667047713395e-04
5.85053571428571e+00 3.26833352178790e-02 3.63164517783156e-04
5.87446428571429e+00 3.24820404497789e-02 3.61665153646198e-04
5.89839285714286e+00 3.22819854445416e-02 3.60168991754869e-04
5.92232142857143e+00 3.20831625665383e-02 3.58676067730036e-04
5.94625000000000e+00 3.18855642271677e-02 3.57186416520675e-04
5.97017857142857e+00 3.16891828842404e-02 3.55700071976246e-04
5.99410714285714e+00 3.14940110426745e-02 3.54217067154348e-04
6.01803571428571e+00 3.13000412532203e-02 3.52737434631074e-04
6.04196428571429e+00 3.11072661125076e-02 3.51261206065218e-04
6.06589285714286e+00 3.09156782627627e-02 3.49788412360356e-04
6.08982142857143e+00 3.07252703915285e-02 3.48319083676878e-04
6.11375000000000e+00 3.05360352313849e-02 3.46853249582097e-04
6.13767857142857e+00 3.03479655593673e-02 3.45390938645582e-04
6.16160714285714e+00 3.01610541976083e-02 3.43932178729065e-04
6.18553571428571e+00 2.99752940121413e-02 3.42476997278943e-04
6.20946428571429e+00 2.97906779129372e-02 3.41025420913911e-04
6.23339285714286e+00 2.96071988536340e-02 3.39577475577546e-04
6.25732142857143e+00 2.94248498312679e-02 3.38133186549029e-04
6.28125000000000e+00 2.92436238860062e-02 3.36692578584313e-04
6.30517857142857e+00 2.90635141005980e-02 3.35255675533173e-04
6.32910714285714e+00 2.88845136009648e-02 3.33822500612541e-04
6.35303571428571e+00 2.87066155550790e-02 3.32393076682311e-04
6.37696428571429e+00 2.85298131729912e-02 3.30967425855158e-04
6.40089285714286e+00 2.83540997065704e-02 3.29545569640151e-04
6.42482142857143e+00 2.81794684492474e-02 3.28127528952320e-04
6.44875000000000e+00 2.80059127357582e-02 3.26713324245554e-04
6.47267857142857e+00 2.78334259416258e-02 3.25302975150170e-04
6.49660714285714e+00 2.76620014837041e-02 3.23896500730688e-04
6.52053571428571e+00 2.74916328191250e-02 3.22493919745988e-04
6.54446428571429e+00 2.73223134453180e-02 3.21095250280146e-04
6.56839285714286e+00 2.71540368997609e-02 3.19700509877617e-04
6.59232142857143e+00 2.69867967597344e-02 3.18309715551797e-04
6.61625000000000e+00 2.68205866420760e-02 3.16922883910211e-04
6.64017857142857e+00 2.66554002026903e-02 3.15540030811384e-04
6.66410714285714e+00 2.64912311370508e-02 3.14161171608168e-04
6.68803571428571e+00 2.63280731792108e-02 3.12786321393220e-04
6.71196428571429e+00 2.61659201018152e-02 3.11415494649507e-04
6.73589285714286e+00 2.60047657158628e-02 3.10048705377757e-04
6.75982142857143e+00 2.58446038704701e-02 3.08685967104122e-04
6.78375000000000e+00 2.56854284526368e-02 3.07327292998180e-04
6.80767857142857e+00 2.55272333867815e-02 3.05972695547989e-04
6.83160714285714e+00 2.53700126352055e-02 3.04622186789831e-04
6.85553571428571e+00 2.52137601971629e-02 3.03275778540022e-04
6.87946428571429e+00 2.50584701088661e-02 3.01933482063929e-04
6.90339285714286e+00 2.49041364432580e-02 3.00595308196151e-04
6.92732142857143e+00 2.47507533097861e-02 2.99261267347488e-04
6.95125000000000e+00 2.45983148541773e-02 2.97931369616144e-04
6.97517857142857e+00 2.44468152579996e-02 2.96605624479937e-04
6.99910714285714e+00 2.42962487390891e-02 2.95284041013320e-04
7.02303571428571e+00 2.41466095506764e-02 2.93966628106382e-04
7.04696428571429e+00 2.39978919813860e-02 2.92653394151378e-04
7.07089285714286e+00 2.38500903550185e-02 2.91344347156093e-04
7.09482142857143e+00 2.37031990303339e-02 2.90039494750055e-04
7.11875000000000e+00 2.35572124008363e-02 2.88738844289506e-04
7.14267857142857e+00 2.34121248943585e-02 2.87442402565868e-04
7.16660714285714e+00 2.32679309734569e-02 2.86150176010724e-04
7.19053571428571e+00 2.31246251345891e-02 2.84862170902770e-04
7.21446428571429e+00 2.29822019081088e-02 2.83578393070930e-04
7.23839285714286e+00 2.28406558580568e-02 2.82298848001340e-04
7.26232142857143e+00 2.26999815819537e-02 2.81023540842874e-04
7.28625000000000e+00 2.25601737105938e-02 2.79752476506305e-04
7.31017857142857e+00 2.24212269076514e-02 2.78485659388006e-04
7.33410714285714e+00 2.22831358700460e-02 2.77223093563726e-04
7.35803571428571e+00 2.21458953271679e-02 2.75964782984255e-04
7.38196428571429e+00 2.20095000408688e-02 2.74710731194100e-04
7.40589285714286e+00 2.18739448052619e-02 2.73460941432495e-04
7.42982142857143e+00 2.17392244465231e-02 2.72215416638409e-04
7.45375000000000e+00 2.16053338226937e-02 2.70974159544174e-04
7.47767857142857e+00 2.14722678233076e-02 2.69737172413627e-04
7.50160714285714e+00 2.13400213697282e-02 2.68504457225297e-04
7.52553571428571e+00 2.12085894144200e-02 2.67276015857495e-04
7.54946428571429e+00 2.10779669409348e-02 2.66051849821678e-04
