Energy (eV)          EEDF (eV^-(3/2))     First Anisotropy
1.91836734693878e-03 2.80916125922842e+00 1.47279861017182e-03
5.75510204081633e-03 2.78938606014203e+00 2.43162365153120e-03
9.59183673469388e-03 2.76975006931317e+00 3.20899777159975e-03
1.34285714285714e-02 2.75025230676888e+00 3.79895399010016e-03
1.72653061224490e-02 2.73089179948008e+00 4.29047119935502e-03
2.11020408163265e-02 2.71166758123146e+00 4.71719907578154e-03
2.49387755102041e-02 2.69257869261038e+00 5.09655523584878e-03
2.87755102040816e-02 2.67362418095836e+00 5.43905994149341e-03
3.26122448979592e-02 2.65480310032333e+00 5.75169189695497e-03
3.64489795918367e-02 2.63611451146458e+00 6.03938455149217e-03
4.02857142857143e-02 2.61755748164361e+00 6.30579066393577e-03
4.41224489795918e-02 2.59913108474633e+00 6.55371192424695e-03
4.79591836734694e-02 2.58083440117789e+00 6.78535801496492e-03
5.17959183673469e-02 2.56266651781678e+00 7.00251156600699e-03
5.56326530612245e-02 2.54462652796940e+00 7.20663788339256e-03
5.94693877551020e-02 2.52671353132473e+00 7.39896059607187e-03
6.33061224489796e-02 2.50892663390948e+00 7.58051538788858e-03
6.71428571428571e-02 2.49126494804340e+00 7.75218914343139e-03
7.09795918367347e-02 2.47372759229511e+00 7.91474909621407e-03
7.48163265306122e-02 2.45631369143813e+00 8.06886494829821e-03
7.86530612244898e-02 2.43902237640715e+00 8.21512593821171e-03
8.24897959183673e-02 2.42185278425464e+00 8.35405420671746e-03
8.63265306122449e-02 2.40480405810781e+00 8.48611540219671e-03
9.01632653061225e-02 2.38787534712584e+00 8.61172719583319e-03
9.40000000000000e-02 2.37106580645744e+00 8.73126618989640e-03
9.78367346938775e-02 2.35437459721522e+00 8.84507358656737e-03
1.01673469387755e-01 2.33780088638334e+00 8.95345987101852e-03
1.05510204081633e-01 2.32134384678109e+00 9.05670867749480e-03
1.09346938775510e-01 2.30500265724563e+00 9.15508012949099e-03
1.13183673469388e-01 2.28877650210082e+00 9.24881358133162e-03
1.17020408163265e-01 2.27266457155981e+00 9.33812992933094e-03
1.20857142857143e-01 2.25666606153658e+00 9.42323366955893e-03
1.24693877551020e-01 2.24078017373066e+00 9.50431466726751e-03
1.28530612244898e-01 2.22500611520818e+00 9.58154962295669e-03
1.32367346938775e-01 2.20934309874422e+00 9.65510332501378e-03
1.36204081632653e-01 2.19379034276745e+00 9.72512989236058e-03
1.40040816326531e-01 2.17834707098363e+00 9.79177372286277e-03
1.43877551020408e-01 2.16301251267556e+00 9.85517032372131e-03
1.47714285714286e-01 2.14778590265238e+00 9.91544718476910e-03
1.51551020408163e-01 2.13266648090815e+00 9.97272442038812e-03
1.55387755102041e-01 2.11765349288784e+00 1.00271153366670e-02
1.59224489795918e-01 2.10274618943893e+00 1.00787270686870e-02
1.63061224489796e-01 2.08794382650052e+00 1.01276610260770e-02
1.66897959183673e-01 2.07324566534100e+00 1.01740133034031e-02
1.70734693877551e-01 2.05865097242906e+00 1.02178751066042e-02
1.74571428571429e-01 2.04415901947790e+00 1.02593331362396e-02
1.78408163265306e-01 2.02976908316480e+00 1.02984698838774e-02
1.82244897959184e-01 2.01548044534051e+00 1.03353638851377e-02
1.86081632653061e-01 2.00129239298529e+00 1.03700900657738e-02
1.89918367346939e-01 1.98720421795013e+00 1.04027199454766e-02
1.93755102040816e-01 1.97321521714533e+00 1.04333218214645e-02
1.97591836734694e-01 1.95932469249881e+00 1.04619610464150e-02
2.01428571428571e-01 1.94553195071614e+00 1.04887001774278e-02
2.05265306122449e-01 1.93183630345171e+00 1.05135991106078e-02
2.09102040816327e-01 1.91823706726815e+00 1.05367153091899e-02
2.12938775510204e-01 1.90473356341347e+00 1.05581039130682e-02
2.16775510204082e-01 1.89132511797694e+00 1.05778178489822e-02
2.20612244897959e-01 1.87801106179183e+00 1.05959079780182e-02
2.24448979591837e-01 1.86479073045897e+00 1.06124232305925e-02
2.28285714285714e-01 1.85166346414168e+00 1.06274106907512e-02
2.32122448979592e-01 1.83862860770567e+00 1.06409156621417e-02
2.35959183673469e-01 1.82568551068152e+00 1.06529818232717e-02
2.39795918367347e-01 1.81283352707247e+00 1.06636512810657e-02
2.43632653061224e-01 1.80007201548250e+00 1.06729646193138e-02
2.47469387755102e-01 1.78740033908012e+00 1.06809610334925e-02
2.51306122448980e-01 1.77481786541787e+00 1.06876783698709e-02
2.55142857142857e-01 1.76232396655006e+00 1.06931531608099e-02
2.58979591836735e-01 1.74991801899736e+00 1.06974207433272e-02
2.62816326530612e-01 1.73759940357718e+00 1.07005152871482e-02
2.66653061224490e-01 1.72536750551208e+00 1.07024698289359e-02
2.70489795918367e-01 1.71322171435231e+00 1.07033163420292e-02
2.74326530612245e-01 1.70116142398777e+00 1.07030858006131e-02
2.78163265306122e-01 1.68918603248996e+00 1.07018082062655e-02
2.82000000000000e-01 1.67729494221033e+00 1.06995126030427e-02
2.85836734693878e-01 1.66548755974731e+00 1.06962271695131e-02
2.89673469387755e-01 1.65376329579682e+00 1.06919792298694e-02
2.93510204081633e-01 1.64212156524316e+00 1.06867952634937e-02
2.97346938775510e-01 1.63056178712693e+00 1.06807009885481e-02
3.01183673469388e-01 1.61908338450352e+00 1.06737213684217e-02
3.05020408163265e-01 1.60768578452733e+00 1.06658806248186e-02
3.08857142857143e-01 1.59636841838535e+00 1.06572022830768e-02
3.12693877551020e-01 1.58513072130333e+00 1.06477092138552e-02
3.16530612244898e-01 1.57397213241320e+00 1.06374236429382e-02
3.20367346938775e-01 1.56289209483006e+00 1.06263671520729e-02
3.24204081632653e-01 1.55189005562188e+00 1.06145607479106e-02
3.28040816326531e-01 1.54096546568346e+00 1.06020248609748e-02
3.31877551020408e-01 1.53011777980790e+00 1.05887793440327e-02
3.35714285714286e-01 1.51934645665713e+00 1.05748435360143e-02
3.39551020408163e-01 1.50865095864205e+00 1.05602362589522e-02
3.43387755102041e-01 1.49803075198889e+00 1.05449758144479e-02
3.47224489795918e-01 1.48748530671052e+00 1.05290800432151e-02
3.51061224489796e-01 1.47701409649229e+00 1.05125663203809e-02
3.54897959183673e-01 1.46661659875386e+00 1.04954515570718e-02
3.58734693877551e-01 1.45629229459364e+00 1.04777522297620e-02
3.62571428571429e-01 1.44604066879000e+00 1.04594844071955e-02
3.66408163265306e-01 1.43586120969364e+00 1.04406637508858e-02
3.70244897959184e-01 1.42575340928445e+00 1.04213055084937e-02
3.74081632653061e-01 1.41571676314428e+00 1.04014245653243e-02
3.77918367346939e-01 1.40575077035417e+00 1.03810354369981e-02
3.81755102040816e-01 1.39585493354730e+00 1.03601522619707e-02
3.85591836734694e-01 1.38602875888251e+00 1.03387888500747e-02
3.89428571428571e-01 1.37627175594608e+00 1.03169586745147e-02
3.93265306122449e-01 1.36658343780111e+00 1.02946748637674e-02
3.97102040816327e-01 1.35696332096170e+00 1.02719502474610e-02
4.00938775510204e-01 1.34741092529896e+00 1.02487973478239e-02
4.04775510204082e-01 1.33792577408724e+00 1.02252283767623e-02
4.08612244897959e-01 1.32850739395680e+00 1.02012552568192e-02
4.12448979591837e-01 1.31915531489197e+00 1.01768896403345e-02
4.16285714285714e-01 1.30986907014207e+00 1.01521429062549e-02
4.20122448979592e-01 1.30064819626403e+00 1.01270261510347e-02
4.23959183673469e-01 1.29149223309793e+00 1.01015502294192e-02
4.27795918367347e-01 1.28240072368163e+00 1.00757257450932e-02
4.31632653061225e-01 1.27337321429057e+00 1.00495630413568e-02
4.35469387755102e-01 1.26440925441396e+00 1.00230722399411e-02
4.39306122448980e-01 1.25550839667285e+00 9.99626323150543e-03
4.43142857142857e-01 1.24667019685744e+00 9.96914566619485e-03
4.46979591836735e-01 1.23789421390374e+00 9.94172899064243e-03
4.50816326530612e-01 1.22918000981498e+00 9.91402243836213e-03
4.54653061224490e-01 1.22052714969661e+00 9.88603502509530e-03
4.58489795918367e-01 1.21193520171551e+00 9.85777556476921e-03
4.62326530612245e-01 1.20340373709614e+00 9.82925268404167e-03
4.66163265306122e-01 1.19493233004587e+00 9.80047481770370e-03
4.70000000000000e-01 1.18652055778721e+00 9.77145019907449e-03
4.73836734693878e-01 1.17816800053575e+00 9.74218689344814e-03
4.77673469387755e-01 1.16987424142828e+00 9.71269278842812e-03
4.81510204081633e-01 1.16163886655311e+00 9.68297558435516e-03
4.85346938775510e-01 1.15346146492838e+00 9.65304282633327e-03
4.89183673469388e-01 1.14534162843306e+00 9.62290189462466e-03
4.93020408163265e-01 1.13727895183531e+00 9.59255999949107e-03
4.96857142857143e-01 1.12927303275594e+00 9.56202419454596e-03
5.00693877551020e-01 1.12132347166354e+00 9.53130138889903e-03
5.04530612244898e-01 1.11342987180864e+00 9.50039834216325e-03
5.08367346938775e-01 1.10559183925005e+00 9.46932165504156e-03
5.12204081632653e-01 1.09780898283428e+00 9.43807779852346e-03
5.16040816326531e-01 1.09008091413221e+00 9.40667310445819e-03
5.19877551020408e-01 1.08240724746369e+00 9.37511375625175e-03
5.23714285714286e-01 1.07478759987751e+00 9.34340581691027e-03
5.27551020408163e-01 1.06722159109034e+00 9.31155521976402e-03
5.31387755102041e-01 1.05970884350987e+00 9.27956775930203e-03
5.35224489795918e-01 1.05224898221517e+00 9.24744911813289e-03
5.39061224489796e-01 1.04484163489788e+00 9.21520485784940e-03
5.42897959183673e-01 1.03748643188392e+00 9.18284041379351e-03
5.46734693877551e-01 1.03018300610155e+00 9.15036110591579e-03
5.50571428571429e-01 1.02293099307564e+00 9.11777214862614e-03
5.54408163265306e-01 1.01573003087148e+00 9.08507864578638e-03
5.58244897959184e-01 1.00857976011491e+00 9.05228558187327e-03
5.62081632653061e-01 1.00147982397371e+00 9.01939784674559e-03
5.65918367346939e-01 9.94429868103304e-01 8.98642022684952e-03
5.69755102040816e-01 9.87429540665727e-01 8.95335739654188e-03
5.73591836734694e-01 9.80478492311359e-01 8.92021394195337e-03
5.77428571428571e-01 9.73576376126612e-01 8.88699435237418e-03
5.81265306122449e-01 9.66722847651659e-01 8.85370301175579e-03
5.85102040816327e-01 9.59917564862606e-01 8.82034422171689e-03
5.88938775510204e-01 9.53160188120980e-01 8.78692219309850e-03
5.92775510204082e-01 9.46450380190389e-01 8.75344104094332e-03
5.96612244897959e-01 9.39787806208424e-01 8.71990479352048e-03
6.00448979591837e-01 9.33172133680483e-01 8.68631740049947e-03
6.04285714285714e-01 9.26603032431425e-01 8.65268272817050e-03
6.08122448979592e-01 9.20080174620994e-01 8.61900455132841e-03
6.11959183673469e-01 9.13603234726896e-01 8.58528657452246e-03
6.15795918367347e-01 9.07171889498071e-01 8.55153242400462e-03
6.19632653061225e-01 9.00785817969167e-01 8.51774563979050e-03
6.23469387755102e-01 8.94444701443996e-01 8.48392969617705e-03
6.27306122448980e-01 8.88148223450360e-01 8.45008799387462e-03
6.31142857142857e-01 8.81896069753652e-01 8.41622385225592e-03
6.34979591836735e-01 8.75687928340649e-01 8.38234052917389e-03
6.38816326530612e-01 8.69523489375853e-01 8.34844121327058e-03
6.42653061224490e-01 8.63402445214255e-01 8.31452901929547e-03
6.46489795918367e-01 8.57324490376522e-01 8.28060699572256e-03
6.50326530612245e-01 8.51289321542617e-01 8.24667813164169e-03
6.54163265306122e-01 8.45296637509940e-01 8.21274535231053e-03
6.58000000000000e-01 8.39346139205142e-01 8.17881151179162e-03
6.61836734693877e-01 8.33437529668739e-01 8.14487941132734e-03
6.65673469387755e-01 8.27570514014600e-01 8.11095179204501e-03
6.69510204081633e-01 8.21744799441034e-01 8.07703132776939e-03
6.73346938775510e-01 8.15960095215733e-01 8.04312064279442e-03
6.77183673469388e-01 8.10216112636567e-01 8.00922230476423e-03
6.81020408163265e-01 8.04512565041987e-01 7.97533882026983e-03
6.84857142857143e-01 7.98849167788412e-01 7.94147264159968e-03
6.88693877551020e-01 7.93225638243818e-01 7.90762617283910e-03
6.92530612244898e-01 7.87641695750114e-01 7.87380176569083e-03
6.96367346938776e-01 7.82097061632773e-01 7.84000171267155e-03
7.00204081632653e-01 7.76591459186517e-01 7.80622826363014e-03
7.04040816326531e-01 7.71124613638875e-01 7.77248361900329e-03
7.07877551020408e-01 7.65696252159203e-01 7.73876992317422e-03
7.11714285714286e-01 7.60306103844690e-01 7.70508928046403e-03
7.15551020408163e-01 7.54953899685054e-01 7.67144374856029e-03
7.19387755102041e-01 7.49639372570991e-01 7.63783533204155e-03
7.23224489795918e-01 7.44362257280481e-01 7.60426599786151e-03
7.27061224489796e-01 7.39122290444586e-01 7.57073766894078e-03
7.30897959183674e-01 7.33919210555370e-01 7.53725222015647e-03
7.34734693877551e-01 7.28752757945791e-01 7.50381148414136e-03
7.38571428571429e-01 7.23622674783374e-01 7.47041725652204e-03
7.42408163265306e-01 7.18528705037348e-01 7.43707129211419e-03
7.46244897959184e-01 7.13470594485962e-01 7.40377529880457e-03
7.50081632653061e-01 7.08448090703460e-01 7.37053095197735e-03
7.53918367346939e-01 7.03460943028223e-01 7.33733988845768e-03
7.57755102040816e-01 6.98508902569602e-01 7.30420370054413e-03
7.61591836734694e-01 6.93591722195183e-01 7.27112394998879e-03
7.65428571428571e-01 6.88709156499897e-01 7.23810216209785e-03
7.69265306122449e-01 6.83860961812408e-01 7.20513981991828e-03
7.73102040816326e-01 6.79046896182647e-01 7.17223837778793e-03
7.76938775510204e-01 6.74266719351855e-01 7.13939925558326e-03
7.80775510204082e-01 6.69520192758561e-01 7.10662383508645e-03
7.84612244897959e-01 6.64807079520654e-01 7.07391346500459e-03
7.88448979591837e-01 6.60127144429228e-01 7.04126946550134e-03
7.92285714285714e-01 6.55480153919768e-01 7.00869312475119e-03
7.96122448979592e-01 6.50865876077647e-01 6.97618569345040e-03
7.99959183673469e-01 6.46284080626279e-01 6.94374839746788e-03
8.03795918367347e-01 6.41734538899149e-01 6.91138243241538e-03
8.07632653061224e-01 6.37217023844950e-01 6.87908895829586e-03
8.11469387755102e-01 6.32731310015981e-01 6.84686911177569e-03
8.15306122448980e-01 6.28277173541016e-01 6.81472400089376e-03
8.19142857142857e-01 6.23854392130082e-01 6.78265469985119e-03
8.22979591836735e-01 6.19462745063106e-01 6.75066226091484e-03
8.26816326530612e-01 6.15102013163583e-01 6.71874770925951e-03
8.30653061224490e-01 6.10771978803030e-01 6.68691203969030e-03
8.34489795918367e-01 6.06472425884966e-01 6.65515622101043e-03
8.38326530612245e-01 6.02203139838987e-01 6.62348119996331e-03
8.42163265306122e-01 5.97963907595414e-01 6.59188789812270e-03
8.46000000000000e-01 5.93754517589371e-01 6.56037720697391e-03
8.49836734693878e-01 5.89574759749991e-01 6.52894999904350e-03
8.53673469387755e-01 5.85424425475799e-01 6.49760712303617e-03
8.57510204081633e-01 5.81303307638496e-01 6.46634939904372e-03
8.61346938775510e-01 5.77211200572401e-01 6.43517762934592e-03
8.65183673469388e-01 5.73147900050536e-01 6.40409259367265e-03
8.69020408163265e-01 5.69113203288149e-01 6.37309504617213e-03
8.72857142857143e-01 5.65106908927997e-01 6.34218571935318e-03
8.76693877551020e-01 5.61128817034630e-01 6.31136532764122e-03
8.80530612244898e-01 5.57178729071355e-01 6.28063456450102e-03
8.84367346938776e-01 5.53256447903451e-01 6.24999409791934e-03
8.88204081632653e-01 5.49361777788113e-01 6.21944458051497e-03
8.92040816326531e-01 5.45494524352085e-01 6.18898664506787e-03
8.95877551020408e-01 5.41654494594616e-01 6.15862090011581e-03
8.99714285714286e-01 5.37841496877631e-01 6.12834793977055e-03
9.03551020408163e-01 5.34055340903995e-01 6.09816833936545e-03
9.07387755102041e-01 5.30295837720242e-01 6.06808265116508e-03
9.11224489795918e-01 5.26562799706950e-01 6.03809141389949e-03
9.15061224489796e-01 5.22856040557625e-01 6.00819514852250e-03
9.18897959183673e-01 5.19175375281212e-01 5.97839435548323e-03
9.22734693877551e-01 5.15520620188909e-01 5.94868951818253e-03
9.26571428571429e-01 5.11891592888730e-01 5.91908110608928e-03
9.30408163265306e-01 5.08288112265149e-01 5.88956957215152e-03
9.34244897959184e-01 5.04709998481370e-01 5.86015534875193e-03
9.38081632653061e-01 5.01157072970175e-01 5.83083885664175e-03
9.41918367346939e-01 4.97629158414133e-01 5.80162050093928e-03
9.45755102040816e-01 4.94126078747677e-01 5.77250066718691e-03
9.49591836734694e-01 4.90647659148154e-01 5.74347973003155e-03
9.53428571428571e-01 4.87193726016576e-01 5.71455804932753e-03
9.57265306122449e-01 4.83764106979526e-01 5.68573596629566e-03
9.61102040816327e-01 4.80358630880389e-01 5.65701381195779e-03
9.64938775510204e-01 4.76977127760643e-01 5.62839190333775e-03
9.68775510204082e-01 4.73619428861594e-01 5.59987054101049e-03
9.72612244897959e-01 4.70285366612530e-01 5.57145001214122e-03
9.76448979591837e-01 4.66974774625594e-01 5.54313059322419e-03
9.80285714285714e-01 4.63687487677731e-01 5.51491254775615e-03
9.84122448979592e-01 4.60423341712235e-01 5.48679612261413e-03
9.87959183673469e-01 4.57182173830412e-01 5.45878155596636e-03
9.91795918367347e-01 4.53963822274025e-01 5.43086907369078e-03
9.95632653061225e-01 4.50768126426685e-01 5.40305888584433e-03
9.99469387755102e-01 4.47594926805696e-01 5.37535120035710e-03
1.00330612244898e+00 4.44444065030004e-01 5.34774619548235e-03
1.00714285714286e+00 4.41315383881444e-01 5.32024404172601e-03
1.01097959183673e+00 4.38208727218260e-01 5.29284492957146e-03
1.01481632653061e+00 4.35123939969101e-01 5.26554900263813e-03
1.01865306122449e+00 4.32060868212254e-01 5.23835640524248e-03
1.02248979591837e+00 4.29019359052144e-01 5.21126727187904e-03
1.02632653061224e+00 4.25999260726308e-01 5.18428172590525e-03
1.03016326530612e+00 4.23000422484414e-01 5.15739988123642e-03
1.03400000000000e+00 4.20022694692966e-01 5.13062184105062e-03
1.03783673469388e+00 4.17065928716772e-01 5.10394769945089e-03
1.04167346938776e+00 4.14129977021437e-01 5.07737754018945e-03
1.04551020408163e+00 4.11214693057232e-01 5.05091143829734e-03
1.04934693877551e+00 4.08319931359419e-01 5.02454945882944e-03
1.05318367346939e+00 4.05445547434467e-01 4.99829165846207e-03
1.05702040816327e+00 4.02591397858263e-01 4.97213808425614e-03
1.06085714285714e+00 3.99757340164625e-01 4.94608877522553e-03
1.06469387755102e+00 3.96943232941440e-01 4.92014375082835e-03
1.06853061224490e+00 3.94148935746290e-01 4.89430305374435e-03
1.07236734693878e+00 3.91374309100932e-01 4.86856668703332e-03
1.07620408163265e+00 3.88619214558333e-01 4.84293465570376e-03
1.08004081632653e+00 3.85883514597226e-01 4.81740695749374e-03
1.08387755102041e+00 3.83167072712766e-01 4.79198358170646e-03
1.08771428571429e+00 3.80469753313197e-01 4.76666451066723e-03
1.09155102040816e+00 3.77791421808619e-01 4.74144971857748e-03
1.09538775510204e+00 3.75131944509714e-01 4.71633917294519e-03
1.09922448979592e+00 3.72491188714663e-01 4.69133283345662e-03
1.10306122448980e+00 3.69869022609893e-01 4.66643065337840e-03
1.10689795918367e+00 3.67265315355183e-01 4.64163257844762e-03
1.11073469387755e+00 3.64679936986382e-01 4.61693854824803e-03
1.11457142857143e+00 3.62112758498756e-01 4.59234849511575e-03
1.11840816326531e+00 3.59563651751626e-01 4.56786234548997e-03
1.12224489795918e+00 3.57032489549995e-01 4.54348001883577e-03
1.12608163265306e+00 3.54519145551072e-01 4.51920142897008e-03
1.12991836734694e+00 3.52023494344210e-01 4.49502647414030e-03
1.13375510204082e+00 3.49545411380061e-01 4.47095507383214e-03
1.13759183673469e+00 3.47084772965583e-01 4.44698711464855e-03
1.14142857142857e+00 3.44641456319733e-01 4.42312248608742e-03
1.14526530612245e+00 3.42215339484947e-01 4.39936107257918e-03
1.14910204081633e+00 3.39806301402619e-01 4.37570275247405e-03
1.15293877551020e+00 3.37414221826313e-01 4.35214739927564e-03
1.15677551020408e+00 3.35038981395696e-01 4.32869488064294e-03
1.16061224489796e+00 3.32680461551450e-01 4.30534505960237e-03
1.16444897959184e+00 3.30338544607693e-01 4.28209779356462e-03
1.16828571428571e+00 3.28013113668554e-01 4.25895293551348e-03
1.17212244897959e+00 3.25704052699112e-01 4.23591033303870e-03
1.17595918367347e+00 3.23411246443600e-01 4.21296982950274e-03
1.17979591836735e+00 3.21134580494902e-01 4.19013126308786e-03
1.18363265306122e+00 3.18873941214345e-01 4.16739446794222e-03
1.18746938775510e+00 3.16629215799779e-01 4.14475927324148e-03
1.19130612244898e+00 3.14400292206933e-01 4.12222550431427e-03
1.19514285714286e+00 3.12187059216112e-01 4.09979297407448e-03
1.19897959183673e+00 3.09989406372507e-01 4.07746151475116e-03
1.20281632653061e+00 3.07807223981693e-01 4.05523093120221e-03
1.20665306122449e+00 3.05640403156048e-01 4.03310103175599e-03
1.21048979591837e+00 3.03488835740207e-01 4.01107162132945e-03
