Energy (eV)          EEDF (eV^-(3/2))     First Anisotropy
5.63793103448276e-02 3.84931389977981e-02 2.67476308539497e-05
1.69137931034483e-01 3.80374677354098e-02 4.40546198763812e-05
2.81896551724138e-01 3.75871905875150e-02 5.78576550091990e-05
3.94655172413793e-01 3.71422436969697e-02 6.81634807189786e-05
5.07413793103448e-01 3.67025639657620e-02 7.66106293174217e-05
6.20172413793103e-01 3.62680890436469e-02 8.38232618904967e-05
7.32931034482759e-01 3.58387573167085e-02 9.01266857681914e-05
8.45689655172414e-01 3.54145079012486e-02 9.57187071578317e-05
9.58448275862069e-01 3.49952806342904e-02 1.00731408626825e-04
1.07120689655172e+00 3.45810160637248e-02 1.05258770002052e-04
1.18396551724138e+00 3.41716554444059e-02 1.09370820277567e-04
1.29672413793103e+00 3.37671407246018e-02 1.13121610849294e-04
1.40948275862069e+00 3.33674145398070e-02 1.16554035178892e-04
1.52224137931034e+00 3.29724202045989e-02 1.19702906190234e-04
1.63500000000000e+00 3.25821017045939e-02 1.22597008554177e-04
1.74775862068966e+00 3.21964036884921e-02 1.25260517217343e-04
1.86051724137931e+00 3.18152714602369e-02 1.27714007623762e-04
1.97327586206897e+00 3.14386509712614e-02 1.29975193647359e-04
2.08603448275862e+00 3.10664888128139e-02 1.32059478522864e-04
2.19879310344828e+00 3.06987322083830e-02 1.33980374053086e-04
2.31155172413793e+00 3.03353290062136e-02 1.35749824957859e-04
2.42431034482759e+00 2.99762276719098e-02 1.37378463704267e-04
2.53706896551724e+00 2.96213772797093e-02 1.38875812747275e-04
2.64982758620690e+00 2.92707275096161e-02 1.40250447985754e-04
2.76258620689655e+00 2.89242286357998e-02 1.41510131841979e-04
2.87534482758621e+00 2.85818315210723e-02 1.42661921963090e-04
2.98810344827586e+00 2.82434876099199e-02 1.43712261854223e-04
3.10086206896552e+00 2.79091489216168e-02 1.44667056516359e-04
3.21362068965517e+00 2.75787680434212e-02 1.45531736147018e-04
3.32637931034483e+00 2.72522981238510e-02 1.46311310159803e-04
3.43913793103448e+00 2.69296928660369e-02 1.47010413286570e-04
3.55189655172414e+00 2.66109065211638e-02 1.47633345158571e-04
3.66465517241379e+00 2.62958938819788e-02 1.48184104477529e-04
3.77741379310345e+00 2.59846102763808e-02 1.48666418667036e-04
3.89017241379310e+00 2.56770115610852e-02 1.49083769727997e-04
4.00293103448276e+00 2.53730541153639e-02 1.49439416886133e-04
4.11568965517241e+00 2.50726948348593e-02 1.49736416601795e-04
4.22844827586207e+00 2.47758911247676e-02 1.49977639898996e-04
4.34120689655172e+00 2.44826008959477e-02 1.50165788144559e-04
4.45396551724138e+00 2.41927825567642e-02 1.50303407108265e-04
4.56672413793103e+00 2.39063950079324e-02 1.50392899076407e-04
4.67948275862069e+00 2.36233976366900e-02 1.50436534041500e-04
4.79224137931034e+00 2.33437503110377e-02 1.50436459670318e-04
4.90500000000000e+00 2.30674133740484e-02 1.50394710284387e-04
5.01775862068965e+00 2.27943476382421e-02 1.50313214972738e-04
5.13051724137931e+00 2.25245143800299e-02 1.50193804940052e-04
5.24327586206897e+00 2.22578753342232e-02 1.50038220179343e-04
5.35603448275862e+00 2.19943926886062e-02 1.49848115545272e-04
5.46879310344828e+00 2.17340290785740e-02 1.49625066294453e-04
5.58155172413793e+00 2.14767475818338e-02 1.49370573150769e-04
5.69431034482759e+00 2.12225117131689e-02 1.49086067009235e-04
5.80706896551724e+00 2.09712854188319e-02 1.48772913004098e-04
5.91982758620690e+00 2.07230330727499e-02 1.48432414556453e-04
6.03258620689655e+00 2.04777194701341e-02 1.48065817115587e-04
6.14534482758621e+00 2.02353098229404e-02 1.47674311292556e-04
6.25810344827586e+00 1.99957697549364e-02 1.47259036008598e-04
6.37086206896552e+00 1.97590652968259e-02 1.46821081348803e-04
6.48362068965517e+00 1.95251628814324e-02 1.46361491209095e-04
6.59637931034483e+00 1.92940293389384e-02 1.45881265755300e-04
6.70913793103448e+00 1.90656318921811e-02 1.45381363710576e-04
6.82189655172414e+00 1.88399381520055e-02 1.44862704486603e-04
6.93465517241379e+00 1.86169161126709e-02 1.44326170171912e-04
7.04741379310345e+00 1.83965341473115e-02 1.43772607388868e-04
7.16017241379310e+00 1.81787610034520e-02 1.43202829030513e-04
7.27293103448276e+00 1.79635657985753e-02 1.42617615886926e-04
7.38568965517241e+00 1.77509180157434e-02 1.42017718216355e-04
7.49844827586207e+00 1.75407874989896e-02 1.41403857035289e-04
7.61120689655172e+00 1.73331444498925e-02 1.40776725557818e-04
7.72396551724138e+00 1.71279594224887e-02 1.40136990556459e-04
7.83672413793103e+00 1.69252033193881e-02 1.39485293406853e-04
7.94948275862069e+00 1.67248473876474e-02 1.38822251258993e-04
8.06224137931035e+00 1.65268632146930e-02 1.38148458095701e-04
8.17500000000000e+00 1.63312227242917e-02 1.37464485732078e-04
8.28775862068965e+00 1.61378981725689e-02 1.36770884759971e-04
8.40051724137931e+00 1.59468621440742e-02 1.36068185441297e-04
8.51327586206897e+00 1.57580875478945e-02 1.35356898553834e-04
8.62603448275862e+00 1.55715476138112e-02 1.34637516192511e-04
8.73879310344828e+00 1.53872158885043e-02 1.33910512529124e-04
8.85155172413793e+00 1.52050662318013e-02 1.33176344533269e-04
8.96431034482759e+00 1.50250728129696e-02 1.32435452692670e-04
9.07706896551724e+00 1.48472101068585e-02 1.31688261555402e-04
9.18982758620690e+00 1.46714528908728e-02 1.30935180421411e-04
9.30258620689655e+00 1.44977762407953e-02 1.30176604005303e-04
9.41534482758621e+00 1.43261555274544e-02 1.29412912884784e-04
9.52810344827586e+00 1.41565664132323e-02 1.28644474072560e-04
9.64086206896552e+00 1.39889848486132e-02 1.27871641525577e-04
9.75362068965517e+00 1.38233870687729e-02 1.27094756630827e-04
9.86637931034483e+00 1.36597495902088e-02 1.26314148669116e-04
9.97913793103448e+00 1.34980492074093e-02 1.25530135137089e-04
1.00918965517241e+01 1.33382629901897e-02 1.24743022775649e-04
1.02046551724138e+01 1.31803682773067e-02 1.23953106944681e-04
1.03174137931034e+01 1.30243426792143e-02 1.23160672368313e-04
1.04301724137931e+01 1.28701640698270e-02 1.22365994378837e-04
1.05429310344828e+01 1.27178105849794e-02 1.21569338268369e-04
1.06556896551724e+01 1.25672606193326e-02 1.20770960218949e-04
1.07684482758621e+01 1.24184928219332e-02 1.19971106799723e-04
1.08812068965517e+01 1.22714860973566e-02 1.19170015837442e-04
1.09939655172414e+01 1.21262195984898e-02 1.18367917283457e-04
1.11067241379310e+01 1.19826727250017e-02 1.17565032640800e-04
1.12194827586207e+01 1.18408251204255e-02 1.16761575781853e-04
1.13322413793103e+01 1.17006566680403e-02 1.15957752452561e-04
1.14450000000000e+01 1.15621474917499e-02 1.15153761039694e-04
1.15577586206897e+01 1.14252779494844e-02 1.14349793336247e-04
1.16705172413793e+01 1.12900286316920e-02 1.13546034223182e-04
1.17832758620690e+01 1.11563803574587e-02 1.12742661448476e-04
1.18960344827586e+01 1.10243141752154e-02 1.11939846325970e-04
1.20087931034483e+01 1.08938113565794e-02 1.11137754433533e-04
1.21215517241379e+01 1.07648533948680e-02 1.10336545075386e-04
1.22343103448276e+01 1.06374220024767e-02 1.09536371942110e-04
1.23470689655172e+01 1.05114991072712e-02 1.08737382642363e-04
1.24598275862069e+01 1.03870668531047e-02 1.07939719325455e-04
1.25725862068966e+01 1.02641075941669e-02 1.07143519305073e-04
1.26853448275862e+01 1.01426038935322e-02 1.06348914546763e-04
1.27981034482759e+01 1.00225385206906e-02 1.05556032258519e-04
1.29108620689655e+01 9.90389444818889e-03 1.04764994443517e-04
1.30236206896552e+01 9.78665485198977e-03 1.03975918457565e-04
1.31363793103448e+01 9.67080310627872e-03 1.03188917568985e-04
1.32491379310345e+01 9.55632278205112e-03 1.02404100472569e-04
1.33618965517241e+01 9.44319764478708e-03 1.01621571820442e-04
1.34746551724138e+01 9.33141165132212e-03 1.00841431797122e-04
1.35874137931034e+01 9.22094895007456e-03 1.00063776620885e-04
1.37001724137931e+01 9.11179387626552e-03 9.92886990480935e-05
1.38129310344828e+01 9.00393095055041e-03 9.85162879143379e-05
1.39256896551724e+01 8.89734487682689e-03 9.77466286134470e-05
1.40384482758621e+01 8.79202053931849e-03 9.69798026949553e-05
1.41512068965517e+01 8.68794300269273e-03 9.62158883170071e-05
1.42639655172414e+01 8.58509750765476e-03 9.54549607021265e-05
1.43767241379310e+01 8.48346946962593e-03 9.46970917051942e-05
1.44894827586207e+01 8.38304447667721e-03 9.39423502470945e-05
1.46022413793103e+01 8.28380828680942e-03 9.31908019345544e-05
1.47150000000000e+01 8.18574682798084e-03 9.24425094705536e-05
1.48277586206897e+01 8.08884619404025e-03 9.16975330674580e-05
1.49405172413793e+01 7.99309264345385e-03 9.09559301885336e-05
1.50532758620690e+01 7.89847259673196e-03 9.02177553499903e-05
1.51660344827586e+01 7.80497263639957e-03 8.94830605018800e-05
1.52787931034483e+01 7.71257950317505e-03 8.87518954117681e-05
1.53915517241379e+01 7.62128009473580e-03 8.80243072777619e-05
1.55043103448276e+01 7.53106146386161e-03 8.73003410935917e-05
1.56170689655172e+01 7.44191081603084e-03 8.65800393069912e-05
1.57298275862069e+01 7.35381550932741e-03 8.58634421661603e-05
1.58425862068966e+01 7.26676305090696e-03 8.51505880693593e-05
1.59553448275862e+01 7.18074109581117e-03 8.44415132019495e-05
1.60681034482759e+01 7.09573744521893e-03 8.37362518692425e-05
1.61808620689655e+01 7.01174004419981e-03 8.30348361758000e-05
1.62936206896552e+01 6.92873698156918e-03 8.23372963412484e-05
1.64063793103448e+01 6.84671648661688e-03 8.16436610194496e-05
1.65191379310345e+01 6.76566692797033e-03 8.09539569584007e-05
1.66318965517241e+01 6.68557681194713e-03 8.02682093042868e-05
1.67446551724138e+01 6.60643478045452e-03 7.95864413007203e-05
1.68574137931034e+01 6.52822961080263e-03 7.89086745771967e-05
1.69701724137931e+01 6.45095021267324e-03 7.82349294408667e-05
1.70829310344828e+01 6.37458562703180e-03 7.75652245582733e-05
1.71956896551724e+01 6.29912502457472e-03 7.68995772335751e-05
1.73084482758621e+01 6.22455770376500e-03 7.62380031264951e-05
1.74212068965517e+01 6.15087309061200e-03 7.55805165164079e-05
1.75339655172414e+01 6.07806073586014e-03 7.49271305694437e-05
1.76467241379310e+01 6.00611031394918e-03 7.42778570407944e-05
1.77594827586207e+01 5.93501162155068e-03 7.36327065297050e-05
1.78722413793103e+01 5.86475457573025e-03 7.29916882151466e-05
1.79850000000000e+01 5.79532921370091e-03 7.23548100979219e-05
1.80977586206897e+01 5.72672569021392e-03 7.17220792455463e-05
1.82105172413793e+01 5.65893427656603e-03 7.10935016085231e-05
1.83232758620690e+01 5.59194535885668e-03 7.04690818747808e-05
1.84360344827586e+01 5.52574943772628e-03 6.98488236962048e-05
1.85487931034483e+01 5.46033712589535e-03 6.92327299178347e-05
1.86615517241379e+01 5.39569914720805e-03 6.86208023135348e-05
1.87743103448276e+01 5.33182633531747e-03 6.80130418046418e-05
1.88870689655172e+01 5.26870963205360e-03 6.74094482248021e-05
1.89998275862069e+01 5.20634008714538e-03 6.68100205279792e-05
1.91125862068966e+01 5.14470885593391e-03 6.62147569991620e-05
1.92253448275862e+01 5.08380719846055e-03 6.56236550072078e-05
1.93381034482759e+01 5.02362647822839e-03 6.50367112059261e-05
1.94508620689655e+01 4.96415816067339e-03 6.44539213140625e-05
1.95636206896552e+01 4.90539381287481e-03 6.38752803065107e-05
1.96763793103448e+01 4.84732510142882e-03 6.33007826082438e-05
1.97891379310345e+01 4.78994379157972e-03 6.27304218632321e-05
1.99018965517241e+01 4.73324174605318e-03 6.21641911195609e-05
2.00146551724138e+01 4.67721092362373e-03 6.16020826236328e-05
2.01274137931034e+01 4.62184337881716e-03 6.10440879961345e-05
2.02401724137931e+01 4.56713125993215e-03 6.04901984106099e-05
2.03529310344828e+01 4.51306680821341e-03 5.99404043775437e-05
2.04656896551724e+01 4.45964235675215e-03 5.93946959149213e-05
2.05784482758621e+01 4.40685032914368e-03 5.88530623556528e-05
2.06912068965517e+01 4.35468323918500e-03 5.83154925097558e-05
2.08039655172414e+01 4.30313368903304e-03 5.77819748288914e-05
2.09167241379310e+01 4.25219436841827e-03 5.72524972046284e-05
2.10294827586207e+01 4.20185805360851e-03 5.67270471257334e-05
2.11422413793103e+01 4.15211760615064e-03 5.62056114979755e-05
2.12550000000000e+01 4.10296597256606e-03 5.56881767937242e-05
2.13677586206897e+01 4.05439618263520e-03 5.51747292036857e-05
2.14805172413793e+01 4.00640134865011e-03 5.46652545100912e-05
2.15932758620690e+01 3.95897466421959e-03 5.41597379843806e-05
2.17060344827586e+01 3.91210940396532e-03 5.36581645277572e-05
2.18187931034483e+01 3.86579892189975e-03 5.31605188137883e-05
2.19315517241379e+01 3.82003665070859e-03 5.26667851095244e-05
2.20443103448276e+01 3.77481610081974e-03 5.21769474117148e-05
2.21570689655172e+01 3.73013085928269e-03 5.16909892868146e-05
2.22698275862069e+01 3.68597458946615e-03 5.12088940007120e-05
2.23825862068966e+01 3.64234102954603e-03 5.07306446504755e-05
2.24953448275862e+01 3.59922399182380e-03 5.02562239971417e-05
2.26081034482759e+01 3.55661736184948e-03 4.97856145915765e-05
2.27208620689655e+01 3.51451509737029e-03 4.93187986248682e-05
2.28336206896552e+01 3.47291122803148e-03 4.88557580481452e-05
2.29463793103448e+01 3.43179985396631e-03 4.83964746943684e-05
2.30591379310345e+01 3.39117514514878e-03 4.79409301220159e-05
2.31718965517241e+01 3.35103134056751e-03 4.74891057314527e-05
2.32846551724138e+01 3.31136274723922e-03 4.70409826250278e-05
2.33974137931034e+01 3.27216373991404e-03 4.65965417178172e-05
2.35101724137931e+01 3.23342875975999e-03 4.61557638502381e-05
2.36229310344828e+01 3.19515231374889e-03 4.57186296419623e-05
2.37356896551724e+01 3.15732897387777e-03 4.52851195995753e-05
2.38484482758621e+01 3.11995337624331e-03 4.48552139856790e-05
2.39612068965517e+01 3.08302022075262e-03 4.44288929213556e-05
2.40739655172414e+01 3.04652426989535e-03 4.40061364903377e-05
2.41867241379310e+01 3.01046034816135e-03 4.35869246024698e-05
2.42994827586207e+01 2.97482334130693e-03 4.31712370933576e-05
2.44122413793103e+01 2.93960819548628e-03 4.27590536018980e-05
2.45250000000000e+01 2.90480991696851e-03 4.23503536651265e-05
2.46377586206897e+01 2.87042357099135e-03 4.19451168146241e-05
2.47505172413793e+01 2.83644428120890e-03 4.15433224895858e-05
2.48632758620690e+01 2.80286722886609e-03 4.11449499658474e-05
2.49760344827586e+01 2.76968765252168e-03 4.07499784452231e-05
2.50887931034483e+01 2.73690084696251e-03 4.03583871463226e-05
2.52015517241379e+01 2.70450216267435e-03 3.99701551834423e-05
2.53143103448276e+01 2.67248700518274e-03 3.95852616533682e-05
2.54270689655172e+01 2.64085083427786e-03 3.92036855266285e-05
2.55398275862069e+01 2.60958916374499e-03 3.88254057302146e-05
2.56525862068966e+01 2.57869756035023e-03 3.84504012317422e-05
2.57653448275862e+01 2.54817164333900e-03 3.80786509261885e-05
2.58781034482759e+01 2.51800708381499e-03 3.77101337163413e-05
2.59908620689655e+01 2.48819960401240e-03 3.73448284110732e-05
2.61036206896552e+01 2.45874497703416e-03 3.69827138019691e-05
2.62163793103448e+01 2.42963902590421e-03 3.66237687413549e-05
2.63291379310345e+01 2.40087762309225e-03 3.62679720363565e-05
2.64418965517241e+01 2.37245668992874e-03 3.59153025234890e-05
2.65546551724138e+01 2.34437219592132e-03 3.55657389734968e-05
2.66674137931034e+01 2.31662015850133e-03 3.52192601623711e-05
2.67801724137931e+01 2.28919664213781e-03 3.48758449436891e-05
2.68929310344828e+01 2.26209775788750e-03 3.45354721495504e-05
2.70056896551724e+01 2.23531966284349e-03 3.41981206597589e-05
2.71184482758621e+01 2.20885855949334e-03 3.38637693127567e-05
2.72312068965517e+01 2.18271069547387e-03 3.35323969714960e-05
2.73439655172414e+01 2.15687236274282e-03 3.32039825905252e-05
2.74567241379310e+01 2.13133989715268e-03 3.28785051233427e-05
2.75694827586207e+01 2.10610967793121e-03 3.25559435865881e-05
2.76822413793103e+01 2.08117812707855e-03 3.22362769766711e-05
2.77950000000000e+01 2.05654170913048e-03 3.19194843308948e-05
2.79077586206897e+01 2.03219693038369e-03 3.16055447896884e-05
2.80205172413793e+01 2.00814033849239e-03 3.12944375370338e-05
2.81332758620690e+01 1.98436852189485e-03 3.09861417514010e-05
2.82460344827586e+01 1.96087810958379e-03 3.06806366634194e-05
2.83587931034483e+01 1.93766577037161e-03 3.03779016145920e-05
2.84715517241379e+01 1.91472821250436e-03 3.00779159750402e-05
2.85843103448276e+01 1.89206218319500e-03 2.97806591996479e-05
2.86970689655172e+01 1.86966446808465e-03 2.94861107539718e-05
2.88098275862069e+01 1.84753189102148e-03 2.91942501677586e-05
2.89225862068966e+01 1.82566131337323e-03 2.89050570894717e-05
2.90353448275862e+01 1.80404963366184e-03 2.86185112093123e-05
2.91481034482759e+01 1.78269378712382e-03 2.83345923113581e-05
2.92608620689655e+01 1.76159074520388e-03 2.80532802042272e-05
2.93736206896552e+01 1.74073751534240e-03 2.77745547707496e-05
2.94863793103448e+01 1.72013114033203e-03 2.74983960186140e-05
2.95991379310345e+01 1.69976869797197e-03 2.72247840083302e-05
2.97118965517241e+01 1.67964730065372e-03 2.69536989016594e-05
2.98246551724138e+01 1.65976409488535e-03 2.66851208967129e-05
2.99374137931034e+01 1.64011626108725e-03 2.64190302740759e-05
3.00501724137931e+01 1.62070101298990e-03 2.61554074438521e-05
3.01629310344828e+01 1.60151559730687e-03 2.58942328782562e-05
3.02756896551724e+01 1.58255729334445e-03 2.56354871566106e-05
3.03884482758621e+01 1.56382341255456e-03 2.53791509045737e-05
3.05012068965517e+01 1.54531129833884e-03 2.51252048369990e-05
3.06139655172414e+01 1.52701832548477e-03 2.48736298016348e-05
3.07267241379310e+01 1.50894189985636e-03 2.46244067160423e-05
3.08394827586207e+01 1.49107945802637e-03 2.43775166094219e-05
3.09522413793103e+01 1.47342846685612e-03 2.41329405656950e-05
3.10650000000000e+01 1.45598642330765e-03 2.38906597633365e-05
3.11777586206897e+01 1.43875085391571e-03 2.36506555159855e-05
3.12905172413793e+01 1.42171931449530e-03 2.34129092315493e-05
3.14032758620690e+01 1.40488938974179e-03 2.31774023782896e-05
3.15160344827586e+01 1.38825869304962e-03 2.29441165224476e-05
3.16287931034483e+01 1.37182486601110e-03 2.27130333666024e-05
3.17415517241379e+01 1.35558557813670e-03 2.24841346936068e-05
3.18543103448276e+01 1.33953852652462e-03 2.22574024032713e-05
3.19670689655172e+01 1.32368143548496e-03 2.20328184617414e-05
3.20798275862069e+01 1.30801205636611e-03 2.18103649364655e-05
3.21925862068966e+01 1.29252816708534e-03 2.15900240318705e-05
3.23053448275862e+01 1.27722757186429e-03 2.13717780368642e-05
3.24181034482759e+01 1.26210810091767e-03 2.11556093589500e-05
3.25308620689655e+01 1.24716761009993e-03 2.09415004768235e-05
3.26436206896552e+01 1.23240398073926e-03 2.07294339728783e-05
3.27563793103448e+01 1.21781511919779e-03 2.05193925663904e-05
3.28691379310345e+01 1.20339895662149e-03 2.03113590643567e-05
3.29818965517241e+01 1.18915344864694e-03 2.01053163932282e-05
3.30946551724138e+01 1.17507657506911e-03 1.99012475545165e-05
3.32074137931034e+01 1.16116633968275e-03 1.96991356550179e-05
3.33201724137931e+01 1.14742076987020e-03 1.94989639376775e-05
3.34329310344828e+01 1.13383791636510e-03 1.93007157355615e-05
3.35456896551724e+01 1.12041585297602e-03 1.91043745013811e-05
3.36584482758621e+01 1.10715267627417e-03 1.89099237658966e-05
3.37712068965517e+01 1.09404650544184e-03 1.87173471660416e-05
3.38839655172414e+01 1.08109548188621e-03 1.85266284736318e-05
3.39967241379310e+01 1.06829776901594e-03 1.83377515522613e-05
3.41094827586207e+01 1.05565155198080e-03 1.81507003847798e-05
3.42222413793103e+01 1.04315503737805e-03 1.79654590343186e-05
3.43350000000000e+01 1.03080645310779e-03 1.77820116704588e-05
3.44477586206897e+01 1.01860404801092e-03 1.76003425959414e-05
3.45605172413793e+01 1.00654609165810e-03 1.74204362185280e-05
3.46732758620690e+01 9.94630874070225e-04 1.72422770275309e-05
3.47860344827586e+01 9.82856705579273e-04 1.70658496185520e-05
3.48987931034483e+01 9.71221916484363e-04 1.68911387187364e-05
3.50115517241379e+01 9.59724856850062e-04 1.67181291484270e-05
3.51243103448276e+01 9.48363896272440e-04 1.65468058453144e-05
3.52370689655172e+01 9.37137423616230e-04 1.63771538297422e-05
3.53498275862069e+01 9.26043846882110e-04 1.62091582277278e-05
3.54625862068966e+01 9.15081592884274e-04 1.60428042944729e-05
3.55753448275862e+01 9.04249107059839e-04 1.58780773784384e-05
