Energy (eV)          EEDF (eV^-(3/2))     First Anisotropy
5.16666666666667e-03 1.14347095683264e+00 7.36478314970265e-04
1.55000000000000e-02 1.13157010019290e+00 1.21388732113363e-03
2.58333333333333e-02 1.11979310356806e+00 1.59652528478539e-03
3.61666666666667e-02 1.10813867794767e+00 1.88362648451653e-03
4.65000000000000e-02 1.09660554763145e+00 2.12011839859384e-03
5.68333333333333e-02 1.08519245019549e+00 2.32307749769895e-03
6.71666666666667e-02 1.07389813640286e+00 2.50138532684666e-03
7.75000000000000e-02 1.06272136998989e+00 2.66043147326186e-03
8.78333333333333e-02 1.05166092754965e+00 2.80380764523993e-03
9.81666666666667e-02 1.04071559843588e+00 2.93406448540408e-03
1.08500000000000e-01 1.02988418461495e+00 3.05309901910328e-03
1.18833333333333e-01 1.01916550039956e+00 3.16237273996876e-03
1.29166666666667e-01 1.00855837263524e+00 3.26304336949640e-03
1.39500000000000e-01 9.98061640271544e-01 3.35604892377444e-03
1.49833333333333e-01 9.87674154278483e-01 3.44216368390034e-03
1.60166666666667e-01 9.77394777729880e-01 3.52203689678328e-03
1.70500000000000e-01 9.67222385453893e-01 3.59622031533958e-03
1.80833333333333e-01 9.57155863937284e-01 3.66518825594886e-03
1.91166666666667e-01 9.47194111370922e-01 3.72935260148868e-03
2.01500000000000e-01 9.37336037351456e-01 3.78907420855933e-03
2.11833333333333e-01 9.27580562780806e-01 3.84467168708539e-03
2.22166666666667e-01 9.17926619886095e-01 3.89642832552675e-03
2.32500000000000e-01 9.08373151957472e-01 3.94459759692729e-03
2.42833333333333e-01 8.98919113246147e-01 3.98940755299388e-03
2.53166666666667e-01 8.89563468966339e-01 4.03106443079642e-03
2.63500000000000e-01 8.80305195060242e-01 4.06975561449456e-03
2.73833333333333e-01 8.71143278096320e-01 4.10565205641011e-03
2.84166666666667e-01 8.62076715258222e-01 4.13891032999707e-03
2.94500000000000e-01 8.53104514131063e-01 4.16967435748352e-03
3.04833333333333e-01 8.44225692600931e-01 4.19807684378177e-03
3.15166666666667e-01 8.35439278834153e-01 4.22424052779449e-03
3.25500000000000e-01 8.26744311080903e-01 4.24827925588021e-03
3.35833333333333e-01 8.18139837576465e-01 4.27029888013785e-03
3.46166666666667e-01 8.09624916513254e-01 4.29039806376758e-03
3.56500000000000e-01 8.01198615858906e-01 4.30866898277725e-03
3.66833333333333e-01 7.92860013259592e-01 4.32519791444817e-03
3.77166666666667e-01 7.84608196006590e-01 4.34006577925756e-03
3.87500000000000e-01 7.76442260866695e-01 4.35334861913054e-03
3.97833333333333e-01 7.68361313987795e-01 4.36511799718366e-03
4.08166666666667e-01 7.60364470861305e-01 4.37544137616950e-03
4.18500000000000e-01 7.52450856163276e-01 4.38438245605730e-03
4.28833333333333e-01 7.44619603662324e-01 4.39200145380554e-03
4.39166666666667e-01 7.36869856178954e-01 4.39835537609905e-03
4.49500000000000e-01 7.29200765436072e-01 4.40349826486387e-03
4.59833333333333e-01 7.21611491969327e-01 4.40748139799402e-03
4.70166666666667e-01 7.14101205084111e-01 4.41035349130794e-03
4.80500000000000e-01 7.06669082714443e-01 4.41216088177705e-03
4.90833333333333e-01 6.99314311335733e-01 4.41294767456319e-03
5.01166666666667e-01 6.92036085920093e-01 4.41275589613408e-03
5.11500000000000e-01 6.84833609802739e-01 4.41162563412662e-03
5.21833333333333e-01 6.77706094597176e-01 4.40959514695430e-03
5.32166666666667e-01 6.70652760149308e-01 4.40670098232590e-03
5.42500000000000e-01 6.63672834410661e-01 4.40297808615039e-03
5.52833333333333e-01 6.56765553355966e-01 4.39845988545304e-03
5.63166666666667e-01 6.49930160936466e-01 4.39317838181500e-03
5.73500000000000e-01 6.43165908959365e-01 4.38716423768363e-03
5.83833333333333e-01 6.36472057007776e-01 4.38044683987597e-03
5.94166666666667e-01 6.29847872393550e-01 4.37305437446253e-03
6.04500000000000e-01 6.23292630042443e-01 4.36501389625838e-03
6.14833333333333e-01 6.16805612416385e-01 4.35635137796133e-03
6.25166666666667e-01 6.10386109466097e-01 4.34709177105325e-03
6.35500000000000e-01 6.04033418521541e-01 4.33725906254754e-03
6.45833333333333e-01 5.97746844216455e-01 4.32687631333408e-03
6.56166666666667e-01 5.91525698440981e-01 4.31596570836824e-03
6.66500000000000e-01 5.85369300237010e-01 4.30454860360742e-03
6.76833333333333e-01 5.79276975724939e-01 4.29264555613657e-03
6.87166666666667e-01 5.73248058056484e-01 4.28027636602619e-03
6.97500000000000e-01 5.67281887314577e-01 4.26746011560599e-03
7.07833333333333e-01 5.61377810442309e-01 4.25421519325541e-03
7.18166666666667e-01 5.55535181196051e-01 4.24055932869371e-03
7.28500000000000e-01 5.49753360049628e-01 4.22650962618840e-03
7.38833333333333e-01 5.44031714125375e-01 4.21208258341084e-03
7.49166666666667e-01 5.38369617147697e-01 4.19729412148378e-03
7.59500000000000e-01 5.32766449351249e-01 4.18215961333009e-03
7.69833333333333e-01 5.27221597414048e-01 4.16669389864848e-03
7.80166666666667e-01 5.21734454411578e-01 4.15091130972691e-03
7.90500000000000e-01 5.16304419728728e-01 4.13482569585432e-03
8.00833333333333e-01 5.10930898994913e-01 4.11845043521992e-03
8.11166666666667e-01 5.05613304038795e-01 4.10179845727088e-03
8.21500000000000e-01 5.00351052803769e-01 4.08488226390188e-03
8.31833333333333e-01 4.95143569285037e-01 4.06771393889575e-03
8.42166666666667e-01 4.89990283485012e-01 4.05030516743396e-03
8.52500000000000e-01 4.84890631332151e-01 4.03266725462272e-03
8.62833333333333e-01 4.79844054619932e-01 4.01481113295714e-03
8.73166666666667e-01 4.74850000962990e-01 3.99674737946324e-03
8.83500000000000e-01 4.69907923719119e-01 3.97848623200316e-03
8.93833333333333e-01 4.65017281930102e-01 3.96003759514112e-03
9.04166666666667e-01 4.60177540278612e-01 3.94141105529835e-03
9.14500000000000e-01 4.55388169013228e-01 3.92261589519169e-03
9.24833333333333e-01 4.50648643891061e-01 3.90366109840026e-03
9.35166666666667e-01 4.45958446135454e-01 3.88455536284060e-03
9.45500000000000e-01 4.41317062363861e-01 3.86530711362386e-03
9.55833333333333e-01 4.36723984532211e-01 3.84592450656143e-03
9.66166666666667e-01 4.32178709893444e-01 3.82641544020993e-03
9.76500000000000e-01 4.27680740928103e-01 3.80678756737879e-03
9.86833333333333e-01 4.23229585290392e-01 3.78704829776700e-03
9.97166666666667e-01 4.18824755767559e-01 3.76720480617989e-03
1.00750000000000e+00 4.14465770225624e-01 3.74726405591150e-03
1.01783333333333e+00 4.10152151494299e-01 3.72723277720159e-03
1.02816666666667e+00 4.05883427452912e-01 3.70711748737286e-03
1.03850000000000e+00 4.01659130852048e-01 3.68692452619437e-03
1.04883333333333e+00 3.97478799266785e-01 3.66666001069778e-03
1.05916666666667e+00 3.93341975163364e-01 3.64632986732221e-03
1.06950000000000e+00 3.89248205730016e-01 3.62593986254506e-03
1.07983333333333e+00 3.85197042831463e-01 3.60549555931985e-03
1.09016666666667e+00 3.81188043070240e-01 3.58500234735833e-03
1.10050000000000e+00 3.77220767626112e-01 3.56446547200990e-03
1.11083333333333e+00 3.73294782211808e-01 3.54388999229105e-03
1.12116666666667e+00 3.69409657129454e-01 3.52328080946094e-03
1.13150000000000e+00 3.65564967118019e-01 3.50264269429438e-03
1.14183333333333e+00 3.61760291310264e-01 3.48198024666649e-03
1.15216666666667e+00 3.57995213284685e-01 3.46129792255863e-03
1.16250000000000e+00 3.54269320920481e-01 3.44060005985113e-03
1.17283333333333e+00 3.50582206355704e-01 3.41989083942289e-03
1.18316666666667e+00 3.46933466035068e-01 3.39917431070805e-03
1.19350000000000e+00 3.43322700571979e-01 3.37845441612142e-03
1.20383333333333e+00 3.39749514707856e-01 3.35773495362784e-03
1.21416666666667e+00 3.36213517356144e-01 3.33701960095699e-03
1.22450000000000e+00 3.32714321470979e-01 3.31631193876126e-03
1.23483333333333e+00 3.29251544007651e-01 3.29561541460922e-03
1.24516666666667e+00 3.25824805963126e-01 3.27493336595441e-03
1.25550000000000e+00 3.22433732250950e-01 3.25426904211439e-03
1.26583333333333e+00 3.19077951662829e-01 3.23362556964089e-03
1.27616666666667e+00 3.15757096905936e-01 3.21300597412835e-03
1.28650000000000e+00 3.12470804483689e-01 3.19241320109493e-03
1.29683333333333e+00 3.09218714658423e-01 3.17185008268175e-03
1.30716666666667e+00 3.06000471485737e-01 3.15131935837828e-03
1.31750000000000e+00 3.02815722700799e-01 3.13082369487739e-03
1.32783333333333e+00 2.99664119682095e-01 3.11036565405601e-03
1.33816666666667e+00 2.96545317483040e-01 3.08994771268812e-03
1.34850000000000e+00 2.93458974723498e-01 3.06957228133966e-03
1.35883333333333e+00 2.90404753554587e-01 3.04924167358273e-03
1.36916666666667e+00 2.87382319687752e-01 3.02895812476013e-03
1.37950000000000e+00 2.84391342291230e-01 3.00872380998016e-03
1.38983333333333e+00 2.81431493955863e-01 2.98854081451809e-03
1.40016666666667e+00 2.78502450721844e-01 2.96841115169030e-03
1.41050000000000e+00 2.75603891979842e-01 2.94833678000309e-03
1.42083333333333e+00 2.72735500437810e-01 2.92831957469656e-03
1.43116666666667e+00 2.69896962145577e-01 2.90836134478149e-03
1.44150000000000e+00 2.67087966400378e-01 2.88846384939242e-03
1.45183333333333e+00 2.64308205714634e-01 2.86862877042976e-03
1.46216666666667e+00 2.61557375838552e-01 2.84885772880833e-03
1.47250000000000e+00 2.58835175669829e-01 2.82915230006041e-03
1.48283333333333e+00 2.56141307222376e-01 2.80951398803343e-03
1.49316666666667e+00 2.53475475647072e-01 2.78994424039511e-03
1.50350000000000e+00 2.50837389145429e-01 2.77044446352909e-03
1.51383333333333e+00 2.48226758939232e-01 2.75101599724642e-03
1.52416666666667e+00 2.45643299289590e-01 2.73166012958917e-03
1.53450000000000e+00 2.43086727414349e-01 2.71237811105799e-03
1.54483333333333e+00 2.40556763458625e-01 2.69317113029669e-03
1.55516666666667e+00 2.38053130512283e-01 2.67404032823346e-03
1.56550000000000e+00 2.35575554530906e-01 2.65498681167594e-03
1.57583333333333e+00 2.33123764307197e-01 2.63601162993120e-03
1.58616666666667e+00 2.30697491486999e-01 2.61711578831936e-03
1.59650000000000e+00 2.28296470493639e-01 2.59830026117051e-03
1.60683333333333e+00 2.25920438500185e-01 2.57956596934259e-03
1.61716666666667e+00 2.23569135444105e-01 2.56091379314070e-03
1.62750000000000e+00 2.21242303954828e-01 2.54234458474709e-03
1.63783333333333e+00 2.18939689326818e-01 2.52385914660102e-03
1.64816666666667e+00 2.16661039532984e-01 2.50545824375506e-03
1.65850000000000e+00 2.14406105155293e-01 2.48714261576727e-03
1.66883333333333e+00 2.12174639358645e-01 2.46891295590863e-03
1.67916666666667e+00 2.09966397903119e-01 2.45076992298503e-03
1.68950000000000e+00 2.07781139077494e-01 2.43271415271894e-03
1.69983333333333e+00 2.05618623673897e-01 2.41474623775130e-03
1.71016666666667e+00 2.03478614998981e-01 2.39686673895634e-03
1.72050000000000e+00 2.01360878810198e-01 2.37907619633822e-03
1.73083333333333e+00 1.99265183291216e-01 2.36137510979576e-03
1.74116666666667e+00 1.97191299062089e-01 2.34376394995529e-03
1.75150000000000e+00 1.95138999118172e-01 2.32624316860605e-03
1.76183333333333e+00 1.93108058806263e-01 2.30881318019723e-03
1.77216666666667e+00 1.91098255833857e-01 2.29147437221270e-03
1.78250000000000e+00 1.89109370210564e-01 2.27422711516788e-03
1.79283333333333e+00 1.87141184224966e-01 2.25707174480945e-03
1.80316666666667e+00 1.85193482453015e-01 2.24000857205423e-03
1.81350000000000e+00 1.83266051701842e-01 2.22303789256875e-03
1.82383333333333e+00 1.81358680987305e-01 2.20615996964376e-03
1.83416666666667e+00 1.79471161541596e-01 2.18937504371788e-03
1.84450000000000e+00 1.77603286759328e-01 2.17268334155960e-03
1.85483333333333e+00 1.75754852175757e-01 2.15608505979005e-03
1.86516666666667e+00 1.73925655473656e-01 2.13958037401117e-03
1.87550000000000e+00 1.72115496431571e-01 2.12316944760882e-03
1.88583333333333e+00 1.70324176902701e-01 2.10685241589770e-03
1.89616666666667e+00 1.68551500821093e-01 2.09062939487270e-03
1.90650000000000e+00 1.66797274151969e-01 2.07450048965092e-03
1.91683333333333e+00 1.65061304871242e-01 2.05846577921398e-03
1.92716666666667e+00 1.63343402971082e-01 2.04252532479999e-03
1.93750000000000e+00 1.61643380412225e-01 2.02667917800119e-03
1.94783333333333e+00 1.59961051104103e-01 2.01092736607981e-03
1.95816666666667e+00 1.58296230909826e-01 1.99526990001764e-03
1.96850000000000e+00 1.56648737600387e-01 1.97970678228469e-03
1.97883333333333e+00 1.55018390835388e-01 1.96423799270595e-03
1.98916666666667e+00 1.53405012167483e-01 1.94886349618403e-03
1.99950000000000e+00 1.51808424998388e-01 1.93358325015365e-03
2.00983333333333e+00 1.50228454560192e-01 1.91839719097797e-03
2.02016666666667e+00 1.48664927919297e-01 1.90330524135893e-03
2.03050000000000e+00 1.47117673934160e-01 1.88830731749188e-03
2.04083333333333e+00 1.45586523237162e-01 1.87340331597003e-03
2.05116666666667e+00 1.44071308238093e-01 1.85859312089669e-03
2.06150000000000e+00 1.42571863083539e-01 1.84387661075348e-03
2.07183333333333e+00 1.41088023639305e-01 1.82925364579323e-03
2.08216666666667e+00 1.39619627493468e-01 1.81472407486703e-03
2.09250000000000e+00 1.38166513917345e-01 1.80028774201870e-03
2.10283333333333e+00 1.36728523848450e-01 1.78594447434702e-03
2.11316666666667e+00 1.35305499893147e-01 1.77169408856012e-03
2.12350000000000e+00 1.33897286289136e-01 1.75753639730822e-03
2.13383333333333e+00 1.32503728888921e-01 1.74347119749680e-03
2.14416666666667e+00 1.31124675162100e-01 1.72949827658062e-03
2.15450000000000e+00 1.29759974159298e-01 1.71561741864569e-03
2.16483333333333e+00 1.28409476496134e-01 1.70182839315597e-03
2.17516666666667e+00 1.27073034355177e-01 1.68813096099814e-03
2.18550000000000e+00 1.25750501451260e-01 1.67452488032396e-03
2.19583333333333e+00 1.24441733015937e-01 1.66100989571339e-03
2.20616666666667e+00 1.23146585799125e-01 1.64758574398111e-03
2.21650000000000e+00 1.21864918035747e-01 1.63425215978936e-03
2.22683333333333e+00 1.20596589430656e-01 1.62100886521122e-03
2.23716666666667e+00 1.19341461159998e-01 1.60785557530910e-03
2.24750000000000e+00 1.18099395839114e-01 1.59479200352813e-03
2.25783333333333e+00 1.16870257507936e-01 1.58181785164405e-03
2.26816666666667e+00 1.15653911632070e-01 1.56893281512324e-03
2.27850000000000e+00 1.14450225071932e-01 1.55613658830598e-03
2.28883333333333e+00 1.13259066068572e-01 1.54342885472414e-03
2.29916666666667e+00 1.12080304244525e-01 1.53080929225203e-03
2.30950000000000e+00 1.10913810574107e-01 1.51827757808836e-03
2.31983333333333e+00 1.09759457369675e-01 1.50583337942945e-03
2.33016666666667e+00 1.08617118282249e-01 1.49347635841975e-03
2.34050000000000e+00 1.07486668272931e-01 1.48120617694085e-03
2.35083333333333e+00 1.06367983599579e-01 1.46902248762663e-03
2.36116666666667e+00 1.05260941817228e-01 1.45692493862192e-03
2.37150000000000e+00 1.04165421750574e-01 1.44491317818654e-03
2.38183333333333e+00 1.03081303481064e-01 1.43298684603921e-03
2.39216666666667e+00 1.02008468347116e-01 1.42114557793234e-03
2.40250000000000e+00 1.00946798917644e-01 1.40938901007878e-03
2.41283333333333e+00 9.98961789795291e-02 1.39771677081196e-03
2.42316666666667e+00 9.88564935376777e-02 1.38612848498449e-03
2.43350000000000e+00 9.78276287895233e-02 1.37462377822500e-03
2.44383333333333e+00 9.68094721128875e-02 1.36320226890228e-03
2.45416666666667e+00 9.58019120658739e-02 1.35186357235487e-03
2.46450000000000e+00 9.48048383623196e-02 1.34060730498498e-03
2.47483333333333e+00 9.38181418600253e-02 1.32943307651522e-03
2.48516666666667e+00 9.28417145605045e-02 1.31834049405613e-03
2.49550000000000e+00 9.18754495853438e-02 1.30732916604390e-03
2.50583333333333e+00 9.09192411647920e-02 1.29639869477839e-03
2.51616666666667e+00 8.99729846373769e-02 1.28554868033520e-03
2.52650000000000e+00 8.90365764271376e-02 1.27477872435361e-03
2.53683333333333e+00 8.81099140325630e-02 1.26408842284522e-03
2.54716666666667e+00 8.71928960260865e-02 1.25347736995708e-03
2.55750000000000e+00 8.62854220321571e-02 1.24294516161558e-03
2.56783333333333e+00 8.53873927165152e-02 1.23249138859573e-03
2.57816666666667e+00 8.44987097855774e-02 1.22211564014124e-03
2.58850000000000e+00 8.36192759653128e-02 1.21181750747034e-03
2.59883333333333e+00 8.27489949908456e-02 1.20159657709569e-03
2.60916666666667e+00 8.18877716057404e-02 1.19145243430727e-03
2.61950000000000e+00 8.10355115416518e-02 1.18138466654559e-03
2.62983333333333e+00 8.01921215082445e-02 1.17139285696302e-03
2.64016666666667e+00 7.93575091923881e-02 1.16147658777467e-03
2.65050000000000e+00 7.85315832385494e-02 1.15163544350460e-03
2.66083333333333e+00 7.77142532390208e-02 1.14186900477920e-03
2.67116666666667e+00 7.69054297330334e-02 1.13217685155171e-03
2.68150000000000e+00 7.61050241878627e-02 1.12255856622636e-03
2.69183333333333e+00 7.53129489893561e-02 1.11301372767489e-03
2.70216666666667e+00 7.45291174409724e-02 1.10354191433988e-03
2.71250000000000e+00 7.37534437455737e-02 1.09414270724168e-03
2.72283333333333e+00 7.29858429962420e-02 1.08481568420992e-03
2.73316666666667e+00 7.22262311752533e-02 1.07556042287014e-03
2.74350000000000e+00 7.14745251365288e-02 1.06637650353831e-03
2.75383333333333e+00 7.07306425967325e-02 1.05726350365923e-03
2.76416666666667e+00 6.99945021341859e-02 1.04822100068130e-03
2.77450000000000e+00 6.92660231719541e-02 1.03924857484277e-03
2.78483333333333e+00 6.85451259692144e-02 1.03034580380955e-03
2.79516666666667e+00 6.78317316201205e-02 1.02151226544233e-03
2.80550000000000e+00 6.71257620374965e-02 1.01274754047904e-03
2.81583333333333e+00 6.64271399444706e-02 1.00405120736443e-03
2.82616666666667e+00 6.57357888732926e-02 9.95422844913984e-04
2.83650000000000e+00 6.50516331496142e-02 9.86862034896495e-04
2.84683333333333e+00 6.43745978843791e-02 9.78368357048384e-04
2.85716666666667e+00 6.37046089725996e-02 9.69941391638475e-04
2.86750000000000e+00 6.30415930782009e-02 9.61580721954527e-04
2.87783333333333e+00 6.23854776261591e-02 9.53285929495504e-04
2.88816666666667e+00 6.17361908012431e-02 9.45056596440949e-04
2.89850000000000e+00 6.10936615334007e-02 9.36892308045361e-04
2.90883333333333e+00 6.04578194901378e-02 9.28792648001783e-04
2.91916666666667e+00 5.98285950752294e-02 9.20757200819555e-04
2.92950000000000e+00 5.92059194146281e-02 9.12785554130135e-04
2.93983333333333e+00 5.85897243490757e-02 9.04877294215597e-04
2.95016666666667e+00 5.79799424327894e-02 8.97032008298234e-04
2.96050000000000e+00 5.73765069198715e-02 8.89249286761333e-04
2.97083333333333e+00 5.67793517571478e-02 8.81528718836502e-04
2.98116666666667e+00 5.61884115828319e-02 8.73869894808747e-04
2.99150000000000e+00 5.56036217134178e-02 8.66272408155277e-04
3.00183333333333e+00 5.50249181367379e-02 8.58735851385833e-04
3.01216666666667e+00 5.44522375106096e-02 8.51259818166489e-04
3.02250000000000e+00 5.38855171501924e-02 8.43843905379637e-04
3.03283333333333e+00 5.33246950212592e-02 8.36487709111828e-04
3.04316666666667e+00 5.27697097388279e-02 8.29190826699339e-04
3.05350000000000e+00 5.22205005549666e-02 8.21952858712425e-04
3.06383333333333e+00 5.16770073522708e-02 8.14773405085118e-04
3.07416666666667e+00 5.11391706424842e-02 8.07652067085668e-04
3.08450000000000e+00 5.06069315547347e-02 8.00588449228016e-04
3.09483333333333e+00 5.00802318292113e-02 7.93582155538353e-04
3.10516666666667e+00 4.95590138157771e-02 7.86632791453190e-04
3.11550000000000e+00 4.90432204626202e-02 7.79739965660880e-04
3.12583333333333e+00 4.85327953101243e-02 7.72903286500050e-04
3.13616666666667e+00 4.80276824894764e-02 7.66122363788011e-04
3.14650000000000e+00 4.75278267117174e-02 7.59396810594934e-04
3.15683333333333e+00 4.70331732618003e-02 7.52726239769370e-04
3.16716666666667e+00 4.65436679971956e-02 7.46110265699735e-04
3.17750000000000e+00 4.60592573373261e-02 7.39548506023625e-04
3.18783333333333e+00 4.55798882578078e-02 7.33040578275822e-04
3.19816666666667e+00 4.51055082890548e-02 7.26586101585368e-04
3.20850000000000e+00 4.46360655060841e-02 7.20184698322610e-04
3.21883333333333e+00 4.41715085229340e-02 7.13835990865038e-04
3.22916666666667e+00 4.37117864912703e-02 7.07539603232519e-04
3.23950000000000e+00 4.32568490905480e-02 7.01295162674410e-04
3.24983333333333e+00 4.28066465226010e-02 6.95102296549035e-04
3.26016666666667e+00 4.23611295102521e-02 6.88960633899362e-04
