Energy (eV)          EEDF (eV^-(3/2))     First Anisotropy
4.63829787234043e-03 7.93640656540929e-01 4.30498402472893e-04
1.39148936170213e-02 7.87824899732187e-01 7.10659694098682e-04
2.31914893617021e-02 7.82051760473905e-01 9.37580530380730e-04
3.24680851063830e-02 7.76320926485726e-01 1.10962705674731e-03
4.17446808510638e-02 7.70632087736752e-01 1.25282910658813e-03
5.10212765957447e-02 7.64984936503951e-01 1.37703471160304e-03
6.02978723404255e-02 7.59379167291053e-01 1.48734342511271e-03
6.95744680851064e-02 7.53814476863392e-01 1.58683659347350e-03
7.88510638297872e-02 7.48290564188868e-01 1.67755904805295e-03
8.81276595744681e-02 7.42807130458187e-01 1.76095689386400e-03
9.74042553191490e-02 7.37363879042616e-01 1.83810124725135e-03
1.06680851063830e-01 7.31960515492680e-01 1.90981397801018e-03
1.15957446808511e-01 7.26596747492964e-01 1.97674353532019e-03
1.25234042553192e-01 7.21272284890443e-01 2.03941323683251e-03
1.34510638297872e-01 7.15986839699284e-01 2.09825341341572e-03
1.43787234042553e-01 7.10740125961235e-01 2.15362355300386e-03
1.53063829787234e-01 7.05531859855307e-01 2.20582803047161e-03
1.62340425531915e-01 7.00361759639970e-01 2.25512758341701e-03
1.71617021276596e-01 6.95229545668973e-01 2.30174785807701e-03
1.80893617021277e-01 6.90134940283277e-01 2.34588588442882e-03
1.90170212765957e-01 6.85077667889774e-01 2.38771507157109e-03
1.99446808510638e-01 6.80057454914759e-01 2.42738913262931e-03
2.08723404255319e-01 6.75074029813525e-01 2.46504519920835e-03
2.18000000000000e-01 6.70127122982186e-01 2.50080631235631e-03
2.27276595744681e-01 6.65216466817184e-01 2.53478344313955e-03
2.36553191489362e-01 6.60341795675923e-01 2.56707715974557e-03
2.45829787234043e-01 6.55502845882295e-01 2.59777900557216e-03
2.55106382978723e-01 6.50699355652221e-01 2.62697263878679e-03
2.64382978723404e-01 6.45931065140162e-01 2.65473478837815e-03
2.73659574468085e-01 6.41197716404736e-01 2.68113607261123e-03
2.82936170212766e-01 6.36499053411433e-01 2.70624169517443e-03
2.92212765957447e-01 6.31834821968212e-01 2.73011203267579e-03
3.01489361702128e-01 6.27204769762680e-01 2.75280313956929e-03
3.10765957446809e-01 6.22608646331431e-01 2.77436719414091e-03
3.20042553191489e-01 6.18046203060715e-01 2.79485288588207e-03
3.29319148936170e-01 6.13517193129748e-01 2.81430574599196e-03
3.38595744680851e-01 6.09021371540918e-01 2.83276843659549e-03
3.47872340425532e-01 6.04558495092012e-01 2.85028101377613e-03
3.57148936170213e-01 6.00128322375371e-01 2.86688115971011e-03
3.66425531914894e-01 5.95730613727315e-01 2.88260438134226e-03
3.75702127659575e-01 5.91365131252967e-01 2.89748418667204e-03
3.84978723404255e-01 5.87031638800801e-01 2.91155224987410e-03
3.94255319148936e-01 5.82729901960666e-01 2.92483855883976e-03
4.03531914893617e-01 5.78459688018174e-01 2.93737154096463e-03
4.12808510638298e-01 5.74220765975276e-01 2.94917817598184e-03
4.22085106382979e-01 5.70012906526733e-01 2.96028410501092e-03
4.31361702127660e-01 5.65835882057271e-01 2.97071372895630e-03
4.40638297872340e-01 5.61689466600098e-01 2.98049029151479e-03
4.49914893617021e-01 5.57573435854048e-01 2.98963595271687e-03
4.59191489361702e-01 5.53487567170471e-01 2.99817187031604e-03
4.68468085106383e-01 5.49431639514538e-01 3.00611826027923e-03
4.77744680851064e-01 5.45405433480093e-01 3.01349445336389e-03
4.87021276595745e-01 5.41408731268720e-01 3.02031895324599e-03
4.96297872340426e-01 5.37441316685957e-01 3.02660948963639e-03
5.05574468085106e-01 5.33502975105679e-01 3.03238306164797e-03
5.14851063829787e-01 5.29593493482551e-01 3.03765597746744e-03
5.24127659574468e-01 5.25712660332387e-01 3.04244389684611e-03
5.33404255319149e-01 5.21860265727904e-01 3.04676187012825e-03
5.42680851063830e-01 5.18036101265781e-01 3.05062436921397e-03
5.51957446808511e-01 5.14239960077102e-01 3.05404531601304e-03
5.61234042553192e-01 5.10471636808849e-01 3.05703811438126e-03
5.70510638297872e-01 5.06730927619316e-01 3.05961567957443e-03
5.79787234042553e-01 5.03017630147494e-01 3.06179046079503e-03
5.89063829787234e-01 4.99331543521825e-01 3.06357446198310e-03
5.98340425531915e-01 4.95672468342714e-01 3.06497926641511e-03
6.07617021276596e-01 4.92040206677670e-01 3.06601605946120e-03
6.16893617021277e-01 4.88434562032754e-01 3.06669564527141e-03
6.26170212765958e-01 4.84855339359901e-01 3.06702846220319e-03
6.35446808510638e-01 4.81302345040339e-01 3.06702460218234e-03
6.44723404255319e-01 4.77775386879536e-01 3.06669382865710e-03
6.54000000000000e-01 4.74274274080474e-01 3.06604558911326e-03
6.63276595744681e-01 4.70798817249752e-01 3.06508902666359e-03
6.72553191489362e-01 4.67348828381830e-01 3.06383299558436e-03
6.81829787234043e-01 4.63924120853827e-01 3.06228607574530e-03
6.91106382978724e-01 4.60524509400444e-01 3.06045658209745e-03
7.00382978723404e-01 4.57149810119008e-01 3.05835257346686e-03
7.09659574468085e-01 4.53799840454479e-01 3.05598186523714e-03
7.18936170212766e-01 4.50474419194137e-01 3.05335204114324e-03
7.28212765957447e-01 4.47173366443990e-01 3.05047046052452e-03
7.37489361702128e-01 4.43896503632915e-01 3.04734426504681e-03
7.46765957446809e-01 4.40643653498354e-01 3.04398038921797e-03
7.56042553191489e-01 4.37414640080931e-01 3.04038557017146e-03
7.65319148936170e-01 4.34209288702215e-01 3.03656635324535e-03
7.74595744680851e-01 4.31027425968061e-01 3.03252909714825e-03
7.83872340425532e-01 4.27868879754957e-01 3.02827998279944e-03
7.93148936170213e-01 4.24733479204603e-01 3.02382502155581e-03
8.02425531914894e-01 4.21621054702890e-01 3.01917005951943e-03
8.11702127659575e-01 4.18531437882569e-01 3.01432078152004e-03
8.20978723404255e-01 4.15464461610190e-01 3.00928271864006e-03
8.30255319148936e-01 4.12419959980660e-01 3.00406125521708e-03
8.39531914893617e-01 4.09397768297354e-01 2.99866163217616e-03
8.48808510638298e-01 4.06397723074182e-01 2.99308895010083e-03
8.58085106382979e-01 4.03419662023086e-01 2.98734817571120e-03
8.67361702127660e-01 4.00463424048603e-01 2.98144414788995e-03
8.76638297872340e-01 3.97528849229007e-01 2.97538158025840e-03
8.85914893617021e-01 3.94615778817859e-01 2.96916506275021e-03
8.95191489361702e-01 3.91724055235189e-01 2.96279907040974e-03
9.04468085106383e-01 3.88853522049381e-01 2.95628796467488e-03
9.13744680851064e-01 3.86004023978353e-01 2.94963599532457e-03
9.23021276595745e-01 3.83175406877911e-01 2.94284730556980e-03
9.32297872340426e-01 3.80367517736388e-01 2.93592593678486e-03
9.41574468085106e-01 3.77580204657427e-01 2.92887583014350e-03
9.50851063829787e-01 3.74813316860752e-01 2.92170082810155e-03
9.60127659574468e-01 3.72066704670989e-01 2.91440467889233e-03
9.69404255319149e-01 3.69340219512346e-01 2.90699104070075e-03
9.78680851063830e-01 3.66633713892229e-01 2.89946348290663e-03
9.87957446808511e-01 3.63947041401656e-01 2.89182548719863e-03
9.97234042553192e-01 3.61280056704517e-01 2.88408045157371e-03
1.00651063829787e+00 3.58632615532305e-01 2.87623169675857e-03
1.01578723404255e+00 3.56004574658299e-01 2.86828245495312e-03
1.02506382978723e+00 3.53395791943535e-01 2.86023589084972e-03
1.03434042553192e+00 3.50806126240184e-01 2.85209509147239e-03
1.04361702127660e+00 3.48235437484274e-01 2.84386307063406e-03
1.05289361702128e+00 3.45683586589588e-01 2.83554277205987e-03
1.06217021276596e+00 3.43150435536873e-01 2.82713707019329e-03
1.07144680851064e+00 3.40635847271369e-01 2.81864877931288e-03
1.08072340425532e+00 3.38139685766159e-01 2.81008062947885e-03
1.09000000000000e+00 3.35661816013567e-01 2.80143530628266e-03
1.09927659574468e+00 3.33202103950239e-01 2.79271542764739e-03
1.10855319148936e+00 3.30760416539447e-01 2.78392355088757e-03
1.11782978723404e+00 3.28336621675912e-01 2.77506218114490e-03
1.12710638297872e+00 3.25930588244180e-01 2.76613374844285e-03
1.13638297872340e+00 3.23542186110397e-01 2.75714064512138e-03
1.14565957446809e+00 3.21171286052610e-01 2.74808520370551e-03
1.15493617021277e+00 3.18817759836810e-01 2.73896970344646e-03
1.16421276595745e+00 3.16481480128377e-01 2.72979637260169e-03
1.17348936170213e+00 3.14162320565409e-01 2.72056738876773e-03
1.18276595744681e+00 3.11860155673036e-01 2.71128488645416e-03
1.19204255319149e+00 3.09574860915370e-01 2.70195093572619e-03
1.20131914893617e+00 3.07306312687783e-01 2.69256757656909e-03
1.21059574468085e+00 3.05054388253980e-01 2.68313679829107e-03
1.21987234042553e+00 3.02818965813892e-01 2.67366054540210e-03
1.22914893617021e+00 3.00599924423789e-01 2.66414071954852e-03
1.23842553191489e+00 2.98397144061818e-01 2.65457917968204e-03
1.24770212765957e+00 2.96210505550621e-01 2.64497774890340e-03
1.25697872340426e+00 2.94039890603707e-01 2.63533819458784e-03
1.26625531914894e+00 2.91885181818191e-01 2.62566226001297e-03
1.27553191489362e+00 2.89746262617812e-01 2.61595164519144e-03
1.28480851063830e+00 2.87623017313731e-01 2.60620801218765e-03
1.29408510638298e+00 2.85515331032250e-01 2.59643298677911e-03
1.30336170212766e+00 2.83423089773559e-01 2.58662815850942e-03
1.31263829787234e+00 2.81346180341648e-01 2.57679508690488e-03
1.32191489361702e+00 2.79284490385821e-01 2.56693528297738e-03
1.33119148936170e+00 2.77237908393860e-01 2.55705023839726e-03
1.34046808510638e+00 2.75206323640282e-01 2.54714140765551e-03
1.34974468085106e+00 2.73189626240935e-01 2.53721021289550e-03
1.35902127659574e+00 2.71187707087426e-01 2.52725804535364e-03
1.36829787234043e+00 2.69200457899908e-01 2.51728626533227e-03
1.37757446808511e+00 2.67227771163448e-01 2.50729620786613e-03
1.38685106382979e+00 2.65269540165283e-01 2.49728916550828e-03
1.39612765957447e+00 2.63325658988370e-01 2.48726641528879e-03
1.40540425531915e+00 2.61396022464290e-01 2.47722920210334e-03
1.41468085106383e+00 2.59480526222397e-01 2.46717874312710e-03
1.42395744680851e+00 2.57579066630184e-01 2.45711622907380e-03
1.43323404255319e+00 2.55691540840835e-01 2.44704282411260e-03
1.44251063829787e+00 2.53817846735306e-01 2.43695967105180e-03
1.45178723404255e+00 2.51957882955851e-01 2.42686787531171e-03
1.46106382978723e+00 2.50111548899917e-01 2.41676852987735e-03
1.47034042553192e+00 2.48278744677196e-01 2.40666269982365e-03
1.47961702127660e+00 2.46459371153963e-01 2.39655142636203e-03
1.48889361702128e+00 2.44653329898717e-01 2.38643572794850e-03
1.49817021276596e+00 2.42860523225119e-01 2.37631660016159e-03
1.50744680851064e+00 2.41080854139160e-01 2.36619502045828e-03
1.51672340425532e+00 2.39314226369386e-01 2.35607193324567e-03
1.52600000000000e+00 2.37560544361125e-01 2.34594827300982e-03
1.53527659574468e+00 2.35819713237238e-01 2.33582494989296e-03
1.54455319148936e+00 2.34091638838195e-01 2.32570285341405e-03
1.55382978723404e+00 2.32376227672438e-01 2.31558285696443e-03
1.56310638297872e+00 2.30673386944549e-01 2.30546580357621e-03
1.57238297872340e+00 2.28983024549706e-01 2.29535252789424e-03
1.58165957446809e+00 2.27305049036768e-01 2.28524384242469e-03
1.59093617021277e+00 2.25639369645700e-01 2.27514054105452e-03
1.60021276595745e+00 2.23985896260897e-01 2.26504339995482e-03
1.60948936170213e+00 2.22344539447476e-01 2.25495317741495e-03
1.61876595744681e+00 2.20715210405863e-01 2.24487061798647e-03
1.62804255319149e+00 2.19097820997259e-01 2.23479643921390e-03
1.63731914893617e+00 2.17492283738400e-01 2.22473135204063e-03
1.64659574468085e+00 2.15898511767720e-01 2.21467604798665e-03
1.65587234042553e+00 2.14316418879274e-01 2.20463120239513e-03
1.66514893617021e+00 2.12745919479995e-01 2.19459747523997e-03
1.67442553191489e+00 2.11186928622609e-01 2.18457551094702e-03
1.68370212765957e+00 2.09639361964023e-01 2.17456594222185e-03
1.69297872340426e+00 2.08103135788378e-01 2.16456937767149e-03
1.70225531914894e+00 2.06578167002107e-01 2.15458642077578e-03
1.71153191489362e+00 2.05064373102852e-01 2.14461765792566e-03
1.72080851063830e+00 2.03561672210277e-01 2.13466366142254e-03
1.73008510638298e+00 2.02069983026857e-01 2.12472499020390e-03
1.73936170212766e+00 2.00589224867776e-01 2.11480218965809e-03
1.74863829787234e+00 1.99119317622744e-01 2.10489579516489e-03
1.75791489361702e+00 1.97660181776895e-01 2.09500632054264e-03
1.76719148936170e+00 1.96211738406115e-01 2.08513427570321e-03
1.77646808510638e+00 1.94773909148463e-01 2.07528015548651e-03
1.78574468085106e+00 1.93346616232186e-01 2.06544444243682e-03
1.79502127659574e+00 1.91929782439703e-01 2.05562760745705e-03
1.80429787234043e+00 1.90523331134800e-01 2.04583010962094e-03
1.81357446808511e+00 1.89127186227538e-01 2.03605239945241e-03
1.82285106382979e+00 1.87741272193236e-01 2.02629490813882e-03
1.83212765957447e+00 1.86365514068040e-01 2.01655806397459e-03
1.84140425531915e+00 1.84999837422615e-01 2.00684228193276e-03
1.85068085106383e+00 1.83644168387653e-01 1.99714796623965e-03
1.85995744680851e+00 1.82298433620740e-01 1.98747551096643e-03
1.86923404255319e+00 1.80962560331137e-01 1.97782529984200e-03
1.87851063829787e+00 1.79636476247473e-01 1.96819770929338e-03
1.88778723404255e+00 1.78320109635017e-01 1.95859309837044e-03
1.89706382978723e+00 1.77013389291477e-01 1.94901182407338e-03
1.90634042553192e+00 1.75716244522746e-01 1.93945423160685e-03
1.91561702127660e+00 1.74428605166162e-01 1.92992065677154e-03
1.92489361702128e+00 1.73150401559986e-01 1.92041142650064e-03
1.93417021276596e+00 1.71881564566008e-01 1.91092685867487e-03
1.94344680851064e+00 1.70622025539777e-01 1.90146726494552e-03
1.95272340425532e+00 1.69371716346327e-01 1.89203294131884e-03
1.96200000000000e+00 1.68130569356193e-01 1.88262418245275e-03
1.97127659574468e+00 1.66898517423030e-01 1.87324127254581e-03
1.98055319148936e+00 1.65675493904841e-01 1.86388448756060e-03
1.98982978723404e+00 1.64461432635836e-01 1.85455409791002e-03
1.99910638297872e+00 1.63256267941171e-01 1.84525035946594e-03
2.00838297872340e+00 1.62059934633124e-01 1.83597352719111e-03
2.01765957446809e+00 1.60872367989910e-01 1.82672384643733e-03
2.02693617021277e+00 1.59693503775625e-01 1.81750155506285e-03
2.03621276595745e+00 1.58523278213629e-01 1.80830688388880e-03
2.04548936170213e+00 1.57361628005943e-01 1.79914005651950e-03
2.05476595744681e+00 1.56208490307268e-01 1.79000129184223e-03
2.06404255319149e+00 1.55063802738428e-01 1.78089079561678e-03
2.07331914893617e+00 1.53927503382749e-01 1.77180877320459e-03
2.08259574468085e+00 1.52799530766465e-01 1.76275542142908e-03
2.09187234042553e+00 1.51679823876965e-01 1.75373093054625e-03
2.10114893617021e+00 1.50568322138194e-01 1.74473548466204e-03
2.11042553191489e+00 1.49464965428401e-01 1.73576926155766e-03
2.11970212765957e+00 1.48369694056131e-01 1.72683243501756e-03
2.12897872340426e+00 1.47282448772496e-01 1.71792516695938e-03
2.13825531914894e+00 1.46203170767740e-01 1.70904761932668e-03
2.14753191489362e+00 1.45131801653111e-01 1.70019994647239e-03
2.15680851063830e+00 1.44068283477554e-01 1.69138229699415e-03
2.16608510638298e+00 1.43012558704971e-01 1.68259481411633e-03
2.17536170212766e+00 1.41964570230472e-01 1.67383763552165e-03
2.18463829787234e+00 1.40924261358162e-01 1.66511089552048e-03
2.19391489361702e+00 1.39891575812355e-01 1.65641471768352e-03
2.20319148936170e+00 1.38866457734324e-01 1.64774922595945e-03
2.21246808510638e+00 1.37848851665501e-01 1.63911453754454e-03
2.22174468085106e+00 1.36838702562770e-01 1.63051076459357e-03
2.23102127659575e+00 1.35835955777426e-01 1.62193801457021e-03
2.24029787234043e+00 1.34840557070060e-01 1.61339639008517e-03
2.24957446808511e+00 1.33852452590001e-01 1.60488599091853e-03
2.25885106382979e+00 1.32871588885570e-01 1.59640690712148e-03
2.26812765957447e+00 1.31897912900991e-01 1.58795922941424e-03
2.27740425531915e+00 1.30931371960824e-01 1.57954304250750e-03
2.28668085106383e+00 1.29971913783984e-01 1.57115842669952e-03
2.29595744680851e+00 1.29019486464248e-01 1.56280545819751e-03
2.30523404255319e+00 1.28074038483910e-01 1.55448420896239e-03
2.31451063829787e+00 1.27135518694732e-01 1.54619474859564e-03
2.32378723404255e+00 1.26203876327323e-01 1.53793713787777e-03
2.33306382978723e+00 1.25279060988221e-01 1.52971143849784e-03
2.34234042553192e+00 1.24361022645437e-01 1.52151770679541e-03
2.35161702127660e+00 1.23449711641325e-01 1.51335599525242e-03
2.36089361702128e+00 1.22545078674512e-01 1.50522635278875e-03
2.37017021276596e+00 1.21647074812426e-01 1.49712882461357e-03
2.37944680851064e+00 1.20755651473635e-01 1.48906345398658e-03
2.38872340425532e+00 1.19870760436440e-01 1.48103027616364e-03
2.39800000000000e+00 1.18992353836102e-01 1.47302932750468e-03
2.40727659574468e+00 1.18120384151419e-01 1.46506063960808e-03
2.41655319148936e+00 1.17254804216548e-01 1.45712424070485e-03
2.42582978723404e+00 1.16395567204236e-01 1.44922015733997e-03
2.43510638297872e+00 1.15542626633908e-01 1.44134840858199e-03
2.44438297872340e+00 1.14695936368997e-01 1.43350901472612e-03
2.45365957446809e+00 1.13855450604196e-01 1.42570199168387e-03
2.46293617021277e+00 1.13021123876602e-01 1.41792735231461e-03
2.47221276595745e+00 1.12192911049798e-01 1.41018510668233e-03
2.48148936170213e+00 1.11370767324710e-01 1.40247526191715e-03
2.49076595744681e+00 1.10554648224042e-01 1.39479782378711e-03
2.50004255319149e+00 1.09744509599686e-01 1.38715279126891e-03
2.50931914893617e+00 1.08940307630200e-01 1.37954016470024e-03
2.51859574468085e+00 1.08141998808945e-01 1.37195994051929e-03
2.52787234042553e+00 1.07349539954339e-01 1.36441211250955e-03
2.53714893617021e+00 1.06562888195065e-01 1.35689667203673e-03
2.54642553191489e+00 1.05782000980060e-01 1.34941360791687e-03
2.55570212765957e+00 1.05006836064049e-01 1.34196290788627e-03
2.56497872340426e+00 1.04237351514349e-01 1.33454455350887e-03
2.57425531914894e+00 1.03473505708469e-01 1.32715852781599e-03
2.58353191489362e+00 1.02715257323084e-01 1.31980481037222e-03
2.59280851063830e+00 1.01962565343457e-01 1.31248337843961e-03
2.60208510638298e+00 1.01215389049698e-01 1.30519420719675e-03
2.61136170212766e+00 1.00473688025954e-01 1.29793726961298e-03
2.62063829787234e+00 9.97374221469573e-02 1.29071253782390e-03
2.62991489361702e+00 9.90065515842744e-02 1.28351997835313e-03
2.63919148936170e+00 9.82810368040299e-02 1.27635955927401e-03
2.64846808510638e+00 9.75608385566381e-02 1.26923124558041e-03
2.65774468085106e+00 9.68459178854818e-02 1.26213500027608e-03
2.66702127659575e+00 9.61362361141287e-02 1.25507078457726e-03
2.67629787234043e+00 9.54317548547915e-02 1.24803855779310e-03
2.68557446808511e+00 9.47324359958203e-02 1.24103827861268e-03
2.69485106382979e+00 9.40382417074361e-02 1.23406990062124e-03
2.70412765957447e+00 9.33491344395746e-02 1.22713337901611e-03
2.71340425531915e+00 9.26650769123206e-02 1.22022866626151e-03
2.72268085106383e+00 9.19860321239025e-02 1.21335571310897e-03
2.73195744680851e+00 9.13119633387945e-02 1.20651446878463e-03
2.74123404255319e+00 9.06428340955118e-02 1.19970488087555e-03
2.75051063829787e+00 8.99786081949678e-02 1.19292689653484e-03
2.75978723404255e+00 8.93192497057426e-02 1.18618045827271e-03
2.76906382978723e+00 8.86647229620383e-02 1.17946551025637e-03
2.77834042553192e+00 8.80149925547631e-02 1.17278199423049e-03
2.78761702127660e+00 8.73700233388991e-02 1.16612985047316e-03
2.79689361702128e+00 8.67297804224237e-02 1.15950901796942e-03
2.80617021276596e+00 8.60942291734954e-02 1.15291943430334e-03
2.81544680851064e+00 8.54633352096091e-02 1.14636103678641e-03
2.82472340425532e+00 8.48370644024421e-02 1.13983375850596e-03
2.83400000000000e+00 8.42153828759123e-02 1.13333753423656e-03
2.84327659574468e+00 8.35982569978651e-02 1.12687229660852e-03
2.85255319148936e+00 8.29856533868666e-02 1.12043797700439e-03
2.86182978723404e+00 8.23775389018824e-02 1.11403450663806e-03
2.87110638297872e+00 8.17738806468493e-02 1.10766181277113e-03
2.88038297872340e+00 8.11746459688057e-02 1.10131982436956e-03
2.88965957446809e+00 8.05798024499728e-02 1.09500846843491e-03
2.89893617021277e+00 7.99893179141789e-02 1.08872767086197e-03
2.90821276595745e+00 7.94031604170317e-02 1.08247735659094e-03
2.91748936170213e+00 7.88212982521867e-02 1.07625744950804e-03
2.92676595744681e+00 7.82436999417256e-02 1.07006787345736e-03
