Energy (eV)          EEDF (eV^-(3/2))     First Anisotropy
1.32307692307692e-02 1.01641750819836e-01 4.73336523792144e-05
3.96923076923077e-02 1.01101758050400e-01 7.82166385910704e-05
6.61538461538461e-02 1.00564634105095e-01 1.03401495194014e-04
9.26153846153846e-02 1.00030363741165e-01 1.22624161769256e-04
1.19076923076923e-01 9.94989317979133e-02 1.38730395129079e-04
1.45538461538462e-01 9.89703231984824e-02 1.52793701337731e-04
1.72000000000000e-01 9.84445229393396e-02 1.65368427541421e-04
1.98461538461538e-01 9.79215161039857e-02 1.76788626184646e-04
2.24923076923077e-01 9.74012878489163e-02 1.87275387684598e-04
2.51384615384615e-01 9.68838234149000e-02 1.96984651898104e-04
2.77846153846154e-01 9.63691081163238e-02 2.06031616175473e-04
3.04307692307692e-01 9.58571273498772e-02 2.14504438087582e-04
3.30769230769231e-01 9.53478665859563e-02 2.22472490349202e-04
3.57230769230769e-01 9.48413113756801e-02 2.29991612482002e-04
3.83692307692308e-01 9.43374473450447e-02 2.37107601922322e-04
4.10153846153846e-01 9.38362601953190e-02 2.43858617193210e-04
4.36615384615385e-01 9.33377357062447e-02 2.50276884722921e-04
4.63076923076923e-01 9.28418597307519e-02 2.56389940634186e-04
4.89538461538462e-01 9.23486181991509e-02 2.62221554629886e-04
5.16000000000000e-01 9.18579971143992e-02 2.67792430541006e-04
5.42461538461538e-01 9.13699825558048e-02 2.73120746340174e-04
5.68923076923077e-01 9.08845606747437e-02 2.78222576701659e-04
5.95384615384615e-01 9.04017176979608e-02 2.83112227932902e-04
6.21846153846154e-01 8.99214399236623e-02 2.87802506704047e-04
6.48307692307692e-01 8.94437137244817e-02 2.92304937879282e-04
6.74769230769231e-01 8.89685255438880e-02 2.96629942900650e-04
7.01230769230769e-01 8.84958618988680e-02 3.00786986971296e-04
7.27692307692308e-01 8.80257093772595e-02 3.04784702159215e-04
7.54153846153846e-01 8.75580546375657e-02 3.08630989645866e-04
7.80615384615385e-01 8.70928844104226e-02 3.12333107059699e-04
8.07076923076923e-01 8.66301854957529e-02 3.15897742260233e-04
8.33538461538461e-01 8.61699447647747e-02 3.19331076487220e-04
8.60000000000000e-01 8.57121491573274e-02 3.22638838686840e-04
8.86461538461538e-01 8.52567856837255e-02 3.25826352425514e-04
9.12923076923077e-01 8.48038414222388e-02 3.28898576657796e-04
9.39384615384615e-01 8.43533035208076e-02 3.31860141253543e-04
9.65846153846154e-01 8.39051591946618e-02 3.34715378146679e-04
9.92307692307692e-01 8.34593957279124e-02 3.37468348533667e-04
1.01876923076923e+00 8.30160004721614e-02 3.40122867710489e-04
1.04523076923077e+00 8.25749608445132e-02 3.42682525725890e-04
1.07169230769231e+00 8.21362643302229e-02 3.45150706330341e-04
1.09815384615385e+00 8.16998984810562e-02 3.47530604516526e-04
1.12461538461538e+00 8.12658509149096e-02 3.49825240686817e-04
1.15107692307692e+00 8.08341093192407e-02 3.52037476547349e-04
1.17753846153846e+00 8.04046614392688e-02 3.54170025804002e-04
1.20400000000000e+00 7.99774950891877e-02 3.56225463650526e-04
1.23046153846154e+00 7.95525981479201e-02 3.58206239068723e-04
1.25692307692308e+00 7.91299585587839e-02 3.60114683076379e-04
1.28338461538462e+00 7.87095643291577e-02 3.61953016245732e-04
1.30984615384615e+00 7.82914035333359e-02 3.63723358243977e-04
1.33630769230769e+00 7.78754643024942e-02 3.65427733246706e-04
1.36276923076923e+00 7.74617348341348e-02 3.67068074759111e-04
1.38923076923077e+00 7.70502033884620e-02 3.68646233419705e-04
1.41569230769231e+00 7.66408582880361e-02 3.70163981508824e-04
1.44215384615385e+00 7.62336879174685e-02 3.71623017745180e-04
1.46861538461538e+00 7.58286807230789e-02 3.73024971084706e-04
1.49507692307692e+00 7.54258252152729e-02 3.74371406658672e-04
1.52153846153846e+00 7.50251099600327e-02 3.75663828274893e-04
1.54800000000000e+00 7.46265235868437e-02 3.76903680629856e-04
1.57446153846154e+00 7.42300547855935e-02 3.78092354425514e-04
1.60092307692308e+00 7.38356923062568e-02 3.79231188711156e-04
1.62738461538462e+00 7.34434249585804e-02 3.80321473083994e-04
1.65384615384615e+00 7.30532416141233e-02 3.81364451983873e-04
1.68030769230769e+00 7.26651311987998e-02 3.82361325936053e-04
1.70676923076923e+00 7.22790826997614e-02 3.83313252625372e-04
1.73323076923077e+00 7.18950851626672e-02 3.84221350728803e-04
1.75969230769231e+00 7.15131276913648e-02 3.85086701273152e-04
1.78615384615385e+00 7.11331994475977e-02 3.85910349455866e-04
1.81261538461538e+00 7.07552896506891e-02 3.86693305832128e-04
1.83907692307692e+00 7.03793875792842e-02 3.87436549483273e-04
1.86553846153846e+00 7.00054825648576e-02 3.88141028462618e-04
1.89200000000000e+00 6.96335639976441e-02 3.88807660144067e-04
1.91846153846154e+00 6.92636213242417e-02 3.89437334141890e-04
1.94492307692308e+00 6.88956440473152e-02 3.90030913019369e-04
1.97138461538462e+00 6.85296217253015e-02 3.90589232979450e-04
1.99784615384615e+00 6.81655439739316e-02 3.91113106429198e-04
2.02430769230769e+00 6.78034004604331e-02 3.91603322045514e-04
2.05076923076923e+00 6.74431809087784e-02 3.92060644776700e-04
2.07723076923077e+00 6.70848750975334e-02 3.92485818255241e-04
2.10369230769231e+00 6.67284728595618e-02 3.92879565179028e-04
2.13015384615385e+00 6.63739640817473e-02 3.93242588144192e-04
2.15661538461538e+00 6.60213387047012e-02 3.93575569990508e-04
2.18307692307692e+00 6.56705867240844e-02 3.93879175892947e-04
2.20953846153846e+00 6.53216981854695e-02 3.94154053170383e-04
2.23600000000000e+00 6.49746631889449e-02 3.94400831052419e-04
2.26246153846154e+00 6.46294718871919e-02 3.94620122684234e-04
2.28892307692308e+00 6.42861144852077e-02 3.94812525275707e-04
2.31538461538462e+00 6.39445812400293e-02 3.94978620264040e-04
2.34184615384615e+00 6.36048624619033e-02 3.95118975120182e-04
2.36830769230769e+00 6.32669485096376e-02 3.95234143031712e-04
2.39476923076923e+00 6.29308297947300e-02 3.95324662555274e-04
2.42123076923077e+00 6.25964967796187e-02 3.95391059368497e-04
2.44769230769231e+00 6.22639399774085e-02 3.95433846295079e-04
2.47415384615385e+00 6.19331499516089e-02 3.95453523738178e-04
2.50061538461538e+00 6.16041173158621e-02 3.95450579709544e-04
2.52707692307692e+00 6.12768327349715e-02 3.95425491389556e-04
2.55353846153846e+00 6.09512869207297e-02 3.95378724725478e-04
2.58000000000000e+00 6.06274706355864e-02 3.95310734007479e-04
2.60646153846154e+00 6.03053746910661e-02 3.95221963397736e-04
2.63292307692308e+00 5.99849899475086e-02 3.95112846864843e-04
2.65938461538462e+00 5.96663073138116e-02 3.94983808139338e-04
2.68584615384615e+00 5.93493177483485e-02 3.94835262111943e-04
2.71230769230769e+00 5.90340122551577e-02 3.94667614393339e-04
2.73876923076923e+00 5.87203818872633e-02 3.94481260856670e-04
2.76523076923077e+00 5.84084177452220e-02 3.94276589017148e-04
2.79169230769231e+00 5.80981109768677e-02 3.94053977916808e-04
2.81815384615385e+00 5.77894527770660e-02 3.93813798372261e-04
2.84461538461538e+00 5.74824343874613e-02 3.93556412876117e-04
2.87107692307692e+00 5.71770470972903e-02 3.93282176844834e-04
2.89753846153846e+00 5.68732822399304e-02 3.92991438156715e-04
2.92400000000000e+00 5.65711311958773e-02 3.92684536676481e-04
2.95046153846154e+00 5.62705853914182e-02 3.92361805494030e-04
2.97692307692308e+00 5.59716362983902e-02 3.92023570773529e-04
3.00338461538462e+00 5.56742754339389e-02 3.91670151624677e-04
3.02984615384615e+00 5.53784943612497e-02 3.91301861245514e-04
3.05630769230769e+00 5.50842846863722e-02 3.90919006455509e-04
3.08276923076923e+00 5.47916380609356e-02 3.90521887217454e-04
3.10923076923077e+00 5.45005461809213e-02 3.90110797776201e-04
3.13569230769231e+00 5.42110007864257e-02 3.89686026488944e-04
3.16215384615385e+00 5.39229936614293e-02 3.89247855977481e-04
3.18861538461538e+00 5.36365166335619e-02 3.88796562978253e-04
3.21507692307692e+00 5.33515615747549e-02 3.88332419382460e-04
3.24153846153846e+00 5.30681203983426e-02 3.87855691772230e-04
3.26800000000000e+00 5.27861850615163e-02 3.87366640947394e-04
3.29446153846154e+00 5.25057475641951e-02 3.86865522965750e-04
3.32092307692308e+00 5.22267999488005e-02 3.86352588961257e-04
3.34738461538462e+00 5.19493343000309e-02 3.85828084982843e-04
3.37384615384615e+00 5.16733427454512e-02 3.85292252959581e-04
3.40030769230769e+00 5.13988174528109e-02 3.84745330245267e-04
3.42676923076923e+00 5.11257506322943e-02 3.84187549154829e-04
3.45323076923077e+00 5.08541345354704e-02 3.83619137931740e-04
3.47969230769231e+00 5.05839614550722e-02 3.83040320560845e-04
3.50615384615385e+00 5.03152237247803e-02 3.82451316867381e-04
3.53261538461538e+00 5.00479137190041e-02 3.81852342349497e-04
3.55907692307692e+00 4.97820238534107e-02 3.81243609067599e-04
3.58553846153846e+00 4.95175465824618e-02 3.80625325201802e-04
3.61200000000000e+00 4.92544744014601e-02 3.79997694602247e-04
3.63846153846154e+00 4.89927998455775e-02 3.79360917682539e-04
3.66492307692308e+00 4.87325154896445e-02 3.78715191231151e-04
3.69138461538462e+00 4.84736139479397e-02 3.78060708241579e-04
3.71784615384615e+00 4.82160878746700e-02 3.77397658744491e-04
3.74430769230769e+00 4.79599299616808e-02 3.76726229378669e-04
3.77076923076923e+00 4.77051329403409e-02 3.76046602955646e-04
3.79723076923077e+00 4.74516895806352e-02 3.75358959296943e-04
3.82369230769231e+00 4.71995926909586e-02 3.74663475046266e-04
3.85015384615385e+00 4.69488351179137e-02 3.73960323736917e-04
3.87661538461538e+00 4.66994097461071e-02 3.73249675622593e-04
3.90307692307692e+00 4.64513094985808e-02 3.72531698450235e-04
3.92953846153846e+00 4.62045273347008e-02 3.71806557047550e-04
3.95600000000000e+00 4.59590562518781e-02 3.71074412904803e-04
3.98246153846154e+00 4.57148892847261e-02 3.70335424953566e-04
4.00892307692308e+00 4.54720195048628e-02 3.69589749382396e-04
4.03538461538461e+00 4.52304400207156e-02 3.68837539469394e-04
4.06184615384615e+00 4.49901439779134e-02 3.68078946309659e-04
4.08830769230769e+00 4.47511245573164e-02 3.67314118417763e-04
4.11476923076923e+00 4.45133749766078e-02 3.66543201325087e-04
4.14123076923077e+00 4.42768884895033e-02 3.65766338313360e-04
4.16769230769231e+00 4.40416583855589e-02 3.64983670234170e-04
4.19415384615385e+00 4.38076779899818e-02 3.64195335556518e-04
4.22061538461538e+00 4.35749406634406e-02 3.63401470203136e-04
4.24707692307692e+00 4.33434398024195e-02 3.62602208230004e-04
4.27353846153846e+00 4.31131688373938e-02 3.61797681446139e-04
4.30000000000000e+00 4.28841212342891e-02 3.60988019028628e-04
4.32646153846154e+00 4.26562904937444e-02 3.60173348208456e-04
4.35292307692308e+00 4.24296701509279e-02 3.59353794095644e-04
4.37938461538462e+00 4.22042537753536e-02 3.58529479519293e-04
4.40584615384615e+00 4.19800349712057e-02 3.57700525669617e-04
4.43230769230769e+00 4.17570073756290e-02 3.56867051732783e-04
4.45876923076923e+00 4.15351646600840e-02 3.56029174521314e-04
4.48523076923077e+00 4.13145005296528e-02 3.55187009122547e-04
4.51169230769231e+00 4.10950087228599e-02 3.54340668728664e-04
4.53815384615385e+00 4.08766830114958e-02 3.53490264671404e-04
4.56461538461538e+00 4.06595172004397e-02 3.52635906267381e-04
4.59107692307692e+00 4.04435051279521e-02 3.51777701420150e-04
4.61753846153846e+00 4.02286406640872e-02 3.50915756271896e-04
4.64400000000000e+00 4.00149177119391e-02 3.50050174850997e-04
4.67046153846154e+00 3.98023302069926e-02 3.49181059680560e-04
4.69692307692308e+00 3.95908721169513e-02 3.48308511614904e-04
4.72338461538462e+00 3.93805374415671e-02 3.47432629689533e-04
4.74984615384615e+00 3.91713202129079e-02 3.46553511691765e-04
4.77630769230769e+00 3.89632144938661e-02 3.45671253826672e-04
4.80276923076923e+00 3.87562143793192e-02 3.44785950379125e-04
4.82923076923077e+00 3.85503139955166e-02 3.43897694290831e-04
4.85569230769231e+00 3.83455074999127e-02 3.43006577002304e-04
4.88215384615385e+00 3.81417890810023e-02 3.42112688478634e-04
4.90861538461538e+00 3.79391529581548e-02 3.41216117065264e-04
4.93507692307692e+00 3.77375933818571e-02 3.40316950024652e-04
4.96153846153846e+00 3.75371046323244e-02 3.39415273218116e-04
4.98800000000000e+00 3.73376810205699e-02 3.38511170784071e-04
5.01446153846154e+00 3.71393168878305e-02 3.37604725680959e-04
5.04092307692308e+00 3.69420066054065e-02 3.36696019535811e-04
5.06738461538461e+00 3.67457445745019e-02 3.35785132504701e-04
5.09384615384615e+00 3.65505252264470e-02 3.34872143782784e-04
5.12030769230769e+00 3.63563430213901e-02 3.33957131299228e-04
5.14676923076923e+00 3.61631924492965e-02 3.33040171408818e-04
5.17323076923077e+00 3.59710680294044e-02 3.32121339408086e-04
5.19969230769231e+00 3.57799643100694e-02 3.31200709389187e-04
5.22615384615385e+00 3.55898758686103e-02 3.30278354259615e-04
5.25261538461538e+00 3.54007973111552e-02 3.29354345608513e-04
5.27907692307692e+00 3.52127232728427e-02 3.28428754187439e-04
5.30553846153846e+00 3.50256484166008e-02 3.27501649620095e-04
5.33200000000000e+00 3.48395674340699e-02 3.26573100108800e-04
5.35846153846154e+00 3.46544750450916e-02 3.25643172921154e-04
5.38492307692308e+00 3.44703659975598e-02 3.24711934250442e-04
5.41138461538462e+00 3.42872350672711e-02 3.23779449086705e-04
5.43784615384615e+00 3.41050770581104e-02 3.22845781674280e-04
5.46430769230769e+00 3.39238868008981e-02 3.21910995233641e-04
5.49076923076923e+00 3.37436591542533e-02 3.20975151680259e-04
5.51723076923077e+00 3.35643890041101e-02 3.20038312087860e-04
5.54369230769231e+00 3.33860712635712e-02 3.19100536554053e-04
5.57015384615385e+00 3.32087008727652e-02 3.18161884215593e-04
5.59661538461538e+00 3.30322727987021e-02 3.17222413125055e-04
5.62307692307692e+00 3.28567820354416e-02 3.16282180683068e-04
5.64953846153846e+00 3.26822236030141e-02 3.15341243373634e-04
5.67600000000000e+00 3.25085925482207e-02 3.14399656496511e-04
5.70246153846154e+00 3.23358839441772e-02 3.13457474604925e-04
5.72892307692308e+00 3.21640928901745e-02 3.12514751377328e-04
5.75538461538461e+00 3.19932145115395e-02 3.11571539498552e-04
5.78184615384615e+00 3.18232439597895e-02 3.10627891071776e-04
5.80830769230769e+00 3.16541764116127e-02 3.09683857364982e-04
5.83476923076923e+00 3.14860070696172e-02 3.08739488554537e-04
5.86123076923077e+00 3.13187311618984e-02 3.07794834142450e-04
5.88769230769231e+00 3.11523439419028e-02 3.06849942833024e-04
5.91415384615385e+00 3.09868406882944e-02 3.05904862544889e-04
5.94061538461538e+00 3.08222167048204e-02 3.04959640297527e-04
5.96707692307692e+00 3.06584673204506e-02 3.04014322601069e-04
5.99353846153846e+00 3.04955878884223e-02 3.03068955214823e-04
6.02000000000000e+00 3.03335737869349e-02 3.02123582903364e-04
6.04646153846154e+00 3.01724204187421e-02 3.01178249831415e-04
6.07292307692308e+00 3.00121232110215e-02 3.00232999446075e-04
6.09938461538461e+00 2.98526776152445e-02 2.99287874367616e-04
6.12584615384615e+00 2.96940791073055e-02 2.98342916761418e-04
6.15230769230769e+00 2.95363231866165e-02 2.97398168106731e-04
6.17876923076923e+00 2.93794053767598e-02 2.96453668962861e-04
6.20523076923077e+00 2.92233212250993e-02 2.95509459346006e-04
6.23169230769231e+00 2.90680663026545e-02 2.94565578616109e-04
6.25815384615385e+00 2.89136362039747e-02 2.93622065486421e-04
6.28461538461538e+00 2.87600265470144e-02 2.92678957919346e-04
6.31107692307692e+00 2.86072329732491e-02 2.91736293478787e-04
6.33753846153846e+00 2.84552511468264e-02 2.90794109109885e-04
6.36400000000000e+00 2.83040767551718e-02 2.89852440916528e-04
6.39046153846154e+00 2.81537055086220e-02 2.88911324518445e-04
6.41692307692308e+00 2.80041331403035e-02 2.87970794943214e-04
6.44338461538462e+00 2.78553554060117e-02 2.87030886526029e-04
6.46984615384615e+00 2.77073680843175e-02 2.86091633246293e-04
6.49630769230769e+00 2.75601669757621e-02 2.85153068516545e-04
6.52276923076923e+00 2.74137479034268e-02 2.84215224969219e-04
6.54923076923077e+00 2.72681067125834e-02 2.83278134797748e-04
6.57569230769231e+00 2.71232392705765e-02 2.82341829652846e-04
6.60215384615385e+00 2.69791414667064e-02 2.81406340650211e-04
6.62861538461538e+00 2.68358092121123e-02 2.80471698274868e-04
6.65507692307692e+00 2.66932384398696e-02 2.79537932700484e-04
6.68153846153846e+00 2.65514251042318e-02 2.78605073588362e-04
6.70800000000000e+00 2.64103651811613e-02 2.77673149884311e-04
6.73446153846154e+00 2.62700546679990e-02 2.76742190142205e-04
6.76092307692308e+00 2.61304895833507e-02 2.75812222425085e-04
6.78738461538461e+00 2.59916659669741e-02 2.74883274213170e-04
6.81384615384615e+00 2.58535798798682e-02 2.73955372709059e-04
6.84030769230769e+00 2.57162274035539e-02 2.73028544645028e-04
6.86676923076923e+00 2.55796046405733e-02 2.72102816088383e-04
6.89323076923077e+00 2.54437077141741e-02 2.71178212750815e-04
6.91969230769231e+00 2.53085327682003e-02 2.70254759893309e-04
6.94615384615385e+00 2.51740759669825e-02 2.69332482332527e-04
6.97261538461538e+00 2.50403334952289e-02 2.68411404353029e-04
6.99907692307692e+00 2.49073015581067e-02 2.67491549996962e-04
7.02553846153846e+00 2.47749763805638e-02 2.66572942880574e-04
7.05200000000000e+00 2.46433542077947e-02 2.65655606008767e-04
7.07846153846154e+00 2.45124313049421e-02 2.64739562068777e-04
7.10492307692308e+00 2.43822039569906e-02 2.63824833339549e-04
7.13138461538461e+00 2.42526684686618e-02 2.62911441607346e-04
7.15784615384615e+00 2.41238211644883e-02 2.61999408442971e-04
7.18430769230769e+00 2.39956583881698e-02 2.61088755025772e-04
7.21076923076923e+00 2.38681765030114e-02 2.60179501965796e-04
7.23723076923077e+00 2.37413718916389e-02 2.59271669584835e-04
7.26369230769231e+00 2.36152409558958e-02 2.58365277829306e-04
7.29015384615385e+00 2.34897801167418e-02 2.57460346275472e-04
7.31661538461538e+00 2.33649858141512e-02 2.56556894048918e-04
7.34307692307692e+00 2.32408545071795e-02 2.55654940087955e-04
7.36953846153846e+00 2.31173826733566e-02 2.54754502975910e-04
7.39600000000000e+00 2.29945668090960e-02 2.53855600771664e-04
7.42246153846154e+00 2.28724034294243e-02 2.52958251276655e-04
7.44892307692308e+00 2.27508890678829e-02 2.52062471951876e-04
7.47538461538462e+00 2.26300202764296e-02 2.51168279840435e-04
7.50184615384615e+00 2.25097936254999e-02 2.50275691819697e-04
7.52830769230769e+00 2.23902057034297e-02 2.49384724440473e-04
7.55476923076923e+00 2.22712531168404e-02 2.48495393764465e-04
7.58123076923077e+00 2.21529324903818e-02 2.47607715619881e-04
7.60769230769231e+00 2.20352404666356e-02 2.46721705521639e-04
7.63415384615385e+00 2.19181737060206e-02 2.45837378675727e-04
7.66061538461538e+00 2.18017288866978e-02 2.44954749905274e-04
7.68707692307692e+00 2.16859027046262e-02 2.44073833890323e-04
7.71353846153846e+00 2.15706918730170e-02 2.43194645014565e-04
7.74000000000000e+00 2.14560931226943e-02 2.42317197210325e-04
7.76646153846154e+00 2.13421032018505e-02 2.41441504201664e-04
7.79292307692308e+00 2.12287188759536e-02 2.40567579428278e-04
7.81938461538461e+00 2.11159369276560e-02 2.39695435974497e-04
7.84584615384615e+00 2.10037541568449e-02 2.38825086798936e-04
7.87230769230769e+00 2.08921673801233e-02 2.37956544587361e-04
7.89876923076923e+00 2.07811734311503e-02 2.37089821604069e-04
7.92523076923077e+00 2.06707691604063e-02 2.36224929924731e-04
7.95169230769231e+00 2.05609514351045e-02 2.35361881363249e-04
7.97815384615385e+00 2.04517171391016e-02 2.34500687475363e-04
8.00461538461538e+00 2.03430631728093e-02 2.33641359490848e-04
8.03107692307692e+00 2.02349864532407e-02 2.32783908532033e-04
8.05753846153846e+00 2.01274839135188e-02 2.31928345473550e-04
8.08400000000000e+00 2.00205525031951e-02 2.31074680800550e-04
8.11046153846154e+00 1.99141891880273e-02 2.30222924830296e-04
8.13692307692308e+00 1.98083909498928e-02 2.29373087642367e-04
8.16338461538462e+00 1.97031547867038e-02 2.28525179013505e-04
8.18984615384615e+00 1.95984777124484e-02 2.27679208627049e-04
8.21630769230769e+00 1.94943567567238e-02 2.26835185938281e-04
8.24276923076923e+00 1.93907889650358e-02 2.25993120038407e-04
8.26923076923077e+00 1.92877713985867e-02 2.25153019866906e-04
8.29569230769231e+00 1.91853011341916e-02 2.24314894144448e-04
8.32215384615385e+00 1.90833752641959e-02 2.23478751375885e-04
8.34861538461538e+00 1.89819908963921e-02 2.22644599788096e-04
