Energy (eV)          EEDF (eV^-(3/2))     First Anisotropy
1.02459016393443e-02 1.63295138599500e-01 7.82919154906893e-05
3.07377049180328e-02 1.62373632298307e-01 1.29352279959110e-04
5.12295081967213e-02 1.61457326237427e-01 1.70945407713270e-04
7.17213114754098e-02 1.60546191072409e-01 2.02657345995503e-04
9.22131147540984e-02 1.59640197620512e-01 2.29199466459105e-04
1.12704918032787e-01 1.58739316869153e-01 2.52349884922354e-04
1.33196721311475e-01 1.57843519957814e-01 2.73027213396932e-04
1.53688524590164e-01 1.56952778205447e-01 2.91785254107925e-04
1.74180327868852e-01 1.56067063083896e-01 3.08990697250921e-04
1.94672131147541e-01 1.55186346221776e-01 3.24902287589299e-04
2.15163934426229e-01 1.54310599418157e-01 3.39711249535432e-04
2.35655737704918e-01 1.53439794625677e-01 3.53563985996278e-04
2.56147540983607e-01 1.52573903955287e-01 3.66575753342080e-04
2.76639344262295e-01 1.51712899672333e-01 3.78839363298932e-04
2.97131147540984e-01 1.50856754205361e-01 3.90430968312152e-04
3.17622950819672e-01 1.50005440134930e-01 4.01414047262365e-04
3.38114754098361e-01 1.49158930196398e-01 4.11842233229005e-04
3.58606557377049e-01 1.48317197276686e-01 4.21761372245036e-04
3.79098360655738e-01 1.47480214420614e-01 4.31211056133437e-04
3.99590163934426e-01 1.46647954822521e-01 4.40225785253489e-04
4.20081967213115e-01 1.45820391826089e-01 4.48835862696383e-04
4.40573770491803e-01 1.44997498929561e-01 4.57068096233872e-04
4.61065573770492e-01 1.44179249778576e-01 4.64946354715343e-04
4.81557377049180e-01 1.43365618167504e-01 4.72492013451225e-04
5.02049180327869e-01 1.42556578037015e-01 4.79724315449585e-04
5.22540983606557e-01 1.41752103478162e-01 4.86660668047072e-04
5.43032786885246e-01 1.40952168726472e-01 4.93316888228996e-04
5.63524590163934e-01 1.40156748161468e-01 4.99707404959732e-04
5.84016393442623e-01 1.39365816310186e-01 5.05845430829594e-04
6.04508196721311e-01 1.38579347841900e-01 5.11743106901088e-04
6.25000000000000e-01 1.37797317568828e-01 5.17411624986697e-04
6.45491803278688e-01 1.37019700444139e-01 5.22861332270349e-04
6.65983606557377e-01 1.36246471564818e-01 5.28101822007545e-04
6.86475409836065e-01 1.35477606167105e-01 5.33142011957695e-04
7.06967213114754e-01 1.34713079626998e-01 5.37990211715218e-04
7.27459016393443e-01 1.33952867458419e-01 5.42654181491006e-04
7.47950819672131e-01 1.33196945315594e-01 5.47141184283304e-04
7.68442622950820e-01 1.32445288989041e-01 5.51458031972245e-04
7.88934426229508e-01 1.31697874404966e-01 5.55611124447303e-04
8.09426229508197e-01 1.30954677627357e-01 5.59606485792944e-04
8.29918032786885e-01 1.30215674854291e-01 5.63449796313475e-04
8.50409836065574e-01 1.29480842418162e-01 5.67146420401977e-04
8.70901639344262e-01 1.28750156784099e-01 5.70701431503969e-04
8.91393442622951e-01 1.28023594551741e-01 5.74119635113922e-04
9.11885245901639e-01 1.27301132451910e-01 5.77405589636984e-04
9.32377049180328e-01 1.26582747345975e-01 5.80563623811104e-04
9.52868852459016e-01 1.25868416227453e-01 5.83597853812709e-04
9.73360655737705e-01 1.25158116218886e-01 5.86512198627384e-04
9.93852459016393e-01 1.24451824571923e-01 5.89310393251383e-04
1.01434426229508e+00 1.23749518666585e-01 5.91996000883963e-04
1.03483606557377e+00 1.23051176012543e-01 5.94572426519564e-04
1.05532786885246e+00 1.22356774237750e-01 5.97042923119624e-04
1.07581967213115e+00 1.21666291109707e-01 5.99410603098006e-04
1.09631147540984e+00 1.20979704514568e-01 6.01678451591456e-04
1.11680327868852e+00 1.20296992457269e-01 6.03849326177527e-04
1.13729508196721e+00 1.19618133079213e-01 6.05925968429880e-04
1.15778688524590e+00 1.18943104638840e-01 6.07911014640786e-04
1.17827868852459e+00 1.18271885511672e-01 6.09806994165334e-04
1.19877049180328e+00 1.17604454206767e-01 6.11616339227723e-04
1.21926229508197e+00 1.16940789348577e-01 6.13341394057700e-04
1.23975409836066e+00 1.16280869676940e-01 6.14984412277191e-04
1.26024590163934e+00 1.15624674062415e-01 6.16547565364532e-04
1.28073770491803e+00 1.14972181489303e-01 6.18032950568008e-04
1.30122950819672e+00 1.14323371055593e-01 6.19442587626108e-04
1.32172131147541e+00 1.13678221987288e-01 6.20778426181085e-04
1.34221311475410e+00 1.13036713622484e-01 6.22042352734758e-04
1.36270491803279e+00 1.12398825411263e-01 6.23236186908709e-04
1.38319672131148e+00 1.11764536929114e-01 6.24361688020191e-04
1.40368852459016e+00 1.11133827861973e-01 6.25420561275269e-04
1.42418032786885e+00 1.10506678006063e-01 6.26414453716944e-04
1.44467213114754e+00 1.09883067280501e-01 6.27344960124417e-04
1.46516393442623e+00 1.09262975713203e-01 6.28213628588143e-04
1.48565573770492e+00 1.08646383440687e-01 6.29021956253382e-04
1.50614754098361e+00 1.08033270719935e-01 6.29771394665054e-04
1.52663934426229e+00 1.07423617915084e-01 6.30463354834549e-04
1.54713114754098e+00 1.06817405497202e-01 6.31099202857661e-04
1.56762295081967e+00 1.06214614055464e-01 6.31680264798820e-04
1.58811475409836e+00 1.05615224284568e-01 6.32207831334428e-04
1.60860655737705e+00 1.05019216984486e-01 6.32683153303305e-04
1.62909836065574e+00 1.04426573071009e-01 6.33107446203242e-04
1.64959016393443e+00 1.03837273563829e-01 6.33481894477181e-04
1.67008196721311e+00 1.03251299586272e-01 6.33807647039392e-04
1.69057377049180e+00 1.02668632375260e-01 6.34085821441996e-04
1.71106557377049e+00 1.02089253270010e-01 6.34317507856226e-04
1.73155737704918e+00 1.01513143711744e-01 6.34503764606214e-04
1.75204918032787e+00 1.00940285253122e-01 6.34645622051607e-04
1.77254098360656e+00 1.00370659547505e-01 6.34744086305970e-04
1.79303278688525e+00 9.98042483486519e-02 6.34800134801700e-04
1.81352459016393e+00 9.92410335196538e-02 6.34814719925986e-04
1.83401639344262e+00 9.86809970227286e-02 6.34788772510121e-04
1.85450819672131e+00 9.81241209188986e-02 6.34723197443312e-04
1.87500000000000e+00 9.75703873764725e-02 6.34618877092120e-04
1.89549180327869e+00 9.70197786613232e-02 6.34476673774914e-04
1.91598360655738e+00 9.64722771394027e-02 6.34297428696283e-04
1.93647540983607e+00 9.59278652733999e-02 6.34081961102381e-04
1.95696721311475e+00 9.53865256305923e-02 6.33831070575317e-04
1.97745901639344e+00 9.48482408737888e-02 6.33545540067017e-04
1.99795081967213e+00 9.43129937609907e-02 6.33226131708989e-04
2.01844262295082e+00 9.37807671528574e-02 6.32873589800383e-04
2.03893442622951e+00 9.32515440040571e-02 6.32488643687519e-04
2.05942622950820e+00 9.27253073629258e-02 6.32072003651046e-04
2.07991803278688e+00 9.22020403785723e-02 6.31624363748506e-04
2.10040983606557e+00 9.16817262926110e-02 6.31146404554533e-04
2.12090163934426e+00 9.11643484388191e-02 6.30638789129588e-04
2.14139344262295e+00 9.06498902499044e-02 6.30102165730792e-04
2.16188524590164e+00 9.01383352495972e-02 6.29537170425739e-04
2.18237704918033e+00 8.96296670523053e-02 6.28944423145642e-04
2.20286885245902e+00 8.91238693695667e-02 6.28324530276009e-04
2.22336065573770e+00 8.86209260024783e-02 6.27678087155149e-04
2.24385245901639e+00 8.81208208413491e-02 6.27005674213373e-04
2.26434426229508e+00 8.76235378718588e-02 6.26307859453531e-04
2.28483606557377e+00 8.71290611678008e-02 6.25585200843860e-04
2.30532786885246e+00 8.66373748907373e-02 6.24838242543933e-04
2.32581967213115e+00 8.61484632958782e-02 6.24067517283749e-04
2.34631147540984e+00 8.56623107251234e-02 6.23273548659220e-04
2.36680327868852e+00 8.51789016067173e-02 6.22456847444983e-04
2.38729508196721e+00 8.46982204608671e-02 6.21617913879567e-04
2.40778688524590e+00 8.42202518930655e-02 6.20757239870771e-04
2.42827868852459e+00 8.37449805937464e-02 6.19875305395037e-04
2.44877049180328e+00 8.32723913436565e-02 6.18972580695353e-04
2.46926229508197e+00 8.28024690074439e-02 6.18049528402683e-04
2.48975409836066e+00 8.23351985333150e-02 6.17106600021142e-04
2.51024590163934e+00 8.18705649581735e-02 6.16144238044706e-04
2.53073770491803e+00 8.14085534014601e-02 6.15162878000238e-04
2.55122950819672e+00 8.09491490648109e-02 6.14162945017387e-04
2.57172131147541e+00 8.04923372369773e-02 6.13144855868824e-04
2.59221311475410e+00 8.00381032879040e-02 6.12109020940610e-04
2.61270491803279e+00 7.95864326683878e-02 6.11055840885464e-04
2.63319672131148e+00 7.91373109147903e-02 6.09985708590588e-04
2.65368852459016e+00 7.86907236433435e-02 6.08899011080274e-04
2.67418032786885e+00 7.82466565498073e-02 6.07796126250769e-04
2.69467213114754e+00 7.78050954139885e-02 6.06677424770180e-04
2.71516393442623e+00 7.73660260942596e-02 6.05543271917091e-04
2.73565573770492e+00 7.69294345272181e-02 6.04394024395627e-04
2.75614754098361e+00 7.64953067320197e-02 6.03230032171057e-04
2.77663934426229e+00 7.60636288051014e-02 6.02051640248119e-04
2.79713114754098e+00 7.56343869198415e-02 6.00859185564466e-04
2.81762295081967e+00 7.52075673307177e-02 5.99652998765484e-04
2.83811475409836e+00 7.47831563682239e-02 5.98433405925656e-04
2.85860655737705e+00 7.43611404385309e-02 5.97200725518461e-04
2.87909836065574e+00 7.39415060274792e-02 5.95955270133769e-04
2.89959016393443e+00 7.35242396956793e-02 5.94697348144945e-04
2.92008196721311e+00 7.31093280781739e-02 5.93427260753634e-04
2.94057377049180e+00 7.26967578882733e-02 5.92145303652520e-04
2.96106557377049e+00 7.22865159128303e-02 5.90851768640847e-04
2.98155737704918e+00 7.18785890119053e-02 5.89546940742213e-04
3.00204918032787e+00 7.14729641224507e-02 5.88231099815418e-04
3.02254098360656e+00 7.10696282537533e-02 5.86904522120982e-04
3.04303278688525e+00 7.06685684871012e-02 5.85567477510029e-04
3.06352459016393e+00 7.02697719793257e-02 5.84220230985636e-04
3.08401639344262e+00 6.98732259584031e-02 5.82863044222646e-04
3.10450819672131e+00 6.94789177231236e-02 5.81496172825768e-04
3.12500000000000e+00 6.90868346464975e-02 5.80119867843843e-04
3.14549180327869e+00 6.86969641715088e-02 5.78734376797240e-04
3.16598360655738e+00 6.83092938120034e-02 5.77339942796507e-04
3.18647540983607e+00 6.79238111510933e-02 5.75936803771094e-04
3.20696721311475e+00 6.75405038443739e-02 5.74525193450164e-04
3.22745901639344e+00 6.71593596158861e-02 5.73105342774035e-04
3.24795081967213e+00 6.67803662577930e-02 5.71677477319703e-04
3.26844262295082e+00 6.64035116334764e-02 5.70241818707849e-04
3.28893442622951e+00 6.60287836736336e-02 5.68798585973388e-04
3.30942622950820e+00 6.56561703759585e-02 5.67347993053922e-04
3.32991803278688e+00 6.52856598081223e-02 5.65890250156824e-04
3.35040983606557e+00 6.49172401040000e-02 5.64425565090872e-04
3.37090163934426e+00 6.45508994633550e-02 5.62954140815818e-04
3.39139344262295e+00 6.41866261547103e-02 5.61476176771103e-04
3.41188524590164e+00 6.38244085116979e-02 5.59991870170131e-04
3.43237704918033e+00 6.34642349327483e-02 5.58501413609455e-04
3.45286885245902e+00 6.31060938838558e-02 5.57004996360625e-04
3.47336065573770e+00 6.27499738950470e-02 5.55502805628473e-04
3.49385245901639e+00 6.23958635600738e-02 5.53995024218267e-04
3.51434426229508e+00 6.20437515390787e-02 5.52481831792230e-04
3.53483606557377e+00 6.16936265551765e-02 5.50963406093157e-04
3.55532786885246e+00 6.13454773941518e-02 5.49439920667918e-04
3.57581967213115e+00 6.09992929070276e-02 5.47911546090080e-04
3.59631147540984e+00 6.06550620067566e-02 5.46378451150141e-04
3.61680327868852e+00 6.03127736679224e-02 5.44840800633938e-04
3.63729508196721e+00 5.99724169292163e-02 5.43298756512415e-04
3.65778688524590e+00 5.96339808902329e-02 5.41752479099781e-04
3.67827868852459e+00 5.92974547111757e-02 5.40202124885386e-04
3.69877049180328e+00 5.89628276152456e-02 5.38647847691754e-04
3.71926229508197e+00 5.86300888855374e-02 5.37089799801874e-04
3.73975409836066e+00 5.82992278647490e-02 5.35528129843109e-04
3.76024590163934e+00 5.79702339574856e-02 5.33962983914653e-04
3.78073770491803e+00 5.76430966272530e-02 5.32394506684973e-04
3.80122950819672e+00 5.73178053961705e-02 5.30822839326339e-04
3.82172131147541e+00 5.69943498471947e-02 5.29248120612681e-04
3.84221311475410e+00 5.66727196212055e-02 5.27670487988448e-04
3.86270491803279e+00 5.63529044167223e-02 5.26090075552360e-04
3.88319672131148e+00 5.60348939920513e-02 5.24507015126493e-04
3.90368852459016e+00 5.57186781624604e-02 5.22921437297635e-04
3.92418032786885e+00 5.54042467998993e-02 5.21333469448900e-04
3.94467213114754e+00 5.50915898350723e-02 5.19743236801069e-04
3.96516393442623e+00 5.47806972546998e-02 5.18150863427384e-04
3.98565573770492e+00 5.44715591012413e-02 5.16556470331695e-04
4.00614754098361e+00 5.41641654748979e-02 5.14960176462918e-04
4.02663934426229e+00 5.38585065309560e-02 5.13362099704140e-04
4.04713114754098e+00 5.35545724795141e-02 5.11762354996208e-04
4.06762295081967e+00 5.32523535874172e-02 5.10161055326124e-04
4.08811475409836e+00 5.29518401756801e-02 5.08558312691254e-04
4.10860655737705e+00 5.26530226192177e-02 5.06954236267125e-04
4.12909836065574e+00 5.23558913487141e-02 5.05348933370550e-04
4.14959016393443e+00 5.20604368481227e-02 5.03742510399917e-04
4.17008196721311e+00 5.17666496543996e-02 5.02135071045913e-04
4.19057377049180e+00 5.14745203593103e-02 5.00526717230171e-04
4.21106557377049e+00 5.11840396070038e-02 4.98917550022355e-04
4.23155737704918e+00 5.08951980937493e-02 4.97307667892701e-04
4.25204918032787e+00 5.06079865696825e-02 4.95697167627097e-04
4.27254098360656e+00 5.03223958364512e-02 4.94086145221537e-04
4.29303278688525e+00 5.00384167469553e-02 4.92474694175343e-04
4.31352459016393e+00 4.97560402070351e-02 4.90862906383512e-04
4.33401639344262e+00 4.94752571731859e-02 4.89250873009188e-04
4.35450819672131e+00 4.91960586523009e-02 4.87638682816566e-04
4.37500000000000e+00 4.89184357033046e-02 4.86026423041064e-04
4.39549180327869e+00 4.86423794349327e-02 4.84414179972368e-04
4.41598360655738e+00 4.83678810060962e-02 4.82802038400331e-04
4.43647540983607e+00 4.80949316249894e-02 4.81190081121014e-04
4.45696721311475e+00 4.78235225506463e-02 4.79578389496230e-04
4.47745901639344e+00 4.75536450908107e-02 4.77967044274500e-04
4.49795081967213e+00 4.72852906016887e-02 4.76356124017971e-04
4.51844262295082e+00 4.70184504894533e-02 4.74745705921081e-04
4.53893442622951e+00 4.67531162081758e-02 4.73135866611572e-04
4.55942622950820e+00 4.64892792595817e-02 4.71526680613598e-04
4.57991803278688e+00 4.62269311945068e-02 4.69918221146719e-04
4.60040983606557e+00 4.59660636108865e-02 4.68310560907455e-04
4.62090163934426e+00 4.57066681535158e-02 4.66703770567611e-04
4.64139344262295e+00 4.54487365154579e-02 4.65097919554199e-04
4.66188524590164e+00 4.51922604360907e-02 4.63493076812189e-04
4.68237704918033e+00 4.49372317008697e-02 4.61889309337036e-04
4.70286885245902e+00 4.46836421426920e-02 4.60286682936159e-04
4.72336065573770e+00 4.44314836399967e-02 4.58685262973403e-04
4.74385245901639e+00 4.41807481165317e-02 4.57085112935012e-04
4.76434426229508e+00 4.39314275426740e-02 4.55486295172906e-04
4.78483606557377e+00 4.36835139335830e-02 4.53888871631435e-04
4.80532786885246e+00 4.34369993489706e-02 4.52292902446090e-04
4.82581967213115e+00 4.31918758943800e-02 4.50698446669169e-04
4.84631147540984e+00 4.29481357193890e-02 4.49105562979334e-04
4.86680327868852e+00 4.27057710173846e-02 4.47514308311858e-04
4.88729508196721e+00 4.24647740268006e-02 4.45924738567404e-04
4.90778688524590e+00 4.22251370293708e-02 4.44336909304838e-04
4.92827868852459e+00 4.19868523499066e-02 4.42750874402396e-04
4.94877049180328e+00 4.17499123574957e-02 4.41166686749890e-04
4.96926229508197e+00 4.15143094638031e-02 4.39584398925212e-04
4.98975409836066e+00 4.12800361228515e-02 4.38004061885629e-04
5.01024590163934e+00 4.10470848321837e-02 4.36425725643916e-04
5.03073770491803e+00 4.08154481312082e-02 4.34849439928963e-04
5.05122950819672e+00 4.05851186009844e-02 4.33275252906606e-04
5.07172131147541e+00 4.03560888653473e-02 4.31703211839924e-04
5.09221311475410e+00 4.01283515892988e-02 4.30133363734489e-04
5.11270491803279e+00 3.99018994787958e-02 4.28565754088007e-04
5.13319672131148e+00 3.96767252818399e-02 4.27000427535055e-04
5.15368852459016e+00 3.94528217869123e-02 4.25437428477608e-04
5.17418032786885e+00 3.92301818227644e-02 4.23876799862541e-04
5.19467213114754e+00 3.90087982594747e-02 4.22318583811429e-04
5.21516393442623e+00 3.87886640069246e-02 4.20762822236664e-04
5.23565573770492e+00 3.85697720145931e-02 4.19209555646161e-04
5.25614754098361e+00 3.83521152725801e-02 4.17658823758556e-04
5.27663934426229e+00 3.81356868101241e-02 4.16110666105303e-04
5.29713114754098e+00 3.79204796953987e-02 4.14565120861955e-04
5.31762295081967e+00 3.77064870365054e-02 4.13022225449158e-04
5.33811475409836e+00 3.74937019800302e-02 4.11482017121028e-04
5.35860655737705e+00 3.72821177108430e-02 4.09944531822360e-04
5.37909836065574e+00 3.70717274530607e-02 4.08409804775846e-04
5.39959016393443e+00 3.68625244686412e-02 4.06877871057146e-04
5.42008196721311e+00 3.66545020571863e-02 4.05348764477357e-04
5.44057377049180e+00 3.64476535568752e-02 4.03822518156721e-04
5.46106557377049e+00 3.62419723430957e-02 4.02299165086698e-04
5.48155737704918e+00 3.60374518282498e-02 4.00778737037186e-04
5.50204918032787e+00 3.58340854626590e-02 3.99261265117157e-04
5.52254098360656e+00 3.56318667332315e-02 3.97746780324001e-04
5.54303278688525e+00 3.54307891632703e-02 3.96235312474770e-04
5.56352459016393e+00 3.52308463133518e-02 3.94726890754083e-04
5.58401639344262e+00 3.50320317800271e-02 3.93221544251289e-04
5.60450819672131e+00 3.48343391956333e-02 3.91719300915084e-04
5.62500000000000e+00 3.46377622291455e-02 3.90220188088932e-04
5.64549180327869e+00 3.44422945849121e-02 3.88724232868645e-04
5.66598360655738e+00 3.42479300028088e-02 3.87231461751320e-04
5.68647540983607e+00 3.40546622577024e-02 3.85741900319665e-04
5.70696721311475e+00 3.38624851602660e-02 3.84255573585764e-04
5.72745901639344e+00 3.36713925557598e-02 3.82772506499115e-04
5.74795081967213e+00 3.34813783238494e-02 3.81292722956606e-04
5.76844262295082e+00 3.32924363793968e-02 3.79816246309149e-04
5.78893442622951e+00 3.31045606712726e-02 3.78343099858309e-04
5.80942622950820e+00 3.29177451821770e-02 3.76873305887778e-04
5.82991803278688e+00 3.27319839294070e-02 3.75406886158770e-04
5.85040983606557e+00 3.25472709636995e-02 3.73943862395597e-04
5.87090163934426e+00 3.23636003690544e-02 3.72484255338249e-04
5.89139344262295e+00 3.21809662634799e-02 3.71028085226703e-04
5.91188524590164e+00 3.19993627978638e-02 3.69575372275743e-04
5.93237704918033e+00 3.18187841558007e-02 3.68126135748031e-04
5.95286885245902e+00 3.16392245543143e-02 3.66680394427781e-04
5.97336065573770e+00 3.14606782427578e-02 3.65238167085020e-04
5.99385245901639e+00 3.12831395026435e-02 3.63799471568696e-04
6.01434426229508e+00 3.11066026483441e-02 3.62364325269976e-04
6.03483606557377e+00 3.09310620260205e-02 3.60932745576155e-04
6.05532786885246e+00 3.07565120134541e-02 3.59504748983341e-04
6.07581967213115e+00 3.05829470207279e-02 3.58080351549580e-04
6.09631147540984e+00 3.04103614891808e-02 3.56659569338775e-04
6.11680327868852e+00 3.02387498912430e-02 3.55242417552550e-04
6.13729508196721e+00 3.00681067310963e-02 3.53828910973356e-04
6.15778688524590e+00 2.98984265436555e-02 3.52419064398602e-04
6.17827868852459e+00 2.97297038944058e-02 3.51012891791179e-04
6.19877049180328e+00 2.95619333800443e-02 3.49610406712959e-04
6.21926229508197e+00 2.93951096274863e-02 3.48211622749361e-04
6.23975409836066e+00 2.92292272937053e-02 3.46816552678054e-04
6.26024590163934e+00 2.90642810663564e-02 3.45425208893064e-04
6.28073770491803e+00 2.89002656628066e-02 3.44037603819990e-04
6.30122950819672e+00 2.87371758299777e-02 3.42653749102613e-04
6.32172131147541e+00 2.85750063449513e-02 3.41273656017632e-04
6.34221311475410e+00 2.84137520140236e-02 3.39897335880901e-04
6.36270491803279e+00 2.82534076725504e-02 3.38524799251396e-04
6.38319672131148e+00 2.80939681855346e-02 3.37156056336902e-04
6.40368852459016e+00 2.79354284467045e-02 3.35791117391486e-04
6.42418032786885e+00 2.77777833783609e-02 3.34429991936437e-04
6.44467213114754e+00 2.76210279319482e-02 3.33072689157104e-04
6.46516393442623e+00 2.74651570871547e-02 3.31719218291777e-04
