Energy (eV)          EEDF (eV^-(3/2))     First Anisotropy
3.37500000000000e-02 1.10599686268828e-01 8.43446056814914e-05
1.01250000000000e-01 1.09016308444944e-01 1.38746390665475e-04
1.68750000000000e-01 1.07455598726377e-01 1.81760861078802e-04
2.36250000000000e-01 1.05917232589804e-01 2.13599686298899e-04
3.03750000000000e-01 1.04400890157892e-01 2.39467835529777e-04
3.71250000000000e-01 1.02906256132768e-01 2.61355728439800e-04
4.38750000000000e-01 1.01433019730459e-01 2.80304567827390e-04
5.06250000000000e-01 9.99808746162678e-02 2.96949710087130e-04
5.73750000000000e-01 9.85495188410737e-02 3.11716862144206e-04
6.41250000000000e-01 9.71386547785504e-02 3.24909931627805e-04
7.08750000000000e-01 9.57479890632778e-02 3.36756101421391e-04
7.76250000000000e-01 9.43772325297420e-02 3.47431260820308e-04
8.43750000000000e-01 9.30261001522081e-02 3.57075401293369e-04
9.11250000000000e-01 9.16943109854539e-02 3.65802459736532e-04
9.78750000000000e-01 9.03815881063522e-02 3.73706892491316e-04
1.04625000000000e+00 8.90876585562891e-02 3.80868225842501e-04
1.11375000000000e+00 8.78122532844072e-02 3.87354301448260e-04
1.18125000000000e+00 8.65551070916604e-02 3.93223650523111e-04
1.24875000000000e+00 8.53159585756709e-02 3.98527269040947e-04
1.31625000000000e+00 8.40945500763746e-02 4.03309970566448e-04
1.38375000000000e+00 8.28906276224449e-02 4.07611434589855e-04
1.45125000000000e+00 8.17039408784841e-02 4.11467031027137e-04
1.51875000000000e+00 8.05342430929701e-02 4.14908477310966e-04
1.58625000000000e+00 7.93812910469482e-02 4.17964368324010e-04
1.65375000000000e+00 7.82448450034586e-02 4.20660608395929e-04
1.72125000000000e+00 7.71246686576865e-02 4.23020766915324e-04
1.78875000000000e+00 7.60205290878269e-02 4.25066373680225e-04
1.85625000000000e+00 7.49321967066523e-02 4.26817166208012e-04
1.92375000000000e+00 7.38594452137735e-02 4.28291298378240e-04
1.99125000000000e+00 7.28020515485850e-02 4.29505517677419e-04
2.05875000000000e+00 7.17597958438828e-02 4.30475316739444e-04
2.12625000000000e+00 7.07324613801466e-02 4.31215063683195e-04
2.19375000000000e+00 6.97198345404773e-02 4.31738114837409e-04
2.26125000000000e+00 6.87217047661781e-02 4.32056912738821e-04
2.32875000000000e+00 6.77378645129730e-02 4.32183071741144e-04
2.39625000000000e+00 6.67681092078512e-02 4.32127453141579e-04
2.46375000000000e+00 6.58122372065296e-02 4.31900231390230e-04
2.53125000000000e+00 6.48700497515244e-02 4.31510952675632e-04
2.59875000000000e+00 6.39413509308226e-02 4.30968586960846e-04
2.66625000000000e+00 6.30259476371457e-02 4.30281574367766e-04
2.73375000000000e+00 6.21236495277958e-02 4.29457866663550e-04
2.80125000000000e+00 6.12342689850778e-02 4.28504964485289e-04
2.86875000000000e+00 6.03576210772867e-02 4.27429950842249e-04
2.93625000000000e+00 5.94935235202546e-02 4.26239521354889e-04
3.00375000000000e+00 5.86417966394477e-02 4.24940011623416e-04
3.07125000000000e+00 5.78022633326059e-02 4.23537422062916e-04
3.13875000000000e+00 5.69747490329175e-02 4.22037440495591e-04
3.20625000000000e+00 5.61590816727209e-02 4.20445462751322e-04
3.27375000000000e+00 5.53550916477261e-02 4.18766611494592e-04
3.34125000000000e+00 5.45626117817480e-02 4.17005753467587e-04
3.40875000000000e+00 5.37814772919455e-02 4.15167515315290e-04
3.47625000000000e+00 5.30115257545575e-02 4.13256298137802e-04
3.54375000000000e+00 5.22525970711291e-02 4.11276290897477e-04
3.61125000000000e+00 5.15045334352226e-02 4.09231482793354e-04
3.67875000000000e+00 5.07671792996037e-02 4.07125674702198e-04
3.74625000000000e+00 5.00403813438986e-02 4.04962489774146e-04
3.81375000000000e+00 4.93239884427131e-02 4.02745383260933e-04
3.88125000000000e+00 4.86178516342088e-02 4.00477651646323e-04
3.94875000000000e+00 4.79218240891292e-02 3.98162441140774e-04
4.01625000000000e+00 4.72357610802688e-02 3.95802755595634e-04
4.08375000000000e+00 4.65595199523796e-02 3.93401463886598e-04
4.15125000000000e+00 4.58929600925083e-02 3.90961306810981e-04
4.21875000000000e+00 4.52359429007584e-02 3.88484903538924e-04
4.28625000000000e+00 4.45883317614701e-02 3.85974757654652e-04
4.35375000000000e+00 4.39499920148143e-02 3.83433262820364e-04
4.42125000000000e+00 4.33207909287915e-02 3.80862708092325e-04
4.48875000000000e+00 4.27005976716329e-02 3.78265282915913e-04
4.55625000000000e+00 4.20892832845960e-02 3.75643081823796e-04
4.62375000000000e+00 4.14867206551498e-02 3.72998108859397e-04
4.69125000000000e+00 4.08927844905438e-02 3.70332281745662e-04
4.75875000000000e+00 4.03073512917557e-02 3.67647435817522e-04
4.82625000000000e+00 3.97302993278116e-02 3.64945327734739e-04
4.89375000000000e+00 3.91615086104745e-02 3.62227638990426e-04
4.96125000000000e+00 3.86008608692941e-02 3.59495979229296e-04
5.02875000000000e+00 3.80482395270152e-02 3.56751889388468e-04
5.09625000000000e+00 3.75035296753369e-02 3.53996844672678e-04
5.16375000000000e+00 3.69666180510195e-02 3.51232257374662e-04
5.23125000000000e+00 3.64373930123335e-02 3.48459479550835e-04
5.29875000000000e+00 3.59157445158453e-02 3.45679805561382e-04
5.36625000000000e+00 3.54015640935356e-02 3.42894474483310e-04
5.43375000000000e+00 3.48947448302454e-02 3.40104672404312e-04
5.50125000000000e+00 3.43951813414449e-02 3.37311534604705e-04
5.56875000000000e+00 3.39027697513200e-02 3.34516147634227e-04
5.63625000000000e+00 3.34174076711740e-02 3.31719551289848e-04
5.70375000000000e+00 3.29389941781367e-02 3.28922740500509e-04
5.77125000000000e+00 3.24674297941797e-02 3.26126667124026e-04
5.83875000000000e+00 3.20026164654314e-02 3.23332241661292e-04
5.90625000000000e+00 3.15444575417886e-02 3.20540334892382e-04
5.97375000000000e+00 3.10928577568193e-02 3.17751779438913e-04
6.04125000000000e+00 3.06477232079541e-02 3.14967371256691e-04
6.10875000000000e+00 3.02089613369606e-02 3.12187871062472e-04
6.17625000000000e+00 2.97764809106973e-02 3.09414005698310e-04
6.24375000000000e+00 2.93501920021434e-02 3.06646469436854e-04
6.31125000000000e+00 2.89300059717000e-02 3.03885925230641e-04
6.37875000000000e+00 2.85158354487588e-02 3.01133005908282e-04
6.44625000000000e+00 2.81075943135350e-02 2.98388315320292e-04
6.51375000000000e+00 2.77051976791601e-02 2.95652429437082e-04
6.58125000000000e+00 2.73085618740313e-02 2.92925897401506e-04
6.64875000000000e+00 2.69176044244129e-02 2.90209242538221e-04
6.71625000000000e+00 2.65322440372879e-02 2.87502963321953e-04
6.78375000000000e+00 2.61524005834539e-02 2.84807534306675e-04
6.85125000000000e+00 2.57779950808621e-02 2.82123407017572e-04
6.91875000000000e+00 2.54089496781940e-02 2.79451010807527e-04
6.98625000000000e+00 2.50451876386736e-02 2.76790753679830e-04
7.05375000000000e+00 2.46866333241112e-02 2.74143023078652e-04
7.12125000000000e+00 2.43332121791758e-02 2.71508186648759e-04
7.18875000000000e+00 2.39848507158928e-02 2.68886592965900e-04
7.25625000000000e+00 2.36414764983628e-02 2.66278572239182e-04
7.32375000000000e+00 2.33030181277006e-02 2.63684436986647e-04
7.39125000000000e+00 2.29694052271883e-02 2.61104482685268e-04
7.45875000000000e+00 2.26405684276419e-02 2.58538988396488e-04
7.52625000000000e+00 2.23164393529872e-02 2.55988217368359e-04
7.59375000000000e+00 2.19969506060421e-02 2.53452417615283e-04
7.66125000000000e+00 2.16820357545025e-02 2.50931822476300e-04
7.72875000000000e+00 2.13716293171289e-02 2.48426651152874e-04
7.79625000000000e+00 2.10656667501305e-02 2.45937109226971e-04
7.86375000000000e+00 2.07640844337445e-02 2.43463389160328e-04
7.93125000000000e+00 2.04668196590075e-02 2.41005670775628e-04
7.99875000000000e+00 2.01738106147160e-02 2.38564121720317e-04
8.06625000000000e+00 1.98849963745742e-02 2.36138897913846e-04
8.13375000000000e+00 1.96003168845251e-02 2.33730143978919e-04
8.20125000000000e+00 1.93197129502633e-02 2.31337993657422e-04
8.26875000000000e+00 1.90431262249266e-02 2.28962570211631e-04
8.33625000000000e+00 1.87704991969637e-02 2.26603986811321e-04
8.40375000000000e+00 1.85017751781758e-02 2.24262346907270e-04
8.47125000000000e+00 1.82368982919290e-02 2.21937744591705e-04
8.53875000000000e+00 1.79758134615359e-02 2.19630264946227e-04
8.60625000000000e+00 1.77184663988031e-02 2.17339984377629e-04
8.67375000000000e+00 1.74648035927433e-02 2.15066970942135e-04
8.74125000000000e+00 1.72147722984481e-02 2.12811284658467e-04
8.80875000000000e+00 1.69683205261210e-02 2.10572977810150e-04
8.87625000000000e+00 1.67253970302664e-02 2.08352095237464e-04
8.94375000000000e+00 1.64859512990350e-02 2.06148674619442e-04
9.01125000000000e+00 1.62499335437195e-02 2.03962746746264e-04
9.07875000000000e+00 1.60172946884028e-02 2.01794335782406e-04
9.14625000000000e+00 1.57879863597530e-02 1.99643459520874e-04
9.21375000000000e+00 1.55619608769653e-02 1.97510129628854e-04
9.28125000000000e+00 1.53391712418471e-02 1.95394351885080e-04
9.34875000000000e+00 1.51195711290460e-02 1.93296126409214e-04
9.41625000000000e+00 1.49031148764172e-02 1.91215447883563e-04
9.48375000000000e+00 1.46897574755285e-02 1.89152305767315e-04
9.55125000000000e+00 1.44794545623017e-02 1.87106684503641e-04
9.61875000000000e+00 1.42721624077879e-02 1.85078563719902e-04
9.68625000000000e+00 1.40678379090748e-02 1.83067918421140e-04
9.75375000000000e+00 1.38664385803241e-02 1.81074719177165e-04
9.82125000000000e+00 1.36679225439375e-02 1.79098932303415e-04
9.88875000000000e+00 1.34722485218485e-02 1.77140520035805e-04
9.95625000000000e+00 1.32793758269397e-02 1.75199440699778e-04
1.00237500000000e+01 1.30892643545828e-02 1.73275648873760e-04
1.00912500000000e+01 1.29018745742988e-02 1.71369095547202e-04
1.01587500000000e+01 1.27171675215389e-02 1.69479728273390e-04
1.02262500000000e+01 1.25351047895824e-02 1.67607491317210e-04
1.02937500000000e+01 1.23556485215505e-02 1.65752325798027e-04
1.03612500000000e+01 1.21787614025345e-02 1.63914169827825e-04
1.04287500000000e+01 1.20044066518374e-02 1.62092958644815e-04
1.04962500000000e+01 1.18325480153251e-02 1.60288624742613e-04
1.05637500000000e+01 1.16631497578886e-02 1.58501097995147e-04
1.06312500000000e+01 1.14961766560133e-02 1.56730305777446e-04
1.06987500000000e+01 1.13315939904549e-02 1.54976173082433e-04
1.07662500000000e+01 1.11693675390198e-02 1.53238622633864e-04
1.08337500000000e+01 1.10094635694499e-02 1.51517574995511e-04
1.09012500000000e+01 1.08518488324076e-02 1.49812948676755e-04
1.09687500000000e+01 1.06964905545630e-02 1.48124660234665e-04
1.10362500000000e+01 1.05433564317788e-02 1.46452624372700e-04
1.11037500000000e+01 1.03924146223932e-02 1.44796754036129e-04
1.11712500000000e+01 1.02436337405991e-02 1.43156960504284e-04
1.12387500000000e+01 1.00969828499180e-02 1.41533153479740e-04
1.13062500000000e+01 9.95243145676688e-03 1.39925241174519e-04
1.13737500000000e+01 9.80994950411822e-03 1.38333130393430e-04
1.14412500000000e+01 9.66950736524963e-03 1.36756726614615e-04
1.15087500000000e+01 9.53107583758363e-03 1.35195934067377e-04
1.15762500000000e+01 9.39462613661553e-03 1.33650655807429e-04
1.16437500000000e+01 9.26012988992810e-03 1.32120793789590e-04
1.17112500000000e+01 9.12755913129202e-03 1.30606248938037e-04
1.17787500000000e+01 8.99688629485080e-03 1.29106921214187e-04
1.18462500000000e+01 8.86808420938890e-03 1.27622709682258e-04
1.19137500000000e+01 8.74112609268192e-03 1.26153512572623e-04
1.19812500000000e+01 8.61598554592773e-03 1.24699227343004e-04
1.20487500000000e+01 8.49263654825725e-03 1.23259750737554e-04
1.21162500000000e+01 8.37105345132385e-03 1.21834978843941e-04
1.21837500000000e+01 8.25121097397024e-03 1.20424807148440e-04
1.22512500000000e+01 8.13308419697165e-03 1.19029130589148e-04
1.23187500000000e+01 8.01664855785428e-03 1.17647843607336e-04
1.23862500000000e+01 7.90187984578800e-03 1.16280840197018e-04
1.24537500000000e+01 7.78875419655206e-03 1.14928013952790e-04
1.25212500000000e+01 7.67724808757298e-03 1.13589258115994e-04
1.25887500000000e+01 7.56733833303337e-03 1.12264465619247e-04
1.26562500000000e+01 7.45900207905089e-03 1.10953529129397e-04
1.27237500000000e+01 7.35221679892611e-03 1.09656341088954e-04
1.27912500000000e+01 7.24696028845852e-03 1.08372793756029e-04
1.28587500000000e+01 7.14321066132949e-03 1.07102779242855e-04
1.29262500000000e+01 7.04094634455142e-03 1.05846189552892e-04
1.29937500000000e+01 6.94014607398197e-03 1.04602916616601e-04
1.30612500000000e+01 6.84078888990255e-03 1.03372852325902e-04
1.31287500000000e+01 6.74285413266011e-03 1.02155888567375e-04
1.31962500000000e+01 6.64632143837130e-03 1.00951917254206e-04
1.32637500000000e+01 6.55117073468816e-03 9.97608303569761e-05
1.33312500000000e+01 6.45738223662436e-03 9.85825199332646e-05
1.33987500000000e+01 6.36493644244134e-03 9.74168781561475e-05
1.34662500000000e+01 6.27381412959316e-03 9.62637973416072e-05
1.35337500000000e+01 6.18399635072955e-03 9.51231699748991e-05
1.36012500000000e+01 6.09546442975611e-03 9.39948887358852e-05
1.36687500000000e+01 6.00819995795093e-03 9.28788465233793e-05
1.37362500000000e+01 5.92218479013681e-03 9.17749364785416e-05
1.38037500000000e+01 5.83740104090827e-03 9.06830520073395e-05
1.38712500000000e+01 5.75383108091259e-03 8.96030868021049e-05
1.39387500000000e+01 5.67145753318406e-03 8.85349348622247e-05
1.40062500000000e+01 5.59026326953078e-03 8.74784905139841e-05
1.40737500000000e+01 5.51023140697310e-03 8.64336484295847e-05
1.41412500000000e+01 5.43134530423309e-03 8.54003036453682e-05
1.42087500000000e+01 5.35358855827430e-03 8.43783515792754e-05
1.42762500000000e+01 5.27694500089097e-03 8.33676880475556e-05
1.43437500000000e+01 5.20139869534618e-03 8.23682092807439e-05
1.44112500000000e+01 5.12693393305805e-03 8.13798119389480e-05
1.44787500000000e+01 5.05353523033340e-03 8.04023931264538e-05
1.45462500000000e+01 4.98118732514817e-03 7.94358504056654e-05
1.46137500000000e+01 4.90987517397397e-03 7.84800818104151e-05
1.46812500000000e+01 4.83958394865000e-03 7.75349858586503e-05
1.47487500000000e+01 4.77029903329981e-03 7.66004615645161e-05
1.48162500000000e+01 4.70200602129213e-03 7.56764084498661e-05
1.48837500000000e+01 4.63469071224533e-03 7.47627265552150e-05
1.49512500000000e+01 4.56833910907461e-03 7.38593164501283e-05
1.50187500000000e+01 4.50293741508157e-03 7.29660792430972e-05
1.50862500000000e+01 4.43847203108546e-03 7.20829165909065e-05
1.51537500000000e+01 4.37492955259539e-03 7.12097307074918e-05
1.52212500000000e+01 4.31229676702316e-03 7.03464243723358e-05
1.52887500000000e+01 4.25056065093585e-03 6.94929009383859e-05
1.53562500000000e+01 4.18970836734790e-03 6.86490643395280e-05
1.54237500000000e+01 4.12972726305180e-03 6.78148190976257e-05
1.54912500000000e+01 4.07060486598713e-03 6.69900703291380e-05
1.55587500000000e+01 4.01232888264714e-03 6.61747237513305e-05
1.56262500000000e+01 3.95488719552259e-03 6.53686856880830e-05
1.56937500000000e+01 3.89826786058208e-03 6.45718630753286e-05
1.57612500000000e+01 3.84245910478848e-03 6.37841634661157e-05
1.58287500000000e+01 3.78744932365098e-03 6.30054950353137e-05
1.58962500000000e+01 3.73322707881204e-03 6.22357665839724e-05
1.59637500000000e+01 3.67978109566907e-03 6.14748875433459e-05
1.60312500000000e+01 3.62710026103001e-03 6.07227679785941e-05
1.60987500000000e+01 3.57517362080255e-03 5.99793185921738e-05
1.61662500000000e+01 3.52399037771641e-03 5.92444507269267e-05
1.62337500000000e+01 3.47353988907821e-03 5.85180763688679e-05
1.63012500000000e+01 3.42381166455854e-03 5.78001081497001e-05
1.63687500000000e+01 3.37479536401062e-03 5.70904593490482e-05
1.64362500000000e+01 3.32648079532028e-03 5.63890438964347e-05
1.65037500000000e+01 3.27885791228669e-03 5.56957763730015e-05
1.65712500000000e+01 3.23191681253339e-03 5.50105720129780e-05
1.66387500000000e+01 3.18564773544925e-03 5.43333467049183e-05
1.67062500000000e+01 3.14004106015898e-03 5.36640169927038e-05
1.67737500000000e+01 3.09508730352254e-03 5.30025000763288e-05
1.68412500000000e+01 3.05077711816336e-03 5.23487138124678e-05
1.69087500000000e+01 3.00710129052467e-03 5.17025767148381e-05
1.69762500000000e+01 2.96405073895369e-03 5.10640079543631e-05
1.70437500000000e+01 2.92161651181329e-03 5.04329273591435e-05
1.71112500000000e+01 2.87978978562060e-03 4.98092554142472e-05
1.71787500000000e+01 2.83856186321237e-03 4.91929132613127e-05
1.72462500000000e+01 2.79792417193649e-03 4.85838226979847e-05
1.73137500000000e+01 2.75786826186949e-03 4.79819061771859e-05
1.73812500000000e+01 2.71838580405947e-03 4.73870868062272e-05
1.74487500000000e+01 2.67946858879432e-03 4.67992883457618e-05
1.75162500000000e+01 2.64110852389455e-03 4.62184352085952e-05
1.75837500000000e+01 2.60329763303073e-03 4.56444524583529e-05
1.76512500000000e+01 2.56602805406492e-03 4.50772658080103e-05
1.77187500000000e+01 2.52929203741587e-03 4.45168016182861e-05
1.77862500000000e+01 2.49308194444762e-03 4.39629868959145e-05
1.78537500000000e+01 2.45739024588119e-03 4.34157492918002e-05
1.79212500000000e+01 2.42220952022899e-03 4.28750170990471e-05
1.79887500000000e+01 2.38753245225163e-03 4.23407192508796e-05
1.80562500000000e+01 2.35335183143685e-03 4.18127853184576e-05
1.81237500000000e+01 2.31966055050023e-03 4.12911455085856e-05
1.81912500000000e+01 2.28645160390733e-03 4.07757306613249e-05
1.82587500000000e+01 2.25371808641701e-03 4.02664722475129e-05
1.83262500000000e+01 2.22145319164560e-03 3.97633023661899e-05
1.83937500000000e+01 2.18965021065164e-03 3.92661537419349e-05
1.84612500000000e+01 2.15830253054087e-03 3.87749597221255e-05
1.85287500000000e+01 2.12740363309115e-03 3.82896542741173e-05
1.85962500000000e+01 2.09694709339717e-03 3.78101719823451e-05
1.86637500000000e+01 2.06692657853445e-03 3.73364480453538e-05
1.87312500000000e+01 2.03733584624252e-03 3.68684182727589e-05
1.87987500000000e+01 2.00816874362698e-03 3.64060190821447e-05
1.88662500000000e+01 1.97941920588006e-03 3.59491874958967e-05
1.89337500000000e+01 1.95108125501960e-03 3.54978611379774e-05
1.90012500000000e+01 1.92314899864597e-03 3.50519782306434e-05
1.90687500000000e+01 1.89561662871691e-03 3.46114775911114e-05
1.91362500000000e+01 1.86847842033978e-03 3.41762986281730e-05
1.92037500000000e+01 1.84172873058122e-03 3.37463813387609e-05
1.92712500000000e+01 1.81536199729376e-03 3.33216663044696e-05
1.93387500000000e+01 1.78937273795929e-03 3.29020946880370e-05
1.94062500000000e+01 1.76375554854902e-03 3.24876082297798e-05
1.94737500000000e+01 1.73850510239988e-03 3.20781492439945e-05
1.95412500000000e+01 1.71361614910685e-03 3.16736606153258e-05
1.96087500000000e+01 1.68908351343128e-03 3.12740857950959e-05
1.96762500000000e+01 1.66490209422476e-03 3.08793687976058e-05
1.97437500000000e+01 1.64106686336842e-03 3.04894541964073e-05
1.98112500000000e+01 1.61757286472744e-03 3.01042871205501e-05
1.98787500000000e+01 1.59441521312049e-03 2.97238132508011e-05
1.99462500000000e+01 1.57158909330395e-03 2.93479788158406e-05
2.00137500000000e+01 1.54908975897063e-03 2.89767305884394e-05
2.00812500000000e+01 1.52691253176289e-03 2.86100158816162e-05
2.01487500000000e+01 1.50505280029985e-03 2.82477825447754e-05
2.02162500000000e+01 1.48350601921851e-03 2.78899789598317e-05
2.02837500000000e+01 1.46226770822863e-03 2.75365540373183e-05
2.03512500000000e+01 1.44133345118114e-03 2.71874572124826e-05
2.04187500000000e+01 1.42069889514986e-03 2.68426384413726e-05
2.04862500000000e+01 1.40035974952639e-03 2.65020481969121e-05
2.05537500000000e+01 1.38031178512796e-03 2.61656374649667e-05
2.06212500000000e+01 1.36055083331801e-03 2.58333577404051e-05
2.06887500000000e+01 1.34107278513944e-03 2.55051610231524e-05
2.07562500000000e+01 1.32187359046016e-03 2.51809998142402e-05
2.08237500000000e+01 1.30294925713100e-03 2.48608271118553e-05
2.08912500000000e+01 1.28429585015558e-03 2.45445964073828e-05
2.09587500000000e+01 1.26590949087206e-03 2.42322616814515e-05
2.10262500000000e+01 1.24778635614669e-03 2.39237773999795e-05
2.10937500000000e+01 1.22992267757886e-03 2.36190985102192e-05
2.11612500000000e+01 1.21231474071744e-03 2.33181804368071e-05
2.12287500000000e+01 1.19495888428854e-03 2.30209790778163e-05
2.12962500000000e+01 1.17785149943410e-03 2.27274508008117e-05
