Energy (eV)          EEDF (eV^-(3/2))     First Anisotropy
1.17460317460317e-04 1.26412926086198e+02 3.77337292174527e-02
3.52380952380952e-04 1.25723401723924e+02 6.23487826203908e-02
5.87301587301587e-04 1.25037638399612e+02 8.24126194196960e-02
8.22222222222222e-04 1.24355615598750e+02 9.77194513020486e-02
1.05714285714286e-03 1.23677312918525e+02 1.10538778368278e-01
1.29206349206349e-03 1.23002710068417e+02 1.21726898849904e-01
1.52698412698413e-03 1.22331786865517e+02 1.31726081237814e-01
1.76190476190476e-03 1.21664523240812e+02 1.40802888814159e-01
1.99682539682540e-03 1.21000899231493e+02 1.49133777310621e-01
2.23174603174603e-03 1.20340894986467e+02 1.56843227828978e-01
2.46666666666667e-03 1.19684490760411e+02 1.64023215069203e-01
2.70158730158730e-03 1.19031666917947e+02 1.70744137942843e-01
2.93650793650794e-03 1.18382403928766e+02 1.77061404709223e-01
3.17142857142857e-03 1.17736682370940e+02 1.83019623006598e-01
3.40634920634921e-03 1.17094482926777e+02 1.88655384633598e-01
3.64126984126984e-03 1.16455786385525e+02 1.93999183921190e-01
3.87619047619048e-03 1.15820573639758e+02 1.99076779159181e-01
4.11111111111111e-03 1.15188825687632e+02 2.03910183727676e-01
4.34603174603175e-03 1.14560523629676e+02 2.08518403424298e-01
4.58095238095238e-03 1.13935648670706e+02 2.12917995608227e-01
4.81587301587302e-03 1.13314182116923e+02 2.17123500231427e-01
5.05079365079365e-03 1.12696105377566e+02 2.21147777154192e-01
5.28571428571429e-03 1.12081399962265e+02 2.25002273521945e-01
5.52063492063492e-03 1.11470047482466e+02 2.28697238313435e-01
5.75555555555556e-03 1.10862029649003e+02 2.32241896262471e-01
5.99047619047619e-03 1.10257328273341e+02 2.35644590295808e-01
6.22539682539683e-03 1.09655925265320e+02 2.38912899149547e-01
6.46031746031746e-03 1.09057802634252e+02 2.42053735345694e-01
6.69523809523810e-03 1.08462942486818e+02 2.45073427354621e-01
6.93015873015873e-03 1.07871327028028e+02 2.47977789029359e-01
7.16507936507937e-03 1.07282938559254e+02 2.50772178601673e-01
7.40000000000000e-03 1.06697759479081e+02 2.53461549157778e-01
7.63492063492064e-03 1.06115772281453e+02 2.56050492012471e-01
7.86984126984127e-03 1.05536959556425e+02 2.58543274218647e-01
8.10476190476190e-03 1.04961303988413e+02 2.60943871116868e-01
8.33968253968254e-03 1.04388788356866e+02 2.63255994749589e-01
8.57460317460317e-03 1.03819395534596e+02 2.65483118730777e-01
8.80952380952381e-03 1.03253108488384e+02 2.67628500137043e-01
9.04444444444445e-03 1.02689910277391e+02 2.69695198813838e-01
9.27936507936508e-03 1.02129784053692e+02 2.71686094495853e-01
9.51428571428571e-03 1.01572713060768e+02 2.73603902008026e-01
9.74920634920635e-03 1.01018680633975e+02 2.75451184835592e-01
9.98412698412698e-03 1.00467670199104e+02 2.77230367245597e-01
1.02190476190476e-02 9.99196652728020e+01 2.78943745227063e-01
1.04539682539683e-02 9.93746494620115e+01 2.80593496015170e-01
1.06888888888889e-02 9.88326064604214e+01 2.82181687349411e-01
1.09238095238095e-02 9.82935200547832e+01 2.83710285271731e-01
1.11587301587302e-02 9.77573741181703e+01 2.85181160885755e-01
1.13936507936508e-02 9.72241526097800e+01 2.86596097719055e-01
1.16285714285714e-02 9.66938395800932e+01 2.87956797315126e-01
1.18634920634921e-02 9.61664191646504e+01 2.89264884278795e-01
1.20984126984127e-02 9.56418755838187e+01 2.90521912013673e-01
1.23333333333333e-02 9.51201931475344e+01 2.91729366796739e-01
1.25682539682540e-02 9.46013562478779e+01 2.92888672046711e-01
1.28031746031746e-02 9.40853493654385e+01 2.94001192317771e-01
1.30380952380952e-02 9.35721570637373e+01 2.95068236333310e-01
1.32730158730159e-02 9.30617639889612e+01 2.96091060956364e-01
1.35079365079365e-02 9.25541548741786e+01 2.97070873855178e-01
1.37428571428571e-02 9.20493145341335e+01 2.98008835929237e-01
1.39777777777778e-02 9.15472278649727e+01 2.98906064565558e-01
1.42126984126984e-02 9.10478798481451e+01 2.99763635698407e-01
1.44476190476190e-02 9.05512555455295e+01 3.00582585689096e-01
1.46825396825397e-02 9.00573400991543e+01 3.01363914039454e-01
1.49174603174603e-02 8.95661187348165e+01 3.02108584995718e-01
1.51523809523810e-02 8.90775767575072e+01 3.02817529015828e-01
1.53873015873016e-02 8.85916995511266e+01 3.03491645063458e-01
1.56222222222222e-02 8.81084725818495e+01 3.04131801864703e-01
1.58571428571429e-02 8.76278813938255e+01 3.04738839059401e-01
1.60920634920635e-02 8.71499116088819e+01 3.05313569166289e-01
1.63269841269841e-02 8.66745489296663e+01 3.05856778572391e-01
1.65619047619048e-02 8.62017791355938e+01 3.06369228439332e-01
1.67968253968254e-02 8.57315880825409e+01 3.06851656407204e-01
1.70317460317460e-02 8.52639617057857e+01 3.07304777375685e-01
1.72666666666667e-02 8.47988860161792e+01 3.07729284218677e-01
1.75015873015873e-02 8.43363470998334e+01 3.08125849277895e-01
1.77365079365079e-02 8.38763311208756e+01 3.08495124891610e-01
1.79714285714286e-02 8.34188243168097e+01 3.08837744308854e-01
1.82063492063492e-02 8.29638130022701e+01 3.09154322580563e-01
1.84412698412698e-02 8.25112835654918e+01 3.09445456946876e-01
1.86761904761905e-02 8.20612224679975e+01 3.09711728067773e-01
1.89111111111111e-02 8.16136162471049e+01 3.09953700434439e-01
1.91460317460317e-02 8.11684515125743e+01 3.10171922744802e-01
1.93809523809524e-02 8.07257149462980e+01 3.10366929009060e-01
1.96158730158730e-02 8.02853933046560e+01 3.10539238870590e-01
1.98507936507937e-02 7.98474734153290e+01 3.10689357898768e-01
2.00857142857143e-02 7.94119421769890e+01 3.10817778589756e-01
2.03206349206349e-02 7.89787865615162e+01 3.10924980614432e-01
2.05555555555556e-02 7.85479936109657e+01 3.11011431044009e-01
2.07904761904762e-02 7.81195504372580e+01 3.11077585262208e-01
2.10253968253968e-02 7.76934442242689e+01 3.11123887154178e-01
2.12603174603175e-02 7.72696622249395e+01 3.11150769277210e-01
2.14952380952381e-02 7.68481917609654e+01 3.11158653697321e-01
2.17301587301587e-02 7.64290202247704e+01 3.11147952130053e-01
2.19650793650794e-02 7.60121350767495e+01 3.11119066066205e-01
2.22000000000000e-02 7.55975238449570e+01 3.11072387543465e-01
2.24349206349206e-02 7.51851741269733e+01 3.11008299176902e-01
2.26698412698413e-02 7.47750735865488e+01 3.10927174529359e-01
2.29047619047619e-02 7.43672099561839e+01 3.10829378478455e-01
2.31396825396825e-02 7.39615710345526e+01 3.10715267211039e-01
2.33746031746032e-02 7.35581446861954e+01 3.10585188908328e-01
2.36095238095238e-02 7.31569188432376e+01 3.10439483794182e-01
2.38444444444444e-02 7.27578815029245e+01 3.10278484175316e-01
2.40793650793651e-02 7.23610207273165e+01 3.10102515081096e-01
2.43142857142857e-02 7.19663246449172e+01 3.09911894287877e-01
2.45492063492063e-02 7.15737814483110e+01 3.09706932337596e-01
2.47841269841270e-02 7.11833793938625e+01 3.09487933137570e-01
2.50190476190476e-02 7.07951068032588e+01 3.09255193965017e-01
2.52539682539683e-02 7.04089520612449e+01 3.09009005467691e-01
2.54888888888889e-02 7.00249036153255e+01 3.08749652228012e-01
2.57238095238095e-02 6.96429499772285e+01 3.08477412751440e-01
2.59587301587302e-02 6.92630797207325e+01 3.08192559452058e-01
2.61936507936508e-02 6.88852814813703e+01 3.07895359184797e-01
2.64285714285714e-02 6.85095439578191e+01 3.07586073220557e-01
2.66634920634921e-02 6.81358559098146e+01 3.07264957219155e-01
2.68984126984127e-02 6.77642061578562e+01 3.06932261733018e-01
2.71333333333333e-02 6.73945835845290e+01 3.06588232113289e-01
2.73682539682540e-02 6.70269771319641e+01 3.06233108702921e-01
2.76031746031746e-02 6.66613758036901e+01 3.05867127028164e-01
2.78380952380952e-02 6.62977686626700e+01 3.05490517695650e-01
2.80730158730159e-02 6.59361448310102e+01 3.05103506856571e-01
2.83079365079365e-02 6.55764934911883e+01 3.04706316155095e-01
2.85428571428571e-02 6.52188038841620e+01 3.04299162676689e-01
2.87777777777778e-02 6.48630653090839e+01 3.03882259390051e-01
2.90126984126984e-02 6.45092671244684e+01 3.03455815088821e-01
2.92476190476191e-02 6.41573987463718e+01 3.03020034333888e-01
2.94825396825397e-02 6.38074496481100e+01 3.02575117874979e-01
2.97174603174603e-02 6.34594093613708e+01 3.02121262586832e-01
2.99523809523810e-02 6.31132674744589e+01 3.01658661406689e-01
3.01873015873016e-02 6.27690136320188e+01 3.01187503737268e-01
3.04222222222222e-02 6.24266375360934e+01 3.00707975378421e-01
3.06571428571429e-02 6.20861289444335e+01 3.00220258460573e-01
3.08920634920635e-02 6.17474776702227e+01 2.99724531830466e-01
3.11269841269841e-02 6.14106735830874e+01 2.99220970979405e-01
3.13619047619048e-02 6.10757066074665e+01 2.98709747973332e-01
3.15968253968254e-02 6.07425667223392e+01 2.98191031822680e-01
3.18317460317460e-02 6.04112439621888e+01 2.97664988407875e-01
3.20666666666667e-02 6.00817284154298e+01 2.97131780406738e-01
3.23015873015873e-02 5.97540102241380e+01 2.96591567649570e-01
3.25365079365079e-02 5.94280795849713e+01 2.96044506995784e-01
3.27714285714286e-02 5.91039267472567e+01 2.95490752445490e-01
3.30063492063492e-02 5.87815420143022e+01 2.94930455248745e-01
3.32412698412698e-02 5.84609157419052e+01 2.94363763782443e-01
3.34761904761905e-02 5.81420383380892e+01 2.93790823884500e-01
3.37111111111111e-02 5.78249002639626e+01 2.93211778773694e-01
3.39460317460317e-02 5.75094920322776e+01 2.92626768972277e-01
3.41809523809524e-02 5.71958042071710e+01 2.92035932627770e-01
3.44158730158730e-02 5.68838274049841e+01 2.91439405431750e-01
3.46507936507937e-02 5.65735522928694e+01 2.90837320541795e-01
3.48857142857143e-02 5.62649695885357e+01 2.90229808891585e-01
3.51206349206349e-02 5.59580700610311e+01 2.89616999109073e-01
3.53555555555556e-02 5.56528445293962e+01 2.88999017437968e-01
3.55904761904762e-02 5.53492838624118e+01 2.88375988036919e-01
3.58253968253968e-02 5.50473789793481e+01 2.87748032897409e-01
3.60603174603175e-02 5.47471208486618e+01 2.87115271764943e-01
3.62952380952381e-02 5.44485004877466e+01 2.86477822427924e-01
3.65301587301587e-02 5.41515089636504e+01 2.85835800635585e-01
3.67650793650794e-02 5.38561373918144e+01 2.85189320019040e-01
3.70000000000000e-02 5.35623769358263e+01 2.84538492370526e-01
3.72349206349206e-02 5.32702188081071e+01 2.83883427522290e-01
3.74698412698413e-02 5.29796542683813e+01 2.83224233424175e-01
3.77047619047619e-02 5.26906746246703e+01 2.82561016218397e-01
3.79396825396825e-02 5.24032712320924e+01 2.81893880121312e-01
3.81746031746032e-02 5.21174354926218e+01 2.81222927688704e-01
3.84095238095238e-02 5.18331588557320e+01 2.80548259733887e-01
3.86444444444444e-02 5.15504328172324e+01 2.79869975249150e-01
3.88793650793651e-02 5.12692489190319e+01 2.79188171662572e-01
3.91142857142857e-02 5.09895987497541e+01 2.78502944756642e-01
3.93492063492063e-02 5.07114739436101e+01 2.77814388590401e-01
3.95841269841270e-02 5.04348661801656e+01 2.77122595748197e-01
3.98190476190476e-02 5.01597671849301e+01 2.76427657258916e-01
4.00539682539683e-02 4.98861687282640e+01 2.75729662518898e-01
4.02888888888889e-02 4.96140626251491e+01 2.75028699533017e-01
4.05238095238095e-02 4.93434407357534e+01 2.74324854834743e-01
4.07587301587302e-02 4.90742949643708e+01 2.73618213409809e-01
4.09936507936508e-02 4.88066172591954e+01 2.72908858929953e-01
4.12285714285714e-02 4.85403996128619e+01 2.72196873673927e-01
4.14634920634921e-02 4.82756340614185e+01 2.71482338452001e-01
4.16984126984127e-02 4.80123126841029e+01 2.70765332832731e-01
4.19333333333333e-02 4.77504276038615e+01 2.70045935031733e-01
4.21682539682540e-02 4.74899709861062e+01 2.69324221969499e-01
4.24031746031746e-02 4.72309350394787e+01 2.68600269325921e-01
4.26380952380952e-02 4.69733120148693e+01 2.67874151432967e-01
4.28730158730159e-02 4.67170942051982e+01 2.67145941491287e-01
4.31079365079365e-02 4.64622739459036e+01 2.66415711493452e-01
4.33428571428571e-02 4.62088436139890e+01 2.65683532150712e-01
4.35777777777778e-02 4.59567956278077e+01 2.64949473103346e-01
4.38126984126984e-02 4.57061224475311e+01 2.64213602844914e-01
4.40476190476191e-02 4.54568165742231e+01 2.63475988650147e-01
4.42825396825397e-02 4.52088705496288e+01 2.62736696779352e-01
4.45174603174603e-02 4.49622769566230e+01 2.61995792403707e-01
4.47523809523810e-02 4.47170284183111e+01 2.61253339534269e-01
4.49873015873016e-02 4.44731175978215e+01 2.60509401220617e-01
4.52222222222222e-02 4.42305371987354e+01 2.59764039477332e-01
4.54571428571429e-02 4.39892799642141e+01 2.59017315214099e-01
4.56920634920635e-02 4.37493386767931e+01 2.58269288428807e-01
4.59269841269841e-02 4.35107061587963e+01 2.57520018135219e-01
4.61619047619048e-02 4.32733752714864e+01 2.56769562294190e-01
4.63968253968254e-02 4.30373389148633e+01 2.56017978001485e-01
4.66317460317460e-02 4.28025900280605e+01 2.55265321416649e-01
4.68666666666667e-02 4.25691215885207e+01 2.54511647695266e-01
4.71015873015873e-02 4.23369266117959e+01 2.53757011171713e-01
4.73365079365079e-02 4.21059981519288e+01 2.53001465261729e-01
4.75714285714286e-02 4.18763293004587e+01 2.52245062505740e-01
4.78063492063492e-02 4.16479131869945e+01 2.51487854608966e-01
4.80412698412698e-02 4.14207429784249e+01 2.50729892348006e-01
4.82761904761905e-02 4.11948118787242e+01 2.49971225746086e-01
4.85111111111111e-02 4.09701131293106e+01 2.49211904004759e-01
4.87460317460317e-02 4.07466400082785e+01 2.48451975438976e-01
4.89809523809524e-02 4.05243858302071e+01 2.47691487647764e-01
4.92158730158730e-02 4.03033439465046e+01 2.46930487447029e-01
4.94507936507937e-02 4.00835077446613e+01 2.46169020805857e-01
4.96857142857143e-02 3.98648706480609e+01 2.45407133012687e-01
4.99206349206349e-02 3.96474261163118e+01 2.44644868609304e-01
5.01555555555556e-02 3.94311676445198e+01 2.43882271328296e-01
5.03904761904762e-02 3.92160887631024e+01 2.43119384254872e-01
5.06253968253968e-02 3.90021830381074e+01 2.42356249762120e-01
5.08603174603175e-02 3.87894440705044e+01 2.41592909449525e-01
5.10952380952381e-02 3.85778654960031e+01 2.40829404300644e-01
5.13301587301587e-02 3.83674409853581e+01 2.40065774619570e-01
5.15650793650794e-02 3.81581642436804e+01 2.39302059970572e-01
5.18000000000000e-02 3.79500290102578e+01 2.38538299331711e-01
5.20349206349206e-02 3.77430290588479e+01 2.37774531008897e-01
5.22698412698413e-02 3.75371581968517e+01 2.37010792670842e-01
5.25047619047619e-02 3.73324102657632e+01 2.36247121380719e-01
5.27396825396825e-02 3.71287791405097e+01 2.35483553514100e-01
5.29746031746032e-02 3.69262587292757e+01 2.34720124906653e-01
5.32095238095238e-02 3.67248429737801e+01 2.33956870793450e-01
5.34444444444444e-02 3.65245258486327e+01 2.33193825751350e-01
5.36793650793651e-02 3.63253013611615e+01 2.32431023842936e-01
5.39142857142857e-02 3.61271635516791e+01 2.31668498557000e-01
5.41492063492063e-02 3.59301064928555e+01 2.30906282752112e-01
5.43841269841270e-02 3.57341242895488e+01 2.30144408796909e-01
5.46190476190476e-02 3.55392110790606e+01 2.29382908511647e-01
5.48539682539683e-02 3.53453610305255e+01 2.28621813112886e-01
5.50888888888889e-02 3.51525683447440e+01 2.27861153350351e-01
5.53238095238095e-02 3.49608272544285e+01 2.27100959449588e-01
5.55587301587302e-02 3.47701320236083e+01 2.26341261057649e-01
5.57936507936508e-02 3.45804769474648e+01 2.25582087376660e-01
5.60285714285714e-02 3.43918563525685e+01 2.24823467107589e-01
5.62634920634921e-02 3.42042645962990e+01 2.24065428396953e-01
5.64984126984127e-02 3.40176960666827e+01 2.23307998967084e-01
5.67333333333333e-02 3.38321451826206e+01 2.22551206040744e-01
5.69682539682540e-02 3.36476063931944e+01 2.21795076369822e-01
5.72031746031746e-02 3.34640741780230e+01 2.21039636260912e-01
5.74380952380952e-02 3.32815430467058e+01 2.20284911503531e-01
5.76730158730159e-02 3.31000075386647e+01 2.19530927495542e-01
5.79079365079365e-02 3.29194622233586e+01 2.18777709189606e-01
5.81428571428571e-02 3.27399016997406e+01 2.18025281042504e-01
5.83777777777778e-02 3.25613205961024e+01 2.17273667137486e-01
5.86126984126984e-02 3.23837135702809e+01 2.16522891131734e-01
5.88476190476191e-02 3.22070753091287e+01 2.15772976206708e-01
5.90825396825397e-02 3.20314005283610e+01 2.15023945187605e-01
5.93174603174603e-02 3.18566839727544e+01 2.14275820491836e-01
5.95523809523810e-02 3.16829204156303e+01 2.13528624080319e-01
5.97873015873016e-02 3.15101046587048e+01 2.12782377574128e-01
6.00222222222222e-02 3.13382315322792e+01 2.12037102203950e-01
6.02571428571429e-02 3.11672958947368e+01 2.11292818762360e-01
6.04920634920635e-02 3.09972926323945e+01 2.10549547717678e-01
6.07269841269841e-02 3.08282166596867e+01 2.09807309164489e-01
6.09619047619048e-02 3.06600629186741e+01 2.09066122776815e-01
6.11968253968254e-02 3.04928263788977e+01 2.08326007919275e-01
6.14317460317460e-02 3.03265020375557e+01 2.07586983598604e-01
6.16666666666667e-02 3.01610849190244e+01 2.06849068417749e-01
6.19015873015873e-02 2.99965700747145e+01 2.06112280684426e-01
6.21365079365079e-02 2.98329525832411e+01 2.05376638346513e-01
6.23714285714286e-02 2.96702275498527e+01 2.04642159015301e-01
6.26063492063492e-02 2.95083901067052e+01 2.03908859985839e-01
6.28412698412698e-02 2.93474354124013e+01 2.03176758175591e-01
6.30761904761905e-02 2.91873586518506e+01 2.02445870229100e-01
6.33111111111111e-02 2.90281550364297e+01 2.01716212471845e-01
6.35460317460318e-02 2.88698198035326e+01 2.00987800866636e-01
6.37809523809524e-02 2.87123482164334e+01 2.00260651115831e-01
6.40158730158730e-02 2.85557355644402e+01 1.99534778616103e-01
6.42507936507937e-02 2.83999771624562e+01 1.98810198415712e-01
6.44857142857143e-02 2.82450683508445e+01 1.98086925314391e-01
6.47206349206349e-02 2.80910044955763e+01 1.97364973818962e-01
6.49555555555556e-02 2.79377809878027e+01 1.96644358101488e-01
6.51904761904762e-02 2.77853932437212e+01 1.95925092096895e-01
6.54253968253968e-02 2.76338367047185e+01 1.95207189459406e-01
6.56603174603175e-02 2.74831068369526e+01 1.94490663521560e-01
6.58952380952381e-02 2.73331991312213e+01 1.93775527389594e-01
6.61301587301587e-02 2.71841091030995e+01 1.93061793900807e-01
6.63650793650794e-02 2.70358322925312e+01 1.92349475583297e-01
6.66000000000000e-02 2.68883642637005e+01 1.91638584749208e-01
6.68349206349206e-02 2.67417006051632e+01 1.90929133438196e-01
6.70698412698413e-02 2.65958369293621e+01 1.90221133436987e-01
6.73047619047619e-02 2.64507688728464e+01 1.89514596296336e-01
6.75396825396825e-02 2.63064920958782e+01 1.88809533277450e-01
6.77746031746032e-02 2.61630022823068e+01 1.88105955441917e-01
6.80095238095238e-02 2.60202951396934e+01 1.87403873611217e-01
6.82444444444444e-02 2.58783663989273e+01 1.86703298328491e-01
6.84793650793651e-02 2.57372118141021e+01 1.86004239946432e-01
6.87142857142857e-02 2.55968271626354e+01 1.85306708587580e-01
6.89492063492064e-02 2.54572082448944e+01 1.84610714106893e-01
6.91841269841270e-02 2.53183508840735e+01 1.83916266177678e-01
6.94190476190476e-02 2.51802509263102e+01 1.83223374252619e-01
6.96539682539683e-02 2.50429042403185e+01 1.82532047527125e-01
6.98888888888889e-02 2.49063067172694e+01 1.81842295023335e-01
7.01238095238095e-02 2.47704542709015e+01 1.81154125551956e-01
7.03587301587302e-02 2.46353428371636e+01 1.80467547676295e-01
7.05936507936508e-02 2.45009683740968e+01 1.79782569794385e-01
7.08285714285714e-02 2.43673268619408e+01 1.79099200101639e-01
7.10634920634921e-02 2.42344143027850e+01 1.78417446555569e-01
7.12984126984127e-02 2.41022267204522e+01 1.77737316956074e-01
7.15333333333333e-02 2.39707601606010e+01 1.77058818896046e-01
7.17682539682540e-02 2.38400106903126e+01 1.76381959777969e-01
7.20031746031746e-02 2.37099743982660e+01 1.75706746828128e-01
7.22380952380952e-02 2.35806473944014e+01 1.75033187049821e-01
7.24730158730159e-02 2.34520258098071e+01 1.74361287300904e-01
7.27079365079365e-02 2.33241057968162e+01 1.73691054258280e-01
7.29428571428571e-02 2.31968835286779e+01 1.73022494384401e-01
7.31777777777778e-02 2.30703551994459e+01 1.72355614003116e-01
7.34126984126984e-02 2.29445170240715e+01 1.71690419264854e-01
7.36476190476190e-02 2.28193652380824e+01 1.71026916113796e-01
7.38825396825397e-02 2.26948960974730e+01 1.70365110362046e-01
7.41174603174603e-02 2.25711058787939e+01 1.69705007655511e-01
