Energy (eV)          EEDF (eV^-(3/2))     First Anisotropy
5.45000000000000e-02 1.99041047368093e-01 2.32769840579607e-04
1.63500000000000e-01 1.92254240458550e-01 3.79090576775687e-04
2.72500000000000e-01 1.85698846861179e-01 4.86650718583592e-04
3.81500000000000e-01 1.79366975954983e-01 5.60419593408656e-04
4.90500000000000e-01 1.73251006169610e-01 6.15680773422521e-04
5.99500000000000e-01 1.67343575811390e-01 6.58470205775390e-04
7.08500000000000e-01 1.61637574202179e-01 6.92038065052240e-04
8.17500000000000e-01 1.56126133120353e-01 7.18420003764154e-04
9.26500000000000e-01 1.50802618533640e-01 7.39012031906275e-04
1.03550000000000e+00 1.45660622613844e-01 7.54831304189212e-04
1.14450000000000e+00 1.40693956023846e-01 7.66651680201901e-04
1.25350000000000e+00 1.35896640467598e-01 7.75081219202952e-04
1.36250000000000e+00 1.31262901494143e-01 7.80609723984485e-04
1.47150000000000e+00 1.26787161547010e-01 7.83639552773539e-04
1.58050000000000e+00 1.22464033250589e-01 7.84506483562040e-04
1.68950000000000e+00 1.18288312925443e-01 7.83494360560581e-04
1.79850000000000e+00 1.14254974324718e-01 7.80845690269216e-04
1.90750000000000e+00 1.10359162584135e-01 7.76769505994749e-04
2.01650000000000e+00 1.06596188378266e-01 7.71447334917178e-04
2.12550000000000e+00 1.02961522276069e-01 7.65037812979017e-04
2.23450000000000e+00 9.94507892888873e-02 7.57680314412565e-04
2.34350000000000e+00 9.60597636043447e-02 7.49497848930991e-04
2.45250000000000e+00 9.27843634998046e-02 7.40599405024999e-04
2.56150000000000e+00 8.96206464292662e-02 7.31081867712682e-04
2.67050000000000e+00 8.65648042777861e-02 7.21031604704979e-04
2.77950000000000e+00 8.36131587777119e-02 7.10525790881449e-04
2.88850000000000e+00 8.07621570812111e-02 6.99633523825477e-04
2.99750000000000e+00 7.80083674837660e-02 6.88416770756808e-04
3.10650000000000e+00 7.53484752934860e-02 6.76931178082896e-04
3.21550000000000e+00 7.27792788412676e-02 6.65226768004375e-04
3.32450000000000e+00 7.02976856269964e-02 6.53348541495448e-04
3.43350000000000e+00 6.79007085971551e-02 6.41337003081708e-04
3.54250000000000e+00 6.55854625493561e-02 6.29228619834996e-04
3.65150000000000e+00 6.33491606594693e-02 6.17056224668905e-04
3.76050000000000e+00 6.11891111271678e-02 6.04849372184847e-04
3.86950000000000e+00 5.91027139358513e-02 5.92634653866854e-04
3.97850000000000e+00 5.70874577230478e-02 5.80435978264617e-04
4.08750000000000e+00 5.51409167575281e-02 5.68274820872672e-04
4.19650000000000e+00 5.32607480194918e-02 5.56170447659291e-04
4.30550000000000e+00 5.14446883803129e-02 5.44140115583652e-04
4.41450000000000e+00 4.96905518784478e-02 5.32199252935518e-04
4.52350000000000e+00 4.79962270882298e-02 5.20361621915379e-04
4.63250000000000e+00 4.63596745783795e-02 5.08639465527622e-04
4.74150000000000e+00 4.47789244571748e-02 4.97043640571190e-04
4.85050000000000e+00 4.32520740013239e-02 4.85583738270544e-04
4.95950000000000e+00 4.17772853656885e-02 4.74268193886212e-04
5.06850000000000e+00 4.03527833710990e-02 4.63104386471911e-04
5.17750000000000e+00 3.89768533676006e-02 4.52098729798729e-04
5.28650000000000e+00 3.76478391705564e-02 4.41256755341837e-04
5.39550000000000e+00 3.63641410671252e-02 4.30583188118046e-04
5.50450000000000e+00 3.51242138907129e-02 4.20082016070288e-04
5.61350000000000e+00 3.39265651610805e-02 4.09756553615515e-04
5.72250000000000e+00 3.27697532878701e-02 3.99609499903489e-04
5.83150000000000e+00 3.16523858353857e-02 3.89642992273995e-04
5.94050000000000e+00 3.05731178465409e-02 3.79858655347717e-04
6.04950000000000e+00 2.95306502239561e-02 3.70257646140139e-04
6.15850000000000e+00 2.85237281662559e-02 3.60840695547839e-04
6.26750000000000e+00 2.75511396576849e-02 3.51608146521108e-04
6.37650000000000e+00 2.66117140092244e-02 3.42559989205644e-04
6.48550000000000e+00 2.57043204494524e-02 3.33695893308592e-04
6.59450000000000e+00 2.48278667634529e-02 3.25015237919663e-04
6.70350000000000e+00 2.39812979781344e-02 3.16517138996334e-04
6.81250000000000e+00 2.31635950923755e-02 3.08200474702808e-04
6.92150000000000e+00 2.23737738504705e-02 3.00063908775107e-04
7.03050000000000e+00 2.16108835573960e-02 2.92105912069163e-04
7.13950000000000e+00 2.08740059344753e-02 2.84324782434960e-04
7.24850000000000e+00 2.01622540140608e-02 2.76718663047225e-04
7.35750000000000e+00 1.94747710719059e-02 2.69285559312067e-04
7.46650000000000e+00 1.88107295959395e-02 2.62023354458742e-04
7.57550000000000e+00 1.81693302902033e-02 2.54929823916628e-04
7.68450000000000e+00 1.75498011127521e-02 2.48002648569219e-04
7.79350000000000e+00 1.69513963463598e-02 2.41239426969475e-04
7.90250000000000e+00 1.63733957009110e-02 2.34637686594024e-04
8.01150000000000e+00 1.58151034464003e-02 2.28194894207555e-04
8.12050000000000e+00 1.52758475754926e-02 2.21908465403112e-04
8.22950000000000e+00 1.47549789946392e-02 2.15775773378875e-04
8.33850000000000e+00 1.42518707427744e-02 2.09794157007280e-04
8.44750000000000e+00 1.37659172366525e-02 2.03960928248156e-04
8.55650000000000e+00 1.32965335419171e-02 1.98273378953529e-04
8.66550000000000e+00 1.28431546690250e-02 1.92728787108224e-04
8.77450000000000e+00 1.24052348931779e-02 1.87324422547089e-04
8.88350000000000e+00 1.19822470974415e-02 1.82057552186637e-04
8.99250000000000e+00 1.15736821382643e-02 1.76925444806142e-04
9.10150000000000e+00 1.11790482326290e-02 1.71925375410663e-04
9.21050000000000e+00 1.07978703661018e-02 1.67054629206098e-04
9.31950000000000e+00 1.04296897210650e-02 1.62310505214266e-04
9.42850000000000e+00 1.00740631244454e-02 1.57690319553939e-04
9.53750000000000e+00 9.73056251427463e-03 1.53191408411953e-04
9.64650000000000e+00 9.39877442443755e-03 1.48811130726800e-04
9.75550000000000e+00 9.07829948698978e-03 1.44546870605541e-04
9.86450000000000e+00 8.76875195144508e-03 1.40396039493396e-04
9.97350000000000e+00 8.46975922045372e-03 1.36356078114065e-04
1.00825000000000e+01 8.18096140131306e-03 1.32424458197509e-04
1.01915000000000e+01 7.90201087277057e-03 1.28598684010838e-04
1.03005000000000e+01 7.63257186659778e-03 1.24876293706817e-04
1.04095000000000e+01 7.37232006343144e-03 1.21254860503531e-04
1.05185000000000e+01 7.12094220239563e-03 1.17731993707823e-04
1.06275000000000e+01 6.87813570403471e-03 1.14305339594237e-04
1.07365000000000e+01 6.64360830610328e-03 1.10972582150412e-04
1.08455000000000e+01 6.41707771177493e-03 1.07731443699121e-04
1.09545000000000e+01 6.19827124984608e-03 1.04579685406462e-04
1.10635000000000e+01 5.98692554652609e-03 1.01515107685045e-04
1.11725000000000e+01 5.78278620841849e-03 9.85355505004450e-05
1.12815000000000e+01 5.58560751631177e-03 9.56388935885852e-05
1.13905000000000e+01 5.39515212941117e-03 9.28230565912498e-05
1.14995000000000e+01 5.21119079965539e-03 9.00859991163844e-05
1.16085000000000e+01 5.03350209577442e-03 8.74257207294233e-05
1.17175000000000e+01 4.86187213675633e-03 8.48402608814387e-05
1.18265000000000e+01 4.69609433440214e-03 8.23276987795220e-05
1.19355000000000e+01 4.53596914465898e-03 7.98861532044351e-05
1.20445000000000e+01 4.38130382743209e-03 7.75137822802092e-05
1.21535000000000e+01 4.23191221458679e-03 7.52087832000791e-05
1.22625000000000e+01 4.08761448586081e-03 7.29693919128121e-05
1.23715000000000e+01 3.94823695241765e-03 7.07938827732123e-05
1.24805000000000e+01 3.81361184778006e-03 6.86805681603296e-05
1.25895000000000e+01 3.68357712589231e-03 6.66277980666512e-05
1.26985000000000e+01 3.55797626606798e-03 6.46339596613218e-05
1.28075000000000e+01 3.43665808458848e-03 6.26974768302239e-05
1.29165000000000e+01 3.31947655272575e-03 6.08168096955534e-05
1.30255000000000e+01 3.20629062096979e-03 5.89904541173320e-05
1.31345000000000e+01 3.09696404924965e-03 5.72169411791291e-05
1.32435000000000e+01 2.99136524294352e-03 5.54948366600946e-05
1.33525000000000e+01 2.88936709448034e-03 5.38227404952571e-05
1.34615000000000e+01 2.79084683034253e-03 5.21992862258917e-05
1.35705000000000e+01 2.69568586328551e-03 5.06231404416320e-05
1.36795000000000e+01 2.60376964959609e-03 4.90930022158787e-05
1.37885000000000e+01 2.51498755121813e-03 4.76076025359286e-05
1.38975000000000e+01 2.42923270257926e-03 4.61657037291499e-05
1.40065000000000e+01 2.34640188195855e-03 4.47660988864213e-05
1.41155000000000e+01 2.26639538724017e-03 4.34076112839564e-05
1.42245000000000e+01 2.18911691590361e-03 4.20890938045461e-05
1.43335000000000e+01 2.11447344910586e-03 4.08094283591690e-05
1.44425000000000e+01 2.04237513971616e-03 3.95675253098410e-05
1.45515000000000e+01 1.97273520416844e-03 3.83623228945017e-05
1.46605000000000e+01 1.90546981800138e-03 3.71927866546649e-05
1.47695000000000e+01 1.84049801496025e-03 3.60579088665025e-05
1.48785000000000e+01 1.77774158953913e-03 3.49567079759652e-05
1.49875000000000e+01 1.71712500284624e-03 3.38882280384918e-05
1.50965000000000e+01 1.65857529167897e-03 3.28515381638051e-05
1.52055000000000e+01 1.60202198069928e-03 3.18457319662458e-05
1.53145000000000e+01 1.54739699760365e-03 3.08699270210500e-05
1.54235000000000e+01 1.49463459118559e-03 2.99232643269325e-05
1.55325000000000e+01 1.44367125219194e-03 2.90049077753000e-05
1.56415000000000e+01 1.39444563687784e-03 2.81140436263842e-05
1.57505000000000e+01 1.34689849316825e-03 2.72498799925481e-05
1.58595000000000e+01 1.30097258933719e-03 2.64116463289854e-05
1.59685000000000e+01 1.25661264511882e-03 2.55985929320093e-05
1.60775000000000e+01 1.21376526516751e-03 2.48099904450954e-05
1.61865000000000e+01 1.17237887478672e-03 2.40451293728213e-05
1.62955000000000e+01 1.13240365784934e-03 2.33033196028159e-05
1.64045000000000e+01 1.09379149683489e-03 2.25838899358191e-05
1.65135000000000e+01 1.05649591491118e-03 2.18861876239253e-05
1.66225000000000e+01 1.02047201999095e-03 2.12095779170663e-05
1.67315000000000e+01 9.85676450695924e-04 2.05534436177748e-05
1.68405000000000e+01 9.52067324163514e-04 1.99171846442547e-05
1.69495000000000e+01 9.19604185633022e-04 1.93002176017633e-05
1.70585000000000e+01 8.88247959750935e-04 1.87019753623036e-05
1.71675000000000e+01 8.57960903536548e-04 1.81219066526117e-05
1.72765000000000e+01 8.28706560951349e-04 1.75594756504082e-05
1.73855000000000e+01 8.00449719017479e-04 1.70141615888795e-05
1.74945000000000e+01 7.73156365432439e-04 1.64854583693364e-05
1.76035000000000e+01 7.46793647629034e-04 1.59728741819984e-05
1.77125000000000e+01 7.21329833231273e-04 1.54759311348382e-05
1.78215000000000e+01 6.96734271858617e-04 1.49941648904128e-05
1.79305000000000e+01 6.72977358232618e-04 1.45271243106062e-05
1.80395000000000e+01 6.50030496541523e-04 1.40743711091986e-05
1.81485000000000e+01 6.27866066019960e-04 1.36354795121741e-05
1.82575000000000e+01 6.06457387702269e-04 1.32100359256726e-05
1.83665000000000e+01 5.85778692309465e-04 1.27976386114873e-05
1.84755000000000e+01 5.65805089231173e-04 1.23978973700091e-05
1.85845000000000e+01 5.46512536565207e-04 1.20104332305102e-05
1.86935000000000e+01 5.27877812178719e-04 1.16348781486610e-05
1.88025000000000e+01 5.09878485756097e-04 1.12708747111697e-05
1.89115000000000e+01 4.92492891799954e-04 1.09180758474327e-05
1.90205000000000e+01 4.75700103552723e-04 1.05761445480817e-05
1.91295000000000e+01 4.59479907807458e-04 1.02447535903119e-05
1.92385000000000e+01 4.43812780577525e-04 9.92358526987617e-06
1.93475000000000e+01 4.28679863595891e-04 9.61233113962625e-06
1.94565000000000e+01 4.14062941615743e-04 9.31069175448357e-06
1.95655000000000e+01 3.99944420485080e-04 9.01837642272174e-06
1.96745000000000e+01 3.86307305968927e-04 8.73510296344088e-06
1.97835000000000e+01 3.73135183293643e-04 8.46059747011637e-06
1.98925000000000e+01 3.60412197388728e-04 8.19459408010319e-06
2.00015000000000e+01 3.48123033802330e-04 7.93683474997719e-06
2.01105000000000e+01 3.36252900267488e-04 7.68706903659595e-06
2.02195000000000e+01 3.24787508896920e-04 7.44505388376259e-06
2.03285000000000e+01 3.13713058984926e-04 7.21055341437566e-06
2.04375000000000e+01 3.03016220395701e-04 6.98333872794977e-06
2.05465000000000e+01 2.92684117518066e-04 6.76318770339285e-06
2.06555000000000e+01 2.82704313767304e-04 6.54988480692624e-06
2.07645000000000e+01 2.73064796615448e-04 6.34322090503554e-06
2.08735000000000e+01 2.63753963131989e-04 6.14299308234114e-06
2.09825000000000e+01 2.54760606017624e-04 5.94900446427877e-06
2.10915000000000e+01 2.46073900114205e-04 5.76106404448173e-06
2.12005000000000e+01 2.37683389374679e-04 5.57898651675745e-06
2.13095000000000e+01 2.29578974277304e-04 5.40259211155374e-06
2.14185000000000e+01 2.21750899669029e-04 5.23170643680987e-06
2.15275000000000e+01 2.14189743023366e-04 5.06616032309036e-06
2.16365000000000e+01 2.06886403098653e-04 4.90578967290078e-06
2.17455000000000e+01 1.99832088983033e-04 4.75043531408607e-06
2.18545000000000e+01 1.93018309512979e-04 4.59994285721396e-06
2.19635000000000e+01 1.86436863052618e-04 4.45416255684737e-06
2.20725000000000e+01 1.80079827621551e-04 4.31294917661130e-06
2.21815000000000e+01 1.73939551359300e-04 4.17616185796175e-06
2.22905000000000e+01 1.68008643314882e-04 4.04366399256590e-06
2.23995000000000e+01 1.62279964550444e-04 3.91532309820385e-06
2.25085000000000e+01 1.56746619548237e-04 3.79101069810421e-06
2.26175000000000e+01 1.51401947910596e-04 3.67060220362828e-06
2.27265000000000e+01 1.46239516342926e-04 3.55397680021782e-06
2.28355000000000e+01 1.41253110910050e-04 3.44101733652441e-06
2.29445000000000e+01 1.36436729556593e-04 3.33161021663911e-06
2.30535000000000e+01 1.31784574882411e-04 3.22564529534308e-06
2.31625000000000e+01 1.27291047164349e-04 3.12301577630226e-06
2.32715000000000e+01 1.22950737615948e-04 3.02361811312922e-06
2.33805000000000e+01 1.18758421876974e-04 2.92735191323841e-06
2.34895000000000e+01 1.14709053724945e-04 2.83411984442192e-06
2.35985000000000e+01 1.10797759001070e-04 2.74382754407456e-06
2.37075000000000e+01 1.07019829743304e-04 2.65638353099878e-06
2.38165000000000e+01 1.03370718519454e-04 2.57169911972104e-06
2.39255000000000e+01 9.98460329535015e-05 2.48968833725371e-06
2.40345000000000e+01 9.64415304385794e-05 2.41026784223699e-06
2.41435000000000e+01 9.31531130302085e-05 2.33335684639752e-06
2.42525000000000e+01 8.99768225136703e-05 2.25887703826181e-06
2.43615000000000e+01 8.69088356395684e-05 2.18675250906363e-06
2.44705000000000e+01 8.39454595218447e-05 2.11690968078637e-06
2.45795000000000e+01 8.10831271927125e-05 2.04927723628262e-06
2.46885000000000e+01 7.83183933091550e-05 1.98378605141441e-06
2.47975000000000e+01 7.56479300058223e-05 1.92036912915942e-06
2.49065000000000e+01 7.30685228893331e-05 1.85896153562908e-06
2.50155000000000e+01 7.05770671691621e-05 1.79950033794651e-06
2.51245000000000e+01 6.81705639204538e-05 1.74192454393296e-06
2.52335000000000e+01 6.58461164742650e-05 1.68617504355310e-06
2.53425000000000e+01 6.36009269308919e-05 1.63219455207052e-06
2.54515000000000e+01 6.14322927920830e-05 1.57992755486585e-06
2.55605000000000e+01 5.93376037080862e-05 1.52932025387170e-06
2.56695000000000e+01 5.73143383356130e-05 1.48032051557908e-06
2.57785000000000e+01 5.53600613029385e-05 1.43287782057153e-06
2.58875000000000e+01 5.34724202784837e-05 1.38694321454416e-06
2.59965000000000e+01 5.16491431393523e-05 1.34246926076604e-06
2.61055000000000e+01 4.98880352364135e-05 1.29940999394520e-06
2.62145000000000e+01 4.81869767526379e-05 1.25772087545685e-06
2.63235000000000e+01 4.65439201515084e-05 1.21735874989611e-06
2.64325000000000e+01 4.49568877124335e-05 1.17828180291802e-06
2.65415000000000e+01 4.34239691501975e-05 1.14044952032801e-06
2.66505000000000e+01 4.19433193155807e-05 1.10382264838747e-06
2.67595000000000e+01 4.05131559743833e-05 1.06836315529973e-06
2.68685000000000e+01 3.91317576621794e-05 1.03403419384276e-06
2.69775000000000e+01 3.77974616122176e-05 1.00080006511575e-06
2.70865000000000e+01 3.65086617539759e-05 9.68626183367680e-07
2.71955000000000e+01 3.52638067799607e-05 9.37479041876780e-07
2.73045000000000e+01 3.40613982784230e-05 9.07326179850642e-07
2.74135000000000e+01 3.28999889297445e-05 8.78136150317623e-07
2.75225000000000e+01 3.17781807643226e-05 8.49878488980832e-07
2.76315000000000e+01 3.06946234798567e-05 8.22523684006893e-07
2.77405000000000e+01 2.96480128160117e-05 7.96043146722411e-07
2.78495000000000e+01 2.86370889845004e-05 7.70409183191788e-07
2.79585000000000e+01 2.76606351526974e-05 7.45594966650748e-07
2.80675000000000e+01 2.67174759789568e-05 7.21574510770644e-07
2.81765000000000e+01 2.58064761978730e-05 6.98322643729394e-07
2.82855000000000e+01 2.49265392537797e-05 6.75814983065377e-07
2.83945000000000e+01 2.40766059808442e-05 6.54027911291457e-07
2.85035000000000e+01 2.32556533281660e-05 6.32938552246848e-07
2.86125000000000e+01 2.24626931283475e-05 6.12524748165145e-07
2.87215000000000e+01 2.16967709080526e-05 5.92765037437497e-07
2.88305000000000e+01 2.09569647391229e-05 5.73638633050465e-07
2.89395000000000e+01 2.02423841288677e-05 5.55125401678710e-07
2.90485000000000e+01 1.95521689481920e-05 5.37205843413128e-07
2.91575000000000e+01 1.88854883962737e-05 5.19861072105690e-07
2.92665000000000e+01 1.82415400005413e-05 5.03072796312741e-07
2.93755000000000e+01 1.76195486507516e-05 4.86823300819067e-07
2.94845000000000e+01 1.70187656660014e-05 4.71095428725433e-07
2.95935000000000e+01 1.64384678935526e-05 4.55872564082880e-07
2.97025000000000e+01 1.58779568383850e-05 4.41138615057560e-07
2.98115000000000e+01 1.53365578224293e-05 4.26877997610261e-07
2.99205000000000e+01 1.48136191724678e-05 4.13075619675317e-07
3.00295000000000e+01 1.43085114357263e-05 3.99716865824005e-07
3.01385000000000e+01 1.38206266222114e-05 3.86787582397913e-07
3.02475000000000e+01 1.33493774728833e-05 3.74274063098246e-07
3.03565000000000e+01 1.28941967527816e-05 3.62163035017448e-07
3.04655000000000e+01 1.24545365682534e-05 3.50441645099828e-07
3.05745000000000e+01 1.20298677074630e-05 3.39097447018338e-07
3.06835000000000e+01 1.16196790033879e-05 3.28118388455021e-07
3.07925000000000e+01 1.12234767185355e-05 3.17492798772964e-07
3.09015000000000e+01 1.08407839506394e-05 3.07209377067976e-07
3.10105000000000e+01 1.04711400586195e-05 2.97257180588555e-07
3.11195000000000e+01 1.01141001081162e-05 2.87625613513037e-07
3.12285000000000e+01 9.76923433592984e-06 2.78304416073132e-07
3.13375000000000e+01 9.43612763272187e-06 2.69283654013387e-07
3.14465000000000e+01 9.11437904335441e-06 2.60553708376411e-07
3.15555000000000e+01 8.80360128426705e-06 2.52105265604010e-07
3.16645000000000e+01 8.50342027730992e-06 2.43929307944618e-07
3.17735000000000e+01 8.21347469947187e-06 2.36017104157790e-07
3.18825000000000e+01 7.93341554796184e-06 2.28360200506705e-07
3.19915000000000e+01 7.66290572011985e-06 2.20950412029918e-07
3.21005000000000e+01 7.40161960765199e-06 2.13779814083888e-07
3.22095000000000e+01 7.14924270470100e-06 2.06840734148034e-07
3.23185000000000e+01 6.90547122928067e-06 2.00125743884317e-07
3.24275000000000e+01 6.67001175761837e-06 1.93627651443586e-07
3.25365000000000e+01 6.44258087096566e-06 1.87339494011166e-07
3.26455000000000e+01 6.22290481445168e-06 1.81254530584370e-07
3.27545000000000e+01 6.01071916756887e-06 1.75366234974848e-07
3.28635000000000e+01 5.80576852589432e-06 1.69668289028909e-07
3.29725000000000e+01 5.60780619366359e-06 1.64154576059128e-07
3.30815000000000e+01 5.41659388682699e-06 1.58819174480760e-07
3.31905000000000e+01 5.23190144623096e-06 1.53656351646704e-07
3.32995000000000e+01 5.05350656057925e-06 1.48660557874905e-07
3.34085000000000e+01 4.88119449884036e-06 1.43826420662290e-07
3.35175000000000e+01 4.71475785177934e-06 1.39148739079509e-07
3.36265000000000e+01 4.55399628230261e-06 1.34622478340925e-07
3.37355000000000e+01 4.39871628431546e-06 1.30242764544438e-07
3.38445000000000e+01 4.24873094980193e-06 1.26004879575958e-07
3.39535000000000e+01 4.10385974384663e-06 1.21904256173395e-07
3.40625000000000e+01 3.96392828732778e-06 1.17936473145297e-07
3.41715000000000e+01 3.82876814701993e-06 1.14097250739342e-07
3.42805000000000e+01 3.69821663285358e-06 1.10382446156054e-07
3.43895000000000e+01 3.57211660208782e-06 1.06788049203263e-07
