Energy (eV)          EEDF (eV^-(3/2))     First Anisotropy
7.40000000000000e-03 2.17093143410138e+00 2.04851116626512e-03
2.22000000000000e-02 2.12141182057319e+00 3.35537437620667e-03
3.70000000000000e-02 2.07302176465618e+00 4.35773645425894e-03
5.18000000000000e-02 2.02573550079366e+00 5.07694549983850e-03
6.66000000000000e-02 1.97952785114941e+00 5.64274442418536e-03
8.14000000000000e-02 1.93437421220144e+00 6.10543364629808e-03
9.62000000000000e-02 1.89025054164168e+00 6.49166302478896e-03
1.11000000000000e-01 1.84713334557451e+00 6.81789014454321e-03
1.25800000000000e-01 1.80499966600726e+00 7.09526613802675e-03
1.40600000000000e-01 1.76382706862616e+00 7.33183498356268e-03
1.55400000000000e-01 1.72359363085104e+00 7.53366785102330e-03
1.70200000000000e-01 1.68427793016251e+00 7.70550645903761e-03
1.85000000000000e-01 1.64585903269543e+00 7.85115461423308e-03
1.99800000000000e-01 1.60831648209259e+00 7.97372987959745e-03
2.14600000000000e-01 1.57163028861254e+00 8.07583256894590e-03
2.29400000000000e-01 1.53578091848600e+00 8.15966337018433e-03
2.44200000000000e-01 1.50074928351498e+00 8.22710770668766e-03
2.59000000000000e-01 1.46651673090915e+00 8.27979780539596e-03
2.73800000000000e-01 1.43306503335404e+00 8.31915937682419e-03
2.88600000000000e-01 1.40037637930585e+00 8.34644739997153e-03
3.03400000000000e-01 1.36843336350758e+00 8.36277402025667e-03
3.18200000000000e-01 1.33721897772148e+00 8.36913062539908e-03
3.33000000000000e-01 1.30671660167292e+00 8.36640554829138e-03
3.47800000000000e-01 1.27690999420088e+00 8.35539843384760e-03
3.62600000000000e-01 1.24778328461017e+00 8.33683202507808e-03
3.77400000000000e-01 1.21932096422108e+00 8.31136192722502e-03
3.92200000000000e-01 1.19150787811163e+00 8.27958476942897e-03
4.07000000000000e-01 1.16432921704828e+00 8.24204508293063e-03
4.21800000000000e-01 1.13777050960065e+00 8.19924114132373e-03
4.36600000000000e-01 1.11181761443614e+00 8.15162995390255e-03
4.51400000000000e-01 1.08645671279031e+00 8.09963156227225e-03
4.66200000000000e-01 1.06167430110896e+00 8.04363275937023e-03
4.81000000000000e-01 1.03745718385813e+00 7.98399032626309e-03
4.95800000000000e-01 1.01379246649805e+00 7.92103386366412e-03
5.10600000000000e-01 9.90667548617358e-01 7.85506828072455e-03
5.25400000000000e-01 9.68070117223950e-01 7.78637599231486e-03
5.40200000000000e-01 9.45988140188860e-01 7.71521886700745e-03
5.55000000000000e-01 9.24409859839684e-01 7.64183996076596e-03
5.69800000000000e-01 9.03323786700141e-01 7.56646506554314e-03
5.84600000000000e-01 8.82718693372434e-01 7.48930409728236e-03
5.99400000000000e-01 8.62583608559167e-01 7.41055234397711e-03
6.14200000000000e-01 8.42907811221605e-01 7.33039159129002e-03
6.29000000000000e-01 8.23680824871207e-01 7.24899114063190e-03
6.43800000000000e-01 8.04892411991356e-01 7.16650873244398e-03
6.58600000000000e-01 7.86532568586336e-01 7.08309138562520e-03
6.73400000000000e-01 7.68591518854651e-01 6.99887616254051e-03
6.88200000000000e-01 7.51059709983841e-01 6.91399086777688e-03
7.03000000000000e-01 7.33927807064037e-01 6.82855468774224e-03
7.17800000000000e-01 7.17186688117534e-01 6.74267877729232e-03
7.32600000000000e-01 7.00827439241743e-01 6.65646679879521e-03
7.47400000000000e-01 6.84841349862935e-01 6.57001541838123e-03
7.62200000000000e-01 6.69219908098243e-01 6.48341476355684e-03
7.77000000000000e-01 6.53954796223469e-01 6.39674884587113e-03
7.91800000000000e-01 6.39037886244259e-01 6.31009595189994e-03
8.06600000000000e-01 6.24461235568311e-01 6.22352900544727e-03
8.21400000000000e-01 6.10217082776296e-01 6.13711590354263e-03
8.36200000000000e-01 5.96297843489244e-01 6.05091982853603e-03
8.51000000000000e-01 5.82696106330203e-01 5.96499953835015e-03
8.65800000000000e-01 5.69404628978008e-01 5.87940963673349e-03
8.80600000000000e-01 5.56416334311066e-01 5.79420082517254e-03
8.95400000000000e-01 5.43724306639105e-01 5.70942013795605e-03
9.10200000000000e-01 5.31321788020873e-01 5.62511116173728e-03
9.25000000000000e-01 5.19202174665837e-01 5.54131424081172e-03
9.39800000000000e-01 5.07359013417956e-01 5.45806666921269e-03
9.54600000000000e-01 4.95785998319662e-01 5.37540287062523e-03
9.69400000000000e-01 4.84476967254218e-01 5.29335456702731e-03
9.84200000000000e-01 4.73425898664667e-01 5.21195093688742e-03
9.99000000000000e-01 4.62626908347615e-01 5.13121876367280e-03
1.01380000000000e+00 4.52074246320157e-01 5.05118257535910e-03
1.02860000000000e+00 4.41762293758266e-01 4.97186477557227e-03
1.04340000000000e+00 4.31685560005021e-01 4.89328576694203e-03
1.05820000000000e+00 4.21838679647072e-01 4.81546406719744e-03
1.07300000000000e+00 4.12216409657796e-01 4.73841641849247e-03
1.08780000000000e+00 4.02813626605621e-01 4.66215789041127e-03
1.10260000000000e+00 3.93625323926024e-01 4.58670197706641e-03
1.11740000000000e+00 3.84646609255759e-01 4.51206068867232e-03
1.13220000000000e+00 3.75872701827888e-01 4.43824463794648e-03
1.14700000000000e+00 3.67298929926240e-01 4.36526312166464e-03
1.16180000000000e+00 3.58920728397923e-01 4.29312419767208e-03
1.17660000000000e+00 3.50733636222588e-01 4.22183475763114e-03
1.19140000000000e+00 3.42733294137130e-01 4.15140059576461e-03
1.20620000000000e+00 3.34915442314579e-01 4.08182647383677e-03
1.22100000000000e+00 3.27275918095926e-01 4.01311618259631e-03
1.23580000000000e+00 3.19810653773693e-01 3.94527259988988e-03
1.25060000000000e+00 3.12515674426062e-01 3.87829774564145e-03
1.26540000000000e+00 3.05387095800403e-01 3.81219283387873e-03
1.28020000000000e+00 2.98421122245084e-01 3.74695832197586e-03
1.29500000000000e+00 2.91614044688452e-01 3.68259395727142e-03
1.30980000000000e+00 2.84962238663921e-01 3.61909882120893e-03
1.32460000000000e+00 2.78462162380099e-01 3.55647137113872e-03
1.33940000000000e+00 2.72110354834948e-01 3.49470947991092e-03
1.35420000000000e+00 2.65903433972949e-01 3.43381047338096e-03
1.36900000000000e+00 2.59838094884310e-01 3.37377116594172e-03
1.38380000000000e+00 2.53911108045247e-01 3.31458789418887e-03
1.39860000000000e+00 2.48119317598408e-01 3.25625654882052e-03
1.41340000000000e+00 2.42459639672514e-01 3.19877260486492e-03
1.42820000000000e+00 2.36929060740342e-01 3.14213115032537e-03
1.44300000000000e+00 2.31524636014149e-01 3.08632691332600e-03
1.45780000000000e+00 2.26243487877708e-01 3.03135428783680e-03
1.47260000000000e+00 2.21082804354101e-01 2.97720735805163e-03
1.48740000000000e+00 2.16039837608469e-01 2.92387992149003e-03
1.50220000000000e+00 2.11111902484912e-01 2.87136551088787e-03
1.51700000000000e+00 2.06296375076759e-01 2.81965741493924e-03
1.53180000000000e+00 2.01590691329459e-01 2.76874869794825e-03
1.54660000000000e+00 1.96992345675334e-01 2.71863221844637e-03
1.56140000000000e+00 1.92498889699475e-01 2.66930064682719e-03
1.57620000000000e+00 1.88107930836068e-01 2.62074648204863e-03
1.59100000000000e+00 1.83817131094463e-01 2.57296206744914e-03
1.60580000000000e+00 1.79624205814295e-01 2.52593960572220e-03
1.62060000000000e+00 1.75526922449004e-01 2.47967117309125e-03
1.63540000000000e+00 1.71523099377103e-01 2.43414873272484e-03
1.65020000000000e+00 1.67610604740564e-01 2.38936414742904e-03
1.66500000000000e+00 1.63787355309695e-01 2.34530919165355e-03
1.67980000000000e+00 1.60051315373912e-01 2.30197556284500e-03
1.69460000000000e+00 1.56400495657819e-01 2.25935489217947e-03
1.70940000000000e+00 1.52832952261999e-01 2.21743875470471e-03
1.72420000000000e+00 1.49346785627983e-01 2.17621867892098e-03
1.73900000000000e+00 1.45940139526812e-01 2.13568615582782e-03
1.75380000000000e+00 1.42611200070681e-01 2.09583264746307e-03
1.76860000000000e+00 1.39358194747123e-01 2.05664959495852e-03
1.78340000000000e+00 1.36179391475226e-01 2.01812842613589e-03
1.79820000000000e+00 1.33073097683376e-01 1.98026056266553e-03
1.81300000000000e+00 1.30037659408038e-01 1.94303742680889e-03
1.82780000000000e+00 1.27071460413095e-01 1.90645044776523e-03
1.84260000000000e+00 1.24172921329269e-01 1.87049106764139e-03
1.85740000000000e+00 1.21340498813186e-01 1.83515074706326e-03
1.87220000000000e+00 1.18572684725605e-01 1.80042097044621e-03
1.88700000000000e+00 1.15868005328406e-01 1.76629325094095e-03
1.90180000000000e+00 1.13225020499890e-01 1.73275913507080e-03
1.91660000000000e+00 1.10642322967974e-01 1.69981020707491e-03
1.93140000000000e+00 1.08118537560886e-01 1.66743809297236e-03
1.94620000000000e+00 1.05652320474945e-01 1.63563446436027e-03
1.96100000000000e+00 1.03242358559045e-01 1.60439104195898e-03
1.97580000000000e+00 1.00887368615458e-01 1.57369959891683e-03
1.99060000000000e+00 9.85860967165947e-02 1.54355196388611e-03
2.00540000000000e+00 9.63373175373371e-02 1.51394002388144e-03
2.02020000000000e+00 9.41398337026107e-02 1.48485572693139e-03
2.03500000000000e+00 9.19924751498345e-02 1.45629108453345e-03
2.04980000000000e+00 8.98940985059148e-02 1.42823817392194e-03
2.06460000000000e+00 8.78435864784495e-02 1.40068914015839e-03
2.07940000000000e+00 8.58398472608200e-02 1.37363619805306e-03
2.09420000000000e+00 8.38818139508524e-02 1.34707163392613e-03
2.10900000000000e+00 8.19684439827392e-02 1.32098780721638e-03
2.12380000000000e+00 8.00987185719196e-02 1.29537715194529e-03
2.13860000000000e+00 7.82716421726221e-02 1.27023217804383e-03
2.15340000000000e+00 7.64862419477802e-02 1.24554547254878e-03
2.16820000000000e+00 7.47415672510399e-02 1.22130970067530e-03
2.18300000000000e+00 7.30366891205831e-02 1.19751760677219e-03
2.19780000000000e+00 7.13706997844963e-02 1.17416201516586e-03
2.21260000000000e+00 6.97427121774222e-02 1.15123583089862e-03
2.22740000000000e+00 6.81518594682375e-02 1.12873204036717e-03
2.24220000000000e+00 6.65972945985030e-02 1.10664371186624e-03
2.25700000000000e+00 6.50781898314432e-02 1.08496399604242e-03
2.27180000000000e+00 6.35937363112127e-02 1.06368612626333e-03
2.28660000000000e+00 6.21431436322170e-02 1.04280341890627e-03
2.30140000000000e+00 6.07256394182559e-02 1.02230927357085e-03
2.31620000000000e+00 5.93404689112679e-02 1.00219717321997e-03
2.33100000000000e+00 5.79868945694552e-02 9.82460684252872e-04
2.34580000000000e+00 5.66641956745749e-02 9.63093456514227e-04
2.36060000000000e+00 5.53716679481889e-02 9.44089223242729e-04
2.37540000000000e+00 5.41086231766668e-02 9.25441800962781e-04
2.39020000000000e+00 5.28743888447429e-02 9.07145089322521e-04
2.40500000000000e+00 5.16683077774313e-02 8.89193070881347e-04
2.41980000000000e+00 5.04897377901096e-02 8.71579810849894e-04
2.43460000000000e+00 4.93380513465842e-02 8.54299456785334e-04
2.44940000000000e+00 4.82126352249550e-02 8.37346238244818e-04
2.46420000000000e+00 4.71128901911020e-02 8.20714466399542e-04
2.47900000000000e+00 4.60382306796196e-02 8.04398533611975e-04
2.49380000000000e+00 4.49880844820293e-02 7.88392912978616e-04
2.50860000000000e+00 4.39618924421040e-02 7.72692157840542e-04
2.52340000000000e+00 4.29591081581418e-02 7.57290901263873e-04
2.53820000000000e+00 4.19791976920319e-02 7.42183855492174e-04
2.55300000000000e+00 4.10216392849558e-02 7.27365811372846e-04
2.56780000000000e+00 4.00859230795742e-02 7.12831637759277e-04
2.58260000000000e+00 3.91715508485504e-02 6.98576280890575e-04
2.59740000000000e+00 3.82780357292665e-02 6.84594763750542e-04
2.61220000000000e+00 3.74049019645906e-02 6.70882185407459e-04
2.62700000000000e+00 3.65516846495573e-02 6.57433720336327e-04
2.64180000000000e+00 3.57179294838262e-02 6.44244617724904e-04
2.65660000000000e+00 3.49031925297876e-02 6.31310200765012e-04
2.67140000000000e+00 3.41070399761852e-02 6.18625865930349e-04
2.68620000000000e+00 3.33290479071306e-02 6.06187082242111e-04
2.70100000000000e+00 3.25688020763873e-02 5.93989390523639e-04
2.71580000000000e+00 3.18258976868029e-02 5.82028402645147e-04
2.73060000000000e+00 3.10999391747724e-02 5.70299800759675e-04
2.74540000000000e+00 3.03905399996183e-02 5.58799336531285e-04
2.76020000000000e+00 2.96973224377748e-02 5.47522830356411e-04
2.77500000000000e+00 2.90199173816668e-02 5.36466170579359e-04
2.78980000000000e+00 2.83579641431765e-02 5.25625312702790e-04
2.80460000000000e+00 2.77111102615927e-02 5.14996278594018e-04
2.81940000000000e+00 2.70790113159419e-02 5.04575155687924e-04
2.83420000000000e+00 2.64613307415986e-02 4.94358096187220e-04
2.84900000000000e+00 2.58577396510798e-02 4.84341316260787e-04
2.86380000000000e+00 2.52679166589273e-02 4.74521095240711e-04
2.87860000000000e+00 2.46915477105839e-02 4.64893774818681e-04
2.89340000000000e+00 2.41283259151737e-02 4.55455758242361e-04
2.90820000000000e+00 2.35779513820956e-02 4.46203509512254e-04
2.92300000000000e+00 2.30401310613456e-02 4.37133552579665e-04
2.93780000000000e+00 2.25145785874804e-02 4.28242470546160e-04
2.95260000000000e+00 2.20010141271404e-02 4.19526904865076e-04
2.96740000000000e+00 2.14991642300510e-02 4.10983554545519e-04
2.98220000000000e+00 2.10087616834225e-02 4.02609175359245e-04
2.99700000000000e+00 2.05295453696711e-02 3.94400579050832e-04
3.01180000000000e+00 2.00612601273853e-02 3.86354632551503e-04
3.02660000000000e+00 1.96036566154639e-02 3.78468257196968e-04
3.04140000000000e+00 1.91564911803529e-02 3.70738427949593e-04
3.05620000000000e+00 1.87195257263107e-02 3.63162172625219e-04
3.07100000000000e+00 1.82925275886330e-02 3.55736571124890e-04
3.08580000000000e+00 1.78752694097686e-02 3.48458754671796e-04
3.10060000000000e+00 1.74675290182623e-02 3.41325905053633e-04
3.11540000000000e+00 1.70690893104578e-02 3.34335253870630e-04
3.13020000000000e+00 1.66797381349001e-02 3.27484081789499e-04
3.14500000000000e+00 1.62992681793743e-02 3.20769717803424e-04
3.15980000000000e+00 1.59274768605204e-02 3.14189538498346e-04
3.17460000000000e+00 1.55641662159677e-02 3.07740967325658e-04
3.18940000000000e+00 1.52091427989276e-02 3.01421473881523e-04
3.20420000000000e+00 1.48622175751924e-02 2.95228573192915e-04
3.21900000000000e+00 1.45232058224828e-02 2.89159825010512e-04
3.23380000000000e+00 1.41919270320915e-02 2.83212833108587e-04
3.24860000000000e+00 1.38682048127703e-02 2.77385244591978e-04
3.26340000000000e+00 1.35518667968096e-02 2.71674749210257e-04
3.27820000000000e+00 1.32427445482603e-02 2.66079078679169e-04
3.29300000000000e+00 1.29406734732489e-02 2.60596006009409e-04
3.30780000000000e+00 1.26454927323391e-02 2.55223344842838e-04
3.32260000000000e+00 1.23570451548913e-02 2.49958948796164e-04
3.33740000000000e+00 1.20751771553767e-02 2.44800710812124e-04
3.35220000000000e+00 1.17997386515994e-02 2.39746562518285e-04
3.36700000000000e+00 1.15305829847849e-02 2.34794473593418e-04
3.38180000000000e+00 1.12675668414901e-02 2.29942451141499e-04
3.39660000000000e+00 1.10105501772958e-02 2.25188539073375e-04
3.41140000000000e+00 1.07593961422390e-02 2.20530817496102e-04
3.42620000000000e+00 1.05139710079464e-02 2.15967402109949e-04
3.44100000000000e+00 1.02741440964301e-02 2.11496443613080e-04
3.45580000000000e+00 1.00397877105073e-02 2.07116127113920e-04
3.47060000000000e+00 9.81077706580695e-03 2.02824671551188e-04
3.48540000000000e+00 9.58699022432823e-03 1.98620329121588e-04
3.50020000000000e+00 9.36830802951338e-03 1.94501384715134e-04
3.51500000000000e+00 9.15461404280243e-03 1.90466155358101e-04
3.52980000000000e+00 8.94579448163477e-03 1.86512989663569e-04
3.54460000000000e+00 8.74173815886496e-03 1.82640267289527e-04
3.55940000000000e+00 8.54233642356056e-03 1.78846398404498e-04
3.57420000000000e+00 8.34748310315030e-03 1.75129823160695e-04
3.58900000000000e+00 8.15707444689189e-03 1.71489011174595e-04
3.60380000000000e+00 7.97100907062940e-03 1.67922461014935e-04
3.61860000000000e+00 7.78918790281064e-03 1.64428699698096e-04
3.63340000000000e+00 7.61151413173602e-03 1.61006282190791e-04
3.64820000000000e+00 7.43789315401056e-03 1.57653790920019e-04
3.66300000000000e+00 7.26823252417182e-03 1.54369835290248e-04
3.67780000000000e+00 7.10244190546677e-03 1.51153051207765e-04
3.69260000000000e+00 6.94043302175151e-03 1.48002100612123e-04
3.70740000000000e+00 6.78211961048812e-03 1.44915671014644e-04
3.72220000000000e+00 6.62741737681369e-03 1.41892475043907e-04
3.73700000000000e+00 6.47624394865706e-03 1.38931249998157e-04
3.75180000000000e+00 6.32851883287934e-03 1.36030757404601e-04
3.76660000000000e+00 6.18416337241487e-03 1.33189782585481e-04
3.78140000000000e+00 6.04310070438986e-03 1.30407134230889e-04
3.79620000000000e+00 5.90525571919631e-03 1.27681643978258e-04
3.81100000000000e+00 5.77055502049946e-03 1.25012165998440e-04
3.82580000000000e+00 5.63892688615752e-03 1.22397576588329e-04
3.84060000000000e+00 5.51030123003280e-03 1.19836773769941e-04
3.85540000000000e+00 5.38460956467397e-03 1.17328676895885e-04
3.87020000000000e+00 5.26178496484953e-03 1.14872226261161e-04
3.88500000000000e+00 5.14176203191305e-03 1.12466382721208e-04
3.89980000000000e+00 5.02447685898139e-03 1.10110127316133e-04
3.91460000000000e+00 4.90986699690703e-03 1.07802460901050e-04
3.92940000000000e+00 4.79787142102670e-03 1.05542403782444e-04
3.94420000000000e+00 4.68843049866849e-03 1.03328995360514e-04
3.95900000000000e+00 4.58148595740005e-03 1.01161293777398e-04
3.97380000000000e+00 4.47698085400114e-03 9.90383755712143e-05
3.98860000000000e+00 4.37485954414389e-03 9.69593353358577e-05
4.00340000000000e+00 4.27506765276463e-03 9.49232853864512e-05
4.01820000000000e+00 4.17755204511164e-03 9.29293554304158e-05
4.03300000000000e+00 4.08226079845321e-03 9.09766922440539e-05
4.04780000000000e+00 3.98914317443112e-03 8.90644593545922e-05
4.06260000000000e+00 3.89814959204469e-03 8.71918367276058e-05
4.07740000000000e+00 3.80923160125110e-03 8.53580204597449e-05
4.09220000000000e+00 3.72234185716793e-03 8.35622224767054e-05
4.10700000000000e+00 3.63743409486406e-03 8.18036702363651e-05
4.12180000000000e+00 3.55446310472570e-03 8.00816064370102e-05
4.13660000000000e+00 3.47338470838423e-03 7.83952887305842e-05
4.15140000000000e+00 3.39415573519320e-03 7.67439894408890e-05
4.16620000000000e+00 3.31673399924191e-03 7.51269952866704e-05
4.18100000000000e+00 3.24107827689323e-03 7.35436071095114e-05
4.19580000000000e+00 3.16714828483386e-03 7.19931396064691e-05
4.21060000000000e+00 3.09490465862529e-03 7.04749210673823e-05
4.22540000000000e+00 3.02430893174393e-03 6.89882931167868e-05
4.24020000000000e+00 2.95532351509943e-03 6.75326104603656e-05
4.25500000000000e+00 2.88791167702016e-03 6.61072406358664e-05
4.26980000000000e+00 2.82203752369520e-03 6.47115637684246e-05
4.28460000000000e+00 2.75766598006251e-03 6.33449723302194e-05
4.29940000000000e+00 2.69476277113297e-03 6.20068709044000e-05
4.31420000000000e+00 2.63329440374052e-03 6.06966759532152e-05
4.32900000000000e+00 2.57322814870853e-03 5.94138155902848e-05
4.34380000000000e+00 2.51453202342293e-03 5.81577293569482e-05
4.35860000000000e+00 2.45717477480291e-03 5.69278680026218e-05
4.37340000000000e+00 2.40112586266007e-03 5.57236932691103e-05
4.38820000000000e+00 2.34635544343707e-03 5.45446776788039e-05
4.40300000000000e+00 2.29283435431730e-03 5.33903043267012e-05
4.41780000000000e+00 2.24053409769696e-03 5.22600666761998e-05
4.43260000000000e+00 2.18942682601136e-03 5.11534683585908e-05
4.44740000000000e+00 2.13948532690731e-03 5.00700229762010e-05
4.46220000000000e+00 2.09068300875380e-03 4.90092539091214e-05
4.47700000000000e+00 2.04299388648305e-03 4.79706941254662e-05
4.49180000000000e+00 1.99639256775470e-03 4.69538859951026e-05
4.50660000000000e+00 1.95085423943547e-03 4.59583811067963e-05
4.52140000000000e+00 1.90635465438728e-03 4.49837400887171e-05
4.53620000000000e+00 1.86287011855672e-03 4.40295324322482e-05
4.55100000000000e+00 1.82037747835905e-03 4.30953363190428e-05
4.56580000000000e+00 1.77885410834987e-03 4.21807384512802e-05
4.58060000000000e+00 1.73827789917817e-03 4.12853338850598e-05
4.59540000000000e+00 1.69862724581400e-03 4.04087258668853e-05
4.61020000000000e+00 1.65988103604482e-03 3.95505256731893e-05
4.62500000000000e+00 1.62201863923411e-03 3.87103524528427e-05
4.63980000000000e+00 1.58501989533655e-03 3.78878330725997e-05
4.65460000000000e+00 1.54886510416363e-03 3.70826019654293e-05
4.66940000000000e+00 1.51353501489420e-03 3.62943009816823e-05
