Energy (eV)          EEDF (eV^-(3/2))     First Anisotropy
3.77659574468085e-02 3.40594741058364e-02 1.86257607659062e-05
1.13297872340426e-01 3.38103748171648e-02 3.07473205467137e-05
1.88829787234043e-01 3.35630973546129e-02 4.05658353393950e-05
2.64361702127660e-01 3.33176283945686e-02 4.80103788675876e-05
3.39893617021277e-01 3.30739547101870e-02 5.42071009948385e-05
4.15425531914894e-01 3.28320631720761e-02 5.95820562146639e-05
4.90957446808511e-01 3.25919407454573e-02 6.43558616332997e-05
5.66489361702128e-01 3.23535744916803e-02 6.86618199387340e-05
6.42021276595745e-01 3.21169515667157e-02 7.25883912729681e-05
7.17553191489362e-01 3.18820592204663e-02 7.61981334910747e-05
7.93085106382979e-01 3.16488847960788e-02 7.95373817004772e-05
8.68617021276596e-01 3.14174157292682e-02 8.26416881912000e-05
9.44148936170213e-01 3.11876395476408e-02 8.55391029687249e-05
1.01968085106383e+00 3.09595438700204e-02 8.82522630734343e-05
1.09521276595745e+00 3.07331164055565e-02 9.07997823882556e-05
1.17074468085106e+00 3.05083449547269e-02 9.31972104614603e-05
1.24627659574468e+00 3.02852174040754e-02 9.54577128032085e-05
1.32180851063830e+00 3.00637217325000e-02 9.75925672660412e-05
1.39734042553191e+00 2.98438460033009e-02 9.96115334681315e-05
1.47287234042553e+00 2.96255783703758e-02 1.01523133129011e-04
1.54840425531915e+00 2.94089070711586e-02 1.03334866519495e-04
1.62393617021277e+00 2.91938204320365e-02 1.05053381887229e-04
1.69946808510638e+00 2.89803068620057e-02 1.06684610005516e-04
1.77500000000000e+00 2.87683548574581e-02 1.08233872130871e-04
1.85053191489362e+00 2.85579529964272e-02 1.09705967712003e-04
1.92606382978723e+00 2.83490899428539e-02 1.11105246191961e-04
2.00159574468085e+00 2.81417544413268e-02 1.12435666454047e-04
2.07712765957447e+00 2.79359353209102e-02 1.13700846300238e-04
2.15265957446808e+00 2.77316214903058e-02 1.14904104073232e-04
2.22819148936170e+00 2.75288019413085e-02 1.16048493783933e-04
2.30372340425532e+00 2.73274657443296e-02 1.17136835068846e-04
2.37925531914894e+00 2.71276020515331e-02 1.18171738771884e-04
2.45478723404255e+00 2.69292000926740e-02 1.19155629023364e-04
2.53031914893617e+00 2.67322491779568e-02 1.20090762284212e-04
2.60585106382979e+00 2.65367386941504e-02 1.20979243957110e-04
2.68138297872340e+00 2.63426581072033e-02 1.21823042838373e-04
2.75691489361702e+00 2.61499969586037e-02 1.22624003843272e-04
2.83244680851064e+00 2.59587448677802e-02 1.23383859159743e-04
2.90797872340426e+00 2.57688915286802e-02 1.24104238154043e-04
2.98351063829787e+00 2.55804267119805e-02 1.24786676108924e-04
3.05904255319149e+00 2.53933402618613e-02 1.25432622045091e-04
3.13457446808511e+00 2.52076220980472e-02 1.26043445659192e-04
3.21010638297872e+00 2.50232622127582e-02 1.26620443579105e-04
3.28563829787234e+00 2.48402506725982e-02 1.27164844939280e-04
3.36117021276596e+00 2.46585776156660e-02 1.27677816441513e-04
3.43670212765957e+00 2.44782332533071e-02 1.28160466884253e-04
3.51223404255319e+00 2.42992078673706e-02 1.28613851300086e-04
3.58776595744681e+00 2.41214918118366e-02 1.29038974583959e-04
3.66329787234043e+00 2.39450755106909e-02 1.29436795260051e-04
3.73882978723404e+00 2.37699494575003e-02 1.29808228033595e-04
3.81436170212766e+00 2.35961042162991e-02 1.30154146970707e-04
3.88989361702128e+00 2.34235304192172e-02 1.30475388007191e-04
3.96542553191489e+00 2.32522187677895e-02 1.30772751302239e-04
4.04095744680851e+00 2.30821600306882e-02 1.31047003430425e-04
4.11648936170213e+00 2.29133450449466e-02 1.31298879368456e-04
4.19202127659574e+00 2.27457647137876e-02 1.31529084355156e-04
4.26755319148936e+00 2.25794100077696e-02 1.31738295579760e-04
4.34308510638298e+00 2.24142719627039e-02 1.31927163770666e-04
4.41861702127660e+00 2.22503416807292e-02 1.32096314639055e-04
4.49414893617021e+00 2.20876103283121e-02 1.32246350244326e-04
4.56968085106383e+00 2.19260691372549e-02 1.32377850235647e-04
4.64521276595745e+00 2.17657094027741e-02 1.32491373032171e-04
4.72074468085106e+00 2.16065224844470e-02 1.32587456896626e-04
4.79627659574468e+00 2.14484998043629e-02 1.32666620960876e-04
4.87180851063830e+00 2.12916328480126e-02 1.32729366158930e-04
4.94734042553192e+00 2.11359131625084e-02 1.32776176122618e-04
5.02287234042553e+00 2.09813323574202e-02 1.32807517996238e-04
5.09840425531915e+00 2.08278821030608e-02 1.32823843222479e-04
5.17393617021277e+00 2.06755541312715e-02 1.32825588256833e-04
5.24946808510638e+00 2.05243402337692e-02 1.32813175260300e-04
5.32500000000000e+00 2.03742322628856e-02 1.32787012728520e-04
5.40053191489362e+00 2.02252221299716e-02 1.32747496104819e-04
5.47606382978723e+00 2.00773018060939e-02 1.32695008336411e-04
5.55159574468085e+00 1.99304633204932e-02 1.32629920419059e-04
5.62712765957447e+00 1.97846987612415e-02 1.32552591890620e-04
5.70265957446809e+00 1.96400002737509e-02 1.32463371316795e-04
5.77819148936170e+00 1.94963600613933e-02 1.32362596730550e-04
5.85372340425532e+00 1.93537703840591e-02 1.32250596066818e-04
5.92925531914894e+00 1.92122235587404e-02 1.32127687555071e-04
6.00478723404255e+00 1.90717119581366e-02 1.31994180109627e-04
6.08031914893617e+00 1.89322280112049e-02 1.31850373681396e-04
6.15585106382979e+00 1.87937642018092e-02 1.31696559609490e-04
6.23138297872340e+00 1.86563130692402e-02 1.31533020937316e-04
6.30691489361702e+00 1.85198672069060e-02 1.31360032730254e-04
6.38244680851064e+00 1.83844192628231e-02 1.31177862360514e-04
6.45797872340426e+00 1.82499619383472e-02 1.30986769794925e-04
6.53351063829787e+00 1.81164879886362e-02 1.30787007852376e-04
6.60904255319149e+00 1.79839902214197e-02 1.30578822465275e-04
6.68457446808511e+00 1.78524614974361e-02 1.30362452912700e-04
6.76010638297872e+00 1.77218947292384e-02 1.30138132058589e-04
6.83563829787234e+00 1.75922828816069e-02 1.29906086563424e-04
6.91117021276596e+00 1.74636189703900e-02 1.29666537101721e-04
6.98670212765957e+00 1.73358960628940e-02 1.29419698554694e-04
7.06223404255319e+00 1.72091072767572e-02 1.29165780209297e-04
7.13776595744681e+00 1.70832457803176e-02 1.28904985889792e-04
7.21329787234043e+00 1.69583047916927e-02 1.28637514317301e-04
7.28882978723404e+00 1.68342775784330e-02 1.28363559006139e-04
7.36436170212766e+00 1.67111574576684e-02 1.28083308602424e-04
7.43989361702128e+00 1.65889377950703e-02 1.27796946998681e-04
7.51542553191489e+00 1.64676120051602e-02 1.27504653474828e-04
7.59095744680851e+00 1.63471735503003e-02 1.27206602846526e-04
7.66648936170213e+00 1.62276159409847e-02 1.26902965594641e-04
7.74202127659574e+00 1.61089327348568e-02 1.26593908002296e-04
7.81755319148936e+00 1.59911175369847e-02 1.26279592273977e-04
7.89308510638298e+00 1.58741639989045e-02 1.25960176662382e-04
7.96861702127660e+00 1.57580658188800e-02 1.25635815578170e-04
8.04414893617021e+00 1.56428167409716e-02 1.25306659707570e-04
8.11968085106383e+00 1.55284105552807e-02 1.24972856113659e-04
8.19521276595745e+00 1.54148410970433e-02 1.24634548345616e-04
8.27074468085106e+00 1.53021022468601e-02 1.24291876532351e-04
8.34627659574468e+00 1.51901879298138e-02 1.23944977484105e-04
8.42180851063830e+00 1.50790921156859e-02 1.23593984779142e-04
8.49734042553191e+00 1.49688088180960e-02 1.23239028858436e-04
8.57287234042553e+00 1.48593320947067e-02 1.22880237106004e-04
8.64840425531915e+00 1.47506560463843e-02 1.22517733937273e-04
8.72393617021276e+00 1.46427748173919e-02 1.22151640873671e-04
8.79946808510638e+00 1.45356825945707e-02 1.21782076625176e-04
8.87500000000000e+00 1.44293736075222e-02 1.21409157159667e-04
8.95053191489362e+00 1.43238421278096e-02 1.21032995780169e-04
9.02606382978723e+00 1.42190824691293e-02 1.20653703189386e-04
9.10159574468085e+00 1.41150889865316e-02 1.20271387562094e-04
9.17712765957447e+00 1.40118560765820e-02 1.19886154605271e-04
9.25265957446809e+00 1.39093781766013e-02 1.19498107626019e-04
9.32819148936170e+00 1.38076497648168e-02 1.19107347587645e-04
9.40372340425532e+00 1.37066653596204e-02 1.18713973173461e-04
9.47925531914894e+00 1.36064195197109e-02 1.18318080839188e-04
9.55478723404255e+00 1.35069068433700e-02 1.17919764872956e-04
9.63031914893617e+00 1.34081219685956e-02 1.17519117444254e-04
9.70585106382979e+00 1.33100595723944e-02 1.17116228660453e-04
9.78138297872340e+00 1.32127143709075e-02 1.16711186612636e-04
9.85691489361702e+00 1.31160811187199e-02 1.16304077428847e-04
9.93244680851064e+00 1.30201546089771e-02 1.15894985317028e-04
1.00079787234043e+01 1.29249296727111e-02 1.15483992672034e-04
1.00835106382979e+01 1.28304011787618e-02 1.15071179888450e-04
1.01590425531915e+01 1.27365640338718e-02 1.14656625664786e-04
1.02345744680851e+01 1.26434131817464e-02 1.14240407072218e-04
1.03101063829787e+01 1.25509436030717e-02 1.13822599391896e-04
1.03856382978723e+01 1.24591503152442e-02 1.13403276510267e-04
1.04611702127660e+01 1.23680283712328e-02 1.12982510151098e-04
1.05367021276596e+01 1.22775728619382e-02 1.12560370453437e-04
1.06122340425532e+01 1.21877789132823e-02 1.12136926553803e-04
1.06877659574468e+01 1.20986416868341e-02 1.11712245798128e-04
1.07632978723404e+01 1.20101563795482e-02 1.11286394051669e-04
1.08388297872340e+01 1.19223182235084e-02 1.10859435732385e-04
1.09143617021277e+01 1.18351224856695e-02 1.10431434091533e-04
1.09898936170213e+01 1.17485644668177e-02 1.10002450497978e-04
1.10654255319149e+01 1.16626395036892e-02 1.09572544969676e-04
1.11409574468085e+01 1.15773429663287e-02 1.09141776709316e-04
1.12164893617021e+01 1.14926702586423e-02 1.08710203370554e-04
1.12920212765957e+01 1.14086168181505e-02 1.08277881341822e-04
1.13675531914894e+01 1.13251781157426e-02 1.07844865774128e-04
1.14430851063830e+01 1.12423496554326e-02 1.07411210837723e-04
1.15186170212766e+01 1.11601269734058e-02 1.06976969055413e-04
1.15941489361702e+01 1.10785056399269e-02 1.06542191792360e-04
1.16696808510638e+01 1.09974812569362e-02 1.06106929750086e-04
1.17452127659574e+01 1.09170494585397e-02 1.05671232283015e-04
1.18207446808511e+01 1.08372059107740e-02 1.05235147659149e-04
1.18962765957447e+01 1.07579463113734e-02 1.04798723298994e-04
1.19718085106383e+01 1.06792663888828e-02 1.04362005147392e-04
1.20473404255319e+01 1.06011619044065e-02 1.03925038131411e-04
1.21228723404255e+01 1.05236286493861e-02 1.03487866622335e-04
1.21984042553191e+01 1.04466624460429e-02 1.03050533792125e-04
1.22739361702128e+01 1.03702591471527e-02 1.02613081856235e-04
1.23494680851064e+01 1.02944146358230e-02 1.02175552093380e-04
1.24250000000000e+01 1.02191248252713e-02 1.01737985065624e-04
1.25005319148936e+01 1.01443856580089e-02 1.01300420032511e-04
1.25760638297872e+01 1.00701931074218e-02 1.00862895374676e-04
1.26515957446809e+01 9.99654317574131e-03 1.00425449021310e-04
1.27271276595745e+01 9.92343189443669e-03 9.99881178504095e-05
1.28026595744681e+01 9.85085532400131e-03 9.95509379126370e-05
1.28781914893617e+01 9.77880955374143e-03 9.91139444481781e-05
1.29537234042553e+01 9.70729070156485e-03 9.86771720897896e-05
1.30292553191489e+01 9.63629491322911e-03 9.82406543162796e-05
1.31047872340426e+01 9.56581836377334e-03 9.78044238449564e-05
1.31803191489362e+01 9.49585725566069e-03 9.73685130278206e-05
1.32558510638298e+01 9.42640781912794e-03 9.69329532922045e-05
1.33313829787234e+01 9.35746631198260e-03 9.64977753477242e-05
1.34069148936170e+01 9.28902901940172e-03 9.60630093761087e-05
1.34824468085106e+01 9.22109225322918e-03 9.56286845159653e-05
1.35579787234043e+01 9.15365235329420e-03 9.51948292310120e-05
1.36335106382979e+01 9.08670568568593e-03 9.47614716819358e-05
1.37090425531915e+01 9.02024864307071e-03 9.43286391989963e-05
1.37845744680851e+01 8.95427764449734e-03 9.38963584758894e-05
1.38601063829787e+01 8.88878913520475e-03 9.34646555821147e-05
1.39356382978723e+01 8.82377958643039e-03 9.30335561388227e-05
1.40111702127660e+01 8.75924549476113e-03 9.26030848376941e-05
1.40867021276596e+01 8.69518338333054e-03 9.21732657829209e-05
1.41622340425532e+01 8.63158980023563e-03 9.17441228365935e-05
1.42377659574468e+01 8.56846131881943e-03 9.13156791266159e-05
1.43132978723404e+01 8.50579453748594e-03 9.08879572261681e-05
1.43888297872340e+01 8.44358607951778e-03 9.04609791644337e-05
1.44643617021277e+01 8.38183259289380e-03 9.00347665897506e-05
1.45398936170213e+01 8.32053074968858e-03 8.96093403201196e-05
1.46154255319149e+01 8.25967724716138e-03 8.91847206611749e-05
1.46909574468085e+01 8.19926880630097e-03 8.87609277273919e-05
1.47664893617021e+01 8.13930217207761e-03 8.83379809824868e-05
1.48420212765957e+01 8.07977411326755e-03 8.79158994060322e-05
1.49175531914894e+01 8.02068142227949e-03 8.74947015028267e-05
1.49930851063830e+01 7.96202091498137e-03 8.70744054541836e-05
1.50686170212766e+01 7.90378943014418e-03 8.66550286980347e-05
1.51441489361702e+01 7.84598383043348e-03 8.62365882248092e-05
1.52196808510638e+01 7.78860100107042e-03 8.58191008764142e-05
1.52952127659574e+01 7.73163785005632e-03 8.54025829167991e-05
1.53707446808511e+01 7.67509130800645e-03 8.49870501868179e-05
1.54462765957447e+01 7.61895832798471e-03 8.45725182464501e-05
1.55218085106383e+01 7.56323588498168e-03 8.41590019782657e-05
1.55973404255319e+01 7.50792097683172e-03 8.37465158659821e-05
1.56728723404255e+01 7.45301062296368e-03 8.33350742760194e-05
1.57484042553191e+01 7.39850186460528e-03 8.29246910520802e-05
1.58239361702128e+01 7.34439176462341e-03 8.25153796606797e-05
1.58994680851064e+01 7.29067740736644e-03 8.21071531982453e-05
1.59750000000000e+01 7.23735589850690e-03 8.17000245234855e-05
1.60505319148936e+01 7.18442436455708e-03 8.12940058864707e-05
1.61260638297872e+01 7.13187995370600e-03 8.08891091883158e-05
1.62015957446809e+01 7.07971983466718e-03 8.04853462436289e-05
1.62771276595745e+01 7.02794119686116e-03 8.00827284014400e-05
1.63526595744681e+01 6.97654125026390e-03 7.96812666806515e-05
1.64281914893617e+01 6.92551722525693e-03 7.92809717762802e-05
1.65037234042553e+01 6.87486637247787e-03 7.88818541826870e-05
1.65792553191489e+01 6.82458596237036e-03 7.84839238465864e-05
1.66547872340426e+01 6.77467328594870e-03 7.80871904092278e-05
1.67303191489362e+01 6.72512565373402e-03 7.76916634512703e-05
1.68058510638298e+01 6.67594039591727e-03 7.72973521381441e-05
1.68813829787234e+01 6.62711486221544e-03 7.69042653462622e-05
1.69569148936170e+01 6.57864642172897e-03 7.65124117790271e-05
1.70324468085106e+01 6.53053246251849e-03 7.61217996388978e-05
1.71079787234043e+01 6.48277039231372e-03 7.57324368558112e-05
1.71835106382979e+01 6.43535763751842e-03 7.53443313181634e-05
1.72590425531915e+01 6.38829164335874e-03 7.49574905375945e-05
1.73345744680851e+01 6.34156987374544e-03 7.45719217679556e-05
1.74101063829787e+01 6.29518981113747e-03 7.41876320101040e-05
1.74856382978723e+01 6.24914895640631e-03 7.38046281201295e-05
1.75611702127660e+01 6.20344482844213e-03 7.34229165022667e-05
1.76367021276596e+01 6.15807496480255e-03 7.30425033222419e-05
1.77122340425532e+01 6.11303692079229e-03 7.26633947229920e-05
1.77877659574468e+01 6.06832826959572e-03 7.22855965109192e-05
1.78632978723404e+01 6.02394660214590e-03 7.19091142667902e-05
1.79388297872340e+01 5.97988952699524e-03 7.15339533499910e-05
1.80143617021277e+01 5.93615467018638e-03 7.11601189995822e-05
1.80898936170213e+01 5.89273967488543e-03 7.07876160466272e-05
1.81654255319149e+01 5.84964220197626e-03 7.04164491135533e-05
1.82409574468085e+01 5.80685992920842e-03 7.00466228157835e-05
1.83164893617021e+01 5.76439055131551e-03 6.96781414678658e-05
1.83920212765957e+01 5.72223177989101e-03 6.93110091870257e-05
1.84675531914894e+01 5.68038134326520e-03 6.89452298969861e-05
1.85430851063830e+01 5.63883698638256e-03 6.85808074222401e-05
1.86186170212766e+01 5.59759647045991e-03 6.82177452185705e-05
1.86941489361702e+01 5.55665757353124e-03 6.78560465594384e-05
1.87696808510638e+01 5.51601808965814e-03 6.74957147245224e-05
1.88452127659574e+01 5.47567582903558e-03 6.71367527243755e-05
1.89207446808511e+01 5.43562861787405e-03 6.67791633971920e-05
1.89962765957447e+01 5.39587429828249e-03 6.64229494978207e-05
1.90718085106383e+01 5.35641072794591e-03 6.60681134427344e-05
1.91473404255319e+01 5.31723578063201e-03 6.57146574861456e-05
1.92228723404255e+01 5.27834734545050e-03 6.53625838981803e-05
1.92984042553191e+01 5.23974332694941e-03 6.50118947043363e-05
1.93739361702128e+01 5.20142164500209e-03 6.46625917768144e-05
1.94494680851064e+01 5.16338023469531e-03 6.43146768374849e-05
1.95250000000000e+01 5.12561704621799e-03 6.39681515411422e-05
1.96005319148936e+01 5.08813004456027e-03 6.36230172363613e-05
1.96760638297872e+01 5.05091720997872e-03 6.32792751303115e-05
1.97515957446809e+01 5.01397653730892e-03 6.29369264555129e-05
1.98271276595745e+01 4.97730603605152e-03 6.25959722256031e-05
1.99026595744681e+01 4.94090373026492e-03 6.22564133207118e-05
1.99781914893617e+01 4.90476765845903e-03 6.19182504901258e-05
2.00537234042553e+01 4.86889587348940e-03 6.15814844301399e-05
2.01292553191489e+01 4.83328644227635e-03 6.12461155597857e-05
2.02047872340426e+01 4.79793744623221e-03 6.09121441751393e-05
2.02803191489362e+01 4.76284698062308e-03 6.05795706054535e-05
2.03558510638298e+01 4.72801315464556e-03 6.02483949841020e-05
2.04313829787234e+01 4.69343409132496e-03 5.99186173284801e-05
2.05069148936170e+01 4.65910792741420e-03 5.95902376135593e-05
2.05824468085106e+01 4.62503281312855e-03 5.92632555595230e-05
2.06579787234043e+01 4.59120691254357e-03 5.89376707777125e-05
2.07335106382979e+01 4.55762840299535e-03 5.86134829183222e-05
2.08090425531915e+01 4.52429547515034e-03 5.82906914534706e-05
2.08845744680851e+01 4.49120633290773e-03 5.79692957527607e-05
2.09601063829787e+01 4.45835919330288e-03 5.76492950853395e-05
2.10356382978723e+01 4.42575228641114e-03 5.73306886887697e-05
2.11111702127660e+01 4.39338385509993e-03 5.70134755697477e-05
2.11867021276596e+01 4.36125215539469e-03 5.66976546408419e-05
2.12622340425532e+01 4.32935545592132e-03 5.63832248588693e-05
2.13377659574468e+01 4.29769203796839e-03 5.60701850214042e-05
2.14132978723404e+01 4.26626019539445e-03 5.57585338374572e-05
2.14888297872340e+01 4.23505823453628e-03 5.54482699293361e-05
2.15643617021277e+01 4.20408447411756e-03 5.51393918971797e-05
2.16398936170213e+01 4.17333724501686e-03 5.48318981318701e-05
2.17154255319149e+01 4.14281489060454e-03 5.45257869432002e-05
2.17909574468085e+01 4.11251576622396e-03 5.42210566895961e-05
2.18664893617021e+01 4.08243823924690e-03 5.39177055870972e-05
2.19420212765957e+01 4.05258068898559e-03 5.36157317755848e-05
2.20175531914894e+01 4.02294150660551e-03 5.33151333204643e-05
2.20930851063830e+01 3.99351909503858e-03 5.30159082730744e-05
2.21686170212766e+01 3.96431186876610e-03 5.27180544950632e-05
2.22441489361702e+01 3.93531825412893e-03 5.24215697785646e-05
2.23196808510638e+01 3.90653668884457e-03 5.21264519678344e-05
2.23952127659574e+01 3.87796562205646e-03 5.18326987798892e-05
2.24707446808511e+01 3.84960351425048e-03 5.15403078665927e-05
2.25462765957447e+01 3.82144883717207e-03 5.12492768718320e-05
2.26218085106383e+01 3.79350007362080e-03 5.09596032650504e-05
2.26973404255319e+01 3.76575571773989e-03 5.06712844550434e-05
2.27728723404255e+01 3.73821427456149e-03 5.03843179051490e-05
2.28484042553191e+01 3.71087426005145e-03 5.00987009632572e-05
2.29239361702128e+01 3.68373420102926e-03 4.98144309205593e-05
2.29994680851064e+01 3.65679263508880e-03 4.95315050128564e-05
2.30750000000000e+01 3.63004811051955e-03 4.92499204741803e-05
2.31505319148936e+01 3.60349918611413e-03 4.89696743804098e-05
2.32260638297872e+01 3.57714443143524e-03 4.86907637560371e-05
2.33015957446808e+01 3.55098242639186e-03 4.84131856822398e-05
2.33771276595745e+01 3.52501176127902e-03 4.81369371372187e-05
2.34526595744681e+01 3.49923103670183e-03 4.78620150512722e-05
2.35281914893617e+01 3.47363886350013e-03 4.75884163079827e-05
2.36037234042553e+01 3.44823386267362e-03 4.73161377944929e-05
2.36792553191489e+01 3.42301466520161e-03 4.70451762545795e-05
2.37547872340426e+01 3.39797991228901e-03 4.67755283888464e-05
2.38303191489362e+01 3.37312825497138e-03 4.65071909561509e-05
