Energy (eV)          EEDF (eV^-(3/2))     First Anisotropy
3.36486486486487e-02 5.79876256817526e-02 3.56992886644277e-05
1.00945945945946e-01 5.74490288223137e-02 5.88738285180045e-05
1.68243243243243e-01 5.69154345202563e-02 7.75194608613233e-05
2.35540540540541e-01 5.63867963160363e-02 9.15631594601318e-05
3.02837837837838e-01 5.58630681751781e-02 1.03175631529347e-04
3.70135135135135e-01 5.53442044920071e-02 1.13180539183680e-04
4.37432432432432e-01 5.48301600834864e-02 1.22005581193342e-04
5.04729729729730e-01 5.43208901888978e-02 1.29909890403197e-04
5.72027027027027e-01 5.38163504617662e-02 1.37065891308434e-04
6.39324324324324e-01 5.33164969668061e-02 1.43595844937747e-04
7.06621621621622e-01 5.28212861785434e-02 1.49590546065141e-04
7.73918918918919e-01 5.23306749748138e-02 1.55119842360791e-04
8.41216216216216e-01 5.18446206334284e-02 1.60238984207008e-04
9.08513513513514e-01 5.13630808302765e-02 1.64992673381504e-04
9.75810810810811e-01 5.08860136336789e-02 1.69417759417181e-04
1.04310810810811e+00 5.04133775009676e-02 1.73545100428874e-04
1.11040540540541e+00 4.99451312749637e-02 1.77400886045952e-04
1.17770270270270e+00 4.94812341858575e-02 1.81007604016858e-04
1.24500000000000e+00 4.90216458341775e-02 1.84384759217653e-04
1.31229729729730e+00 4.85663261998799e-02 1.87549419546590e-04
1.37959459459459e+00 4.81152356346261e-02 1.90516639218815e-04
1.44689189189189e+00 4.76683348615402e-02 1.93299790605658e-04
1.51418918918919e+00 4.72255849620598e-02 1.95910826696730e-04
1.58148648648649e+00 4.67869473823572e-02 1.98360491938475e-04
1.64878378378378e+00 4.63523839267248e-02 2.00658494876266e-04
1.71608108108108e+00 4.59218567568025e-02 2.02813649754261e-04
1.78337837837838e+00 4.54953283804199e-02 2.04833992660981e-04
1.85067567567568e+00 4.50727616562739e-02 2.06726878068629e-04
1.91797297297297e+00 4.46541197902777e-02 2.08499062500241e-04
1.98527027027027e+00 4.42393663255930e-02 2.10156773031692e-04
2.05256756756757e+00 4.38284651462639e-02 2.11705765818291e-04
2.11986486486487e+00 4.34213804717767e-02 2.13151377329483e-04
2.18716216216216e+00 4.30180768558364e-02 2.14498568454144e-04
2.25445945945946e+00 4.26185191775786e-02 2.15751961815301e-04
2.32175675675676e+00 4.22226726442538e-02 2.16915874168093e-04
2.38905405405405e+00 4.18305027862790e-02 2.17994345707634e-04
2.45635135135135e+00 4.14419754558394e-02 2.18991165756637e-04
2.52364864864865e+00 4.10570568190323e-02 2.19909894588401e-04
2.59094594594595e+00 4.06757133578396e-02 2.20753882465351e-04
2.65824324324324e+00 4.02979118670089e-02 2.21526288458502e-04
2.72554054054054e+00 3.99236194468046e-02 2.22230095399070e-04
2.79283783783784e+00 3.95528035045286e-02 2.22868123392876e-04
2.86013513513514e+00 3.91854317502019e-02 2.23443042768964e-04
2.92743243243243e+00 3.88214721950201e-02 2.23957385681004e-04
2.99472972972973e+00 3.84608931447584e-02 2.24413555861280e-04
3.06202702702703e+00 3.81036632008471e-02 2.24813837389707e-04
3.12932432432432e+00 3.77497512563522e-02 2.25160403410528e-04
3.19662162162162e+00 3.73991264943749e-02 2.25455324011007e-04
3.26391891891892e+00 3.70517583820087e-02 2.25700572736644e-04
3.33121621621622e+00 3.67076166710638e-02 2.25898032330363e-04
3.39851351351351e+00 3.63666713953116e-02 2.26049501504612e-04
3.46581081081081e+00 3.60288928648215e-02 2.26156699680268e-04
3.53310810810811e+00 3.56942516664517e-02 2.26221271468269e-04
3.60040540540541e+00 3.53627186602485e-02 2.26244791457788e-04
3.66770270270270e+00 3.50342649778184e-02 2.26228768591950e-04
3.73500000000000e+00 3.47088620170846e-02 2.26174649630608e-04
3.80229729729730e+00 3.43864814425438e-02 2.26083822318899e-04
3.86959459459460e+00 3.40670951818762e-02 2.25957618943574e-04
3.93689189189189e+00 3.37506754243119e-02 2.25797319596584e-04
4.00418918918919e+00 3.34371946157592e-02 2.25604154666438e-04
4.07148648648649e+00 3.31266254588716e-02 2.25379307126870e-04
4.13878378378378e+00 3.28189409098468e-02 2.25123915250151e-04
4.20608108108108e+00 3.25141141767988e-02 2.24839075104938e-04
4.27337837837838e+00 3.22121187152151e-02 2.24525842381933e-04
4.34067567567568e+00 3.19129282278713e-02 2.24185233950918e-04
4.40797297297297e+00 3.16165166624723e-02 2.23818230483640e-04
4.47527027027027e+00 3.13228582073409e-02 2.23425777780100e-04
4.54256756756757e+00 3.10319272912261e-02 2.23008788119431e-04
4.60986486486487e+00 3.07436985803850e-02 2.22568142042258e-04
4.67716216216216e+00 3.04581469769919e-02 2.22104689997122e-04
4.74445945945946e+00 3.01752476150981e-02 2.21619253441105e-04
4.81175675675676e+00 2.98949758603331e-02 2.21112625856314e-04
4.87905405405405e+00 2.96173073071353e-02 2.20585574190962e-04
4.94635135135135e+00 2.93422177771839e-02 2.20038840191808e-04
5.01364864864865e+00 2.90696833156033e-02 2.19473141240117e-04
5.08094594594595e+00 2.87996801905788e-02 2.18889171019248e-04
5.14824324324324e+00 2.85321848912421e-02 2.18287601119204e-04
5.21554054054054e+00 2.82671741240494e-02 2.17669081608191e-04
5.28283783783784e+00 2.80046248123377e-02 2.17034241666178e-04
5.35013513513514e+00 2.77445140937817e-02 2.16383690615736e-04
5.41743243243243e+00 2.74868193188822e-02 2.15718018875630e-04
5.48472972972973e+00 2.72315180475515e-02 2.15037798489050e-04
5.55202702702703e+00 2.69785880486110e-02 2.14343583610779e-04
5.61932432432432e+00 2.67280072973683e-02 2.13635911375840e-04
5.68662162162162e+00 2.64797539741376e-02 2.12915302702741e-04
5.75391891891892e+00 2.62338064610151e-02 2.12182262702007e-04
5.82121621621622e+00 2.59901433413299e-02 2.11437280963831e-04
5.88851351351351e+00 2.57487433977424e-02 2.10680832652754e-04
5.95581081081081e+00 2.55095856091576e-02 2.09913378750266e-04
6.02310810810811e+00 2.52726491501428e-02 2.09135366366189e-04
6.09040540540541e+00 2.50379133886935e-02 2.08347229399214e-04
6.15770270270270e+00 2.48053578848163e-02 2.07549389147058e-04
6.22500000000000e+00 2.45749623876068e-02 2.06742254569705e-04
6.29229729729730e+00 2.43467068346361e-02 2.05926222529855e-04
6.35959459459460e+00 2.41205713498177e-02 2.05101678366463e-04
6.42689189189189e+00 2.38965362420260e-02 2.04268996423973e-04
6.49418918918919e+00 2.36745820023266e-02 2.03428540256330e-04
6.56148648648649e+00 2.34546893033397e-02 2.02580662812166e-04
6.62878378378378e+00 2.32368389972012e-02 2.01725706937159e-04
6.69608108108108e+00 2.30210121142181e-02 2.00864005837094e-04
6.76337837837838e+00 2.28071898602397e-02 1.99995883235138e-04
6.83067567567568e+00 2.25953536160047e-02 1.99121653442788e-04
6.89797297297297e+00 2.23854849354944e-02 1.98241622087660e-04
6.96527027027027e+00 2.21775655434075e-02 1.97356086166448e-04
7.03256756756757e+00 2.19715773344939e-02 1.96465334161075e-04
7.09986486486487e+00 2.17675023716670e-02 1.95569646443359e-04
7.16716216216216e+00 2.15653228847247e-02 1.94669295647176e-04
7.23445945945946e+00 2.13650212679492e-02 1.93764546767365e-04
7.30175675675676e+00 2.11665800794320e-02 1.92855657246758e-04
7.36905405405405e+00 2.09699820392680e-02 1.91942877337603e-04
7.43635135135135e+00 2.07752100283119e-02 1.91026450433498e-04
7.50364864864865e+00 2.05822470858961e-02 1.90106613143329e-04
7.57094594594595e+00 2.03910764091505e-02 1.89183595294270e-04
7.63824324324324e+00 2.02016813515202e-02 1.88257620500111e-04
7.70554054054054e+00 2.00140454205680e-02 1.87328906154604e-04
7.77283783783784e+00 1.98281522772911e-02 1.86397663481663e-04
7.84013513513514e+00 1.96439857344451e-02 1.85464097835130e-04
7.90743243243243e+00 1.94615297553657e-02 1.84528408973358e-04
7.97472972972973e+00 1.92807684518753e-02 1.83590791101483e-04
8.04202702702703e+00 1.91016860836011e-02 1.82651432905671e-04
8.10932432432432e+00 1.89242670563690e-02 1.81710517824689e-04
8.17662162162162e+00 1.87484959210607e-02 1.80768224298400e-04
8.24391891891892e+00 1.85743573716188e-02 1.79824725796159e-04
8.31121621621622e+00 1.84018362443678e-02 1.78880190785860e-04
8.37851351351351e+00 1.82309175166781e-02 1.77934783190941e-04
8.44581081081081e+00 1.80615863050430e-02 1.76988662353982e-04
8.51310810810811e+00 1.78938278644020e-02 1.76041983050824e-04
8.58040540540541e+00 1.77276275866480e-02 1.75094895720726e-04
8.64770270270270e+00 1.75629709995462e-02 1.74147546676421e-04
8.71500000000000e+00 1.73998437648999e-02 1.73200078114997e-04
8.78229729729730e+00 1.72382316778793e-02 1.72252628123028e-04
8.84959459459460e+00 1.70781206655910e-02 1.71305330887359e-04
8.91689189189189e+00 1.69194967860303e-02 1.70358316887238e-04
8.98418918918919e+00 1.67623462263304e-02 1.69411712897383e-04
9.05148648648649e+00 1.66066553020996e-02 1.68465641985961e-04
9.11878378378379e+00 1.64524104560488e-02 1.67520223708235e-04
9.18608108108108e+00 1.62995982569773e-02 1.66575574282860e-04
9.25337837837838e+00 1.61482053981004e-02 1.65631806588588e-04
9.32067567567568e+00 1.59982186963967e-02 1.64689030113542e-04
9.38797297297297e+00 1.58496250914487e-02 1.63747351306027e-04
9.45527027027027e+00 1.57024116438279e-02 1.62806873521341e-04
9.52256756756757e+00 1.55565655344489e-02 1.61867697010869e-04
9.58986486486487e+00 1.54120740632914e-02 1.60929919089657e-04
9.65716216216216e+00 1.52689246484427e-02 1.59993634288660e-04
9.72445945945946e+00 1.51271048245549e-02 1.59058934343724e-04
9.79175675675676e+00 1.49866022422097e-02 1.58125908180707e-04
9.85905405405406e+00 1.48474046666916e-02 1.57194642070580e-04
9.92635135135135e+00 1.47094999770617e-02 1.56265219770149e-04
9.99364864864865e+00 1.45728761646829e-02 1.55337722507515e-04
1.00609459459459e+01 1.44375213325959e-02 1.54412228964049e-04
1.01282432432432e+01 1.43034236943425e-02 1.53488815455239e-04
1.01955405405405e+01 1.41705715729385e-02 1.52567555949422e-04
1.02628378378378e+01 1.40389533998571e-02 1.51648522125005e-04
1.03301351351351e+01 1.39085577140216e-02 1.50731783426271e-04
1.03974324324324e+01 1.37793731608072e-02 1.49817407117758e-04
1.04647297297297e+01 1.36513884910523e-02 1.48905458337197e-04
1.05320270270270e+01 1.35245925600792e-02 1.47996000147069e-04
1.05993243243243e+01 1.33989743267233e-02 1.47089093584855e-04
1.06666216216216e+01 1.32745228523717e-02 1.46184797711985e-04
1.07339189189189e+01 1.31512273000109e-02 1.45283169661524e-04
1.08012162162162e+01 1.30290769332831e-02 1.44384264684661e-04
1.08685135135135e+01 1.29080611155510e-02 1.43488136196016e-04
1.09358108108108e+01 1.27881693089720e-02 1.42594835817802e-04
1.10031081081081e+01 1.26693910735801e-02 1.41704413422874e-04
1.10704054054054e+01 1.25517160663775e-02 1.40816917176709e-04
1.11377027027027e+01 1.24351340404331e-02 1.39932393578347e-04
1.12050000000000e+01 1.23196348439909e-02 1.39050887198432e-04
1.12722972972973e+01 1.22052084205956e-02 1.38172441630220e-04
1.13395945945946e+01 1.20918448051627e-02 1.37297098916542e-04
1.14068918918919e+01 1.19795341261901e-02 1.36424898965904e-04
1.14741891891892e+01 1.18682666038631e-02 1.35555880524643e-04
1.15414864864865e+01 1.17580325492037e-02 1.34690080897957e-04
1.16087837837838e+01 1.16488223632262e-02 1.33827535984313e-04
1.16760810810811e+01 1.15406265361014e-02 1.32968280309004e-04
1.17433783783784e+01 1.14334356463289e-02 1.32112347056950e-04
1.18106756756757e+01 1.13272403599164e-02 1.31259768104701e-04
1.18779729729730e+01 1.12220314295667e-02 1.30410574051639e-04
1.19452702702703e+01 1.11177996938731e-02 1.29564794250478e-04
1.20125675675676e+01 1.10145360765210e-02 1.28722456837029e-04
1.20798648648649e+01 1.09122315854979e-02 1.27883588759256e-04
1.21471621621622e+01 1.08108773123102e-02 1.27048215805672e-04
1.22144594594595e+01 1.07104644312078e-02 1.26216362633036e-04
1.22817567567568e+01 1.06109841984150e-02 1.25388052793413e-04
1.23490540540541e+01 1.05124279513698e-02 1.24563308760619e-04
1.24163513513514e+01 1.04147871079690e-02 1.23742151956041e-04
1.24836486486486e+01 1.03180531658212e-02 1.22924602773914e-04
1.25509459459459e+01 1.02222177015060e-02 1.22110680605832e-04
1.26182432432432e+01 1.01272723698414e-02 1.21300403864830e-04
1.26855405405405e+01 1.00332089031561e-02 1.20493790009021e-04
1.27528378378378e+01 9.94001911057029e-03 1.19690855564512e-04
1.28201351351351e+01 9.84769487728216e-03 1.18891616147855e-04
1.28874324324324e+01 9.75622816386117e-03 1.18096086487988e-04
1.29547297297297e+01 9.66561100554807e-03 1.17304280447672e-04
1.30220270270270e+01 9.57583551156140e-03 1.16516211044462e-04
1.30893243243243e+01 9.48689386441028e-03 1.15731890471181e-04
1.31566216216216e+01 9.39877831921377e-03 1.14951330115938e-04
1.32239189189189e+01 9.31148120302636e-03 1.14174540581684e-04
1.32912162162162e+01 9.22499491416993e-03 1.13401531705359e-04
1.33585135135135e+01 9.13931192157172e-03 1.12632312576594e-04
1.34258108108108e+01 9.05442476410858e-03 1.11866891555974e-04
1.34931081081081e+01 8.97032604995729e-03 1.11105276292918e-04
1.35604054054054e+01 8.88700845595083e-03 1.10347473743156e-04
1.36277027027027e+01 8.80446472694075e-03 1.09593490185807e-04
1.36950000000000e+01 8.72268767516538e-03 1.08843331046722e-04
1.37622972972973e+01 8.64167018020930e-03 1.08097001498973e-04
1.38295945945946e+01 8.56140518661357e-03 1.07354506087620e-04
1.38968918918919e+01 8.48188570504494e-03 1.06615848347550e-04
1.39641891891892e+01 8.40310481108801e-03 1.05881031418172e-04
1.40314864864865e+01 8.32505564464228e-03 1.05150057857151e-04
1.40987837837838e+01 8.24773140932476e-03 1.04422929654996e-04
1.41660810810811e+01 8.17112537187818e-03 1.03699648249378e-04
1.42333783783784e+01 8.09523086158465e-03 1.02980214539093e-04
1.43006756756757e+01 8.02004126968480e-03 1.02264628897741e-04
1.43679729729730e+01 7.94555004880229e-03 1.01552891187099e-04
1.44352702702703e+01 7.87175071237369e-03 1.00845000770196e-04
1.45025675675676e+01 7.79863683408361e-03 1.00140956524107e-04
1.45698648648649e+01 7.72620204730517e-03 9.94407568524818e-05
1.46371621621622e+01 7.65444004454553e-03 9.87443996977875e-05
1.47044594594595e+01 7.58334457689671e-03 9.80518825532763e-05
1.47717567567568e+01 7.51290945349140e-03 9.73632024747156e-05
1.48390540540541e+01 7.44312854096389e-03 9.66783560918502e-05
1.49063513513514e+01 7.37399576291600e-03 9.59973396196183e-05
1.49736486486487e+01 7.30550509938794e-03 9.53201488691487e-05
1.50409459459459e+01 7.23765058633400e-03 9.46467792584436e-05
1.51082432432432e+01 7.17042631510346e-03 9.39772258228899e-05
1.51755405405405e+01 7.10382643192587e-03 9.33114832255826e-05
1.52428378378378e+01 7.03784513740143e-03 9.26495457673552e-05
1.53101351351351e+01 6.97247668599591e-03 9.19914073966210e-05
1.53774324324324e+01 6.90771538554037e-03 9.13370617189946e-05
1.54447297297297e+01 6.84355559673551e-03 9.06865020067161e-05
1.55120270270270e+01 6.77999173266057e-03 9.00397212078657e-05
1.55793243243243e+01 6.71701825828688e-03 8.93967119553806e-05
1.56466216216216e+01 6.65462968999583e-03 8.87574665758772e-05
1.57139189189189e+01 6.59282059510140e-03 8.81219770982852e-05
1.57812162162162e+01 6.53158559137708e-03 8.74902352622998e-05
1.58485135135135e+01 6.47091934658720e-03 8.68622325266423e-05
1.59158108108108e+01 6.41081657802260e-03 8.62379600771464e-05
1.59831081081081e+01 6.35127205204063e-03 8.56174088346848e-05
1.60504054054054e+01 6.29228058360941e-03 8.50005694629090e-05
1.61177027027027e+01 6.23383703585633e-03 8.43874323758147e-05
1.61850000000000e+01 6.17593631962074e-03 8.37779876191996e-05
1.62522972972973e+01 6.11857339336159e-03 8.31722252584121e-05
1.63195945945946e+01 6.06174326165809e-03 8.25701351306902e-05
1.63868918918919e+01 6.00544097584309e-03 8.19717065929969e-05
1.64541891891892e+01 5.94966163321334e-03 8.13769289191889e-05
1.65214864864865e+01 5.89440037660252e-03 8.07857911756478e-05
1.65887837837838e+01 5.83965239395834e-03 8.01982822277761e-05
1.66560810810811e+01 5.78541291792348e-03 7.96143907463727e-05
1.67233783783784e+01 5.73167722542049e-03 7.90341052138610e-05
1.67906756756757e+01 5.67844063724046e-03 7.84574139303828e-05
1.68579729729730e+01 5.62569851763562e-03 7.78843050197688e-05
1.69252702702703e+01 5.57344627391564e-03 7.73147664353628e-05
1.69925675675676e+01 5.52167935604771e-03 7.67487859657448e-05
1.70598648648649e+01 5.47039325626032e-03 7.61863512403102e-05
1.71271621621622e+01 5.41958350865076e-03 7.56274497347348e-05
1.71944594594595e+01 5.36924568879620e-03 7.50720687763199e-05
1.72617567567568e+01 5.31937541336846e-03 7.45201955492271e-05
1.73290540540541e+01 5.26996833975227e-03 7.39718170995922e-05
1.73963513513514e+01 5.22102016566718e-03 7.34269203405312e-05
1.74636486486487e+01 5.17252662879288e-03 7.28854920570594e-05
1.75309459459459e+01 5.12448350639802e-03 7.23475189108452e-05
1.75982432432432e+01 5.07688661497257e-03 7.18129874448960e-05
1.76655405405405e+01 5.02973180986352e-03 7.12818840881742e-05
1.77328378378378e+01 4.98301498491395e-03 7.07541951600630e-05
1.78001351351351e+01 4.93673207210546e-03 7.02299068747591e-05
1.78674324324324e+01 4.89087904120395e-03 6.97090053455579e-05
1.79347297297297e+01 4.84545189940869e-03 6.91914765890426e-05
1.80020270270270e+01 4.80044669100458e-03 6.86773065291963e-05
1.80693243243243e+01 4.75585949701778e-03 6.81664810014131e-05
1.81366216216216e+01 4.71168643487435e-03 6.76589857564187e-05
1.82039189189189e+01 4.66792365806225e-03 6.71548064641097e-05
1.82712162162162e+01 4.62456735579635e-03 6.66539287173055e-05
1.83385135135135e+01 4.58161375268659e-03 6.61563380354167e-05
1.84058108108108e+01 4.53905910840924e-03 6.56620198680344e-05
1.84731081081081e+01 4.49689971738122e-03 6.51709595984355e-05
1.85404054054054e+01 4.45513190843736e-03 6.46831425470174e-05
1.86077027027027e+01 4.41375204451079e-03 6.41985539746407e-05
1.86750000000000e+01 4.37275652231619e-03 6.37171790028759e-05
1.87422972972973e+01 4.33214177225139e-03 6.32390028680119e-05
1.88095945945946e+01 4.29190425743572e-03 6.27640107562824e-05
1.88768918918919e+01 4.25204047405769e-03 6.22921876361257e-05
1.89441891891892e+01 4.21254695084963e-03 6.18235185184651e-05
1.90114864864865e+01 4.17342024878550e-03 6.13579883732834e-05
1.90787837837838e+01 4.13465696078137e-03 6.08955821324822e-05
1.91460810810811e+01 4.09625371139877e-03 6.04362846926709e-05
1.92133783783784e+01 4.05820715655075e-03 5.99800809178928e-05
1.92806756756757e+01 4.02051398321070e-03 5.95269556422965e-05
1.93479729729730e+01 3.98317090912382e-03 5.90768936727371e-05
1.94152702702703e+01 3.94617468252135e-03 5.86298797913177e-05
1.94825675675676e+01 3.90952208183737e-03 5.81858987578815e-05
1.95498648648649e+01 3.87320991542833e-03 5.77449353124325e-05
1.96171621621622e+01 3.83723502129506e-03 5.73069741775065e-05
1.96844594594595e+01 3.80159426680747e-03 5.68720000604902e-05
1.97517567567568e+01 3.76628454843176e-03 5.64399976558798e-05
1.98190540540541e+01 3.73130279146017e-03 5.60109516474931e-05
1.98863513513514e+01 3.69664594974322e-03 5.55848467106197e-05
1.99536486486486e+01 3.66231100542449e-03 5.51616675141338e-05
2.00209459459459e+01 3.62829496867778e-03 5.47413987225350e-05
2.00882432432432e+01 3.59459487744683e-03 5.43240249979478e-05
2.01555405405405e+01 3.56120779718734e-03 5.39095310021015e-05
2.02228378378378e+01 3.52813082061147e-03 5.34979013982293e-05
2.02901351351351e+01 3.49536106743464e-03 5.30891208529327e-05
2.03574324324324e+01 3.46289568412473e-03 5.26831740379970e-05
2.04247297297297e+01 3.43073184365364e-03 5.22800456321633e-05
2.04920270270270e+01 3.39886674525105e-03 5.18797203228621e-05
2.05593243243243e+01 3.36729761416059e-03 5.14821828078991e-05
2.06266216216216e+01 3.33602170139819e-03 5.10874177971009e-05
2.06939189189189e+01 3.30503628351271e-03 5.06954100139210e-05
2.07612162162162e+01 3.27433866234881e-03 5.03061441970016e-05
2.08285135135135e+01 3.24392616481194e-03 4.99196051016987e-05
2.08958108108108e+01 3.21379614263563e-03 4.95357775015661e-05
2.09631081081081e+01 3.18394597215087e-03 4.91546461898110e-05
2.10304054054054e+01 3.15437305405763e-03 4.87761959806992e-05
2.10977027027027e+01 3.12507481319852e-03 4.84004117109282e-05
2.11650000000000e+01 3.09604869833457e-03 4.80272781857394e-05
2.12322972972973e+01 3.06729218205759e-03 4.76567803470255e-05
