Energy (eV)          EEDF (eV^-(3/2))     First Anisotropy
5.31707317073171e-03 7.93207554083551e-01 4.60424765670635e-04
1.59512195121951e-02 7.86547919961768e-01 7.59654323893797e-04
2.65853658536585e-02 7.79944198960375e-01 1.00114149006094e-03
3.72195121951220e-02 7.73395921677089e-01 1.18357686579004e-03
4.78536585365854e-02 7.66902622593043e-01 1.33488488276116e-03
5.84878048780488e-02 7.60463840137919e-01 1.46564711693438e-03
6.91219512195122e-02 7.54079116595883e-01 1.58135122139311e-03
7.97560975609756e-02 7.47747998088955e-01 1.68531791601084e-03
9.03902439024390e-02 7.41470034566614e-01 1.77975407737931e-03
1.01024390243902e-01 7.35244779741806e-01 1.86622264910669e-03
1.11658536585366e-01 7.29071791109030e-01 1.94588294271937e-03
1.22292682926829e-01 7.22950629791399e-01 2.01962575060059e-03
1.32926829268293e-01 7.16880860708538e-01 2.08815488309010e-03
1.43560975609756e-01 7.10862052375829e-01 2.15203913905713e-03
1.54195121951220e-01 7.04893776895504e-01 2.21174686784408e-03
1.64829268292683e-01 6.98975610042412e-01 2.26766984123630e-03
1.75463414634146e-01 6.93107131110553e-01 2.32014022296243e-03
1.86097560975610e-01 6.87287922896694e-01 2.36944291354836e-03
1.96731707317073e-01 6.81517571764211e-01 2.41582477408894e-03
2.07365853658537e-01 6.75795667515749e-01 2.45950163180394e-03
2.18000000000000e-01 6.70121803373189e-01 2.50066366520652e-03
2.28634146341463e-01 6.64495576026318e-01 2.53947964982634e-03
2.39268292682927e-01 6.58916585500328e-01 2.57610031782113e-03
2.49902439024390e-01 6.53384435227211e-01 2.61066105649942e-03
2.60536585365854e-01 6.47898731943156e-01 2.64328411294500e-03
2.71170731707317e-01 6.42459085666428e-01 2.67408037774084e-03
2.81804878048781e-01 6.37065109730967e-01 2.70315088146901e-03
2.92439024390244e-01 6.31716420695572e-01 2.73058804333372e-03
3.03073170731707e-01 6.26412638321232e-01 2.75647670036493e-03
3.13707317073171e-01 6.21153385597239e-01 2.78089499744526e-03
3.24341463414634e-01 6.15938288659600e-01 2.80391514549487e-03
3.34975609756098e-01 6.10766976768174e-01 2.82560405236507e-03
3.45609756097561e-01 6.05639082326943e-01 2.84602388408437e-03
3.56243902439024e-01 6.00554240809876e-01 2.86523255097135e-03
3.66878048780488e-01 5.95512090738084e-01 2.88328411325833e-03
3.77512195121951e-01 5.90512273695450e-01 2.90022915221975e-03
3.88146341463415e-01 5.85554434260645e-01 2.91611509601353e-03
3.98780487804878e-01 5.80638219984449e-01 2.93098649065709e-03
4.09414634146341e-01 5.75763281401624e-01 2.94488525530259e-03
4.20048780487805e-01 5.70929271968124e-01 2.95785090891090e-03
4.30682926829268e-01 5.66135848038661e-01 2.96992075701407e-03
4.41317073170732e-01 5.61382668875514e-01 2.98113007325290e-03
4.51951219512195e-01 5.56669396590177e-01 2.99151226212123e-03
4.62585365853659e-01 5.51995696121249e-01 3.00109899103157e-03
4.73219512195122e-01 5.47361235240687e-01 3.00992032315874e-03
4.83853658536585e-01 5.42765684499350e-01 3.01800483751665e-03
4.94487804878049e-01 5.38208717205190e-01 3.02537972434446e-03
5.05121951219512e-01 5.33690009427426e-01 3.03207088476188e-03
5.15756097560976e-01 5.29209239945481e-01 3.03810302150350e-03
5.26390243902439e-01 5.24766090227529e-01 3.04349970902687e-03
5.37024390243902e-01 5.20360244432908e-01 3.04828346992485e-03
5.47658536585366e-01 5.15991389364079e-01 3.05247584494389e-03
5.58292682926829e-01 5.11659214445541e-01 3.05609744525742e-03
5.68926829268293e-01 5.07363411724774e-01 3.05916801220514e-03
5.79560975609756e-01 5.03103675826873e-01 3.06170647234525e-03
5.90195121951220e-01 4.98879703933884e-01 3.06373097688568e-03
6.00829268292683e-01 4.94691195784467e-01 3.06525894920608e-03
6.11463414634146e-01 4.90537853630973e-01 3.06630712887543e-03
6.22097560975610e-01 4.86419382219176e-01 3.06689160166928e-03
6.32731707317073e-01 4.82335488786877e-01 3.06702783796811e-03
6.43365853658537e-01 4.78285883023171e-01 3.06673072848825e-03
6.54000000000000e-01 4.74270277048601e-01 3.06601460728953e-03
6.64634146341463e-01 4.70288385412851e-01 3.06489328432623e-03
6.75268292682927e-01 4.66339925050266e-01 3.06338007051189e-03
6.85902439024390e-01 4.62424615283466e-01 3.06148780085767e-03
6.96536585365854e-01 4.58542177785635e-01 3.05922886167985e-03
7.07170731707317e-01 4.54692336561406e-01 3.05661520542750e-03
7.17804878048781e-01 4.50874817943503e-01 3.05365837395044e-03
7.28439024390244e-01 4.47089350556776e-01 3.05036952036172e-03
7.39073170731707e-01 4.43335665299526e-01 3.04675942047295e-03
7.49707317073171e-01 4.39613495339519e-01 3.04283849248521e-03
7.60341463414634e-01 4.35922576079642e-01 3.03861681554175e-03
7.70975609756098e-01 4.32262645139657e-01 3.03410413852691e-03
7.81609756097561e-01 4.28633442351683e-01 3.02930989689923e-03
7.92243902439024e-01 4.25034709727349e-01 3.02424322858995e-03
8.02878048780488e-01 4.21466191439977e-01 3.01891298073588e-03
8.13512195121951e-01 4.17927633819609e-01 3.01332772420297e-03
8.24146341463415e-01 4.14418785321551e-01 3.00749576733274e-03
8.34780487804878e-01 4.10939396508981e-01 3.00142516104422e-03
8.45414634146342e-01 4.07489220047582e-01 2.99512371147155e-03
8.56048780487805e-01 4.04068010675401e-01 2.98859899194771e-03
8.66682926829268e-01 4.00675525185852e-01 2.98185834681034e-03
8.77317073170732e-01 3.97311522422041e-01 2.97490890248404e-03
8.87951219512195e-01 3.93975763247827e-01 2.96775757800698e-03
8.98585365853659e-01 3.90668010531240e-01 2.96041108780144e-03
9.09219512195122e-01 3.87388029138526e-01 2.95287595146064e-03
9.19853658536585e-01 3.84135585906361e-01 2.94515850306144e-03
9.30487804878049e-01 3.80910449625651e-01 2.93726489310371e-03
9.41121951219512e-01 3.77712391035359e-01 2.92920109720855e-03
9.51756097560976e-01 3.74541182795793e-01 2.92097292441123e-03
9.62390243902439e-01 3.71396599472794e-01 2.91258601843109e-03
9.73024390243903e-01 3.68278417531371e-01 2.90404586544855e-03
9.83658536585366e-01 3.65186415310011e-01 2.89535780153386e-03
9.94292682926829e-01 3.62120373005238e-01 2.88652701337573e-03
1.00492682926829e+00 3.59080072665103e-01 2.87755854393819e-03
1.01556097560976e+00 3.56065298170224e-01 2.86845730517473e-03
1.02619512195122e+00 3.53075835192688e-01 2.85922807224576e-03
1.03682926829268e+00 3.50111471221634e-01 2.84987547925354e-03
1.04746341463415e+00 3.47171995558168e-01 2.84040405255377e-03
1.05809756097561e+00 3.44257199216598e-01 2.83081819110644e-03
1.06873170731707e+00 3.41366875020436e-01 2.82112217583949e-03
1.07936585365854e+00 3.38500817479226e-01 2.81132018067613e-03
1.09000000000000e+00 3.35658822854537e-01 2.80141625024384e-03
1.10063414634146e+00 3.32840689143747e-01 2.79141434089505e-03
1.11126829268293e+00 3.30046215989556e-01 2.78131830525446e-03
1.12190243902439e+00 3.27275204742215e-01 2.77113187695560e-03
1.13253658536585e+00 3.24527458443781e-01 2.76085870990594e-03
1.14317073170732e+00 3.21802781741829e-01 2.75050235750132e-03
1.15380487804878e+00 3.19100980971180e-01 2.74006628041242e-03
1.16443902439024e+00 3.16421864046508e-01 2.72955385586025e-03
1.17507317073171e+00 3.13765240518360e-01 2.71896835706837e-03
1.18570731707317e+00 3.11130921558097e-01 2.70831298958631e-03
1.19634146341463e+00 3.08518719878608e-01 2.69759087688530e-03
1.20697560975610e+00 3.05928449787184e-01 2.68680504616581e-03
1.21760975609756e+00 3.03359927170967e-01 2.67595846321167e-03
1.22824390243902e+00 3.00812969421156e-01 2.66505401836302e-03
1.23887804878049e+00 2.98287395483020e-01 2.65409451268367e-03
1.24951219512195e+00 2.95783025841715e-01 2.64308269143055e-03
1.26014634146341e+00 2.93299682449859e-01 2.63202122546047e-03
1.27078048780488e+00 2.90837188793862e-01 2.62091271748981e-03
1.28141463414634e+00 2.88395369803939e-01 2.60975970963436e-03
1.29204878048780e+00 2.85974051899318e-01 2.59856466507979e-03
1.30268292682927e+00 2.83573062974699e-01 2.58732999920147e-03
1.31331707317073e+00 2.81192232333380e-01 2.57605806661237e-03
1.32395121951220e+00 2.78831390730020e-01 2.56475114840068e-03
1.33458536585366e+00 2.76490370357532e-01 2.55341148206404e-03
1.34521951219512e+00 2.74169004783025e-01 2.54204124892287e-03
1.35585365853659e+00 2.71867128988344e-01 2.53064256171976e-03
1.36648780487805e+00 2.69584579357269e-01 2.51921749342754e-03
1.37712195121951e+00 2.67321193614196e-01 2.50776806071085e-03
1.38775609756098e+00 2.65076810878424e-01 2.49629622908681e-03
1.39839024390244e+00 2.62851271588124e-01 2.48480391918729e-03
1.40902439024390e+00 2.60644417537101e-01 2.47329299047780e-03
1.41965853658537e+00 2.58456091862588e-01 2.46176526814427e-03
1.43029268292683e+00 2.56286138988396e-01 2.45022253151976e-03
1.44092682926829e+00 2.54134404659772e-01 2.43866650268737e-03
1.45156097560976e+00 2.52000735931542e-01 2.42709887238809e-03
1.46219512195122e+00 2.49884981113579e-01 2.41552128878288e-03
1.47282926829268e+00 2.47786989803900e-01 2.40393534639671e-03
1.48346341463415e+00 2.45706612877085e-01 2.39234261109018e-03
1.49409756097561e+00 2.43643702431990e-01 2.38074460538236e-03
1.50473170731707e+00 2.41598111836490e-01 2.36914281278185e-03
1.51536585365854e+00 2.39569695662785e-01 2.35753868306903e-03
1.52600000000000e+00 2.37558309717491e-01 2.34593361785758e-03
1.53663414634146e+00 2.35563811030606e-01 2.33432899396767e-03
1.54726829268293e+00 2.33586057806875e-01 2.32272615311842e-03
1.55790243902439e+00 2.31624909454369e-01 2.31112639178030e-03
1.56853658536585e+00 2.29680226573755e-01 2.29953098372645e-03
1.57917073170732e+00 2.27751870911570e-01 2.28794116661671e-03
1.58980487804878e+00 2.25839705399177e-01 2.27635814582906e-03
1.60043902439024e+00 2.23943594095086e-01 2.26478309914765e-03
1.61107317073171e+00 2.22063402211028e-01 2.25321716356698e-03
1.62170731707317e+00 2.20198996101665e-01 2.24166145643629e-03
1.63234146341463e+00 2.18350243221082e-01 2.23011706600185e-03
1.64297560975610e+00 2.16517012147547e-01 2.21858504210510e-03
1.65360975609756e+00 2.14699172573534e-01 2.20706641659852e-03
1.66424390243902e+00 2.12896595263871e-01 2.19556219417706e-03
1.67487804878049e+00 2.11109152079296e-01 2.18407334335446e-03
1.68551219512195e+00 2.09336715966732e-01 2.17260081618133e-03
1.69614634146341e+00 2.07579160919043e-01 2.16114553634420e-03
1.70678048780488e+00 2.05836362007452e-01 2.14970840244687e-03
1.71741463414634e+00 2.04108195331982e-01 2.13829029203555e-03
1.72804878048781e+00 2.02394538042976e-01 2.12689204989603e-03
1.73868292682927e+00 2.00695268331790e-01 2.11551450657624e-03
1.74931707317073e+00 1.99010265393219e-01 2.10415846997787e-03
1.75995121951220e+00 1.97339409445961e-01 2.09282471708275e-03
1.77058536585366e+00 1.95682581723585e-01 2.08151401185323e-03
1.78121951219512e+00 1.94039664438341e-01 2.07022709707969e-03
1.79185365853659e+00 1.92410540800665e-01 2.05896468635805e-03
1.80248780487805e+00 1.90795095010352e-01 2.04772748139229e-03
1.81312195121951e+00 1.89193212221736e-01 2.03651616143312e-03
1.82375609756098e+00 1.87604778570789e-01 2.02533138611045e-03
1.83439024390244e+00 1.86029681132335e-01 2.01417379891354e-03
1.84502439024390e+00 1.84467807937897e-01 2.00304401680543e-03
1.85565853658537e+00 1.82919047967251e-01 1.99194264650286e-03
1.86629268292683e+00 1.81383291115846e-01 1.98087027699811e-03
1.87692682926829e+00 1.79860428211789e-01 1.96982747220138e-03
1.88756097560976e+00 1.78350351007641e-01 1.95881478668485e-03
1.89819512195122e+00 1.76852952149009e-01 1.94783275842914e-03
1.90882926829268e+00 1.75368125190749e-01 1.93688190169136e-03
1.91946341463415e+00 1.73895764588952e-01 1.92596272223291e-03
1.93009756097561e+00 1.72435765670689e-01 1.91507570793977e-03
1.94073170731707e+00 1.70988024656760e-01 1.90422133128183e-03
1.95136585365854e+00 1.69552438624604e-01 1.89340005233905e-03
1.96200000000000e+00 1.68128905523138e-01 1.88261230957796e-03
1.97263414634146e+00 1.66717324165108e-01 1.87185853419792e-03
1.98326829268293e+00 1.65317594198717e-01 1.86113914347830e-03
1.99390243902439e+00 1.63929616121771e-01 1.85045453423251e-03
2.00453658536585e+00 1.62553291274228e-01 1.83980509669072e-03
2.01517073170732e+00 1.61188521810834e-01 1.82919120590748e-03
2.02580487804878e+00 1.59835210721161e-01 1.81861322398188e-03
2.03643902439024e+00 1.58493261796136e-01 1.80807150279229e-03
2.04707317073171e+00 1.57162579641033e-01 1.79756637554584e-03
2.05770731707317e+00 1.55843069668323e-01 1.78709816986921e-03
2.06834146341463e+00 1.54534638072004e-01 1.77666720169950e-03
2.07897560975610e+00 1.53237191839979e-01 1.76627376927775e-03
2.08960975609756e+00 1.51950638747110e-01 1.75591816582099e-03
2.10024390243902e+00 1.50674887330434e-01 1.74560067359920e-03
2.11087804878049e+00 1.49409846900984e-01 1.73532155810794e-03
2.12151219512195e+00 1.48155427537006e-01 1.72508108033707e-03
2.13214634146341e+00 1.46911540060054e-01 1.71487948912717e-03
2.14278048780488e+00 1.45678096051894e-01 1.70471702311308e-03
2.15341463414634e+00 1.44455007825325e-01 1.69459391311865e-03
2.16404878048781e+00 1.43242188435030e-01 1.68451037463864e-03
2.17468292682927e+00 1.42039551671089e-01 1.67446661941925e-03
2.18531707317073e+00 1.40847012036504e-01 1.66446285001752e-03
2.19595121951220e+00 1.39664484757554e-01 1.65449925444918e-03
2.20658536585366e+00 1.38491885777478e-01 1.64457601740391e-03
2.21721951219512e+00 1.37329131734775e-01 1.63469331496851e-03
2.22785365853659e+00 1.36176139973084e-01 1.62485130943551e-03
2.23848780487805e+00 1.35032828535028e-01 1.61505016016569e-03
2.24912195121951e+00 1.33899116141257e-01 1.60529001678311e-03
2.25975609756098e+00 1.32774922204755e-01 1.59557102088155e-03
2.27039024390244e+00 1.31660166805323e-01 1.58589330812815e-03
2.28102439024390e+00 1.30554770698662e-01 1.57625700156948e-03
2.29165853658537e+00 1.29458655310487e-01 1.56666222189352e-03
2.30229268292683e+00 1.28371742716794e-01 1.55710908258028e-03
2.31292682926829e+00 1.27293955652538e-01 1.54759768513053e-03
2.32356097560976e+00 1.26225217505891e-01 1.53812812900863e-03
2.33419512195122e+00 1.25165452299187e-01 1.52870050693654e-03
2.34482926829268e+00 1.24114584697198e-01 1.51931490026647e-03
2.35546341463415e+00 1.23072540001545e-01 1.50997138861456e-03
2.36609756097561e+00 1.22039244132278e-01 1.50067004379625e-03
2.37673170731707e+00 1.21014623640007e-01 1.49141093132940e-03
2.38736585365854e+00 1.19998605683541e-01 1.48219411228724e-03
2.39800000000000e+00 1.18991118037498e-01 1.47301963733192e-03
2.40863414634146e+00 1.17992089086957e-01 1.46388755582352e-03
2.41926829268293e+00 1.17001447810102e-01 1.45479791149341e-03
2.42990243902439e+00 1.16019123785496e-01 1.44575073818788e-03
2.44053658536585e+00 1.15045047186866e-01 1.43674606869630e-03
2.45117073170732e+00 1.14079148766326e-01 1.42778392917981e-03
2.46180487804878e+00 1.13121359865134e-01 1.41886434054022e-03
2.47243902439024e+00 1.12171612393354e-01 1.40998732010870e-03
2.48307317073171e+00 1.11229838836557e-01 1.40115287616393e-03
2.49370731707317e+00 1.10295972250819e-01 1.39236101628366e-03
2.50434146341463e+00 1.09369946246906e-01 1.38361174336309e-03
2.51497560975610e+00 1.08451694996666e-01 1.37490505170027e-03
2.52560975609756e+00 1.07541153228168e-01 1.36624093509197e-03
2.53624390243902e+00 1.06638256210394e-01 1.35761938297116e-03
2.54687804878049e+00 1.05742939759358e-01 1.34904037660691e-03
2.55751219512195e+00 1.04855140233359e-01 1.34050389695336e-03
2.56814634146341e+00 1.03974794518179e-01 1.33200991967727e-03
2.57878048780488e+00 1.03101840036242e-01 1.32355841636814e-03
2.58941463414634e+00 1.02236214728713e-01 1.31514935603146e-03
2.60004878048781e+00 1.01377857061128e-01 1.30678270019535e-03
2.61068292682927e+00 1.00526706018850e-01 1.29845841034029e-03
2.62131707317073e+00 9.96827010930997e-02 1.29017644434332e-03
2.63195121951220e+00 9.88457822863350e-02 1.28193675298007e-03
2.64258536585366e+00 9.80158901078220e-02 1.27373928712951e-03
2.65321951219512e+00 9.71929655601196e-02 1.26558399432277e-03
2.66385365853659e+00 9.63769501442213e-02 1.25747081534814e-03
2.67448780487805e+00 9.55677858552351e-02 1.24939969123787e-03
2.68512195121951e+00 9.47654151693086e-02 1.24137055882651e-03
2.69575609756098e+00 9.39697810514285e-02 1.23338335182294e-03
2.70639024390244e+00 9.31808269396399e-02 1.22543800213272e-03
2.71702439024390e+00 9.23984967497818e-02 1.21753443548683e-03
2.72765853658537e+00 9.16227348713518e-02 1.20967257805910e-03
2.73829268292683e+00 9.08534861551516e-02 1.20185235328761e-03
2.74892682926829e+00 9.00906959178110e-02 1.19407367874770e-03
2.75956097560976e+00 8.93343099377601e-02 1.18633647257053e-03
2.77019512195122e+00 8.85842744432685e-02 1.17864065035694e-03
2.78082926829268e+00 8.78405361167724e-02 1.17098612214262e-03
2.79146341463415e+00 8.71030420909434e-02 1.16337279862391e-03
2.80209756097561e+00 8.63717399371138e-02 1.15580058718763e-03
2.81273170731707e+00 8.56465776719332e-02 1.14826939286193e-03
2.82336585365854e+00 8.49275037434291e-02 1.14077911948927e-03
2.83400000000000e+00 8.42144670349924e-02 1.13332966581862e-03
2.84463414634146e+00 8.35074168616148e-02 1.12592093140547e-03
2.85526829268293e+00 8.28063029589428e-02 1.11855281376842e-03
2.86590243902439e+00 8.21110754870863e-02 1.11122520559203e-03
2.87653658536585e+00 8.14216850269515e-02 1.10393800045069e-03
2.88717073170732e+00 8.07380825696421e-02 1.09669108915273e-03
2.89780487804878e+00 8.00602195223858e-02 1.08948436061072e-03
2.90843902439024e+00 7.93880476957946e-02 1.08231770291566e-03
2.91907317073171e+00 7.87215193073763e-02 1.07519099973794e-03
2.92970731707317e+00 7.80605869780188e-02 1.06810413575387e-03
2.94034146341463e+00 7.74052037219647e-02 1.06105699402384e-03
2.95097560975610e+00 7.67553229501646e-02 1.05404945341406e-03
2.96160975609756e+00 7.61108984668547e-02 1.04708139386198e-03
2.97224390243902e+00 7.54718844598434e-02 1.04015269383121e-03
2.98287804878049e+00 7.48382355037181e-02 1.03326322780760e-03
2.99351219512195e+00 7.42099065565070e-02 1.02641287140840e-03
3.00414634146341e+00 7.35868529502718e-02 1.01960149811020e-03
3.01478048780488e+00 7.29690303961760e-02 1.01282898002298e-03
3.02541463414634e+00 7.23563949732005e-02 1.00609518884510e-03
3.03604878048781e+00 7.17489031310995e-02 9.99399992641685e-04
3.04668292682927e+00 7.11465116872024e-02 9.92743260690403e-04
3.05731707317073e+00 7.05491778175077e-02 9.86124861134127e-04
3.06795121951220e+00 6.99568590595057e-02 9.79544658671506e-04
3.07858536585366e+00 6.93695133090642e-02 9.73002519259681e-04
3.08921951219512e+00 6.87870988117978e-02 9.66498307834844e-04
3.09985365853659e+00 6.82095741657667e-02 9.60031886069633e-04
3.11048780487805e+00 6.76368983184391e-02 9.53603116937416e-04
3.12112195121951e+00 6.70690305583291e-02 9.47211861781931e-04
3.13175609756098e+00 6.65059305193352e-02 9.40857981006221e-04
3.14239024390244e+00 6.59475581707314e-02 9.34541334922577e-04
3.15302439024390e+00 6.53938738196552e-02 9.28261780867341e-04
3.16365853658537e+00 6.48448381081972e-02 9.22019177531644e-04
3.17429268292683e+00 6.43004120054796e-02 9.15813382857823e-04
3.18492682926829e+00 6.37605568100322e-02 9.09644251970177e-04
3.19556097560976e+00 6.32252341469571e-02 9.03511641378604e-04
3.20619512195122e+00 6.26944059602504e-02 8.97415406935328e-04
3.21682926829268e+00 6.21680345150738e-02 8.91355401825456e-04
3.22746341463415e+00 6.16460823949887e-02 8.85331480647476e-04
3.23809756097561e+00 6.11285124945154e-02 8.79343496787488e-04
3.24873170731707e+00 6.06152880228484e-02 8.73391303033011e-04
3.25936585365854e+00 6.01063724949691e-02 8.67474752330281e-04
3.27000000000000e+00 5.96017297337375e-02 8.61593695198552e-04
3.28063414634146e+00 5.91013238672441e-02 8.55747983603375e-04
3.29126829268293e+00 5.86051193217558e-02 8.49937469070701e-04
3.30190243902439e+00 5.81130808237147e-02 8.44162000831603e-04
3.31253658536585e+00 5.76251733971566e-02 8.38421429582539e-04
3.32317073170732e+00 5.71413623568722e-02 8.32715605062773e-04
3.33380487804878e+00 5.66616133117237e-02 8.27044376618015e-04
3.34443902439024e+00 5.61858921564911e-02 8.21407593896149e-04
3.35507317073171e+00 5.57141650737139e-02 8.15805104461401e-04
