Energy (eV)          EEDF (eV^-(3/2))     First Anisotropy
3.38750000000000e-03 9.74129719796114e+00 9.86087230778816e-03
1.01625000000000e-02 9.46481877466218e+00 1.61061744521333e-02
1.69375000000000e-02 9.19618738826145e+00 2.07983560524597e-02
2.37125000000000e-02 8.93518032341167e+00 2.40927947324291e-02
3.04875000000000e-02 8.68158118589364e+00 2.66251272117088e-02
3.72625000000000e-02 8.43517972320947e+00 2.86440523568520e-02
4.40375000000000e-02 8.19577165026767e+00 3.02824175309005e-02
5.08125000000000e-02 7.96315848001561e+00 3.16228644471832e-02
5.75875000000000e-02 7.73714735887908e+00 3.27217505369230e-02
6.43625000000000e-02 7.51755090687234e+00 3.36199569516718e-02
7.11375000000000e-02 7.30418706224622e+00 3.43484838585937e-02
7.79125000000000e-02 7.09687893054544e+00 3.49316358426879e-02
8.46875000000000e-02 6.89545463794996e+00 3.53889679378584e-02
9.14625000000000e-02 6.69974718877885e+00 3.57365413643699e-02
9.82375000000000e-02 6.50959432703846e+00 3.59877701209825e-02
1.05012500000000e-01 6.32483840190018e+00 3.61540126311982e-02
1.11787500000000e-01 6.14532623699623e+00 3.62449978448755e-02
1.18562500000000e-01 5.97090900342504e+00 3.62691400625310e-02
1.25337500000000e-01 5.80144209636109e+00 3.62337767209857e-02
1.32112500000000e-01 5.63678501516676e+00 3.61453514678625e-02
1.38887500000000e-01 5.47680124690688e+00 3.60095575072518e-02
1.45662500000000e-01 5.32135815316941e+00 3.58314515246510e-02
1.52437500000000e-01 5.17032686009832e+00 3.56155454416483e-02
1.59212500000000e-01 5.02358215154759e+00 3.53658812013382e-02
1.65987500000000e-01 4.88100236526780e+00 3.50860923815673e-02
1.72762500000000e-01 4.74246929203904e+00 3.47794554525183e-02
1.79537500000000e-01 4.60786807766672e+00 3.44489327980761e-02
1.86312500000000e-01 4.47708712775894e+00 3.40972091169333e-02
1.93087500000000e-01 4.35001801520641e+00 3.37267224503898e-02
1.99862500000000e-01 4.22655539028839e+00 3.33396908097290e-02
2.06637500000000e-01 4.10659689332992e+00 3.29381351699968e-02
2.13412500000000e-01 3.99004306983808e+00 3.25238994403096e-02
2.20187500000000e-01 3.87679728804682e+00 3.20986679004030e-02
2.26962500000000e-01 3.76676565880203e+00 3.16639804996983e-02
2.33737500000000e-01 3.65985695772056e+00 3.12212463420063e-02
2.40512500000000e-01 3.55598254955832e+00 3.07717556212127e-02
2.47287500000000e-01 3.45505631472517e+00 3.03166902273050e-02
2.54062500000000e-01 3.35699457788537e+00 2.98571332052298e-02
2.60837500000000e-01 3.26171603858451e+00 2.93940772192851e-02
2.67612500000000e-01 3.16914170384541e+00 2.89284321515570e-02
2.74387500000000e-01 3.07919482267707e+00 2.84610319431043e-02
2.81162500000000e-01 2.99180082244241e+00 2.79926407703135e-02
2.87937500000000e-01 2.90688724703206e+00 2.75239586353621e-02
2.94712500000000e-01 2.82438369679279e+00 2.70556264385257e-02
3.01487500000000e-01 2.74422177016105e+00 2.65882305906939e-02
3.08262500000000e-01 2.66633500695297e+00 2.61223072165843e-02
3.15037500000000e-01 2.59065883326393e+00 2.56583459925115e-02
3.21812500000000e-01 2.51713050793200e+00 2.51967936569353e-02
3.28587500000000e-01 2.44568907052091e+00 2.47380572272266e-02
3.35362500000000e-01 2.37627529077924e+00 2.42825069519959e-02
3.42137500000000e-01 2.30883161953423e+00 2.38304790248217e-02
3.48912500000000e-01 2.24330214097921e+00 2.33822780822011e-02
3.55687500000000e-01 2.17963252631524e+00 2.29381795059278e-02
3.62462500000000e-01 2.11776998870853e+00 2.24984315478521e-02
3.69237500000000e-01 2.05766323952622e+00 2.20632572930054e-02
3.76012500000000e-01 1.99926244581429e+00 2.16328564753633e-02
3.82787500000000e-01 1.94251918898239e+00 2.12074071590195e-02
3.89562500000000e-01 1.88738642466118e+00 2.07870672962296e-02
3.96337500000000e-01 1.83381844369910e+00 2.03719761726294e-02
4.03112500000000e-01 1.78177083426605e+00 1.99622557489086e-02
4.09887500000000e-01 1.73120044503275e+00 1.95580119073234e-02
4.16662500000000e-01 1.68206534939503e+00 1.91593356106305e-02
4.23437500000000e-01 1.63432481071358e+00 1.87663039803172e-02
4.30212500000000e-01 1.58793924854028e+00 1.83789813003667e-02
4.36987500000000e-01 1.54287020580303e+00 1.79974199522397e-02
4.43762500000000e-01 1.49908031692203e+00 1.76216612862413e-02
4.50537500000000e-01 1.45653327683089e+00 1.72517364339990e-02
4.57312500000000e-01 1.41519381087710e+00 1.68876670663655e-02
4.64087500000000e-01 1.37502764557667e+00 1.65294661006950e-02
4.70862500000000e-01 1.33600148019890e+00 1.61771383611194e-02
4.77637500000000e-01 1.29808295915758e+00 1.58306811951447e-02
4.84412500000000e-01 1.26124064518584e+00 1.54900850496263e-02
4.91187500000000e-01 1.22544399327231e+00 1.51553340089347e-02
4.97962500000000e-01 1.19066332533702e+00 1.48264062979034e-02
5.04737500000000e-01 1.15686980562610e+00 1.45032747519508e-02
5.11512500000000e-01 1.12403541680478e+00 1.41859072565831e-02
5.18287500000000e-01 1.09213293672897e+00 1.38742671583216e-02
5.25062500000000e-01 1.06113591587604e+00 1.35683136489423e-02
5.31837500000000e-01 1.03101865541623e+00 1.32680021247796e-02
5.38612500000000e-01 1.00175618590641e+00 1.29732845227174e-02
5.45387500000000e-01 9.73324246588566e-01 1.26841096343741e-02
5.52162500000000e-01 9.45699265275822e-01 1.24004233998818e-02
5.58937500000000e-01 9.18858338809347e-01 1.21221691825606e-02
5.65712500000000e-01 8.92779214069945e-01 1.18492880256991e-02
5.72487500000000e-01 8.67440269528564e-01 1.15817188925701e-02
5.79262500000000e-01 8.42820497320446e-01 1.13193988907305e-02
5.86037500000000e-01 8.18899485828048e-01 1.10622634815871e-02
5.92812500000000e-01 7.95657402758295e-01 1.08102466761424e-02
5.99587500000000e-01 7.73074978700143e-01 1.05632812177748e-02
6.06362500000000e-01 7.51133491148801e-01 1.03212987528511e-02
6.13137500000000e-01 7.29814748983393e-01 1.00842299899178e-02
6.19912500000000e-01 7.09101077385162e-01 9.85200484816941e-03
6.26687500000000e-01 6.88975303183739e-01 9.62455259584613e-03
6.33462500000000e-01 6.69420740619309e-01 9.40180197917539e-03
6.40237500000000e-01 6.50421177508878e-01 9.18368134242774e-03
6.47012500000000e-01 6.31960861805173e-01 8.97011873962678e-03
6.53787500000000e-01 6.14024488537022e-01 8.76104203841644e-03
6.60562500000000e-01 5.96597187120403e-01 8.55637901655844e-03
6.67337500000000e-01 5.79664509029621e-01 8.35605745150412e-03
6.74112500000000e-01 5.63212415818413e-01 8.16000520345830e-03
6.80887500000000e-01 5.47227267481030e-01 7.96815029232560e-03
6.87662500000000e-01 5.31695811143666e-01 7.78042096890822e-03
6.94437500000000e-01 5.16605170076838e-01 7.59674578070071e-03
7.01212500000000e-01 5.01942833019625e-01 7.41705363260723e-03
7.07987500000000e-01 4.87696643806900e-01 7.24127384288727e-03
7.14762500000000e-01 4.73854791290973e-01 7.06933619461787e-03
7.21537500000000e-01 4.60405799549271e-01 6.90117098294329e-03
7.28312500000000e-01 4.47338518369946e-01 6.73670905836694e-03
7.35087500000000e-01 4.34642114007521e-01 6.57588186632629e-03
7.41862500000000e-01 4.22306060200916e-01 6.41862148327657e-03
7.48637500000000e-01 4.10320129446392e-01 6.26486064949666e-03
7.55412500000000e-01 3.98674384518196e-01 6.11453279881781e-03
7.62187500000000e-01 3.87359170229857e-01 5.96757208546411e-03
7.68962500000000e-01 3.76365105429328e-01 5.82391340818365e-03
7.75737500000000e-01 3.65683075221311e-01 5.68349243183805e-03
7.82512500000000e-01 3.55304223410331e-01 5.54624560660887e-03
7.89287500000000e-01 3.45219945158298e-01 5.41211018497040e-03
7.96062500000000e-01 3.35421879850451e-01 5.28102423656964e-03
8.02837500000000e-01 3.25901904163796e-01 5.15292666114635e-03
8.09612500000000e-01 3.16652125332263e-01 5.02775719961874e-03
8.16387500000000e-01 3.07664874603018e-01 4.90545644345261e-03
8.23162500000000e-01 2.98932700878501e-01 4.78596584242522e-03
8.29937500000000e-01 2.90448364538909e-01 4.66922771089009e-03
8.36712500000000e-01 2.82204831440019e-01 4.55518523264074e-03
8.43487500000000e-01 2.74195267081358e-01 4.44378246446722e-03
8.50262500000000e-01 2.66413030939893e-01 4.33496433849427e-03
8.57037500000000e-01 2.58851670964549e-01 4.22867666338355e-03
8.63812500000000e-01 2.51504918226978e-01 4.12486612447908e-03
8.70587500000000e-01 2.44366681724152e-01 4.02348028296926e-03
8.77362500000000e-01 2.37431043328471e-01 3.92446757413587e-03
8.84137500000000e-01 2.30692252881193e-01 3.82777730475579e-03
8.90912500000000e-01 2.24144723425131e-01 3.73335964971716e-03
8.97687500000000e-01 2.17783026572647e-01 3.64116564790876e-03
9.04462500000000e-01 2.11601888005115e-01 3.55114719743777e-03
9.11237500000000e-01 2.05596183100124e-01 3.46325705022816e-03
9.18012500000000e-01 1.99760932682785e-01 3.37744880604803e-03
9.24787500000000e-01 1.94091298897620e-01 3.29367690601253e-03
9.31562500000000e-01 1.88582581197628e-01 3.21189662560591e-03
9.38337500000000e-01 1.83230212447180e-01 3.13206406726344e-03
9.45112500000000e-01 1.78029755135524e-01 3.05413615255170e-03
9.51887500000000e-01 1.72976897697760e-01 2.97807061398357e-03
9.58662500000000e-01 1.68067450940232e-01 2.90382598650234e-03
9.65437500000000e-01 1.63297344567379e-01 2.83136159866666e-03
9.72212500000000e-01 1.58662623807153e-01 2.76063756356663e-03
9.78987500000000e-01 1.54159446132225e-01 2.69161476949971e-03
9.85762500000000e-01 1.49784078074240e-01 2.62425487043262e-03
9.92537500000000e-01 1.45532892128497e-01 2.55852027627463e-03
9.99312500000000e-01 1.41402363746480e-01 2.49437414298575e-03
1.00608750000000e+00 1.37389068413742e-01 2.43178036254169e-03
1.01286250000000e+00 1.33489678810732e-01 2.37070355277647e-03
1.01963750000000e+00 1.29700962054198e-01 2.31110904712198e-03
1.02641250000000e+00 1.26019777016888e-01 2.25296288426272e-03
1.03318750000000e+00 1.22443071723324e-01 2.19623179772262e-03
1.03996250000000e+00 1.18967880819483e-01 2.14088320539988e-03
1.04673750000000e+00 1.15591323114306e-01 2.08688519906491e-03
1.05351250000000e+00 1.12310599190967e-01 2.03420653383494e-03
1.06028750000000e+00 1.09122989085961e-01 1.98281661763850e-03
1.06706250000000e+00 1.06025850034040e-01 1.93268550068161e-03
1.07383750000000e+00 1.03016614277175e-01 1.88378386492729e-03
1.08061250000000e+00 1.00092786935686e-01 1.83608301359864e-03
1.08738750000000e+00 9.72519439398087e-02 1.78955486071510e-03
1.09416250000000e+00 9.44917300199545e-02 1.74417192067116e-03
1.10093750000000e+00 9.18098567540215e-02 1.69990729786585e-03
1.10771250000000e+00 8.92041006701213e-02 1.65673467639060e-03
1.11448750000000e+00 8.66723014031560e-02 1.61462830978279e-03
1.12126250000000e+00 8.42123599037155e-02 1.57356301085157e-03
1.12803750000000e+00 8.18222366978094e-02 1.53351414158190e-03
1.13481250000000e+00 7.94999501959922e-02 1.49445760312252e-03
1.14158750000000e+00 7.72435750504783e-02 1.45636982586295e-03
1.14836250000000e+00 7.50512405588860e-02 1.41922775960405e-03
1.15513750000000e+00 7.29211291132867e-02 1.38300886382660e-03
1.16191250000000e+00 7.08514746932726e-02 1.34769109806169e-03
1.16868750000000e+00 6.88405614017953e-02 1.31325291236628e-03
1.17546250000000e+00 6.68867220425592e-02 1.27967323790720e-03
1.18223750000000e+00 6.49883367377929e-02 1.24693147765647e-03
1.18901250000000e+00 6.31438315852496e-02 1.21500749720028e-03
1.19578750000000e+00 6.13516773533259e-02 1.18388161566397e-03
1.20256250000000e+00 5.96103882132151e-02 1.15353459675492e-03
1.20933750000000e+00 5.79185205070449e-02 1.12394763992503e-03
1.21611250000000e+00 5.62746715509783e-02 1.09510237165431e-03
1.22288750000000e+00 5.46774784722840e-02 1.06698083685662e-03
1.22966250000000e+00 5.31256170794142e-02 1.03956549040879e-03
1.23643750000000e+00 5.16178007641516e-02 1.01283918880383e-03
1.24321250000000e+00 5.01527794349158e-02 9.86785181928883e-04
1.24998750000000e+00 4.87293384803442e-02 9.61387104968310e-04
1.25676250000000e+00 4.73462977622895e-02 9.36628970432236e-04
1.26353750000000e+00 4.60025106373975e-02 9.12495160310728e-04
1.27031250000000e+00 4.46968630064548e-02 8.88970418353593e-04
1.27708750000000e+00 4.34282723907177e-02 8.66039842475630e-04
1.28386250000000e+00 4.21956870344571e-02 8.43688877287106e-04
1.29063750000000e+00 4.09980850329753e-02 8.21903306748964e-04
1.29741250000000e+00 3.98344734853704e-02 8.00669246952470e-04
1.30418750000000e+00 3.87038876713487e-02 7.79973139022626e-04
1.31096250000000e+00 3.76053902513994e-02 7.59801742144601e-04
1.31773750000000e+00 3.65380704896710e-02 7.40142126712556e-04
1.32451250000000e+00 3.55010434989034e-02 7.20981667599929e-04
1.33128750000000e+00 3.44934495067908e-02 7.02308037550295e-04
1.33806250000000e+00 3.35144531431668e-02 6.84109200687882e-04
1.34483750000000e+00 3.25632427474207e-02 6.66373406146594e-04
1.35161250000000e+00 3.16390296955700e-02 6.49089181816517e-04
1.35838750000000e+00 3.07410477464334e-02 6.32245328206777e-04
1.36516250000000e+00 2.98685524063596e-02 6.15830912423527e-04
1.37193750000000e+00 2.90208203119867e-02 5.99835262261812e-04
1.37871250000000e+00 2.81971486305208e-02 5.84247960410072e-04
1.38548750000000e+00 2.73968544770350e-02 5.69058838765985e-04
1.39226250000000e+00 2.66192743483074e-02 5.54257972862272e-04
1.39903750000000e+00 2.58637635727275e-02 5.39835676401121e-04
1.40581250000000e+00 2.51296957758160e-02 5.25782495895864e-04
1.41258750000000e+00 2.44164623609135e-02 5.12089205418444e-04
1.41936250000000e+00 2.37234720046087e-02 4.98746801451291e-04
1.42613750000000e+00 2.30501501664877e-02 4.85746497842163e-04
1.43291250000000e+00 2.23959386127974e-02 4.73079720860457e-04
1.43968750000000e+00 2.17602949536280e-02 4.60738104353573e-04
1.44646250000000e+00 2.11426921932317e-02 4.48713485001814e-04
1.45323750000000e+00 2.05426182931041e-02 4.36997897670354e-04
1.46001250000000e+00 1.99595757474665e-02 4.25583570856827e-04
1.46678750000000e+00 1.93930811707962e-02 4.14462922232995e-04
1.47356250000000e+00 1.88426648970648e-02 4.03628554279012e-04
1.48033750000000e+00 1.83078705903493e-02 3.93073250008850e-04
1.48711250000000e+00 1.77882548664965e-02 3.82789968785352e-04
1.49388750000000e+00 1.72833869255245e-02 3.72771842223440e-04
1.50066250000000e+00 1.67928481944573e-02 3.63012170180011e-04
1.50743750000000e+00 1.63162319802968e-02 3.53504416829041e-04
1.51421250000000e+00 1.58531431328445e-02 3.44242206820456e-04
1.52098750000000e+00 1.54031977170922e-02 3.35219321521299e-04
1.52776250000000e+00 1.49660226949117e-02 3.26429695337739e-04
1.53453750000000e+00 1.45412556157784e-02 3.17867412116508e-04
1.54131250000000e+00 1.41285443162730e-02 3.09526701624332e-04
1.54808750000000e+00 1.37275466281117e-02 3.01401936103953e-04
1.55486250000000e+00 1.33379300944637e-02 2.93487626905327e-04
1.56163750000000e+00 1.29593716943194e-02 2.85778421190632e-04
1.56841250000000e+00 1.25915575746822e-02 2.78269098711698e-04
1.57518750000000e+00 1.22341827903613e-02 2.70954568658514e-04
1.58196250000000e+00 1.18869510511490e-02 2.63829866577457e-04
1.58873750000000e+00 1.15495744761747e-02 2.56890151357918e-04
1.59551250000000e+00 1.12217733552300e-02 2.50130702286023e-04
1.60228750000000e+00 1.09032759168680e-02 2.43546916164149e-04
1.60906250000000e+00 1.05938181030851e-02 2.37134304494933e-04
1.61583750000000e+00 1.02931433503970e-02 2.30888490728535e-04
1.62261250000000e+00 1.00010023771286e-02 2.24805207571911e-04
1.62938750000000e+00 9.71715297674104e-03 2.18880294358838e-04
1.63616250000000e+00 9.44135981702434e-03 2.13109694479509e-04
1.64293750000000e+00 9.17339424498980e-03 2.07489452868472e-04
1.64971250000000e+00 8.91303409729959e-03 2.02015713549768e-04
1.65648750000000e+00 8.66006351607679e-03 1.96684717238072e-04
1.66326250000000e+00 8.41427276994333e-03 1.91492798994717e-04
1.67003750000000e+00 8.17545808013702e-03 1.86436385937458e-04
1.67681250000000e+00 7.94342145156388e-03 1.81511995002900e-04
1.68358750000000e+00 7.71797050864552e-03 1.76716230760436e-04
1.69036250000000e+00 7.49891833582550e-03 1.72045783276688e-04
1.69713750000000e+00 7.28608332260247e-03 1.67497426029364e-04
1.70391250000000e+00 7.07928901296162e-03 1.63068013869479e-04
1.71068750000000e+00 6.87836395907950e-03 1.58754481030942e-04
1.71746250000000e+00 6.68314157918112e-03 1.54553839186503e-04
1.72423750000000e+00 6.49346001943123e-03 1.50463175549055e-04
1.73101250000000e+00 6.30916201974556e-03 1.46479651017333e-04
1.73778750000000e+00 6.13009478341048e-03 1.42600498365062e-04
1.74456250000000e+00 5.95610985040321e-03 1.38823020472608e-04
1.75133750000000e+00 5.78706297430747e-03 1.35144588600215e-04
1.75811250000000e+00 5.62281400272247e-03 1.31562640701929e-04
1.76488750000000e+00 5.46322676106620e-03 1.28074679779322e-04
1.77166250000000e+00 5.30816893967655e-03 1.24678272274138e-04
1.77843750000000e+00 5.15751198411687e-03 1.21371046499021e-04
1.78521250000000e+00 5.01113098859472e-03 1.18150691105471e-04
1.79198750000000e+00 4.86890459240574e-03 1.15014953588228e-04
1.79876250000000e+00 4.73071487931663e-03 1.11961638825242e-04
1.80553750000000e+00 4.59644727980384e-03 1.08988607652481e-04
1.81231250000000e+00 4.46599047606691e-03 1.06093775472769e-04
1.81908750000000e+00 4.33923630973780e-03 1.03275110897910e-04
1.82586250000000e+00 4.21607969220954e-03 1.00530634423334e-04
1.83263750000000e+00 4.09641851751000e-03 9.78584171345643e-05
1.83941250000000e+00 3.98015357764846e-03 9.52565794447590e-05
1.84618750000000e+00 3.86718848036483e-03 9.27232898626349e-05
1.85296250000000e+00 3.75742956921330e-03 9.02567637900921e-05
1.85973750000000e+00 3.65078584591423e-03 8.78552623488615e-05
1.86651250000000e+00 3.54716889490977e-03 8.55170912355057e-05
1.87328750000000e+00 3.44649281006088e-03 8.32405996041394e-05
1.88006250000000e+00 3.34867412342471e-03 8.10241789762214e-05
1.88683750000000e+00 3.25363173605348e-03 7.88662621768061e-05
1.89361250000000e+00 3.16128685075749e-03 7.67653222966478e-05
1.90038750000000e+00 3.07156290677635e-03 7.47198716795537e-05
1.90716250000000e+00 2.98438551630445e-03 7.27284609344108e-05
1.91393750000000e+00 2.89968240281797e-03 7.07896779713105e-05
1.92071250000000e+00 2.81738334115225e-03 6.89021470612113e-05
1.92748750000000e+00 2.73742009927991e-03 6.70645279185971e-05
1.93426250000000e+00 2.65972638174150e-03 6.52755148065944e-05
1.94103750000000e+00 2.58423777468158e-03 6.35338356640227e-05
1.94781250000000e+00 2.51089169244487e-03 6.18382512538611e-05
1.95458750000000e+00 2.43962732568813e-03 6.01875543326391e-05
1.96136250000000e+00 2.37038559096467e-03 5.85805688402552e-05
1.96813750000000e+00 2.30310908173981e-03 5.70161491097398e-05
1.97491250000000e+00 2.23774202079658e-03 5.54931790964972e-05
1.98168750000000e+00 2.17423021399231e-03 5.40105716265663e-05
1.98846250000000e+00 2.11252100532761e-03 5.25672676634482e-05
1.99523750000000e+00 2.05256323329070e-03 5.11622355930647e-05
2.00201250000000e+00 1.99430718844067e-03 4.97944705264119e-05
2.00878750000000e+00 1.93770457219471e-03 4.84629936194953e-05
2.01556250000000e+00 1.88270845678496e-03 4.71668514101282e-05
2.02233750000000e+00 1.82927324635193e-03 4.59051151711944e-05
2.02911250000000e+00 1.77735463914216e-03 4.46768802799869e-05
2.03588750000000e+00 1.72690959077877e-03 4.34812656032296e-05
2.04266250000000e+00 1.67789627857447e-03 4.23174128974103e-05
2.04943750000000e+00 1.63027406685746e-03 4.11844862240579e-05
2.05621250000000e+00 1.58400347328143e-03 4.00816713796063e-05
2.06298750000000e+00 1.53904613609181e-03 3.90081753394906e-05
2.06976250000000e+00 1.49536478232095e-03 3.79632257161340e-05
2.07653750000000e+00 1.45292319688615e-03 3.69460702304918e-05
2.08331250000000e+00 1.41168619256461e-03 3.59559761968244e-05
2.09008750000000e+00 1.37161958082064e-03 3.49922300203746e-05
2.09686250000000e+00 1.33269014346081e-03 3.40541367076454e-05
2.10363750000000e+00 1.29486560509365e-03 3.31410193889657e-05
2.11041250000000e+00 1.25811460637087e-03 3.22522188530463e-05
2.11718750000000e+00 1.22240667798821e-03 3.13870930932384e-05
2.12396250000000e+00 1.18771221542411e-03 3.05450168652052e-05
2.13073750000000e+00 1.15400245439534e-03 2.97253812557294e-05
2.13751250000000e+00 1.12124944700929e-03 2.89275932623873e-05
