Energy (eV)          EEDF (eV^-(3/2))     First Anisotropy
2.01282051282051e-03 3.68023299849764e+00 2.15059672214356e-03
6.03846153846154e-03 3.64769687545942e+00 3.54747447208440e-03
1.00641025641026e-02 3.61544839712205e+00 4.67308634648690e-03
1.40897435897436e-02 3.58348502034242e+00 5.52217155038688e-03
1.81153846153846e-02 3.55180422476295e+00 6.22532919068308e-03
2.21410256410256e-02 3.52040351209658e+00 6.83208098913989e-03
2.61666666666667e-02 3.48928040606050e+00 7.36812537508451e-03
3.01923076923077e-02 3.45843245253633e+00 7.84902273319845e-03
3.42179487179487e-02 3.42785721894933e+00 8.28512044675907e-03
3.82435897435897e-02 3.39755229423335e+00 8.68375110185803e-03
4.22692307692308e-02 3.36751528857419e+00 9.05035683729266e-03
4.62948717948718e-02 3.33774383343517e+00 9.38912176829524e-03
5.03205128205128e-02 3.30823558113852e+00 9.70335368081418e-03
5.43461538461538e-02 3.27898820476242e+00 9.99572730279538e-03
5.83717948717949e-02 3.24999939791089e+00 1.02684462803637e-02
6.23974358974359e-02 3.22126687467934e+00 1.05233549631068e-02
6.64230769230769e-02 3.19278836931879e+00 1.07620178824217e-02
7.04487179487179e-02 3.16456163611157e+00 1.09857776950801e-02
7.44743589743590e-02 3.13658444915885e+00 1.11957983709399e-02
7.85000000000000e-02 3.10885460231545e+00 1.13930980100140e-02
8.25256410256410e-02 3.08136990890088e+00 1.15785741906432e-02
8.65512820512821e-02 3.05412820156687e+00 1.17530238261051e-02
9.05769230769231e-02 3.02712733209826e+00 1.19171589369533e-02
9.46025641025641e-02 3.00036517133058e+00 1.20716193378651e-02
9.86282051282051e-02 2.97383960889216e+00 1.22169829556491e-02
1.02653846153846e-01 2.94754855296835e+00 1.23537742366028e-02
1.06679487179487e-01 2.92148993044428e+00 1.24824711652972e-02
1.10705128205128e-01 2.89566168642693e+00 1.26035111211602e-02
1.14730769230769e-01 2.87006178419025e+00 1.27172957481139e-02
1.18756410256410e-01 2.84468820501453e+00 1.28241951167157e-02
1.22782051282051e-01 2.81953894802717e+00 1.29245512594201e-02
1.26807692307692e-01 2.79461203004493e+00 1.30186811996520e-02
1.30833333333333e-01 2.76990548541747e+00 1.31068795614971e-02
1.34858974358974e-01 2.74541736587243e+00 1.31894208296629e-02
1.38884615384615e-01 2.72114574036169e+00 1.32665613160089e-02
1.42910256410256e-01 2.69708869490917e+00 1.33385408784834e-02
1.46935897435897e-01 2.67324433245985e+00 1.34055844300181e-02
1.50961538461538e-01 2.64961077273018e+00 1.34679032683425e-02
1.54987179487179e-01 2.62618615205981e+00 1.35256962523935e-02
1.59012820512821e-01 2.60296862326462e+00 1.35791508467346e-02
1.63038461538462e-01 2.57995635549093e+00 1.36284440518583e-02
1.67064102564103e-01 2.55714753407140e+00 1.36737432355663e-02
1.71089743589744e-01 2.53454036038177e+00 1.37152068782006e-02
1.75115384615385e-01 2.51213305169902e+00 1.37529852424999e-02
1.79141025641026e-01 2.48992384106083e+00 1.37872209774151e-02
1.83166666666667e-01 2.46791097712619e+00 1.38180496637980e-02
1.87192307692308e-01 2.44609272403733e+00 1.38456003087973e-02
1.91217948717949e-01 2.42446736128283e+00 1.38699957948441e-02
1.95243589743590e-01 2.40303318356192e+00 1.38913532883217e-02
1.99269230769231e-01 2.38178850065004e+00 1.39097846123556e-02
2.03294871794872e-01 2.36073163726552e+00 1.39253965875798e-02
2.07320512820513e-01 2.33986093293752e+00 1.39382913442540e-02
2.11346153846154e-01 2.31917474187504e+00 1.39485666086888e-02
2.15371794871795e-01 2.29867143283715e+00 1.39563159665737e-02
2.19397435897436e-01 2.27834938900439e+00 1.39616291055057e-02
2.23423076923077e-01 2.25820700785123e+00 1.39645920387378e-02
2.27448717948718e-01 2.23824270101973e+00 1.39652873119378e-02
2.31474358974359e-01 2.21845489419426e+00 1.39637941945527e-02
2.35500000000000e-01 2.19884202697737e+00 1.39601888700276e-02
2.39525641025641e-01 2.17940255268993e+00 1.39545445616119e-02
2.43551282051282e-01 2.16013493848230e+00 1.39469317115958e-02
2.47576923076923e-01 2.14103766497753e+00 1.39374181501666e-02
2.51602564102564e-01 2.12210922623115e+00 1.39260691883016e-02
2.55628205128205e-01 2.10334812961242e+00 1.39129477551697e-02
2.59653846153846e-01 2.08475289568663e+00 1.38981145139713e-02
2.63679487179487e-01 2.06632205809842e+00 1.38816279703147e-02
2.67705128205128e-01 2.04805416345615e+00 1.38635445737265e-02
2.71730769230769e-01 2.02994777121733e+00 1.38439188128393e-02
2.75756410256410e-01 2.01200145357495e+00 1.38228033047446e-02
2.79782051282051e-01 1.99421379534496e+00 1.38002488789577e-02
2.83807692307692e-01 1.97658339385462e+00 1.37763046564013e-02
2.87833333333333e-01 1.95910885883194e+00 1.37510181237759e-02
2.91858974358974e-01 1.94178881229599e+00 1.37244352036521e-02
2.95884615384615e-01 1.92462188844828e+00 1.36966003205955e-02
2.99910256410256e-01 1.90760673356505e+00 1.36675564636009e-02
3.03935897435897e-01 1.89074200589050e+00 1.36373452450965e-02
3.07961538461538e-01 1.87402637553103e+00 1.36060069567559e-02
3.11987179487179e-01 1.85745852435029e+00 1.35735806223297e-02
3.16012820512821e-01 1.84103714586531e+00 1.35401040477032e-02
3.20038461538462e-01 1.82476094514344e+00 1.35056138683470e-02
3.24064102564103e-01 1.80862863870023e+00 1.34701455943465e-02
3.28089743589744e-01 1.79263895439827e+00 1.34337336531752e-02
3.32115384615385e-01 1.77679063134682e+00 1.33964114303241e-02
3.36141025641026e-01 1.76108241980240e+00 1.33582113079412e-02
3.40166666666667e-01 1.74551308107023e+00 1.33191647016028e-02
3.44192307692308e-01 1.73008138740656e+00 1.32793020953258e-02
3.48217948717949e-01 1.71478612192186e+00 1.32386530749298e-02
3.52243589743590e-01 1.69962607848486e+00 1.31972463598467e-02
3.56269230769231e-01 1.68460006162739e+00 1.31551098334645e-02
3.60294871794872e-01 1.66970688645020e+00 1.31122705720975e-02
3.64320512820513e-01 1.65494537852943e+00 1.30687548726580e-02
3.68346153846154e-01 1.64031437382408e+00 1.30245882790982e-02
3.72371794871795e-01 1.62581271858415e+00 1.29797956076992e-02
3.76397435897436e-01 1.61143926925970e+00 1.29344009712653e-02
3.80423076923077e-01 1.59719289241067e+00 1.28884278022844e-02
3.84448717948718e-01 1.58307246461748e+00 1.28418988751118e-02
3.88474358974359e-01 1.56907687239245e+00 1.27948363272251e-02
3.92500000000000e-01 1.55520501209202e+00 1.27472616866472e-02
3.96525641025641e-01 1.54145578979697e+00 1.26991958702006e-02
4.00551282051282e-01 1.52782812132524e+00 1.26506592165570e-02
4.04576923076923e-01 1.51432093204642e+00 1.26016715187294e-02
4.08602564102564e-01 1.50093315683067e+00 1.25522520195015e-02
4.12628205128205e-01 1.48766373996473e+00 1.25024194354028e-02
4.16653846153846e-01 1.47451163506867e+00 1.24521919726899e-02
4.20679487179487e-01 1.46147580501337e+00 1.24015873427157e-02
4.24705128205128e-01 1.44855522183875e+00 1.23506227767191e-02
4.28730769230769e-01 1.43574886667269e+00 1.22993150400596e-02
4.32756410256410e-01 1.42305572965068e+00 1.22476804459252e-02
4.36782051282051e-01 1.41047480983623e+00 1.21957348685351e-02
4.40807692307692e-01 1.39800511514187e+00 1.21434937558641e-02
4.44833333333333e-01 1.38564566225100e+00 1.20909721419085e-02
4.48858974358974e-01 1.37339547654026e+00 1.20381846585142e-02
4.52884615384615e-01 1.36125359200274e+00 1.19851455467884e-02
4.56910256410256e-01 1.34921905117181e+00 1.19318686681115e-02
4.60935897435897e-01 1.33729090504554e+00 1.18783675147663e-02
4.64961538461538e-01 1.32546821301195e+00 1.18246552202030e-02
4.68987179487179e-01 1.31375004277479e+00 1.17707445689554e-02
4.73012820512821e-01 1.30213547028004e+00 1.17166480062239e-02
4.77038461538462e-01 1.29062357964303e+00 1.16623776471325e-02
4.81064102564103e-01 1.27921346307623e+00 1.16079452856827e-02
4.85089743589744e-01 1.26790422081766e+00 1.15533624034172e-02
4.89115384615385e-01 1.25669496105993e+00 1.14986401777970e-02
4.93141025641026e-01 1.24558479987993e+00 1.14437894903062e-02
4.97166666666667e-01 1.23457286116912e+00 1.13888209343008e-02
5.01192307692308e-01 1.22365827656442e+00 1.13337448226065e-02
5.05217948717949e-01 1.21284018537979e+00 1.12785711948781e-02
5.09243589743590e-01 1.20211773453831e+00 1.12233098247261e-02
5.13269230769231e-01 1.19149007850490e+00 1.11679702266263e-02
5.17294871794872e-01 1.18095637921971e+00 1.11125616626128e-02
5.21320512820513e-01 1.17051580603196e+00 1.10570931487697e-02
5.25346153846154e-01 1.16016753563449e+00 1.10015734615231e-02
5.29371794871795e-01 1.14991075199880e+00 1.09460111437477e-02
5.33397435897436e-01 1.13974464631073e+00 1.08904145106869e-02
5.37423076923077e-01 1.12966841690666e+00 1.08347916556989e-02
5.41448717948718e-01 1.11968126921030e+00 1.07791504558362e-02
5.45474358974359e-01 1.10978241567004e+00 1.07234985772581e-02
5.49500000000000e-01 1.09997107569683e+00 1.06678434846999e-02
5.53525641025641e-01 1.09024647558608e+00 1.06121924338506e-02
5.57551282051282e-01 1.08060784850675e+00 1.05565524848420e-02
5.61576923076923e-01 1.07105443439032e+00 1.05009305157360e-02
5.65602564102564e-01 1.06158547988789e+00 1.04453332141357e-02
5.69628205128205e-01 1.05220023831076e+00 1.03897670861262e-02
5.73653846153846e-01 1.04289796957150e+00 1.03342384606990e-02
5.77679487179487e-01 1.03367794012568e+00 1.02787534940542e-02
5.81705128205128e-01 1.02453942291394e+00 1.02233181737833e-02
5.85730769230769e-01 1.01548169730470e+00 1.01679383229386e-02
5.89756410256410e-01 1.00650404903731e+00 1.01126196039908e-02
5.93782051282051e-01 9.97605770165776e-01 1.00573675226824e-02
5.97807692307692e-01 9.88786159002863e-01 1.00021874317732e-02
6.01833333333333e-01 9.80044520064814e-01 9.94708453469027e-03
6.05858974358974e-01 9.71380164016484e-01 9.89206388907816e-03
6.09884615384615e-01 9.62792407616989e-01 9.83713041025551e-03
6.13910256410256e-01 9.54280573665828e-01 9.78228887458288e-03
6.17935897435897e-01 9.45843990949478e-01 9.72754392274169e-03
6.21961538461538e-01 9.37481994188465e-01 9.67290006292721e-03
6.25987179487180e-01 9.29193923984907e-01 9.61836167395987e-03
6.30012820512820e-01 9.20979126770508e-01 9.56393300831816e-03
6.34038461538462e-01 9.12836954755024e-01 9.50961819508987e-03
6.38064102564103e-01 9.04766765875185e-01 9.45542124285111e-03
6.42089743589744e-01 8.96767923744058e-01 9.40134604247436e-03
6.46115384615385e-01 8.88839797600868e-01 9.34739636986389e-03
6.50141025641026e-01 8.80981762261254e-01 9.29357588862159e-03
6.54166666666667e-01 8.73193198067972e-01 9.23988815264734e-03
6.58192307692308e-01 8.65473490842032e-01 9.18633660867623e-03
6.62217948717949e-01 8.57822031834261e-01 9.13292459875141e-03
6.66243589743590e-01 8.50238217677306e-01 9.07965536263671e-03
6.70269230769231e-01 8.42721450338049e-01 9.02653204017069e-03
6.74294871794872e-01 8.35271137070451e-01 8.97355767356342e-03
6.78320512820513e-01 8.27886690368810e-01 8.92073520963691e-03
6.82346153846154e-01 8.20567527921429e-01 8.86806750201203e-03
6.86371794871795e-01 8.13313072564703e-01 8.81555731324296e-03
6.90397435897436e-01 8.06122752237601e-01 8.76320731690024e-03
6.94423076923077e-01 7.98995999936556e-01 8.71102009960430e-03
6.98448717948718e-01 7.91932253670755e-01 8.65899816301141e-03
7.02474358974359e-01 7.84930956417820e-01 8.60714392575119e-03
7.06500000000000e-01 7.77991556079887e-01 8.55545972794856e-03
7.10525641025641e-01 7.71113505430949e-01 8.50394782513160e-03
7.14551282051282e-01 7.64296262101268e-01 8.45261039535384e-03
7.18576923076923e-01 7.57539288506823e-01 8.40144954636854e-03
7.22602564102564e-01 7.50842051816258e-01 8.35046730919820e-03
7.26628205128205e-01 7.44204023908857e-01 8.29966564255431e-03
7.30653846153846e-01 7.37624681332906e-01 8.24904643448153e-03
7.34679487179487e-01 7.31103505264409e-01 8.19861150396404e-03
7.38705128205128e-01 7.24639981466180e-01 8.14836260249440e-03
7.42730769230769e-01 7.18233600247288e-01 8.09830141560831e-03
7.46756410256410e-01 7.11883856422867e-01 8.04842956438327e-03
7.50782051282051e-01 7.05590249274279e-01 7.99874860690316e-03
7.54807692307692e-01 6.99352282509628e-01 7.94926003969062e-03
7.58833333333333e-01 6.93169464224626e-01 7.89996529910761e-03
7.62858974358974e-01 6.87041306863799e-01 7.85086576272378e-03
7.66884615384615e-01 6.80967327182046e-01 7.80196275065342e-03
7.70910256410256e-01 6.74947046206527e-01 7.75325752686470e-03
7.74935897435897e-01 6.68979989198895e-01 7.70475130045836e-03
7.78961538461538e-01 6.63065685617860e-01 7.65644522691822e-03
7.82987179487180e-01 6.57203669082080e-01 7.60834040933466e-03
7.87012820512821e-01 6.51393477333393e-01 7.56043789960125e-03
7.91038461538462e-01 6.45634652200353e-01 7.51273869958355e-03
7.95064102564103e-01 6.39926739562108e-01 7.46524376226384e-03
7.99089743589744e-01 6.34269289312590e-01 7.41795399286113e-03
8.03115384615385e-01 6.28661855325018e-01 7.37087024992600e-03
8.07141025641026e-01 6.23103995416717e-01 7.32399334641118e-03
8.11166666666667e-01 6.17595271314253e-01 7.27732405071936e-03
8.15192307692308e-01 6.12135248618870e-01 7.23086308772925e-03
8.19217948717949e-01 6.06723496772235e-01 7.18461113979729e-03
8.23243589743590e-01 6.01359589022485e-01 7.13856884774055e-03
8.27269230769231e-01 5.96043102390576e-01 7.09273681179681e-03
8.31294871794872e-01 5.90773617636928e-01 7.04711559256369e-03
8.35320512820513e-01 5.85550719228366e-01 7.00170571191863e-03
8.39346153846154e-01 5.80373995305350e-01 6.95650765391942e-03
8.43371794871795e-01 5.75243037649500e-01 6.91152186568526e-03
8.47397435897436e-01 5.70157441651404e-01 6.86674875825773e-03
8.51423076923077e-01 5.65116806278711e-01 6.82218870744522e-03
8.55448717948718e-01 5.60120734044510e-01 6.77784205464952e-03
8.59474358974359e-01 5.55168830975983e-01 6.73370910767342e-03
8.63500000000000e-01 5.50260706583337e-01 6.68979014319437e-03
8.67525641025641e-01 5.45395973823738e-01 6.64608540245980e-03
8.71551282051282e-01 5.40574249086735e-01 6.60259509544460e-03
8.75576923076923e-01 5.35795152147943e-01 6.55931940505697e-03
8.79602564102564e-01 5.31058306144458e-01 6.51625848265025e-03
8.83628205128205e-01 5.26363337545136e-01 6.47341245048504e-03
8.87653846153846e-01 5.21709876121138e-01 6.43078140242558e-03
8.91679487179487e-01 5.17097554916738e-01 6.38836540462221e-03
8.95705128205128e-01 5.12526010220382e-01 6.34616449618016e-03
8.99730769230769e-01 5.07994881536012e-01 6.30417868981236e-03
9.03756410256410e-01 5.03503811554634e-01 6.26240797248055e-03
9.07782051282051e-01 4.99052446126144e-01 6.22085230602324e-03
9.11807692307692e-01 4.94640434231400e-01 6.17951162776898e-03
9.15833333333333e-01 4.90267427954543e-01 6.13838585113768e-03
9.19858974358974e-01 4.85933082455560e-01 6.09747486622997e-03
9.23884615384615e-01 4.81637055943094e-01 6.05677854040460e-03
9.27910256410256e-01 4.77379009647487e-01 6.01629671884245e-03
9.31935897435897e-01 4.73158607794071e-01 5.97602922509954e-03
9.35961538461539e-01 4.68975517576686e-01 5.93597586164952e-03
9.39987179487179e-01 4.64829409131436e-01 5.89613641041443e-03
9.44012820512821e-01 4.60719955510683e-01 5.85651063328433e-03
9.48038461538462e-01 4.56646832657255e-01 5.81709827262564e-03
9.52064102564103e-01 4.52609719378900e-01 5.77789905177971e-03
9.56089743589744e-01 4.48608297322956e-01 5.73891267555173e-03
9.60115384615385e-01 4.44642250951248e-01 5.70013883068911e-03
9.64141025641026e-01 4.40711267515199e-01 5.66157718634953e-03
9.68166666666667e-01 4.36815037031178e-01 5.62322739455970e-03
9.72192307692308e-01 4.32953252256048e-01 5.58508909066475e-03
9.76217948717949e-01 4.29125608662940e-01 5.54716189376886e-03
9.80243589743590e-01 4.25331804417240e-01 5.50944540716621e-03
9.84269230769231e-01 4.21571540352789e-01 5.47193921876284e-03
9.88294871794872e-01 4.17844519948286e-01 5.43464290149119e-03
9.92320512820513e-01 4.14150449303912e-01 5.39755601371480e-03
9.96346153846154e-01 4.10489037118149e-01 5.36067809962522e-03
1.00037179487179e+00 4.06859994664812e-01 5.32400869542384e-03
1.00439743589744e+00 4.03263035753394e-01 5.28754731106189e-03
1.00842307692308e+00 3.99697876760860e-01 5.25129344464622e-03
1.01244871794872e+00 3.96164236551097e-01 5.21524659472065e-03
1.01647435897436e+00 3.92661836473453e-01 5.17940624029083e-03
1.02050000000000e+00 3.89190400340769e-01 5.14377184841017e-03
1.02452564102564e+00 3.85749654407588e-01 5.10834287451995e-03
1.02855128205128e+00 3.82339327348574e-01 5.07311876277935e-03
1.03257692307692e+00 3.78959150237135e-01 5.03809894640205e-03
1.03660256410256e+00 3.75608856524197e-01 5.00328284798182e-03
1.04062820512821e+00 3.72288182017189e-01 4.96866989016920e-03
1.04465384615385e+00 3.68996864829589e-01 4.93425946467752e-03
1.04867948717949e+00 3.65734645449793e-01 4.90005095353598e-03
1.05270512820513e+00 3.62501266630463e-01 4.86604375073037e-03
1.05673076923077e+00 3.59296473398531e-01 4.83223723035262e-03
1.06075641025641e+00 3.56120013035089e-01 4.79863075767734e-03
1.06478205128205e+00 3.52971635055448e-01 4.76522368943417e-03
1.06880769230769e+00 3.49851091189414e-01 4.73201537407820e-03
1.07283333333333e+00 3.46758135361695e-01 4.69900515206693e-03
1.07685897435897e+00 3.43692523672501e-01 4.66619235612077e-03
1.08088461538462e+00 3.40654014378305e-01 4.63357632078183e-03
1.08491025641026e+00 3.37642367846687e-01 4.60115635456430e-03
1.08893589743590e+00 3.34657346616301e-01 4.56893175900695e-03
1.09296153846154e+00 3.31698715298698e-01 4.53690184807449e-03
1.09698717948718e+00 3.28766240586453e-01 4.50506591954112e-03
1.10101282051282e+00 3.25859691234757e-01 4.47342326491087e-03
1.10503846153846e+00 3.22978838043176e-01 4.44197316963365e-03
1.10906410256410e+00 3.20123453837600e-01 4.41071491332741e-03
1.11308974358974e+00 3.17293313452316e-01 4.37964777000603e-03
1.11711538461538e+00 3.14488193712253e-01 4.34877101673917e-03
1.12114102564103e+00 3.11707873392060e-01 4.31808390833024e-03
1.12516666666667e+00 3.08952133269137e-01 4.28758569460425e-03
1.12919230769231e+00 3.06220756035356e-01 4.25727563801608e-03
1.13321794871795e+00 3.03513526303763e-01 4.22715298763352e-03
1.13724358974359e+00 3.00830230591594e-01 4.19721698812674e-03
1.14126923076923e+00 2.98170657303435e-01 4.16746687995706e-03
1.14529487179487e+00 2.95534596714537e-01 4.13790189955351e-03
1.14932051282051e+00 2.92921840954292e-01 4.10852127949466e-03
1.15334615384615e+00 2.90332183989829e-01 4.07932424869001e-03
1.15737179487179e+00 2.87765421609769e-01 4.05031004014659e-03
1.16139743589744e+00 2.85221351387528e-01 4.02147786818979e-03
1.16542307692308e+00 2.82699772727584e-01 3.99282694398247e-03
1.16944871794872e+00 2.80200486786975e-01 3.96435649133452e-03
1.17347435897436e+00 2.77723296480666e-01 3.93606572330073e-03
1.17750000000000e+00 2.75268006466010e-01 3.90795385024363e-03
1.18152564102564e+00 2.72834423127332e-01 3.88002007998289e-03
1.18555128205128e+00 2.70422354560678e-01 3.85226361793929e-03
1.18957692307692e+00 2.68031610558674e-01 3.82468366728357e-03
1.19360256410256e+00 2.65662002595533e-01 3.79727942907993e-03
1.19762820512821e+00 2.63313343812181e-01 3.77005010925619e-03
1.20165384615385e+00 2.60985448983313e-01 3.74299489810036e-03
1.20567948717949e+00 2.58678134557816e-01 3.71611298420208e-03
1.20970512820513e+00 2.56391218588865e-01 3.68940356865714e-03
1.21373076923077e+00 2.54124520738189e-01 3.66286584400462e-03
1.21775641025641e+00 2.51877862261848e-01 3.63649900146435e-03
1.22178205128205e+00 2.49651065996132e-01 3.61030223105372e-03
1.22580769230769e+00 2.47443956343601e-01 3.58427472170558e-03
1.22983333333333e+00 2.45256359259236e-01 3.55841566138871e-03
1.23385897435897e+00 2.43088102236714e-01 3.53272423722026e-03
1.23788461538462e+00 2.40939014294800e-01 3.50719964172649e-03
1.24191025641026e+00 2.38808925947747e-01 3.48184105437695e-03
1.24593589743590e+00 2.36697669240640e-01 3.45664765411697e-03
1.24996153846154e+00 2.34605077687090e-01 3.43161863213827e-03
1.25398717948718e+00 2.32530986272578e-01 3.40675317291126e-03
1.25801282051282e+00 2.30475231441442e-01 3.38205046068565e-03
1.26203846153846e+00 2.28437651083974e-01 3.35750967958167e-03
1.26606410256410e+00 2.26418084523650e-01 3.33313001368463e-03
1.27008974358974e+00 2.24416372504450e-01 3.30891064714299e-03
